30, 0.0
31, 0.0
32, 0.0
33, 0.0
34, 0.0
35, 0.0
36, 0.0
37, 0.0
38, 0.0
39, 0.0
40, 0.0
41, 0.0
42, 0.0
43, 0.0
44, 0.0
45, 0.0
46, 0.0
47, 0.0
48, 0.0
49, 0.0
50, 0.0
51, 0.0
52, 0.0
53, 0.0
54, 0.0
55, 0.0
56, 0.0
57, 0.0
58, 0.0
59, 0.0
60, 0.0
61, 0.0
62, 0.0
63, 0.0
64, 0.0
65, 0.0
66, 0.0
67, 0.0
68, 0.0
69, 0.0
70, 0.0
71, 0.0
72, 0.0
73, 0.0
74, 0.0
75, 0.0
76, 0.0
77, 0.0
78, 0.0
79, 0.0
80, 0.0
81, 0.0
82, 0.0
83, 0.0
84, 0.0
85, 0.0
86, 0.0
87, 0.0
88, 0.0
89, 0.0
90, 0.0
91, 0.0
92, 0.0
93, 0.0
94, 0.0
95, 0.0
96, 0.0
97, 0.0
98, 0.0
99, 0.0
100, 0.0
101, 0.0
102, 0.0
103, 0.0
104, 0.0
105, 0.0
106, 0.0
107, 0.0
108, 0.0
109, 0.0
110, 0.0
111, 0.0
112, 0.0
113, 0.0
114, 0.0
115, 0.0
116, 0.0
117, 0.0
118, 0.0
119.0, 0.0022949165861843746
120.0, 0.0029952785563818183
121.0, 0.0035060926434028437
122.0, 0.004783104130484782
123.0, 0.003156356782506436
124.0, 0.006257544875308306
125.0, 0.003604889642993169
126.0, 0.002053971285220239
127.0, 0.0031451927639812487
128.0, 0.0008031060606142489
129.0, 0.0032476268035168815
130.0, 0.0033778526642132033
131.0, 0.003952587388211992
132.0, 0.004707639303430439
133.0, 0.0040092995186967895
134.0, 0.0019592026526271014
135.0, 0.006416821767066224
136.0, 0.007301751889295189
137.0, 0.007009179543304435
138.0, 0.009290828713836134
139.0, 0.014690057088206712
140.0, 0.016721256904635773
141.0, 0.016226794229288886
142.0, 0.017649180859055993
143.0, 0.019461806928586893
144.0, 0.015244928894432252
145.0, 0.020126957225678317
146.0, 0.024456249209494744
147.0, 0.02551588830816735
148.0, 0.025379596301816583
149.0, 0.028196808304490235
150.0, 0.03863942429567335
151.0, 0.046578733829893595
152.0, 0.046284370160455474
153.0, 0.04690736797831587
154.0, 0.05166746666740185
155.0, 0.051025109060374094
156.0, 0.04746041134021929
157.0, 0.04463881011666874
158.0, 0.04354193398173871
159.0, 0.04420294683383629
160.0, 0.04608464553417033
161.0, 0.049401325289242584
162.0, 0.05087766675805118
163.0, 0.05077790861053693
164.0, 0.048847516993629644
165.0, 0.04682469944832927
166.0, 0.051103714513753604
167.0, 0.04884255008094401
168.0, 0.04625146611563491
169.0, 0.04681203573833745
170.0, 0.04843973452768556
171.0, 0.045318235500966794
172.0, 0.0425941737534875
173.0, 0.040907251036350685
174.0, 0.039040806764612065
175.0, 0.039254455085586636
176.0, 0.0422271925728712
177.0, 0.04085387967610246
178.0, 0.04040647947806706
179.0, 0.039515682365254746
180.0, 0.03915585699763459
181.0, 0.03840816913741456
182.0, 0.034880840483944624
183.0, 0.03651590700434998
184.0, 0.03823681519220146
185.0, 0.03730241987791217
186.0, 0.034546051833342105
187.0, 0.03334704015826995
188.0, 0.04105940656571877
189.0, 0.04300895682654312
190.0, 0.04553456799443247
191.0, 0.04699773785269388
192.0, 0.04867643307417159
193.0, 0.0549610067482327
194.0, 0.05613350652097503
195.0, 0.06367660395249648
196.0, 0.07158003012926037
197.0, 0.07819748471035662
198.0, 0.08517759587379546
199.0, 0.09946372698771869
200.0, 0.11022136835591861
201.0, 0.12286810562306338
202.0, 0.13695772840156809
203.0, 0.15208503975135262
204.0, 0.16838623060461164
205.0, 0.18514433417110135
206.0, 0.20259917525630533
207.0, 0.22563883916690805
208.0, 0.254723599707407
209.0, 0.2882292267549168
210.0, 0.3236881794496692
211.0, 0.36887246427280623
212.0, 0.417440037479452
213.0, 0.4666439789871069
214.0, 0.5165075936537803
215.0, 0.568874038203957
216.0, 0.6201962295343114
217.0, 0.6641092450897303
218.0, 0.7026200733876597
219.0, 0.7415005891054862
220.0, 0.7785473851761157
221.0, 0.7923116285692862
222.0, 0.8026663294914006
223.0, 0.8018226080812588
224.0, 0.789017221810908
225.0, 0.7649832870403027
226.0, 0.7324187773813224
227.0, 0.6996708812777845
228.0, 0.6621052278091593
229.0, 0.6138962162330753
230.0, 0.567555345309631
231.0, 0.5307616901515644
232.0, 0.4982838165199956
233.0, 0.47224504790394417
234.0, 0.45355430907230804
235.0, 0.43837909183692164
236.0, 0.4265861925900096
237.0, 0.41911233461443276
238.0, 0.41479597605655427
239.0, 0.4142873429096469
240.0, 0.4183509086175629
241.0, 0.423077537649159
242.0, 0.42571825539988795
243.0, 0.42574634049623333
244.0, 0.42645615356124905
245.0, 0.42676065024310217
246.0, 0.4246408595931041
247.0, 0.42065109284398705
248.0, 0.4167747295558376
249.0, 0.4161324775455205
250.0, 0.4025938799227045
251.0, 0.38756642453811474
252.0, 0.3798529727356166
253.0, 0.37459642597559234
254.0, 0.36245822908571323
255.0, 0.34839847712295824
256.0, 0.3391476580419859
257.0, 0.3392229523829698
258.0, 0.3412812157651803
259.0, 0.340917255252772
260.0, 0.33845424364470483
261.0, 0.32958280746505303
262.0, 0.3284459518910511
263.0, 0.3275751323553171
264.0, 0.32655422297584075
265.0, 0.32649172981347374
266.0, 0.3276253998700382
267.0, 0.3299749974935985
268.0, 0.32889592486213143
269.0, 0.3278405618175498
270.0, 0.32296041957432703
271.0, 0.31073743090778416
272.0, 0.30273487558809775
273.0, 0.29294365936389843
274.0, 0.28187226477384036
275.0, 0.26889566396228637
276.0, 0.2548777852566384
277.0, 0.24153472801848289
278.0, 0.22662704183958846
279.0, 0.20791762051156468
280.0, 0.19175745495393628
281.0, 0.18056029401211757
282.0, 0.1703951953567104
283.0, 0.15099150947626394
284.0, 0.13878225697590135
285.0, 0.12472769485002347
286.0, 0.11022250312374307
287.0, 0.09831252750546077
288.0, 0.0899047984489964
289.0, 0.07977558712621641
290.0, 0.07668004632905437
291.0, 0.06881224472483723
292.0, 0.059972096581260716
293.0, 0.053002926802291093
294.0, 0.04813927503198096
295.0, 0.039427277705269284
296.0, 0.03516537666837239
297.0, 0.027119494185999588
298.0, 0.022870851434227693
299.0, 0.02335648308579098
300.0, 0.022843829526008788
301.0, 0.019687037812276816
302.0, 0.02366793435430899
303.0, 0.026871043026166927
304.0, 0.030230862264872566
305.0, 0.035223200769584656
306.0, 0.0420032695473596
307.0, 0.05143086326560444
308.0, 0.055435246020508075
309.0, 0.06265534323451954
310.0, 0.07000804280421273
311.0, 0.07436333897615188
312.0, 0.07824489465490074
313.0, 0.08065500993635934
314.0, 0.08034998079359375
315.0, 0.07996719528705926
316.0, 0.07858697968274128
317.0, 0.07526204341753999
318.0, 0.07232650754287782
319.0, 0.06478611458409912
320.0, 0.06105231833050217
321.0, 0.05797466039132067
322.0, 0.05305165713507464
323.0, 0.046921192992595014
324.0, 0.047961929641231915
325.0, 0.043288617542522154
326.0, 0.04309509808345235
327.0, 0.043713123289997706
328.0, 0.04246218149265519
329.0, 0.03984382626561856
330.0, 0.04382274801630649
331.0, 0.04338925583766821
332.0, 0.044440329454925924
333.0, 0.044215058587671316
334.0, 0.04280778115455482
335.0, 0.04230086175806606
336.0, 0.038658212506636966
337.0, 0.03627381463394324
338.0, 0.03791283848834211
339.0, 0.039283159654348636
340.0, 0.0405307337636404
341.0, 0.04577656466451234
342.0, 0.049924871671130536
343.0, 0.05483528024618514
344.0, 0.05950682699873594
345.0, 0.06441054932704658
346.0, 0.07063720629847368
347.0, 0.07895601649913211
348.0, 0.08454969494081531
349.0, 0.09050986583454192
350.0, 0.09991151775349168
351.0, 0.11305781483683716
352.0, 0.12455200447364898
353.0, 0.12714902755059665
354.0, 0.15537916006992034
355.0, 0.17401263810698003
356.0, 0.1966183986537683
357.0, 0.22449974895152164
358.0, 0.25499668828778166
359.0, 0.28512420287158985
360.0, 0.32323421428028154
361.0, 0.37236378708876494
362.0, 0.42704834096870237
363.0, 0.4860756578757085
364.0, 0.5496107127125953
365.0, 0.6179752082650302
366.0, 0.6861030161461462
367.0, 0.755956944484442
368.0, 0.8206666580824146
369.0, 0.8743070805679123
370.0, 0.918621766902215
371.0, 0.9632928248945521
372.0, 0.9951316307346499
373.0, 0.9998838136315407
374.0, 0.9939840054746174
375.0, 0.9715352556827703
376.0, 0.9316732382403649
377.0, 0.8852934384201757
378.0, 0.8202379775889866
379.0, 0.7528780198981353
380.0, 0.6839260919327507
381.0, 0.6192179253584535
382.0, 0.5625414784544741
383.0, 0.5126216897341928
384.0, 0.46160944088456013
385.0, 0.4274342547395964
386.0, 0.3988039748397401
387.0, 0.3712077855420672
388.0, 0.34767541120235673
389.0, 0.3359856194201877
390.0, 0.3269160207641115
391.0, 0.31918184179745435
392.0, 0.31329182801368155
393.0, 0.3088097254713153
394.0, 0.3077053298931145
395.0, 0.3119788806175477
396.0, 0.3070085996700683
397.0, 0.31304897722023123
398.0, 0.3221942441528474
399.0, 0.3271833884128228
400.0, 0.3285704095958633
401.0, 0.33180404075905245
402.0, 0.330800208139086
403.0, 0.33134086322785566
404.0, 0.3293560049007795
405.0, 0.32412228115225383
406.0, 0.3170788318747389
407.0, 0.3101981775071196
408.0, 0.3023668000314997
409.0, 0.2941576842004301
410.0, 0.2816490593838088
411.0, 0.2674483016986836
412.0, 0.25143131651661177
413.0, 0.2335833053861591
414.0, 0.22007756873286718
415.0, 0.19709370082944955
416.0, 0.17874708395183395
417.0, 0.1609955755294366
418.0, 0.14286867277596405
419.0, 0.1253031734353009
420.0, 0.10917347266802044
421.0, 0.09945752836170174
422.0, 0.08014807233191522
423.0, 0.06897491139319502
424.0, 0.05971020730241806
425.0, 0.04634729864614515
426.0, 0.03802940627960912
427.0, 0.03105621158105881
428.0, 0.025218300532917313
429.0, 0.019317937848551445
430.0, 0.01619075984319131
431.0, 0.014349340227851008
432.0, 0.007535488699981881
433.0, 0.002779661997789738
434.0, 0.0018178498704229686
435.0, 0.002913088259596979
436.0, 0.00468814509417581
437.0, 0.005782949956703055
438.0, 0.005114800457874391
439.0, 0.0022620485399123635
440.0, 0.010025273701508412
441.0, 0.008496226864495873
442.0, 0.00978775027294613
443.0, 0.013009984003924833
444.0, 0.010444304009795544
445.0, 0.0045715261512661665
446.0, 0.004860147959646412
447.0, 0.008327536175140145
448.0, 0.011389307423204948
449.0, 0.011287738918463214
450.0, 0.00811827924511522
451.0, 0.005939815579777808
452.0, 0.0068230393616078135
453.0, 0.0075887328306010575
454.0, 0.007145357785789211
455.0, 0.007323639155790346
456.0, 0.008318243671507094
457.0, 0.008199413329640543
458.0, 0.010418233141137068
459.0, 0.008699992797696366
460.0, 0.004688145973298434
461.0, 0.0028093837321710993
462.0, 0.002934163611187627
463.0, 0.0031299293066917658
464.0, 0.008932571480884331
465.0, 0.012787760208283845
466.0, 0.01817360751185977
467.0, 0.02775176260444889
468.0, 0.034685411467856246
469.0, 0.03844505931570077
470.0, 0.05700705018730728
471.0, 0.059413869419068434
472.0, 0.06516981409869649
473.0, 0.06826502951741584
474.0, 0.06671329941795302
475.0, 0.06353959402643877
476.0, 0.0645997023696022
477.0, 0.06666814838776931
478.0, 0.05842676017295894
479.0, 0.05875111012967545
480.0, 0.05895329793990295
481.0, 0.05434431406258398
482.0, 0.04616989709347875
483.0, 0.03639852501450329
484.0, 0.034224464492234444
485.0, 0.032703560173675206
486.0, 0.027429566454686607
487.0, 0.023568699359462132
488.0, 0.02556443330393065
489.0, 0.02994185162823281
490.0, 0.02700060869231619
491.0, 0.02858835857337904
492.0, 0.034574173160396224
493.0, 0.04268366099174776
494.0, 0.05325990095863574
495.0, 0.06778889621660332
496.0, 0.08195125138597883
497.0, 0.09976716916584703
498.0, 0.11952718991310378
499.0, 0.13935171169899385
500.0, 0.15631397581532377
501.0, 0.1720143189938342
502.0, 0.19512403797528788
503.0, 0.2158551868024684
504.0, 0.23318365525032458
505.0, 0.24544403406400575
506.0, 0.257178323804359
507.0, 0.26603851214501145
508.0, 0.26743342806755993
509.0, 0.2789283911377429
510.0, 0.27645813255620333
511.0, 0.2690002210845235
512.0, 0.2553533704181142
513.0, 0.244002094210455
514.0, 0.23773164112994732
515.0, 0.2223562367307843
516.0, 0.20441979665357424
517.0, 0.19747384778841437
518.0, 0.19144477855389727
519.0, 0.17880780524492287
520.0, 0.1627429738484547
521.0, 0.15220323344599523
522.0, 0.1441070964325854
523.0, 0.1297731687692656
524.0, 0.12184692663779025
525.0, 0.11381207897271504
526.0, 0.10371917319946398
527.0, 0.0932826754522735
528.0, 0.08590256437988376
529.0, 0.08539634975820973
530.0, 0.08058892360845214
531.0, 0.08005693603946146
532.0, 0.0745129692049847
533.0, 0.06581448893436295
534.0, 0.06313710142103864
535.0, 0.06617417933968497
536.0, 0.059142088403628966
537.0, 0.0555561655545431
538.0, 0.052104286166894574
539.0, 0.04887547305673797
540.0, 0.046882492745967154
541.0, 0.046195789763186536
542.0, 0.043872063559550756
543.0, 0.04095320234649321
544.0, 0.03704594005551772
545.0, 0.03353716821154568
546.0, 0.031017594706244614
547.0, 0.02839587246449125
548.0, 0.02311995423717765
549.0, 0.018597158284270023
550.0, 0.020320048360947824
551.0, 0.01556753906467562
552.0, 0.010232818892413887
553.0, 0.009743383734655896
554.0, 0.012909085224701942
555.0, 0.010634537614130024
556.0, 0.00795996751252443
557.0, 0.002518829187926992
558.0, 0.0030913496138512664
559.0, 0.004035704420532726
560.0, 0.0037509954211352864
561.0, 0.007564483466960177
562.0, 0.004259310599854196
563.0, 0.004889251646950902
564.0, 0.008706084062452251
565.0, 0.007343496227491843
566.0, 0.004165909558634981
567.0, 0.0031459652281229915
568.0, 0.0008175667227385401
569.0, 0.005867303049163601
570.0, 0.0025267251509299
571.0, 0.002383631196670369
572.0, 0.0035010930274195474
573.0, 0.0038665021255158273
574.0, 0.0038465552918912674
575.0, 0.005842222420884334
576.0, 0.006961379028064042
577.0, 0.009373853353288499
578.0, 0.009239623705370481
579.0, 0.009109532481282072
580.0, 0.010784557654130814
581.0, 0.012623523699574342
582.0, 0.009224044086699246
583.0, 0.010076054482779316
584.0, 0.013584673914714884
585.0, 0.010970225081001312
586.0, 0.008594461010064914
587.0, 0.011438525704244381
588.0, 0.015702380519925754
589.0, 0.009224232144824252
590.0, 0.015002099944227718
591.0, 0.011320395661610905
592.0, 0.012037185552248078
593.0, 0.016884107288063062
594.0, 0.01748904659392824
595.0, 0.008384333020238896
596.0, 0.007747202598911009
597.0, 0.006942502763409446
598.0, 0.011069647818082463
599.0, 0.0075931847728065655
600.0, 0.003396992119147473
601.0, 0.005077855460316372
602.0, 0.006488069689134009
603.0, 0.0030794685937823216
604.0, 0.006826237111725926
605.0, 0.006922696066559947
606.0, 0.009600287319426441
607.0, 0.01099775417970001
608.0, 0.00834266642242502
609.0, 0.008150138849516472
610.0, 0.012305736617067742
611.0, 0.01407318137179242
612.0, 0.012494091985948056
613.0, 0.009700398639876819
614.0, 0.010969235782715154
615.0, 0.01752334879780206
616.0, 0.022914177912238466
617.0, 0.025582891500032755
618.0, 0.024134460858370076
619.0, 0.029915103876752284
620.0, 0.03468551532931098
621.0, 0.03843421008906229
622.0, 0.04500431305343874
623.0, 0.05422359979123688
624.0, 0.05904924321808652
625.0, 0.06645954964072331
626.0, 0.0728194069766021
627.0, 0.08021292725151377
628.0, 0.08698137427211064
629.0, 0.09250987881963998
630.0, 0.10133826705062787
631.0, 0.11870873795033826
632.0, 0.1291012495485748
633.0, 0.14720845677003536
634.0, 0.16556511536474058
635.0, 0.18047189527524013
636.0, 0.1936921658160578
637.0, 0.20918884248907688
638.0, 0.2245073691839557
639.0, 0.2338337573721606
640.0, 0.24582406046661454
641.0, 0.25779171961097586
642.0, 0.2660925687004544
643.0, 0.2706949927987063
644.0, 0.27469484021280627
645.0, 0.2735296220022029
646.0, 0.2703648532222968
647.0, 0.2611782606591336
648.0, 0.25202270233464447
649.0, 0.24453681187047838
650.0, 0.23591528162916006
651.0, 0.22312835326076674
652.0, 0.21210799571716984
653.0, 0.20203283731688096
654.0, 0.1812894541961132
655.0, 0.1683722375323435
656.0, 0.1587380090902268
657.0, 0.14552507668855968
658.0, 0.13064639482885093
659.0, 0.1236485689885283
660.0, 0.09901691060281459
661.0, 0.09446560056721211
662.0, 0.08468621174923524
663.0, 0.07278936350550258
664.0, 0.06454734239294331
665.0, 0.0584380440342118
666.0, 0.04724556277248082
667.0, 0.04959930927232139
668.0, 0.04216725291028112
669.0, 0.03794004479623604
670.0, 0.031622368253598994
671.0, 0.02735087252284654
672.0, 0.028278540741373575
673.0, 0.02453254678302727
674.0, 0.023543178326538
675.0, 0.026935559179695735
676.0, 0.023123826502727107
677.0, 0.02280569720552172
678.0, 0.02365665994683007
679.0, 0.023388753536947183
680.0, 0.026961699874226547
681.0, 0.028885767877867178
682.0, 0.029060521666860416
683.0, 0.03270592342021983
684.0, 0.03844775521826087
685.0, 0.04178586523895419
686.0, 0.045062109550684154
687.0, 0.05292871834613423
688.0, 0.05715094563834107
689.0, 0.06977267041223241
690.0, 0.07459257946483702
691.0, 0.08417251583701293
692.0, 0.099009213740135
693.0, 0.11407835584354735
694.0, 0.12852365289008294
695.0, 0.14995764728214533
696.0, 0.1676635793768064
697.0, 0.19086389997584
698.0, 0.22051341799064755
699.0, 0.2488345285510824
700.0, 0.27422561147972513
701.0, 0.3017102947753353
702.0, 0.3361324383999532
703.0, 0.36835197739465025
704.0, 0.4096769245925437
705.0, 0.43725647025073605
706.0, 0.4564586998153196
707.0, 0.4633289959481141
708.0, 0.46722321581052456
709.0, 0.4755042865014331
710.0, 0.4683676358127613
711.0, 0.46010780687836333
712.0, 0.44025091896559776
713.0, 0.41520015861904525
714.0, 0.3897538572801219
715.0, 0.3676208251989436
716.0, 0.340955814235401
717.0, 0.3000514309160957
718.0, 0.28115397228235794
719.0, 0.25648502780230364
720.0, 0.23730488912532888
721.0, 0.21433257695017416
722.0, 0.19369010856546653
723.0, 0.17676286291997056
724.0, 0.16116563442767767
725.0, 0.1505650389136605
726.0, 0.13440834315560912
727.0, 0.13166795124689487
728.0, 0.1252453503814733
729.0, 0.1213246286384152
730.0, 0.11523816747058949
731.0, 0.11032684953188579
732.0, 0.11560091588167723
733.0, 0.10494977854867418
734.0, 0.10514633508676072
735.0, 0.1069482724425013
736.0, 0.10698080680787854
737.0, 0.10839964320114123
738.0, 0.11075059080843089
739.0, 0.11287661523596099
740.0, 0.11809753863136123
741.0, 0.12827449998865226
742.0, 0.1341623988527107
743.0, 0.13787347822245352
744.0, 0.14071962836281143
745.0, 0.14331919701679294
746.0, 0.14662825670501614
747.0, 0.14982004601222673
748.0, 0.14788044495058983
749.0, 0.14872860345741304
750.0, 0.14229300141794837
751.0, 0.1333699317838116
752.0, 0.12313863186830455
753.0, 0.11616108015918584
754.0, 0.11036342600468559
755.0, 0.09880562981196656
756.0, 0.09058228232320806
757.0, 0.08318107865921909
758.0, 0.07375644996974896
759.0, 0.06636240706246616
760.0, 0.058571188478672216
761.0, 0.05020820085849165
762.0, 0.043251064866349886
763.0, 0.038959148305736296
764.0, 0.03630034061535296
765.0, 0.026065714895902696
766.0, 0.027278638503350574
767.0, 0.024433617440901893
768.0, 0.02177286514885858
769.0, 0.019479109991659898
770.0, 0.015310790908445655
771.0, 0.014027652955837374
772.0, 0.013193262990639375
773.0, 0.008104144313834081
774.0, 0.00644455488648615
775.0, 0.007388655708032464
776.0, 0.007860486568121017
777.0, 0.006898648401248833
778.0, 0.00632056130787363
779.0, 0.007587365343208698
780.0, 0.0034290202053095836
781.0, 0.0058297136634069945
782.0, 0.0038958967250549087
783.0, 0.005122471452724623
784.0, 0.005510814151290108
785.0, 0.005146858870978804
786.0, 0.006968443208362901
787.0, 0.004417741959117797
788.0, 0.0005240543912028869
789.0, 0.004686870786906341
790.0, 0.003191079738595451
791.0, 0.004428476793415569
792.0, 0.005104502654864254
793.0, 0.0048126900513904315
794.0, 0.005678505755242376
795.0, 0.0013858168239218203
796.0, 0.006860108370040634
797.0, 0.006402267541910364
798.0, 0.0026111632867276587
799.0, 0.0015079220249870277
800.0, 0.003033385563146823
801.0, 0.0033023484399858994
802.0, 0.0013334817736743688
803.0, 0.0030955925429244752
804.0, 0.0022383424035202597
805.0, 0.0012382032166962358
806.0, 0.0009469615913207053
807.0, 0.0008072440868568105
808.0, 0.00040611059891760426
809.0, 0.0013644641301859464
810.0, 0.0034129462504356124
811.0, 0.0012008132689682548
812.0, 0.0011617680394921074
813.0, 0.0018227385757452078
814.0, 0.003008662817035308
815.0, 0.0035503074230975396
816.0, 0.002901588073869627
817.0, 0.0027107054706334848
818.0, 0.004249127880457676
819.0, 0.005156694324809235
820.0, 0.0014740271460882085
821.0, 0.005705254969062556
822.0, 0.0058528915254627365
823.0, 0.006124263960871662
824.0, 0.005544392489721051
825.0, 0.002987174301124888
826.0, 0.0014296807884856975
827.0, 0.0051699563041087615
828.0, 0.006173030411403574
829.0, 0.0016985322787260106
830.0, 0.005455950066183608
831.0, 0.003434566360977589
832.0, 0.002547372608970538
833.0, 0.0020372790568397208
834.0, 0.0005129664383478899
835.0, 0.00169480932576881
836.0, 0.00368279365361292
837.0, 0.005951050775174882
838.0, 0.0038870194782866007
839.0, 0.0013806319615514843
840.0, 0.00025399758296950546
841.0, 0.00011801144960874294
842.0, 0.000332721304194252
843.0, 0.0010814332024059589
844.0, 0.0025873585481231984
845.0, 0.002075653181521882
846.0, 0.0036860199368757935
847.0, 0.007101330759323935
848.0, 0.008606912345606899
849.0, 0.007326863740760064
850.0, 0.008103311912135118
851.0, 0.009549033337355625
852.0, 0.0025870638668148904
853.0, 0.003687190185522445
854.0, 0.003451776465153506
855.0, 0.007822889552796091
856.0, 0.006450164023531622
857.0, 0.006985701364356726
858.0, 0.007852470390743188
859.0, 0.00797645820022691
860.0, 0.011428733663460802
861.0, 0.015615994877019883
862.0, 0.009160157405426403
863.0, 0.005953372773826251
864.0, 0.007129301264778117
865.0, 0.0073244910404558754
866.0, 0.009112526242886481
867.0, 0.01127551472947651
868.0, 0.010723136005029032
869.0, 0.009150459061488203
870.0, 0.008018287283477596
871.0, 0.007264738595017477
872.0, 0.005972557777898997
873.0, 0.005495983010899455
874.0, 0.005362429624300612
875.0, 0.0053623151404445036
876.0, 0.0068497624584391275
877.0, 0.008619830674197197
878.0, 0.004051680294857637
879.0, 0.005857786238863341
880.0, 0.010971247071405175
881.0, 0.003092438838234164
882.0, 0.004527256331046562
883.0, 0.009731257384956414
884.0, 0.009931593314205008
885.0, 0.007019520108606571
886.0, 0.008275065687293788
887.0, 0.008646379999838638
888.0, 0.01166762511760477
889.0, 0.012951003344422646
890.0, 0.01502846923902503
891.0, 0.013032292144226276
892.0, 0.008229127248290627
893.0, 0.003610999123381241
894.0, 0.0029380001784278364
895.0, 0.008468679214289945
896.0, 0.009273936338020107
897.0, 0.01179175220128872
898.0, 0.008831102857555359
899.0, 0.009884698069922418
900.0, 0.007841758849137282
901.0, 0.005326130499828663
902.0, 0.006593428263406775
903.0, 0.009794905984510742
904.0, 0.010159332851389324
905.0, 0.011893547092432014
906.0, 0.014943862012042754
907.0, 0.012476694132246223
908.0, 0.010036208682801577
909.0, 0.010252242531824121
910.0, 0.0108277777964462
911.0, 0.011142519361877937
912.0, 0.01169463525106737
913.0, 0.009236160749670774
914.0, 0.009475359530683198
915.0, 0.011086225469346251
916.0, 0.008982293216845605
917.0, 0.014845248939614166
918.0, 0.01744192905555752
919.0, 0.01854016410874421
920.0, 0.01922930234092241
921.0, 0.01645169162068708
922.0, 0.017340300413775333
923.0, 0.017804732981457894
924.0, 0.015188465792956017
925.0, 0.017687170867698863
926.0, 0.018854840495789033
927.0, 0.01867776098485064
928.0, 0.016531928415076516
929.0, 0.01505824408900436
930.0, 0.016812260815601648
931.0, 0.017194196416806033
932.0, 0.01917669800029505
933.0, 0.018039097832458512
934.0, 0.020020754375213185
935.0, 0.020737663790574772
936.0, 0.02212238391034984
937.0, 0.02440883300937349
938.0, 0.026709227186398017
939.0, 0.027806591370688787
940.0, 0.02680349324797131
941.0, 0.027904858793907715
942.0, 0.026907003057215835
943.0, 0.030052943617777696
944.0, 0.030062990116312176
945.0, 0.02873877122240707
946.0, 0.032937058234252956
947.0, 0.03801437081685507
948.0, 0.03994325741536316
949.0, 0.04533733385970947
950.0, 0.0408295400763513
951.0, 0.04637656895994597
952.0, 0.0509851784386521
953.0, 0.052751370582630935
954.0, 0.05678118381818643
955.0, 0.05966858591617777
956.0, 0.06186935285447602
957.0, 0.06424008782461131
958.0, 0.06706755625579632
959.0, 0.07854843635983792
960.0, 0.07633470455479953
961.0, 0.08021758147962371
962.0, 0.08486129063413532
963.0, 0.0864645624282337
964.0, 0.08530901704414275
965.0, 0.08899093221130032
966.0, 0.0972211071655378
967.0, 0.10101698916737054
968.0, 0.09972718829736629
969.0, 0.10701012981259447
970.0, 0.10801015627719572
971.0, 0.11086652833853122
972.0, 0.11155690981673623
973.0, 0.11018189665191933
974.0, 0.1088106189642349
975.0, 0.11178600884233053
976.0, 0.11931172189347702
977.0, 0.12398606525747789
978.0, 0.11996770315896181
979.0, 0.1186146338949643
980.0, 0.11151942064773458
981.0, 0.11307603501243144
982.0, 0.11483094404094386
983.0, 0.1134491833990994
984.0, 0.11331048010239274
985.0, 0.1144062351535779
986.0, 0.11328201691542084
987.0, 0.11287298876428332
988.0, 0.11465280934042918
989.0, 0.1081395314634082
990.0, 0.11001220431529901
991.0, 0.11121914069557015
992.0, 0.10731137923668885
993.0, 0.10534712158513516
994.0, 0.10850975670205935
995.0, 0.11192419431105681
996.0, 0.11134879974149925
997.0, 0.11099748158421179
998.0, 0.10852018091759146
999.0, 0.10705563306377798
1000.0, 0.10367160614221448
1001.0, 0.10596071347125144
1002.0, 0.1029817344753455
1003.0, 0.09846351033562749
1004.0, 0.09707538716177941
1005.0, 0.09509112746089957
1006.0, 0.08872042084724462
1007.0, 0.08622913526744266
1008.0, 0.08510131477191607
1009.0, 0.07849105230489661
1010.0, 0.082366237831519
1011.0, 0.08136967371571144
1012.0, 0.074427522931766
1013.0, 0.06966374069187031
1014.0, 0.07112696221428495
1015.0, 0.07395732300153338
1016.0, 0.07171223053469636
1017.0, 0.06711514854687453
1018.0, 0.06598420758752141
1019.0, 0.06623160831561392
1020.0, 0.06376169543830514
1021.0, 0.06399727120037703
1022.0, 0.06299982124997969
1023.0, 0.06197197018964966
1024.0, 0.06306914296365344
1025.0, 0.06389823036756147
1026.0, 0.061664423984071626
1027.0, 0.061195103939807795
1028.0, 0.05774306838597585
1029.0, 0.05571819469310915
1030.0, 0.05406318477755552
1031.0, 0.05247465506044185
1032.0, 0.05493214838372708
1033.0, 0.05417629767517751
1034.0, 0.05526827249775876
1035.0, 0.058191768535522444
1036.0, 0.05338858741828691
1037.0, 0.050323192986875445
1038.0, 0.049493092731217235
1039.0, 0.048180402842571635
1040.0, 0.04658201969120037
1041.0, 0.04903229185307522
1042.0, 0.04600011817416901
1043.0, 0.04688565786020754
1044.0, 0.04895888195300735
1045.0, 0.04702294562381562
1046.0, 0.045187446808005766
1047.0, 0.047416038665100836
1048.0, 0.05022711005930673
1049.0, 0.04439736313573118
1050.0, 0.04999272023588096
1051.0, 0.04818862284198641
1052.0, 0.0496744740648985
1053.0, 0.04860422204125939
1054.0, 0.05116308381633972
1055.0, 0.05597927944353038
1056.0, 0.057643621915092064
1057.0, 0.059974165498944236
1058.0, 0.06176583157085741
1059.0, 0.06066747809619204
1060.0, 0.06528229107331414
1061.0, 0.06750455500380678
1062.0, 0.06791844990554835
1063.0, 0.0723553800962282
1064.0, 0.07734643834771768
1065.0, 0.08030156286439928
1066.0, 0.08377097494792528
1067.0, 0.0876074596643699
1068.0, 0.0872508296665817
1069.0, 0.09363753620725099
1070.0, 0.10161730296600958
1071.0, 0.11285974229190496
1072.0, 0.11155923216485635
1073.0, 0.11792779661848289
1074.0, 0.13066758879536336
1075.0, 0.13570062653590814
1076.0, 0.13353306364573148
1077.0, 0.1348043095160038
1078.0, 0.1407411028241589
1079.0, 0.1438685802259004
1080.0, 0.1505698530814298
1081.0, 0.1527855966209172
1082.0, 0.15627594061328795
1083.0, 0.1609993342296549
1084.0, 0.1632874317127047
1085.0, 0.166270271259122
1086.0, 0.17046041056286926
1087.0, 0.17290079230208288
1088.0, 0.17232519754352446
1089.0, 0.17180336730865117
1090.0, 0.17415869875226755
1091.0, 0.17561749872318694
1092.0, 0.17623878710410731
1093.0, 0.17237646305244053
1094.0, 0.16589748530255216
1095.0, 0.16268526735169786
1096.0, 0.16200979130852797
1097.0, 0.15763544912971433
1098.0, 0.15190533182645696
1099.0, 0.14774960792879918
1100.0, 0.1414459599959154
1101.0, 0.1352548020449984
1102.0, 0.12903717290585334
1103.0, 0.12367112014671285
1104.0, 0.11907908228406047
1105.0, 0.11480531301450048
1106.0, 0.1100610796283583
1107.0, 0.10344490796179463
1108.0, 0.09774837230397067
1109.0, 0.09443314033290201
1110.0, 0.09134286756606143
1111.0, 0.08842683547486979
1112.0, 0.08879422537838996
1113.0, 0.08315765515876761
1114.0, 0.0792959408091338
1115.0, 0.08071124458155217
1116.0, 0.08170134791116933
1117.0, 0.08045101812300323
1118.0, 0.0812754444140196
1119.0, 0.08562292935998636
1120.0, 0.08636319061337402
1121.0, 0.08564894364038964
1122.0, 0.08824889618329887
1123.0, 0.0855420934237305
1124.0, 0.08032225375353173
1125.0, 0.07591692389328869
1126.0, 0.06756542922139715
1127.0, 0.06120781079781696
1128.0, 0.054051382982795486
1129.0, 0.045449827098171636
1130.0, 0.04187789845188671
1131.0, 0.04406790817997025
1132.0, 0.04430506268147142
1133.0, 0.04089245323557522
1134.0, 0.03874534747377722
1135.0, 0.03438253527933636
1136.0, 0.03257382701404854
1137.0, 0.035660033177597875
1138.0, 0.030762625504839446
1139.0, 0.02693026027757917
1140.0, 0.025613352931151204
1141.0, 0.022355324914839023
1142.0, 0.022424159538929532
1143.0, 0.0222633363961352
1144.0, 0.02145521230148316
1145.0, 0.021351602183526802
1146.0, 0.018637465036746563
1147.0, 0.018539780033154533
1148.0, 0.018355016040003887
1149.0, 0.0198504539934246
1150.0, 0.02005733263008781
1151.0, 0.016009649154016023
1152.0, 0.009720392804647635
1153.0, 0.006792663465132103
1154.0, 0.005594854965640765
1155.0, 0.004038578136315264
1156.0, 0.003985532004225187
1157.0, 0.006438313255901318
1158.0, 0.00838462547066692
1159.0, 0.008012622119938839
1160.0, 0.0038560028497578746
1161.0, 0.00836573541497231
1162.0, 0.0024073479443599537
1163.0, 0.0031256840752009315
1164.0, 0.0019415766167221837
1165.0, 0.0032368759270453113
1166.0, 0.001962253063118423
1167.0, 0.003219789935241033
1168.0, 0.003935742003484083
1169.0, 0.0027329890790395075
1170.0, 0.005803890239128146
1171.0, 0.0020027855485234307
1172.0, 0.0016962206939013795
1173.0, 0.001164386480174609
1174.0, 0.0014990328321248395
1175.0, 0.0028028450530062626
1176.0, 0.004326439956459877
1177.0, 0.001950763310449779
1178.0, 0.00030780435534167206
1179.0, 0.0024657162741087008
1180.0, 0.004990950050417312
1181.0, 0.004522150190626848
1182.0, 0.002234633184299282
1183.0, 0.0016299426228660288
1184.0, 0.005667826853840354
1185.0, 0.001981218272792438
1186.0, 0.003231729033998008
1187.0, 0.002163815531280835
1188.0, 0.002750617643243684
1189.0, 0.002933951731936825
1190.0, 0.0010283611322547638
1191.0, 0.0004598999300050133
1192.0, 0.001541979344332333
1193.0, 0.0022744014682702356
1194.0, 0.003052177267704235
1195.0, 0.004042827793946974
1196.0, 0.0024985307017257818
1197.0, 0.003886414477046665
1198.0, 0.009212068272108045
1199.0, 0.001330437506123368
1200.0, 0.0015691543199284083
1201.0, 0.0014992450075825873
1202.0, 0.0022591495163986953
1203.0, 0.0041291411952201155
1204.0, 0.003348905121352193
1205.0, 0.0036305432528843133
1206.0, 0.004008579326856204
1207.0, 0.002812125529604
1208.0, 0.003863729689015066
1209.0, 0.0033275934571413298
1210.0, 0.00230224317994261
1211.0, 0.002807389511407999
1212.0, 0.003732718740477528
1213.0, 0.005803163305694926
1214.0, 0.0052624397864708735
1215.0, 0.003872547206330843
1216.0, 0.004283625813849921
1217.0, 0.003780920279962897
1218.0, 0.003990281273014441
1219.0, 0.0048830694191729605
1220.0, 0.0041995621924434635
1221.0, 0.003191167460109939
1222.0, 0.00478503178526324
1223.0, 0.008261354980785928
1224.0, 0.006391252727269082
1225.0, 0.007265615708085708
1226.0, 0.013864691328761381
1227.0, 0.016738577702337606
1228.0, 0.02773418776177282
1229.0, 0.02786960548557091
1230.0, 0.03341358550481121
1231.0, 0.03680279087614389
1232.0, 0.029660056934125992
1233.0, 0.015164278804723218
1234.0, 0.006787669624859373
1235.0, 0.01096483811184828
1236.0, 0.005618172008224769
1237.0, 0.0067387251263116045
1238.0, 0.003758850527636913
1239.0, 0.0022379686086058063
1240.0, 0.002640419573903611
1241.0, 0.0011180699084941746
1242.0, 0.0077528565199037735
1243.0, 0.003923039760885454
1244.0, 0.0016421030265590705
1245.0, 0.003124873559756476
1246.0, 0.0035403099964437207
1247.0, 0.0019077942162331906
1248.0, 0.0018492584036283153
1249.0, 0.0047721098047686615
1250.0, 0.003707395103796569
1251.0, 0.009718970717907392
1252.0, 0.005714077606800691
1253.0, 0.002156277823928912
1254.0, 0.003727802358862354
1255.0, 0.004045566870768797
1256.0, 0.004160271458646392
1257.0, 0.003047721463138891
1258.0, 0.00226642178137819
1259.0, 0.002335799060551864
1260.0, 0.0024099454199060177
1261.0, 0.00363574887339574
1262.0, 0.004251526612288661
1263.0, 0.001845899589608624
1264.0, 0.0031913189695526763
1265.0, 0.004764784514742427
1266.0, 0.007595484580973493
1267.0, 0.0024888820613105677
1268.0, 0.00274159280425026
1269.0, 0.005060964850428715
1270.0, 0.0012149302082018637
1271.0, 0.004424358765386407
1272.0, 0.006423363720337854
1273.0, 0.0032973685491949666
1274.0, 0.0018790998404833751
1275.0, 0.0016220759336971066
1276.0, 0.0016598548222797492
1277.0, 0.003435660878267376
1278.0, 0.003051444246556497
1279.0, 0.006234139628449771
1280.0, 0.0068795918934981045
1281.0, 0.011888841788529413
1282.0, 0.011058911082661138
1283.0, 0.011564007778438346
1284.0, 0.012360075100675614
1285.0, 0.010921796049496536
1286.0, 0.008338248004333554
1287.0, 0.005808583803297509
1288.0, 0.0050513234514868695
1289.0, 0.004832591712108446
1290.0, 0.0057304014928907555
1291.0, 0.007335991839324085
1292.0, 0.008688514908575693
1293.0, 0.01221364416963046
1294.0, 0.015187233052279862
1295.0, 0.013869541670026204
1296.0, 0.00901593871077374
1297.0, 0.011443505788121606
1298.0, 0.014385841646759438
1299.0, 0.008795452771364695
1300.0, 0.010531951542608345
1301.0, 0.012382659063108245
1302.0, 0.01726408941765056
1303.0, 0.013288596157427387
1304.0, 0.009039654170368734
1305.0, 0.005904706197427447
1306.0, 0.002591292829702588
1307.0, 0.007650067595905383
1308.0, 0.01640783874709546
1309.0, 0.012907420864766279
1310.0, 0.009528217109591659
1311.0, 0.008762921848986548
1312.0, 0.004126481466906237
1313.0, 0.006531757896464508
1314.0, 0.003357422974794716
1315.0, 0.009382888269284524
1316.0, 0.006267535876406393
1317.0, 0.010398841500155707
1318.0, 0.01143261963950337
1319.0, 0.018703619423270753
1320.0, 0.015832449984384836
1321.0, 0.010983081072551129
1322.0, 0.012305568186006739
1323.0, 0.010081012873398517
1324.0, 0.006708218455423606
1325.0, 0.005993950882946688
1326.0, 0.007428988226030835
1327.0, 0.009157466082231846
1328.0, 0.009353663397285956
1329.0, 0.007954386608123915
1330.0, 0.012052997347613673
1331.0, 0.008164995431004083
1332.0, 0.008471270397118313
1333.0, 0.00984337910014507
1334.0, 0.006682058365248348
1335.0, 0.008734381230635435
1336.0, 0.01019389739832412
1337.0, 0.007328578863177996
1338.0, 0.0030746646403785913
1339.0, 0.004950520560416299
1340.0, 0.010166507870782342
1341.0, 0.009033680380543415
1342.0, 0.010168402830969852
1343.0, 0.00860311428149685
1344.0, 0.004793234486896995
1345.0, 0.0021361836957303278
1346.0, 0.0009548858613017344
1347.0, 0.011036533928479038
1348.0, 0.0075624369044041745
1349.0, 0.011265894620311242
1350.0, 0.006864706432479024
1351.0, 0.002960689625973518
1352.0, 0.006202907232732527
1353.0, 0.007951442779205255
1354.0, 0.00702147063154512
1355.0, 0.005703478069812099
1356.0, 0.0035165449863269293
1357.0, 0.0013921171174936134
1358.0, 0.0007147020946769038
1359.0, 0.0005625984435533608
1360.0, 0.0007606242563086809
1361.0, 0.0008175427824431808
1362.0, 0.00336103840571272
1363.0, 0.008721547238091001
1364.0, 0.009040838067634584
1365.0, 0.008848371699116245
1366.0, 0.0067679825745765925
1367.0, 0.013387281309547817
1368.0, 0.004931205400050984
1369.0, 0.009419298294580528
1370.0, 0.010022978467871903
1371.0, 0.007384237926732282
1372.0, 0.00818282022640225
1373.0, 0.008870730968488933
1374.0, 0.008399415794800634
1375.0, 0.008745165685792337
1376.0, 0.009319240660589926
1377.0, 0.009652323419021669
1378.0, 0.007263088759478422
1379.0, 0.006790381082634824
1380.0, 0.005172600272789676
1381.0, 0.0039017690288779315
1382.0, 0.007524566694149621
1383.0, 0.0066119969393407295
1384.0, 0.008796339247857768
1385.0, 0.008911423693604162
1386.0, 0.0022652687744106766
1387.0, 0.005030119374358527
1388.0, 0.011488347890488774
1389.0, 0.00815046135583745
1390.0, 0.005877117892640831
1391.0, 0.0045982884799585
1392.0, 0.005503253422552606
1393.0, 0.00541908520692032
1394.0, 0.005355331658125181
1395.0, 0.009638868283844138
1396.0, 0.006349470588159603
1397.0, 0.005674549957357848
1398.0, 0.004891280288910623
1399.0, 0.006374349667507782
1400.0, 0.013069276063408197
1401.0, 0.008241978758326003
1402.0, 0.010408228370523956
1403.0, 0.010267120990310985
1404.0, 0.006785405186988596
1405.0, 0.013826730906639887
1406.0, 0.017058024387618713
1407.0, 0.007162280022148299
1408.0, 0.005254478040356887
1409.0, 0.0030542661746381754
1410.0, 0.005272412510387705
1411.0, 0.006746773286639742
1412.0, 0.011511160621995045
1413.0, 0.015653380444320575
1414.0, 0.012036336524306326
1415.0, 0.0133148554954415
1416.0, 0.015393381705262735
1417.0, 0.010553442743910164
1418.0, 0.014673775983251477
1419.0, 0.014454457510616681
1420.0, 0.006920014432619654
1421.0, 0.004632226647881258
1422.0, 0.008540812196721077
1423.0, 0.013309093705791964
1424.0, 0.011036982932432486
1425.0, 0.014977839621230882
1426.0, 0.014991807235774245
1427.0, 0.017662352241897075
1428.0, 0.014740507503635578
1429.0, 0.016783718727597714
1430.0, 0.015658298775148752
1431.0, 0.016582035585987916
1432.0, 0.02245371861920065
1433.0, 0.030707071237796153
1434.0, 0.03366745912530542
1435.0, 0.030066783179115264
1436.0, 0.030207524089850175
1437.0, 0.033341732528088065
1438.0, 0.031926305304999986
1439.0, 0.030767773756914304
1440.0, 0.030751573920754807
1441.0, 0.02828115213857517
1442.0, 0.03260888285050403
1443.0, 0.03209665677924061
1444.0, 0.025367342537001285
1445.0, 0.02363261468840168
1446.0, 0.028766485983580004
1447.0, 0.024881551685511885
1448.0, 0.02389557489262067
1449.0, 0.02470945855356211
1450.0, 0.0323842940274106
1451.0, 0.030548791822782896
1452.0, 0.02857631415079445
1453.0, 0.02952174253515739
1454.0, 0.02525534947156104
1455.0, 0.025902845085273095
1456.0, 0.025097570441961533
1457.0, 0.02120676124710777
1458.0, 0.02694620518156806
1459.0, 0.03192580714333347
1460.0, 0.02759537671799964
1461.0, 0.02407333373495028
1462.0, 0.024345603757166306
1463.0, 0.02587771736907204
1464.0, 0.025222629535488768
1465.0, 0.017955091068479714
1466.0, 0.01643276485675085
1467.0, 0.020438886420734118
1468.0, 0.023759098719750106
1469.0, 0.0166282856121993
1470.0, 0.014633723578745072
1471.0, 0.015874797708018588
1472.0, 0.015966890486052154
1473.0, 0.021007952257239667
1474.0, 0.011466610564798061
1475.0, 0.010393571190632596
1476.0, 0.015592280909993152
1477.0, 0.01274166236424513
1478.0, 0.014351783861233593
1479.0, 0.016365487739112235
1480.0, 0.01453116841765535
1481.0, 0.01289126794555977
1482.0, 0.010231359041300462
1483.0, 0.009411266834932387
1484.0, 0.012930293712203994
1485.0, 0.013738241701648354
1486.0, 0.013553562126935651
1487.0, 0.017627674195567378
1488.0, 0.010320092298972666
1489.0, 0.012273090436793725
1490.0, 0.012808135236820598
1491.0, 0.009336686006845101
1492.0, 0.006046470987936647
1493.0, 0.008526237691626642
1494.0, 0.005104341662370292
1495.0, 0.0011586834484168746
1496.0, 0.009078631357218162
1497.0, 0.0023939848278708036
1498.0, 0.005791771234304213
1499.0, 0.008718819280126168
1500.0, 0.004710831682745449
1501.0, 0.008056500003366959
1502.0, 0.009592784963133972
1503.0, 0.010319291660823276
1504.0, 0.011521250782365355
1505.0, 0.010914347030157175
1506.0, 0.011052090460040059
1507.0, 0.00905670207766992
1508.0, 0.011397445280113699
1509.0, 0.014598607482636044
1510.0, 0.0072487720440891044
1511.0, 0.004590371847105787
1512.0, 0.011774354760161254
1513.0, 0.0119351985295477
1514.0, 0.01167967099635086
1515.0, 0.011280904601914941
1516.0, 0.007302674936379513
1517.0, 0.00939337005812753
1518.0, 0.00846537356470596
1519.0, 0.010992157716229006
1520.0, 0.014835446017698347
1521.0, 0.008896010894748861
1522.0, 0.005914195019908662
1523.0, 0.006368123228496476
1524.0, 0.007979840380026155
1525.0, 0.007409196928683072
1526.0, 0.01134836603237011
1527.0, 0.006468288514497409
1528.0, 0.00827338425126047
1529.0, 0.008837406158928366
1530.0, 0.011170573173517736
1531.0, 0.014266120017682312
1532.0, 0.009826731307307577
1533.0, 0.004330461605365237
1534.0, 0.0015191813203999983
1535.0, 0.008251902192093272
1536.0, 0.007259093101665065
1537.0, 0.0048135609096443864
1538.0, 0.005434447038098926
1539.0, 0.0030567918876922813
1540.0, 0.003214092739257094
1541.0, 0.006445368281119469
1542.0, 0.006159352611582771
1543.0, 0.0038645873198541294
1544.0, 0.0074534707305457
1545.0, 0.00874981771490115
1546.0, 0.0023955756227828657
1547.0, 0.006137289013981138
1548.0, 0.00338935156622731
1549.0, 0.00519286044996947
1550.0, 0.008270580411815045
1551.0, 0.0035910054963279093
1552.0, 0.007894670739514425
1553.0, 0.013422905436929174
1554.0, 0.011684353863044394
1555.0, 0.005720761333367395
1556.0, 0.0077124697861456
1557.0, 0.005191542750596379
1558.0, 0.020114982337453173
1559.0, 0.005431470513865505
1560.0, 0.008923006054118518
1561.0, 0.0019501821436058186
1562.0, 0.003602334616127436
1563.0, 0.0039460095387230595
1564.0, 0.003178435910027412
1565.0, 0.006694985759177872
1566.0, 0.005723986587278997
1567.0, 0.005182088603739056
1568.0, 0.006670915925752724
1569.0, 0.00408962528934377
1570.0, 0.005179514239319443
1571.0, 0.002750160330214955
1572.0, 6.466385737346403e-06
1573, 0.0
1574, 0.0
1575, 0.0
1576, 0.0
1577, 0.0
1578, 0.0
1579, 0.0
1580, 0.0
1581, 0.0
1582, 0.0
1583, 0.0
1584, 0.0
1585, 0.0
1586, 0.0
1587, 0.0
1588, 0.0
1589, 0.0
1590, 0.0
1591, 0.0
1592, 0.0
1593, 0.0
1594, 0.0
1595, 0.0
1596, 0.0
1597, 0.0
1598, 0.0
1599, 0.0
