30, 0.0
31, 0.0
32, 0.0
33, 0.0
34, 0.0
35, 0.0
36, 0.0
37, 0.0
38, 0.0
39, 0.0
40, 0.0
41, 0.0
42, 0.0
43, 0.0
44, 0.0
45, 0.0
46, 0.0
47, 0.0
48, 0.0
49, 0.0
50, 0.0
51, 0.0
52, 0.0
53, 0.0
54, 0.0
55, 0.0
56, 0.0
57, 0.0
58, 0.0
59, 0.0
60, 0.0
61, 0.0
62, 0.0
63, 0.0
64, 0.0
65, 0.0
66, 0.0
67, 0.0
68, 0.0
69, 0.0
70, 0.0
71, 0.0
72, 0.0
73, 0.0
74, 0.0
75, 0.0
76, 0.0
77, 0.0
78, 0.0
79, 0.0
80, 0.0
81, 0.0
82, 0.0
83, 0.0
84, 0.0
85, 0.0
86, 0.0
87, 0.0
88, 0.0
89, 0.0
90, 0.0
91, 0.0
92, 0.0
93, 0.0
94, 0.0
95, 0.0
96, 0.0
97, 0.0
98, 0.0
99, 0.0
100, 0.0
101, 0.0
102, 0.0
103, 0.0
104, 0.0
105, 0.0
106, 0.0
107, 0.0
108, 0.0
109, 0.0
110, 0.0
111, 0.0
112, 0.0
113, 0.0
114, 0.0
115, 0.0
116, 0.0
117, 0.0
118, 0.0
119.0, 0.0015401877892899751
120.0, 0.0013534142258322457
121.0, 0.0033575145521886037
122.0, 0.010908690946591786
123.0, 0.021559833849125888
124.0, 0.023371785991259223
125.0, 0.02538283414295403
126.0, 0.02917830422628554
127.0, 0.03524504756381087
128.0, 0.043247516543363534
129.0, 0.04824244020990409
130.0, 0.052460316376587546
131.0, 0.05545809765443914
132.0, 0.057988347520206616
133.0, 0.06033063529247411
134.0, 0.055233344398220016
135.0, 0.054627039155700524
136.0, 0.05021990701265609
137.0, 0.04632970252092757
138.0, 0.04663532916324813
139.0, 0.046924715969833566
140.0, 0.04514143981343971
141.0, 0.04282473021467785
142.0, 0.03934600923892832
143.0, 0.03628764157694681
144.0, 0.03703362069007741
145.0, 0.03793773255182123
146.0, 0.04377030052684237
147.0, 0.05021729733353425
148.0, 0.05293616198078389
149.0, 0.05146504723844957
150.0, 0.06168116275606113
151.0, 0.0742228033355089
152.0, 0.08007096071168339
153.0, 0.08178199519004413
154.0, 0.08297766765483795
155.0, 0.08599859146570912
156.0, 0.0882609483809944
157.0, 0.0903162997704013
158.0, 0.09026132991231962
159.0, 0.08796017887508768
160.0, 0.08473774699904937
161.0, 0.08370133421100308
162.0, 0.08156901644329942
163.0, 0.07774836735284893
164.0, 0.07379781603861603
165.0, 0.07016198198161736
166.0, 0.06351727630099153
167.0, 0.055313810606646426
168.0, 0.0475675819090082
169.0, 0.04261574812986317
170.0, 0.040886036405835914
171.0, 0.04023722905250373
172.0, 0.02833640704002995
173.0, 0.023704807062282084
174.0, 0.021509628594647282
175.0, 0.018383635443485823
176.0, 0.013673598518483432
177.0, 0.013443185785814812
178.0, 0.013823595400262727
179.0, 0.013044627958469847
180.0, 0.012819749154632564
181.0, 0.013846533112012983
182.0, 0.015328907867528914
183.0, 0.014816159352709591
184.0, 0.017995567144370565
185.0, 0.02247839246856138
186.0, 0.028093024327108487
187.0, 0.03408355824686959
188.0, 0.03503625963493727
189.0, 0.03931587454199903
190.0, 0.04686281613210582
191.0, 0.05551503520243127
192.0, 0.0638324184528957
193.0, 0.0716046104193259
194.0, 0.07932297456098168
195.0, 0.08229633253622269
196.0, 0.0848430317958148
197.0, 0.08872620270178021
198.0, 0.09414292730265236
199.0, 0.09952484809209951
200.0, 0.10548243548767601
201.0, 0.11135273950400269
202.0, 0.11722318234598368
203.0, 0.12085742079759633
204.0, 0.11861076365060931
205.0, 0.12025515314966688
206.0, 0.12372345485239918
207.0, 0.13095657236557626
208.0, 0.14211618812104126
209.0, 0.1568063391411568
210.0, 0.17527941508848952
211.0, 0.1936497473063412
212.0, 0.2148794946729198
213.0, 0.23862134184790001
214.0, 0.2648801220887481
215.0, 0.2935639007366362
216.0, 0.3184462359535012
217.0, 0.3499035938903737
218.0, 0.3824488822814714
219.0, 0.4103480330982891
220.0, 0.43199023818534277
221.0, 0.4546746197319795
222.0, 0.4712704626003867
223.0, 0.47893104747821263
224.0, 0.48090421305748526
225.0, 0.47954357525861224
226.0, 0.47528412683794863
227.0, 0.46178237939615596
228.0, 0.4474764678644839
229.0, 0.43530835840894505
230.0, 0.42328093856816296
231.0, 0.411128780976961
232.0, 0.40237393151108786
233.0, 0.39393475258871086
234.0, 0.3819775389978984
235.0, 0.3742242481696039
236.0, 0.3687633253806479
237.0, 0.3611971829020711
238.0, 0.35464186830560823
239.0, 0.3456430412785879
240.0, 0.3334437747570416
241.0, 0.31972562185565706
242.0, 0.3041356917129186
243.0, 0.28450666113659145
244.0, 0.2624495963728906
245.0, 0.23735863682945818
246.0, 0.21318039597219096
247.0, 0.1864301042376165
248.0, 0.1578382625868878
249.0, 0.1397935852698939
250.0, 0.11827662205053469
251.0, 0.0974093502500897
252.0, 0.08150507146608334
253.0, 0.06915675241104505
254.0, 0.056323686953530835
255.0, 0.042129841874852074
256.0, 0.038621977095986686
257.0, 0.03676189593413092
258.0, 0.031699425551730435
259.0, 0.02411847488528469
260.0, 0.01933267021554979
261.0, 0.0137579917474061
262.0, 0.006141363327371133
263.0, 0.0031315500179343292
264.0, 0.0046628385235701645
265.0, 0.007690994173499959
266.0, 0.0076190627533495965
267.0, 0.008537298767538108
268.0, 0.008540889556448187
269.0, 0.008065491163472672
270.0, 0.0075460603101067955
271.0, 0.007020020350376257
272.0, 0.005168191056457646
273.0, 0.004761247152064922
274.0, 0.0035060505527716927
275.0, 0.0015775424459107859
276.0, 0.0008151531416126621
277.0, 0.0031098085244889813
278.0, 0.0016901214879044455
279.0, 0.0021537250044965303
280.0, 0.0021577665304849613
281.0, 0.001621139202205163
282.0, 0.0011462818278106398
283.0, 0.0014844967397379585
284.0, 0.0007113544934046301
285.0, 0.0038779837656398907
286.0, 0.006000871133824314
287.0, 0.006768312922371555
288.0, 0.006976383640132642
289.0, 0.005778237529002502
290.0, 0.006653897960888219
291.0, 0.008342201782120504
292.0, 0.00843344188090816
293.0, 0.007300359829445214
294.0, 0.006480376390335759
295.0, 0.005339326223738448
296.0, 0.002286389620345
297.0, 0.0011838636980298883
298.0, 0.0016577291470686551
299.0, 0.004079822942836699
300.0, 0.00938877978713546
301.0, 0.016063057849237523
302.0, 0.020775993293947817
303.0, 0.02618523625317756
304.0, 0.030836676707664178
305.0, 0.035215445042170085
306.0, 0.042569121050711194
307.0, 0.050368915805594563
308.0, 0.05574766459520552
309.0, 0.06496834389495036
310.0, 0.07355249852058802
311.0, 0.07918805364929779
312.0, 0.08816110934586635
313.0, 0.09570576047131232
314.0, 0.10334279387212704
315.0, 0.11173534452607485
316.0, 0.11918689456076778
317.0, 0.12541987674482516
318.0, 0.1354909739686402
319.0, 0.14383474954433942
320.0, 0.15705326899239286
321.0, 0.1675673166357013
322.0, 0.17555022326699082
323.0, 0.18443654264800358
324.0, 0.19356094377238625
325.0, 0.20151310163689515
326.0, 0.20818244629305283
327.0, 0.21670627571318105
328.0, 0.2247298441465075
329.0, 0.22811642806427582
330.0, 0.23125974241069508
331.0, 0.2252632373764596
332.0, 0.22466626617422852
333.0, 0.22362371130450928
334.0, 0.22132452549741918
335.0, 0.2210019414700032
336.0, 0.21541624168016116
337.0, 0.2124692466423666
338.0, 0.20813070603784356
339.0, 0.20656041001791386
340.0, 0.20741278973921382
341.0, 0.20574704014750483
342.0, 0.20256523098097906
343.0, 0.2011968736487495
344.0, 0.19811165387209395
345.0, 0.19649756504524787
346.0, 0.19731525265649127
347.0, 0.1977694214081864
348.0, 0.19545713270968043
349.0, 0.20060245910288096
350.0, 0.2012941597633844
351.0, 0.20496296502803632
352.0, 0.21312838617863725
353.0, 0.21681610744789243
354.0, 0.22367822791794242
355.0, 0.2335396150841828
356.0, 0.24463642551862913
357.0, 0.2595766338762659
358.0, 0.27942425114536723
359.0, 0.30180740568245523
360.0, 0.3229066352277211
361.0, 0.358635733993151
362.0, 0.39498884174936144
363.0, 0.4376366442772949
364.0, 0.48984580320590526
365.0, 0.5452554097977818
366.0, 0.6005582181669933
367.0, 0.6723830859231755
368.0, 0.7455150815384842
369.0, 0.8201668053354862
370.0, 0.8907752704684584
371.0, 0.9415072298974395
372.0, 0.980761055305894
373.0, 0.9961142487928133
374.0, 0.986501048028792
375.0, 0.9562530293851642
376.0, 0.9113849455263501
377.0, 0.8573084634968503
378.0, 0.7987904727755111
379.0, 0.7301172404226359
380.0, 0.6725947372337593
381.0, 0.616802970088955
382.0, 0.5587351304451742
383.0, 0.5088231863427638
384.0, 0.4607703900177445
385.0, 0.4207588903160374
386.0, 0.3853132250233785
387.0, 0.35542883086112403
388.0, 0.3300257464274088
389.0, 0.3061041124506443
390.0, 0.2927786250158655
391.0, 0.28021597792423875
392.0, 0.2659770104072539
393.0, 0.25307925809212994
394.0, 0.2432958034635101
395.0, 0.2358124903981886
396.0, 0.22933886974623272
397.0, 0.22832366601651863
398.0, 0.23133814956443755
399.0, 0.23213678456493436
400.0, 0.2318825292065758
401.0, 0.23709553802243827
402.0, 0.24406296099646915
403.0, 0.24726091599064212
404.0, 0.24989083608966692
405.0, 0.25373056805170424
406.0, 0.2571556419700939
407.0, 0.25741368674059767
408.0, 0.2568753923155264
409.0, 0.24783198305551968
410.0, 0.23815443868987415
411.0, 0.22517012922626634
412.0, 0.2080974793673753
413.0, 0.18927723860752002
414.0, 0.17484703778133173
415.0, 0.15468811710135397
416.0, 0.1391633385587454
417.0, 0.12504427822252218
418.0, 0.11101499534632442
419.0, 0.09799248735482186
420.0, 0.08875611432894882
421.0, 0.07768811738917637
422.0, 0.07203355574943386
423.0, 0.06713758816107393
424.0, 0.0627967130632109
425.0, 0.05937939021039907
426.0, 0.05536499393815421
427.0, 0.050220152984285185
428.0, 0.04400888267709249
429.0, 0.04185036297076938
430.0, 0.03998844941385431
431.0, 0.03677369590902707
432.0, 0.035535550226523174
433.0, 0.034574283254020954
434.0, 0.033363734862013925
435.0, 0.03249761391726119
436.0, 0.03177953687862184
437.0, 0.03173208784599695
438.0, 0.03297193536321076
439.0, 0.03320081210648893
440.0, 0.034291515096669924
441.0, 0.035911272803247136
442.0, 0.03924718346137932
443.0, 0.042933167559703216
444.0, 0.044693367872804875
445.0, 0.044569183974836654
446.0, 0.05082691232939026
447.0, 0.05387094365128542
448.0, 0.0580822582887355
449.0, 0.05990944773451381
450.0, 0.05879397414331874
451.0, 0.06470557854352613
452.0, 0.06699002786566154
453.0, 0.06407585806957487
454.0, 0.06383972860441471
455.0, 0.06595667906182816
456.0, 0.06757841931584896
457.0, 0.06707906761264922
458.0, 0.07211431851217215
459.0, 0.07475258270319345
460.0, 0.07209484581172915
461.0, 0.0719635749971088
462.0, 0.07412970713835129
463.0, 0.07285765368104978
464.0, 0.06983249484879499
465.0, 0.07125074173559207
466.0, 0.07077535618064464
467.0, 0.06864578641762445
468.0, 0.06533597045984346
469.0, 0.06195125336015916
470.0, 0.06056095359613416
471.0, 0.0594363347591492
472.0, 0.057173861007402293
473.0, 0.05524434948155986
474.0, 0.05441218756792049
475.0, 0.05442875335356777
476.0, 0.05444985779878745
477.0, 0.05582042961107039
478.0, 0.05812780456190368
479.0, 0.06109738238768292
480.0, 0.06517546679387137
481.0, 0.0702708264865245
482.0, 0.07545345907582464
483.0, 0.07879330465969979
484.0, 0.08391093171868651
485.0, 0.08990421976060102
486.0, 0.09857234501140404
487.0, 0.10505858190437348
488.0, 0.10722580458320606
489.0, 0.11097001996850744
490.0, 0.11916042597280031
491.0, 0.12119224527118402
492.0, 0.12633829622435402
493.0, 0.12884224079002893
494.0, 0.12897954366953127
495.0, 0.13220243309073282
496.0, 0.13393053728967663
497.0, 0.12871938075476697
498.0, 0.13031267939113023
499.0, 0.12940737119894286
500.0, 0.12407425255125103
501.0, 0.11857900724126029
502.0, 0.11923578074746255
503.0, 0.12104829619847333
504.0, 0.12080943038708676
505.0, 0.11834917526432993
506.0, 0.11471765275994251
507.0, 0.11019556679422107
508.0, 0.10561872356153292
509.0, 0.10821006349865624
510.0, 0.1004702273556481
511.0, 0.09413009108967947
512.0, 0.09230982092717245
513.0, 0.08977645095516186
514.0, 0.08345590323895274
515.0, 0.08019495709908142
516.0, 0.07539486472128219
517.0, 0.06721280489313115
518.0, 0.059631562927460705
519.0, 0.05375292155750236
520.0, 0.04973097816629476
521.0, 0.0468758002816711
522.0, 0.04277605906050344
523.0, 0.03488569052974114
524.0, 0.03296794915081288
525.0, 0.028755949363494154
526.0, 0.02448817811679489
527.0, 0.02348840705268064
528.0, 0.023275386973652567
529.0, 0.025746322903521496
530.0, 0.022839700375689366
531.0, 0.025206356869806264
532.0, 0.02347461445178666
533.0, 0.018840612794512202
534.0, 0.01869790015283726
535.0, 0.01871036676189975
536.0, 0.015503279532967212
537.0, 0.01987786688368023
538.0, 0.017943809517552995
539.0, 0.016612127615057055
540.0, 0.018093645868707143
541.0, 0.014014482446514015
542.0, 0.014593476442152725
543.0, 0.014350957265497366
544.0, 0.013627180449465202
545.0, 0.012178370382782308
546.0, 0.011547285746255652
547.0, 0.012429090658375948
548.0, 0.012480423120974284
549.0, 0.013062944628969847
550.0, 0.014263221777580005
551.0, 0.011466168464760694
552.0, 0.009357747632163599
553.0, 0.00940424373406668
554.0, 0.009206842974056242
555.0, 0.007706036200280077
556.0, 0.008418653921377738
557.0, 0.007524695852938226
558.0, 0.00647321815158155
559.0, 0.003875843667862351
560.0, 0.0011766985074915433
561.0, 0.002583093163639065
562.0, 0.005238579113323692
563.0, 0.0014247375055582688
564.0, 0.002580715059576582
565.0, 0.002105538207699304
566.0, 0.002377368680854012
567.0, 0.004928741792499858
568.0, 0.0033408299677022885
569.0, 0.002254625067622006
570.0, 0.003115829864367177
571.0, 0.004056664554406834
572.0, 0.0036428509628976527
573.0, 0.0025235326728071496
574.0, 0.0018278266409261878
575.0, 0.0009412517209717745
576.0, 0.0019371538951711066
577.0, 0.0007931280030021901
578.0, 0.002800483828097238
579.0, 0.0043906314305370096
580.0, 0.004342424450408397
581.0, 0.004728212781717989
582.0, 0.00630455516403089
583.0, 0.005615549941410352
584.0, 0.0032428131429601895
585.0, 0.003376381629486862
586.0, 0.004053472971205187
587.0, 0.0031448734310685336
588.0, 0.0010893821892184099
589.0, 0.00078614864876482
590.0, 0.00013252417949091429
591.0, 0.002666068778693364
592.0, 0.0036597956544706396
593.0, 0.004783962315864842
594.0, 0.006142141700461047
595.0, 0.004194379026480146
596.0, 0.0011434681376007517
597.0, 0.00047333964701261615
598.0, 0.000728411908112052
599.0, 0.003057569932379031
600.0, 0.0039026847879792183
601.0, 0.0023347110383284317
602.0, 0.0028677148459558995
603.0, 0.004460008954558306
604.0, 0.004724589752705397
605.0, 0.003926818385221062
606.0, 0.007693314969080893
607.0, 0.009352258751674496
608.0, 0.006279050461077317
609.0, 0.008780724908902042
610.0, 0.012341598407986168
611.0, 0.011760333559114875
612.0, 0.013384709527212614
613.0, 0.020609530749355304
614.0, 0.024749059407860815
615.0, 0.026959648957229694
616.0, 0.043527826002238396
617.0, 0.02425077585148837
618.0, 0.02569133977645223
619.0, 0.03213798571120016
620.0, 0.04160132604680106
621.0, 0.04982116116467228
622.0, 0.05754116333095439
623.0, 0.0730756054142016
624.0, 0.08368035482536891
625.0, 0.09920224390653463
626.0, 0.11430835180939379
627.0, 0.12787079704108562
628.0, 0.14008065087947366
629.0, 0.1511846037862779
630.0, 0.16044040084993916
631.0, 0.164903685413545
632.0, 0.16397429256600335
633.0, 0.15888188332166767
634.0, 0.15189828221417687
635.0, 0.14217902741209854
636.0, 0.1291577205138158
637.0, 0.11454967231845511
638.0, 0.09672040068578973
639.0, 0.0839670165053354
640.0, 0.0738346960968451
641.0, 0.06435032552080877
642.0, 0.05463909345165698
643.0, 0.04597698809605499
644.0, 0.040517467114631514
645.0, 0.03505417861726337
646.0, 0.03230258994967013
647.0, 0.028947408218597214
648.0, 0.025257453386003968
649.0, 0.023332306375019436
650.0, 0.023327336293552464
651.0, 0.023108791658025728
652.0, 0.023207564729427275
653.0, 0.026182230964308023
654.0, 0.026674111887754634
655.0, 0.02743229852781339
656.0, 0.02731030428198973
657.0, 0.02731351316622949
658.0, 0.02937239843729532
659.0, 0.028401910271123185
660.0, 0.026947029593495254
661.0, 0.027412967107221645
662.0, 0.02531576796714245
663.0, 0.02484236269052458
664.0, 0.024959541259319318
665.0, 0.022630798867697602
666.0, 0.023116369734501714
667.0, 0.020932019661882843
668.0, 0.01632285782461152
669.0, 0.016395007344145642
670.0, 0.01562993138976402
671.0, 0.014871300220066715
672.0, 0.015769279755651837
673.0, 0.013481880572417658
674.0, 0.01462713446152589
675.0, 0.01700579927050097
676.0, 0.0146813184025905
677.0, 0.015068263096049006
678.0, 0.0174261107118225
679.0, 0.017635733445574037
680.0, 0.014560513695942062
681.0, 0.012098745278242447
682.0, 0.015011086172602741
683.0, 0.0178384529983714
684.0, 0.0180292601313427
685.0, 0.019443423826350146
686.0, 0.02516304349884833
687.0, 0.034101369008054896
688.0, 0.04217567241686414
689.0, 0.05084870773442662
690.0, 0.06495431684268002
691.0, 0.08019810610441093
692.0, 0.09750636711517023
693.0, 0.11788690564269057
694.0, 0.1423178028320319
695.0, 0.17185027686508259
696.0, 0.19979915549388652
697.0, 0.2360690888753563
698.0, 0.2683132120883886
699.0, 0.3063568315579014
700.0, 0.344300968988467
701.0, 0.3774917861606632
702.0, 0.41039228665324995
703.0, 0.43852555750717914
704.0, 0.46562757863463383
705.0, 0.4822425040416545
706.0, 0.4924200693562419
707.0, 0.4938877951277715
708.0, 0.48544223333601394
709.0, 0.4672230337241052
710.0, 0.4387762227559207
711.0, 0.4155727297975074
712.0, 0.3764862549211782
713.0, 0.33863263998742876
714.0, 0.3053554499362043
715.0, 0.2719487975028346
716.0, 0.23710608757375162
717.0, 0.20679720330924567
718.0, 0.1812928835370465
719.0, 0.15928697988457013
720.0, 0.1374595741061956
721.0, 0.12344351545169867
722.0, 0.11304337283884072
723.0, 0.10548639029289432
724.0, 0.1005869419122753
725.0, 0.09035604649846196
726.0, 0.08747054442060036
727.0, 0.08711771242227348
728.0, 0.08883337546050915
729.0, 0.0925310960986214
730.0, 0.09759918654056944
731.0, 0.10268981022182536
732.0, 0.107998730740411
733.0, 0.12008004764832292
734.0, 0.12945017941656095
735.0, 0.13831368584328144
736.0, 0.14806876310608055
737.0, 0.1609109193788371
738.0, 0.17539852402182826
739.0, 0.19075490983792803
740.0, 0.20989787499208748
741.0, 0.2253506599988379
742.0, 0.24351465292742766
743.0, 0.26773998555802203
744.0, 0.2896078474347644
745.0, 0.3116314286616401
746.0, 0.33450933586148185
747.0, 0.3558822657232885
748.0, 0.37872625747869104
749.0, 0.3980992790102841
750.0, 0.41365247452738974
751.0, 0.4227178601020899
752.0, 0.42824404304648145
753.0, 0.42646340413958167
754.0, 0.41558568865142226
755.0, 0.3997118077407473
756.0, 0.38018402633521714
757.0, 0.3602296166366783
758.0, 0.3422893540598565
759.0, 0.3245629482371114
760.0, 0.3063629001439482
761.0, 0.2883972221317664
762.0, 0.2732116486048245
763.0, 0.26330561811615444
764.0, 0.25438487644289104
765.0, 0.23923793084106706
766.0, 0.23089632613981972
767.0, 0.22540937934387278
768.0, 0.2211350759992862
769.0, 0.21463635201671974
770.0, 0.20691194538710644
771.0, 0.2061577111065215
772.0, 0.20028367145366074
773.0, 0.19553953704781757
774.0, 0.18821501098927101
775.0, 0.18019906501869162
776.0, 0.16754909016291722
777.0, 0.15240074548222987
778.0, 0.13895111108847516
779.0, 0.12301217076124628
780.0, 0.10599501704105235
781.0, 0.0949668017777798
782.0, 0.08341012243392705
783.0, 0.07303399610169665
784.0, 0.06575014813103487
785.0, 0.059977684992840924
786.0, 0.05407826247480606
787.0, 0.05149536928339857
788.0, 0.04642966932581462
789.0, 0.04389867704596185
790.0, 0.03788570539978593
791.0, 0.034671864146426604
792.0, 0.0328611269303329
793.0, 0.03087630727396418
794.0, 0.029522877114071595
795.0, 0.02828212793010836
796.0, 0.027257581594005913
797.0, 0.026253242134870083
798.0, 0.02646562993609111
799.0, 0.02619286733117955
800.0, 0.026557739981607646
801.0, 0.02865793578598658
802.0, 0.03131393748524782
803.0, 0.031789758233269946
804.0, 0.033721046484986236
805.0, 0.035343614174970485
806.0, 0.036517752587761805
807.0, 0.03808350379024854
808.0, 0.03924260938488495
809.0, 0.040270870903043925
810.0, 0.04171398931654084
811.0, 0.04170222252327053
812.0, 0.037806009364077235
813.0, 0.0387055385319313
814.0, 0.036076633598225515
815.0, 0.031731167521979804
816.0, 0.02927709763240807
817.0, 0.02665149001699561
818.0, 0.021396932682890033
819.0, 0.017806243422156504
820.0, 0.01607534076145265
821.0, 0.014956529919896811
822.0, 0.01734596432589614
823.0, 0.01657414873168358
824.0, 0.01721808107338578
825.0, 0.019236196923275967
826.0, 0.021815881901361776
827.0, 0.027386877439871237
828.0, 0.02662347047438398
829.0, 0.034098309295434
830.0, 0.03781934096849705
831.0, 0.04222098349155333
832.0, 0.0458570014340183
833.0, 0.048074858187610876
834.0, 0.05091075924217297
835.0, 0.05526574978030301
836.0, 0.054408429994827305
837.0, 0.0530181633887452
838.0, 0.051682139187411866
839.0, 0.04851196569849106
840.0, 0.04612280519022267
841.0, 0.04476409181540947
842.0, 0.04254762089207716
843.0, 0.03812773560079157
844.0, 0.03361671332858934
845.0, 0.035398525124822916
846.0, 0.03306231498049315
847.0, 0.031247282394544214
848.0, 0.03291981620314917
849.0, 0.030780441817725195
850.0, 0.026738467424013188
851.0, 0.02533652774998086
852.0, 0.02372181062701265
853.0, 0.026760416040802232
854.0, 0.02442920875030137
855.0, 0.027150441224933927
856.0, 0.030688269012110782
857.0, 0.027157553354762692
858.0, 0.023222525745262342
859.0, 0.022562576543745765
860.0, 0.02122655987462225
861.0, 0.023400158114144923
862.0, 0.018140874239450627
863.0, 0.017786281494739604
864.0, 0.01361901935076439
865.0, 0.01312016338489748
866.0, 0.010215781438761359
867.0, 0.0076735509792409074
868.0, 0.009459118423714224
869.0, 0.007942418038015868
870.0, 0.005543039056492546
871.0, 0.004189433323516578
872.0, 0.004325877874554199
873.0, 0.0066062113025391386
874.0, 0.004229786058837801
875.0, 0.0017641939021455768
876.0, 0.0027023315950594354
877.0, 0.003047066487566274
878.0, 0.0002512744462303859
879.0, 0.0017287042638841098
880.0, 0.004718847064676511
881.0, 0.003627138556308861
882.0, 0.004657223148644914
883.0, 0.0056089741083990945
884.0, 0.004401340123335225
885.0, 0.0038937329947240397
886.0, 0.006412164315428993
887.0, 0.0020531772131005053
888.0, 0.003039967571419061
889.0, 0.002410667170240111
890.0, 0.0017937999856239943
891.0, 0.004626089980769469
892.0, 0.004765792192934638
893.0, 0.003836251722580785
894.0, 0.005881942901854975
895.0, 0.005696882298199404
896.0, 0.0029964650628329734
897.0, 0.000538246203805334
898.0, 0.0017453152057880766
899.0, 0.0017360672166459267
900.0, 0.0019805230565870195
901.0, 0.0023385252828181254
902.0, 0.0016047504319356282
903.0, 0.0010137687386605324
904.0, 0.0037638129424385097
905.0, 0.002095565240492321
906.0, 0.002199678601628171
907.0, 0.0015756189493780044
908.0, 0.000534635699399745
909.0, 0.0003205784402551212
910.0, 0.00027689631292125857
911.0, 0.0006930975458479679
912.0, 0.0019999658993235365
913.0, 0.0021586496184399827
914.0, 0.005412631459120355
915.0, 0.007635837842259816
916.0, 0.009622276638196826
917.0, 0.008200160242909472
918.0, 0.00853196665773439
919.0, 0.01028398536242264
920.0, 0.01098924627688884
921.0, 0.011989957224039937
922.0, 0.016762530483059646
923.0, 0.016475404092798556
924.0, 0.019080729825305422
925.0, 0.02081308770013375
926.0, 0.023415682799400754
927.0, 0.026103226580528577
928.0, 0.02796397130142466
929.0, 0.028367048868871127
930.0, 0.02884873219000921
931.0, 0.03272423994290169
932.0, 0.031802089853404755
933.0, 0.03596131708637441
934.0, 0.03934786082330554
935.0, 0.04162610804745887
936.0, 0.04466067110454624
937.0, 0.04610148204909039
938.0, 0.04700548371108955
939.0, 0.048518612811820905
940.0, 0.04664742336525132
941.0, 0.05350695477119648
942.0, 0.05468611437366927
943.0, 0.05441106672924049
944.0, 0.05711675897243795
945.0, 0.060765637491199585
946.0, 0.06313082831292816
947.0, 0.0648529628965209
948.0, 0.0668990639119905
949.0, 0.06784742435158411
950.0, 0.06779398892052058
951.0, 0.07190380120819602
952.0, 0.07242563338261962
953.0, 0.07562014970617562
954.0, 0.07801014336267706
955.0, 0.08024050508965208
956.0, 0.0823068932765488
957.0, 0.08253538335924547
958.0, 0.08122971560879304
959.0, 0.08323943673171803
960.0, 0.0870573262359968
961.0, 0.08818061652176933
962.0, 0.09148214850883771
963.0, 0.0963911930307507
964.0, 0.0980516990759432
965.0, 0.09898862978324505
966.0, 0.1002249939892503
967.0, 0.10021684910321592
968.0, 0.10209139704609833
969.0, 0.10310239154628548
970.0, 0.10617612588468985
971.0, 0.1055804195813115
972.0, 0.10939407100384803
973.0, 0.10908560482194765
974.0, 0.10781666091471256
975.0, 0.10796327086327961
976.0, 0.10898944508866593
977.0, 0.11086444573384972
978.0, 0.11050587851479385
979.0, 0.11066692228172208
980.0, 0.11090914009282345
981.0, 0.10800193044240983
982.0, 0.108009745481754
983.0, 0.10805625034137215
984.0, 0.10565461979106026
985.0, 0.10348710331770794
986.0, 0.1034061092921295
987.0, 0.10239482550338193
988.0, 0.10730234951671966
989.0, 0.10310686555759047
990.0, 0.1024129416840293
991.0, 0.0998987039681653
992.0, 0.10486067354070874
993.0, 0.10652574062856765
994.0, 0.10510559121371706
995.0, 0.105239186039911
996.0, 0.10496214938526008
997.0, 0.10497470612426704
998.0, 0.1109116749818673
999.0, 0.10947606863501808
1000.0, 0.11587526152035407
1001.0, 0.11511861500932162
1002.0, 0.11548662928501931
1003.0, 0.11989645103396195
1004.0, 0.1227203569828155
1005.0, 0.12257969936862112
1006.0, 0.12539482641741587
1007.0, 0.1293683457104034
1008.0, 0.129225457690452
1009.0, 0.13136313587559226
1010.0, 0.13333538314803026
1011.0, 0.13744158993947658
1012.0, 0.14004995467353695
1013.0, 0.14076346352005373
1014.0, 0.14293630014078368
1015.0, 0.14553268284566964
1016.0, 0.14547578703115108
1017.0, 0.1512914444423761
1018.0, 0.15349127386597997
1019.0, 0.15826312688209485
1020.0, 0.15975804193818086
1021.0, 0.1615772531145294
1022.0, 0.16237618989852812
1023.0, 0.16350506939077575
1024.0, 0.167195273414989
1025.0, 0.17062716361309338
1026.0, 0.1711754888165162
1027.0, 0.17791373465306018
1028.0, 0.18145307991611037
1029.0, 0.1888608725561787
1030.0, 0.19148769400017487
1031.0, 0.19915556401757176
1032.0, 0.20640534325428664
1033.0, 0.2166529615100877
1034.0, 0.22885515900119255
1035.0, 0.24141158021845843
1036.0, 0.25742661426861635
1037.0, 0.27561587836329765
1038.0, 0.28934644127853565
1039.0, 0.30894337491632196
1040.0, 0.33146526398696696
1041.0, 0.358208797808063
1042.0, 0.38435411940399944
1043.0, 0.4139106197487026
1044.0, 0.4440248056344934
1045.0, 0.47340348839085755
1046.0, 0.5059198052174098
1047.0, 0.5406204612048692
1048.0, 0.5739019127362301
1049.0, 0.6105014337542689
1050.0, 0.6353204795687393
1051.0, 0.6750315409436761
1052.0, 0.7033910744917967
1053.0, 0.7268714211224254
1054.0, 0.7495272265635584
1055.0, 0.7685231390761814
1056.0, 0.7801411802955306
1057.0, 0.783222987825861
1058.0, 0.77969121909742
1059.0, 0.7704402652372867
1060.0, 0.7589055738698693
1061.0, 0.7349027260899317
1062.0, 0.7114346296843584
1063.0, 0.6827138741042058
1064.0, 0.6482702445430931
1065.0, 0.6140806319565117
1066.0, 0.5807512993888271
1067.0, 0.5462105385845059
1068.0, 0.513991291628432
1069.0, 0.477185322863629
1070.0, 0.4494522703693939
1071.0, 0.41659950089596176
1072.0, 0.39559055428955137
1073.0, 0.36734236113250074
1074.0, 0.34154609101748773
1075.0, 0.3262128701508912
1076.0, 0.3102303927416253
1077.0, 0.2926929852097603
1078.0, 0.28501366503360026
1079.0, 0.27485292674985445
1080.0, 0.27076811123539796
1081.0, 0.2719669181898564
1082.0, 0.27257299958408215
1083.0, 0.2693998036456323
1084.0, 0.2613291845082023
1085.0, 0.2514481074324399
1086.0, 0.23883004455115334
1087.0, 0.2261186038116222
1088.0, 0.21539268637153683
1089.0, 0.20318181646689149
1090.0, 0.1902250627442565
1091.0, 0.18455067220602386
1092.0, 0.17894080160915857
1093.0, 0.16615701963983154
1094.0, 0.1564704619939133
1095.0, 0.15149089679366023
1096.0, 0.14411102196596412
1097.0, 0.1359202117792999
1098.0, 0.12870878265857663
1099.0, 0.12129076368544964
1100.0, 0.11396787217390279
1101.0, 0.10822021588965011
1102.0, 0.10425452277024229
1103.0, 0.09591782337730699
1104.0, 0.08889126926591062
1105.0, 0.08320428953974665
1106.0, 0.08241241289981811
1107.0, 0.07655278339170524
1108.0, 0.07091941661513411
1109.0, 0.06943981335300296
1110.0, 0.06787178839556797
1111.0, 0.0632918424741864
1112.0, 0.059158706245656605
1113.0, 0.058011589175484456
1114.0, 0.052739206590958335
1115.0, 0.052977335469641035
1116.0, 0.05094507716648428
1117.0, 0.04689642159038109
1118.0, 0.04736923509551444
1119.0, 0.04673234587063243
1120.0, 0.04345361852331838
1121.0, 0.0405311385624614
1122.0, 0.03849478272113822
1123.0, 0.03707891129100728
1124.0, 0.039080282956867295
1125.0, 0.03553054199819106
1126.0, 0.0338212081495012
1127.0, 0.03191171927688395
1128.0, 0.028103011600241267
1129.0, 0.026150308828721568
1130.0, 0.024096914549845215
1131.0, 0.02149470525247146
1132.0, 0.019651171678249254
1133.0, 0.018340989668651057
1134.0, 0.01701256320259057
1135.0, 0.01707565477586554
1136.0, 0.014643292094814936
1137.0, 0.013089568039277275
1138.0, 0.011942326585284309
1139.0, 0.010149117501926024
1140.0, 0.009718324549683336
1141.0, 0.007827233447966465
1142.0, 0.007993667886010084
1143.0, 0.00850356838370917
1144.0, 0.008315653292242788
1145.0, 0.008347389514147053
1146.0, 0.008163983512428065
1147.0, 0.009565468342010674
1148.0, 0.008672760949718198
1149.0, 0.008109760882475277
1150.0, 0.007459257878414742
1151.0, 0.006349596695470058
1152.0, 0.00478323802050447
1153.0, 0.0038359603913200456
1154.0, 0.0031688668716866857
1155.0, 0.0017106274107224599
1156.0, 0.0013379549450926137
1157.0, 0.0019043817644222834
1158.0, 0.0009025629012424056
1159.0, 0.0026512844783029652
1160.0, 0.00021706161451534426
1161.0, 0.0020440781488153745
1162.0, 0.00643971190813761
1163.0, 0.002429375999476525
1164.0, 0.0019361392626073381
1165.0, 0.0016048641403220017
1166.0, 0.0018604830388294414
1167.0, 0.00118312486092683
1168.0, 0.00031452423342962903
1169.0, 0.0006921181643163427
1170.0, 0.001031802013220685
1171.0, 0.0017063963739086083
1172.0, 0.0011409469640259275
1173.0, 0.001347549684869554
1174.0, 0.0010272133883065873
1175.0, 0.003967578496510595
1176.0, 0.002610058965947874
1177.0, 0.005378730723835931
1178.0, 0.003459696409944819
1179.0, 0.0013793816180235896
1180.0, 0.0018165698224052135
1181.0, 0.0033810461328159934
1182.0, 0.004374633359693546
1183.0, 0.0014972079003499447
1184.0, 0.0019348851680038646
1185.0, 0.0019001355642093154
1186.0, 0.0015065500256745675
1187.0, 0.0023714917146092835
1188.0, 0.0013971991653707987
1189.0, 0.0024704631928989806
1190.0, 0.0014340455152917768
1191.0, 0.0015699845881054389
1192.0, 0.0016844788569446464
1193.0, 0.0016699326788054438
1194.0, 0.0029029222011433937
1195.0, 0.003669847856089371
1196.0, 0.0031335547492974485
1197.0, 0.0009844646324393645
1198.0, 0.0002108352370943146
1199.0, 0.00023751517458018887
1200.0, 0.000987047012657721
1201.0, 0.0006634574726243566
1202.0, 0.0013884289696063892
1203.0, 0.0009918400560151087
1204.0, 0.00048226940748306906
1205.0, 0.0008569926282019334
1206.0, 0.001013468633874059
1207.0, 0.0008149872089726974
1208.0, 0.0012881978408951335
1209.0, 0.0010339041157764047
1210.0, 0.0004388788433959755
1211.0, 0.0005236743089320906
1212.0, 0.0010452664953902006
1213.0, 0.00023293217652284
1214.0, 0.0013602949982488735
1215.0, 0.0010790791687029352
1216.0, 0.001050458949796661
1217.0, 0.0015081158590839014
1218.0, 0.0010558886027746657
1219.0, 0.0004044443771624093
1220.0, 0.0008164855996535881
1221.0, 0.0012634487117659113
1222.0, 0.0007013707130235936
1223.0, 0.00032665569592298327
1224.0, 0.0003981243318874022
1225.0, 0.0011848746919084236
1226.0, 0.0017566005329514172
1227.0, 0.0007026699813792959
1228.0, 0.0026368797614006205
1229.0, 0.0029485215242350876
1230.0, 0.004071083467228895
1231.0, 0.004743301163109345
1232.0, 0.0030216205302816346
1233.0, 0.0022665999330710876
1234.0, 0.0038574550069234276
1235.0, 0.00316033082115381
1236.0, 0.001875967013702175
1237.0, 0.004139728733703682
1238.0, 0.004114593070230205
1239.0, 0.006444279170535586
1240.0, 0.006139544206076087
1241.0, 0.007222156799554628
1242.0, 0.006645694576702586
1243.0, 0.006455928463374123
1244.0, 0.004481197969440819
1245.0, 0.004338194528703373
1246.0, 0.006281463391047909
1247.0, 0.006808300182910223
1248.0, 0.006704817597152158
1249.0, 0.007944501278099371
1250.0, 0.007268797898906879
1251.0, 0.00800222648779093
1252.0, 0.0064932665151546725
1253.0, 0.006789756844893063
1254.0, 0.011444402264753784
1255.0, 0.011204264326274502
1256.0, 0.01109583629624198
1257.0, 0.010044188579277151
1258.0, 0.010559844189117136
1259.0, 0.011851099908392209
1260.0, 0.012007035390153907
1261.0, 0.012639764083581367
1262.0, 0.01486201062398912
1263.0, 0.015301200413555928
1264.0, 0.012343233859641456
1265.0, 0.010172349474395742
1266.0, 0.012802528635569577
1267.0, 0.012418815552395043
1268.0, 0.015233987818566972
1269.0, 0.01629446191496046
1270.0, 0.016614847176253115
1271.0, 0.01758916098426711
1272.0, 0.017847784726785693
1273.0, 0.01805136158448111
1274.0, 0.01812305400546788
1275.0, 0.017634777931231856
1276.0, 0.017469215911005583
1277.0, 0.017325344204684023
1278.0, 0.01621670781057214
1279.0, 0.017680728357768398
1280.0, 0.019670713704749404
1281.0, 0.01649312189538469
1282.0, 0.017239197169390003
1283.0, 0.015509631040889125
1284.0, 0.018516748267306076
1285.0, 0.020870725672984876
1286.0, 0.019272996996721876
1287.0, 0.018310388668879
1288.0, 0.018923465468725142
1289.0, 0.019589331780316018
1290.0, 0.01981545635280548
1291.0, 0.018552695113656197
1292.0, 0.017626156644923636
1293.0, 0.019644312681123585
1294.0, 0.018798487679790508
1295.0, 0.022153810762852826
1296.0, 0.019980149767390456
1297.0, 0.01799395337741437
1298.0, 0.024620506489801047
1299.0, 0.020241653213674448
1300.0, 0.020653024088555023
1301.0, 0.0208728411282259
1302.0, 0.02212002048106056
1303.0, 0.02287874082021355
1304.0, 0.020528579525092107
1305.0, 0.021017997553975036
1306.0, 0.022478741617181653
1307.0, 0.020783275889871274
1308.0, 0.02237046126528778
1309.0, 0.025176506554762376
1310.0, 0.022037121843863663
1311.0, 0.022824509327803333
1312.0, 0.02119539513347963
1313.0, 0.0222168918195927
1314.0, 0.02189616232326777
1315.0, 0.024246607642740465
1316.0, 0.0225107642771736
1317.0, 0.022063515143843353
1318.0, 0.02384566878292466
1319.0, 0.023431115046126893
1320.0, 0.026357141300002006
1321.0, 0.027457801108308096
1322.0, 0.023909573088554927
1323.0, 0.02538613796213411
1324.0, 0.028955829237928502
1325.0, 0.02343856291997987
1326.0, 0.023733116625667582
1327.0, 0.024851282629175075
1328.0, 0.026503525130539603
1329.0, 0.025762922250552663
1330.0, 0.028521004348153967
1331.0, 0.028790876223357676
1332.0, 0.028200399871754413
1333.0, 0.029062619278427716
1334.0, 0.024765043865285538
1335.0, 0.029348841109372022
1336.0, 0.030828295589884747
1337.0, 0.028684340403996197
1338.0, 0.03114275205478784
1339.0, 0.034321961213048015
1340.0, 0.033197027915782634
1341.0, 0.03171786105486978
1342.0, 0.031838067680470795
1343.0, 0.032864423763582715
1344.0, 0.03190406823850301
1345.0, 0.03195679362448938
1346.0, 0.03116246628841515
1347.0, 0.03198783919505891
1348.0, 0.0339600349791569
1349.0, 0.03202595436205965
1350.0, 0.03568886693054399
1351.0, 0.03570591788188146
1352.0, 0.03352415909860844
1353.0, 0.03543620723697079
1354.0, 0.03671953613762273
1355.0, 0.036371409705806414
1356.0, 0.037710996387572665
1357.0, 0.038339252244793724
1358.0, 0.03725014025804691
1359.0, 0.03890496504060848
1360.0, 0.04129867037452148
1361.0, 0.04367706020371542
1362.0, 0.04242278652553612
1363.0, 0.04092865843729098
1364.0, 0.04548553292599335
1365.0, 0.04652026350172716
1366.0, 0.047611666444661506
1367.0, 0.04408750376396046
1368.0, 0.045381119892632674
1369.0, 0.046424258746796565
1370.0, 0.05142722459754512
1371.0, 0.05686783281083674
1372.0, 0.05533529010387783
1373.0, 0.055592650582293034
1374.0, 0.05843414256331411
1375.0, 0.060249606040322756
1376.0, 0.06484233516109862
1377.0, 0.06697926383763271
1378.0, 0.07057404006595779
1379.0, 0.07325189453750715
1380.0, 0.07814399931780106
1381.0, 0.07852012866490098
1382.0, 0.08024449309492221
1383.0, 0.07955722534727654
1384.0, 0.0820771241375621
1385.0, 0.08062444189821459
1386.0, 0.08327861062556145
1387.0, 0.0833002003714083
1388.0, 0.08431153016431303
1389.0, 0.08164216351303222
1390.0, 0.07946812942929866
1391.0, 0.0774311503197707
1392.0, 0.07439682178158238
1393.0, 0.07080737732145526
1394.0, 0.06722061664386988
1395.0, 0.06524259342584833
1396.0, 0.062141983597525874
1397.0, 0.05695477866989681
1398.0, 0.057321036559185586
1399.0, 0.051486305337093884
1400.0, 0.050957314940890806
1401.0, 0.046406887315253276
1402.0, 0.04556675743976322
1403.0, 0.0458712026493391
1404.0, 0.0377034979974791
1405.0, 0.03964803223601938
1406.0, 0.03771550422821324
1407.0, 0.03525185752569946
1408.0, 0.03448574898533503
1409.0, 0.03353628651457879
1410.0, 0.032774921154736
1411.0, 0.03273665547173304
1412.0, 0.031414240900282234
1413.0, 0.02897490036234366
1414.0, 0.026756214181699618
1415.0, 0.025845763923294917
1416.0, 0.027168920373662246
1417.0, 0.027919435935267075
1418.0, 0.030897766319378284
1419.0, 0.02827472649429421
1420.0, 0.021500632521764783
1421.0, 0.027108696745531347
1422.0, 0.02552402664539691
1423.0, 0.023278246229551217
1424.0, 0.029299974146142476
1425.0, 0.02572661983118727
1426.0, 0.026529369416127657
1427.0, 0.027044623164548687
1428.0, 0.026271161872598304
1429.0, 0.025270959581889234
1430.0, 0.026780375124368667
1431.0, 0.026717572427909335
1432.0, 0.027270041398072254
1433.0, 0.02757378995107107
1434.0, 0.025342013552922413
1435.0, 0.022352829668449273
1436.0, 0.020539234904249564
1437.0, 0.019836092584952163
1438.0, 0.017752047578532236
1439.0, 0.017535931312662196
1440.0, 0.017356521334300767
1441.0, 0.014542197646254213
1442.0, 0.013451377121429095
1443.0, 0.010623450162439011
1444.0, 0.010709547463609352
1445.0, 0.011089423869898852
1446.0, 0.011598323960810163
1447.0, 0.009279926213870363
1448.0, 0.010041936337967862
1449.0, 0.00897959163243276
1450.0, 0.008366290070327374
1451.0, 0.009742847445193043
1452.0, 0.009570840256387455
1453.0, 0.008585560041556462
1454.0, 0.008219220216534092
1455.0, 0.011269708391311431
1456.0, 0.012071097343434882
1457.0, 0.0097210556061636
1458.0, 0.0071568051422048595
1459.0, 0.005591889336525849
1460.0, 0.007487364558218559
1461.0, 0.004555392179402373
1462.0, 0.00463065605390688
1463.0, 0.006118166045350789
1464.0, 0.0020109907549216753
1465.0, 0.00447866739373838
1466.0, 0.003986796710226037
1467.0, 0.0025323287610486906
1468.0, 0.006271891410473874
1469.0, 0.004535420196436433
1470.0, 0.0010654658186466566
1471.0, 0.004114465009035786
1472.0, 0.0034366570857715713
1473.0, 0.0033896859779972226
1474.0, 0.0015343830492693094
1475.0, 0.003678283685660479
1476.0, 0.0017454911694025957
1477.0, 0.0015390358806250562
1478.0, 0.004157209922026894
1479.0, 0.003512937175296759
1480.0, 0.0012029306460908974
1481.0, 0.0027907065468849275
1482.0, 0.0040928345219072675
1483.0, 0.0018728539883340666
1484.0, 0.0018200435906355632
1485.0, 0.0024238433299641374
1486.0, 0.001128857587365893
1487.0, 0.002568323081417689
1488.0, 0.0027186105194338143
1489.0, 0.0048068356532393695
1490.0, 0.002768965018756412
1491.0, 0.0058455454896346685
1492.0, 0.0027041126497402185
1493.0, 0.0035084813286421985
1494.0, 0.0010162231656134625
1495.0, 0.00010456101621019782
1496.0, 0.0015095517726362413
1497.0, 0.002240394466412661
1498.0, 0.004861548368272203
1499.0, 0.003025857776386904
1500.0, 0.0029933955250222685
1501.0, 0.0035953162582358328
1502.0, 0.005361582277322686
1503.0, 0.005484762738532501
1504.0, 0.003405293493541692
1505.0, 0.004085051266129358
1506.0, 0.004376961927891959
1507.0, 0.006673635671846789
1508.0, 0.008085590941799904
1509.0, 0.007579715967020899
1510.0, 0.009033683735585024
1511.0, 0.00863718140876247
1512.0, 0.007879483967086279
1513.0, 0.00824786867169491
1514.0, 0.008849847147086526
1515.0, 0.01176105932859125
1516.0, 0.009888193598024769
1517.0, 0.009766068566500344
1518.0, 0.009602006200611581
1519.0, 0.008045498217804191
1520.0, 0.011922768775006365
1521.0, 0.009374521034344083
1522.0, 0.010112382869807094
1523.0, 0.008942767627218505
1524.0, 0.010668532577643337
1525.0, 0.012268417678467954
1526.0, 0.011660473809862742
1527.0, 0.009071733056522148
1528.0, 0.011200932100504489
1529.0, 0.01040635793669623
1530.0, 0.00952218807675814
1531.0, 0.010688256726780105
1532.0, 0.00859033155217475
1533.0, 0.0061257367361698244
1534.0, 0.008553385445518846
1535.0, 0.006737828301305448
1536.0, 0.006887461198212843
1537.0, 0.009390578285474946
1538.0, 0.009787126493980548
1539.0, 0.008698461448026454
1540.0, 0.008364729384473503
1541.0, 0.008595828345940174
1542.0, 0.006576937931751939
1543.0, 0.005207998283602569
1544.0, 0.0059506090761912425
1545.0, 0.004688984881858944
1546.0, 0.0026098520816648057
1547.0, 0.004570388426055185
1548.0, 0.005578325753108744
1549.0, 0.003762817596402801
1550.0, 0.0060683932221366095
1551.0, 0.007464352886545526
1552.0, 0.009008839472455319
1553.0, 0.0074790867268425855
1554.0, 0.011032769602394682
1555.0, 0.012057979431373878
1556.0, 0.004510954362462465
1557.0, 0.005905846374158299
1558.0, 0.0070975398085099785
1559.0, 0.0017043116525736939
1560.0, 0.003085297133451132
1561.0, 0.004339640554513104
1562.0, 0.004490066778359754
1563.0, 0.005149670628102317
1564.0, 0.0030180595784651382
1565.0, 0.005506917870046011
1566.0, 0.006020451541803587
1567.0, 0.0034657111223750795
1568.0, 0.0016063215410254672
1569.0, 0.0005630859143743835
1570.0, 0.002614755452780163
1571.0, 0.0024246154508112206
1572.0, 0.0005718794580675441
1573, 0.0
1574, 0.0
1575, 0.0
1576, 0.0
1577, 0.0
1578, 0.0
1579, 0.0
1580, 0.0
1581, 0.0
1582, 0.0
1583, 0.0
1584, 0.0
1585, 0.0
1586, 0.0
1587, 0.0
1588, 0.0
1589, 0.0
1590, 0.0
1591, 0.0
1592, 0.0
1593, 0.0
1594, 0.0
1595, 0.0
1596, 0.0
1597, 0.0
1598, 0.0
1599, 0.0
