30, 0.0
31, 0.0
32, 0.0
33, 0.0
34, 0.0
35, 0.0
36, 0.0
37, 0.0
38, 0.0
39, 0.0
40, 0.0
41, 0.0
42, 0.0
43, 0.0
44, 0.0
45, 0.0
46, 0.0
47, 0.0
48, 0.0
49, 0.0
50, 0.0
51, 0.0
52, 0.0
53, 0.0
54, 0.0
55, 0.0
56, 0.0
57, 0.0
58, 0.0
59, 0.0
60, 0.0
61, 0.0
62, 0.0
63, 0.0
64, 0.0
65, 0.0
66, 0.0
67, 0.0
68, 0.0
69, 0.0
70, 0.0
71, 0.0
72, 0.0
73, 0.0
74, 0.0
75, 0.0
76, 0.0
77, 0.0
78, 0.0
79, 0.0
80, 0.0
81, 0.0
82, 0.0
83, 0.0
84, 0.0
85, 0.0
86, 0.0
87, 0.0
88, 0.0
89, 0.0
90, 0.0
91, 0.0
92, 0.0
93, 0.0
94, 0.0
95, 0.0
96, 0.0
97, 0.0
98, 0.0
99, 0.0
100, 0.0
101, 0.0
102, 0.0
103, 0.0
104, 0.0
105, 0.0
106, 0.0
107.0, 7.802778766902822e-05
108.0, 0.0005759793927316372
109.0, 0.002105938942659157
110.0, 0.006302949694123747
111.0, 0.012302226409827494
112.0, 0.01962516192900829
113.0, 0.02736468032959239
114.0, 0.0330525966715295
115.0, 0.03380724517839926
116.0, 0.02892497818372488
117.0, 0.020068706474428925
118.0, 0.011346096405950174
119.0, 0.005806635816504946
120.0, 0.0028222659665099493
121.0, 0.0021389625617742793
122.0, 0.0041047540666297585
123.0, 0.008700686788168939
124.0, 0.013524256676296992
125.0, 0.017307413670578316
126.0, 0.019749317876297398
127.0, 0.02173725685242329
128.0, 0.022371542867454533
129.0, 0.02251065161371202
130.0, 0.022840979539634473
131.0, 0.02242090482685137
132.0, 0.02273746087887258
133.0, 0.023235417218741464
134.0, 0.024221321631215355
135.0, 0.0274357946860667
136.0, 0.03298439660017524
137.0, 0.040438269484474654
138.0, 0.04909101252537298
139.0, 0.05829604545134357
140.0, 0.06756548594892132
141.0, 0.07054811023986857
142.0, 0.06608763577839069
143.0, 0.05627147684560038
144.0, 0.045016177182519906
145.0, 0.03597316971774605
146.0, 0.029955204645914033
147.0, 0.026810492432873635
148.0, 0.026342087339480867
149.0, 0.027417052952644752
150.0, 0.030885215959387178
151.0, 0.036394777119606196
152.0, 0.042477702865518316
153.0, 0.049923148815052984
154.0, 0.05742092739761023
155.0, 0.06516518489339851
156.0, 0.07290879285173861
157.0, 0.07780103684767352
158.0, 0.08085932660000852
159.0, 0.08218063919154452
160.0, 0.0817155577424555
161.0, 0.07923898442175668
162.0, 0.07584519004094774
163.0, 0.07289172323371569
164.0, 0.07035865600275049
165.0, 0.0677036082409329
166.0, 0.06665552325631008
167.0, 0.06733174715091617
168.0, 0.06913827844887839
169.0, 0.07145203095573498
170.0, 0.07417033660821429
171.0, 0.07638277063917687
172.0, 0.07668762343450414
173.0, 0.07427208542086906
174.0, 0.06925874803074897
175.0, 0.06236853104803218
176.0, 0.054449314307132304
177.0, 0.04627148522451633
178.0, 0.03857053519975623
179.0, 0.03268329978355568
180.0, 0.028066382746999192
181.0, 0.02453693395360971
182.0, 0.021808768237192452
183.0, 0.0192181708884234
184.0, 0.016077467061634612
185.0, 0.013049317126384762
186.0, 0.010392861528511618
187.0, 0.007778628457824508
188.0, 0.006219409090353233
189.0, 0.004486668671390695
190.0, 0.0029102580649714173
191.0, 0.00224319045667145
192.0, 0.0013361530412232619
193.0, 0.0007673178019719559
194.0, 0.00021474843178595355
195.0, 0.0008315437578548814
196.0, 0.0016164384366221338
197.0, 0.0017983167584139223
198.0, 0.0019503377088749144
199.0, 0.0022229629519155574
200.0, 0.0023573869921374585
201.0, 0.002385409503655905
202.0, 0.0027045714651322077
203.0, 0.002709994633694673
204.0, 0.0019342029000868934
205.0, 0.0008018057541291114
206.0, 0.0011137378105895888
207.0, 0.0012280642727305665
208.0, 0.000666096531049695
209.0, 0.0002081214322379317
210.0, 0.0010726119961188597
211.0, 0.0022594357013780053
212.0, 0.0033451835374276977
213.0, 0.0043894643849200716
214.0, 0.0053991295259093654
215.0, 0.0061176006211559105
216.0, 0.007099205757452805
217.0, 0.008329493030461651
218.0, 0.009243833889033408
219.0, 0.009776759130145262
220.0, 0.011000367228171319
221.0, 0.012308128897781502
222.0, 0.012898971235699273
223.0, 0.013118083865804936
224.0, 0.012815882899616323
225.0, 0.012727923027253594
226.0, 0.012776716255342865
227.0, 0.011991790832635994
228.0, 0.01064444503596536
229.0, 0.009341778127157183
230.0, 0.00813146193948408
231.0, 0.006828487872357517
232.0, 0.005270833772597218
233.0, 0.0044874519351875185
234.0, 0.003896381910360098
235.0, 0.0034136467380107534
236.0, 0.0035427898756334687
237.0, 0.004184876288892829
238.0, 0.00553556353373618
239.0, 0.006710842090918809
240.0, 0.007245092736561555
241.0, 0.008466505014492982
242.0, 0.009429924122189494
243.0, 0.01006582181380071
244.0, 0.010706343923749919
245.0, 0.011732207222975487
246.0, 0.01223509883751526
247.0, 0.012764472323735756
248.0, 0.012933756942809689
249.0, 0.012789249748111233
250.0, 0.01396957738010229
251.0, 0.014547663658926298
252.0, 0.015535752881641824
253.0, 0.01697737177079479
254.0, 0.01823097373547626
255.0, 0.020041661986282964
256.0, 0.022484395707443695
257.0, 0.025505674436575056
258.0, 0.028868333288257407
259.0, 0.03210331952837209
260.0, 0.03503176539368621
261.0, 0.03854053896122805
262.0, 0.04230447044666402
263.0, 0.045479219460819315
264.0, 0.04779243839848156
265.0, 0.04954239029247018
266.0, 0.05003755830981191
267.0, 0.049609398990457174
268.0, 0.04945012770098413
269.0, 0.0472906978125854
270.0, 0.04511466245086972
271.0, 0.04327883159822473
272.0, 0.041472189216792694
273.0, 0.039969790103324465
274.0, 0.038074332272113126
275.0, 0.03743992791493262
276.0, 0.03751881742904715
277.0, 0.036872102616601364
278.0, 0.037382309049386
279.0, 0.03843812999415057
280.0, 0.04000792974649607
281.0, 0.042048695144237605
282.0, 0.044291553234425025
283.0, 0.046904363023053085
284.0, 0.04952407629871883
285.0, 0.052297080329434885
286.0, 0.05563069806680341
287.0, 0.060046288196651115
288.0, 0.06516122256932404
289.0, 0.07012049386040285
290.0, 0.07525831069236016
291.0, 0.08144327957316458
292.0, 0.08734036918124718
293.0, 0.09347578077975874
294.0, 0.09899447928398132
295.0, 0.10361679931277211
296.0, 0.10814963115003536
297.0, 0.11181359962405558
298.0, 0.11494799553841159
299.0, 0.11737919184292889
300.0, 0.11921509526362806
301.0, 0.1216504139892123
302.0, 0.12505643034780733
303.0, 0.1293563279237741
304.0, 0.13425825628648955
305.0, 0.13956273347084205
306.0, 0.14560795145516642
307.0, 0.15144203698573186
308.0, 0.15582029668862574
309.0, 0.1578328075294594
310.0, 0.156940765460745
311.0, 0.15271726683532194
312.0, 0.14480634616564547
313.0, 0.13336791473265636
314.0, 0.11956954514356571
315.0, 0.10573379951220575
316.0, 0.0913861526678777
317.0, 0.07789798019512015
318.0, 0.06654261175926256
319.0, 0.05734263187686712
320.0, 0.04823281080782461
321.0, 0.04104625887219307
322.0, 0.034324679076742595
323.0, 0.027905071059062862
324.0, 0.022508063774511658
325.0, 0.017232781007126222
326.0, 0.012396395262152481
327.0, 0.008101573917410131
328.0, 0.004446829890810726
329.0, 0.0015113171250630498
330.0, 0.0002898650858593068
331.0, 0.0017593171955466644
332.0, 0.0027480591834187903
333.0, 0.003167806084433962
334.0, 0.0034210967824200972
335.0, 0.002790029385369103
336.0, 0.0017136509860373548
337.0, 0.0007820515823071146
338.0, 0.00020048834778545438
339.0, 0.00047224700246314
340.0, 0.0015987288771252585
341.0, 0.001905298850568777
342.0, 0.0017982769116771412
343.0, 0.0022662856663203646
344.0, 0.0029844269456565696
345.0, 0.0031293651803935515
346.0, 0.0031584085928030715
347.0, 0.0032090530189575976
348.0, 0.0031169943763845747
349.0, 0.0033519431264424126
350.0, 0.003562892490631116
351.0, 0.004114163591511136
352.0, 0.0052305020235852056
353.0, 0.006624793836984116
354.0, 0.007249001133082047
355.0, 0.008860447543829659
356.0, 0.01059307640645795
357.0, 0.011623442922746096
358.0, 0.012155961190472062
359.0, 0.013225877774880952
360.0, 0.013146075987140118
361.0, 0.01290648735649807
362.0, 0.01337438853228925
363.0, 0.013860514481224578
364.0, 0.01407388166253372
365.0, 0.015270436066514473
366.0, 0.016251551388520608
367.0, 0.01644862833699478
368.0, 0.017569152737202203
369.0, 0.01929341231952368
370.0, 0.019963420732940523
371.0, 0.019916748334043125
372.0, 0.01994925521641664
373.0, 0.020239560358202173
374.0, 0.021617939069625832
375.0, 0.021767311534300626
376.0, 0.021377105213937302
377.0, 0.022055190464630364
378.0, 0.022844505871476208
379.0, 0.023627239541951076
380.0, 0.024373415380681128
381.0, 0.024908130993487244
382.0, 0.024944916496668728
383.0, 0.024119961146242732
384.0, 0.022671222565310966
385.0, 0.020946408886677523
386.0, 0.019345140557549538
387.0, 0.01807019538730014
388.0, 0.0169402499348578
389.0, 0.016286818272793418
390.0, 0.01600894009810364
391.0, 0.016133662476795867
392.0, 0.016694478002537226
393.0, 0.0174990383676921
394.0, 0.019131395078555227
395.0, 0.02042206666807995
396.0, 0.022161510393983654
397.0, 0.025365570526913128
398.0, 0.027498101155472535
399.0, 0.029994981110476306
400.0, 0.0326043854846531
401.0, 0.035022010960809855
402.0, 0.03715003958239378
403.0, 0.03926372451366226
404.0, 0.04119389870429618
405.0, 0.04254338712757642
406.0, 0.0432294730404174
407.0, 0.0434769469943908
408.0, 0.04373506289185764
409.0, 0.04284987544390995
410.0, 0.04218123626951254
411.0, 0.041692170056850504
412.0, 0.04089797466073855
413.0, 0.040917646592375595
414.0, 0.04056305582870429
415.0, 0.039994869477587465
416.0, 0.03940133655994025
417.0, 0.03860514598857191
418.0, 0.03731801362244796
419.0, 0.03630705558134118
420.0, 0.03543509513720384
421.0, 0.03414385513804507
422.0, 0.0324682084273378
423.0, 0.03177094555385439
424.0, 0.031319460764229604
425.0, 0.030901634653577436
426.0, 0.030657424992682925
427.0, 0.030782793788678806
428.0, 0.031266991794067556
429.0, 0.03140855989265513
430.0, 0.0314680855407884
431.0, 0.031287310191634436
432.0, 0.0304862350122374
433.0, 0.028923542869716427
434.0, 0.02730370993801053
435.0, 0.02490798935821212
436.0, 0.022029483032440525
437.0, 0.01934246601283922
438.0, 0.017288053789805437
439.0, 0.015238857640307139
440.0, 0.013035570820306696
441.0, 0.010932890824757673
442.0, 0.00911413766524151
443.0, 0.007451904540016487
444.0, 0.005502532969721944
445.0, 0.004017510162077883
446.0, 0.00267843915658448
447.0, 0.0012956451604707875
448.0, 6.0237019980026246e-05
449.0, 0.0005553116613988416
450.0, 0.0008342642838799252
451.0, 0.0009689221982411216
452.0, 0.0009316829152006615
453.0, 0.0007370085762236756
454.0, 0.0008882178008958874
455.0, 0.0009948132665978883
456.0, 0.0005834185528094316
457.0, 0.00027529735040792146
458.0, 0.0002959672482384596
459.0, 0.0007793109942098419
460.0, 0.0004890948594724068
461.0, 0.00017687268173007862
462.0, 0.0002681605642308531
463.0, 0.00030846041781167175
464.0, 0.00013564974256565523
465.0, 0.00017977233175344633
466.0, 0.0003670377010047578
467.0, 0.00046999831206107073
468.0, 0.00041529973150779064
469.0, 0.0005568813169831857
470.0, 0.00016834167149071592
471.0, 0.0002677520427623525
472.0, 0.0005494612228656452
473.0, 0.0009765513166071625
474.0, 0.0011158267050607243
475.0, 0.0023691490848507875
476.0, 0.002492774055649635
477.0, 0.002519321563464282
478.0, 0.002961725614424311
479.0, 0.0035119644321594786
480.0, 0.004087671058560456
481.0, 0.004532219095369767
482.0, 0.005030614095701179
483.0, 0.005446370725558909
484.0, 0.005957117684437228
485.0, 0.007236978858139608
486.0, 0.008200554570328766
487.0, 0.008501106774175404
488.0, 0.009029760533437483
489.0, 0.009973534878897614
490.0, 0.010580878177390621
491.0, 0.010855229327046436
492.0, 0.010882920765869889
493.0, 0.010914394600340837
494.0, 0.010599951462157954
495.0, 0.009748086844402412
496.0, 0.009454355462130196
497.0, 0.008983882354616375
498.0, 0.00856320767486414
499.0, 0.008536298499960225
500.0, 0.008731489137965898
501.0, 0.008584249015901158
502.0, 0.00933548073584191
503.0, 0.009716208327114086
504.0, 0.010034880495418317
505.0, 0.010764791990031547
506.0, 0.01190411063923451
507.0, 0.012658167845989783
508.0, 0.012787148548988055
509.0, 0.012884737728921885
510.0, 0.013380657930997394
511.0, 0.013838736346876872
512.0, 0.013223068356437249
513.0, 0.013463358014382776
514.0, 0.013568029773651666
515.0, 0.013573912805466234
516.0, 0.013752383916928353
517.0, 0.013992253791758636
518.0, 0.014702924956039965
519.0, 0.015102154620684143
520.0, 0.015743097505779725
521.0, 0.016646881240091147
522.0, 0.017321215474512396
523.0, 0.01824396824961785
524.0, 0.01962065846034261
525.0, 0.020758209418036484
526.0, 0.021663960500487862
527.0, 0.022867386596902604
528.0, 0.025007443256493803
529.0, 0.026922578921469747
530.0, 0.029943776976790758
531.0, 0.03221892553990612
532.0, 0.03376462959722053
533.0, 0.036090595783202305
534.0, 0.0371416399411973
535.0, 0.03856455228805488
536.0, 0.03952514196494112
537.0, 0.03952431059628883
538.0, 0.03883218199900827
539.0, 0.03799622096407081
540.0, 0.03654305391833842
541.0, 0.03417959175504004
542.0, 0.03150303197466784
543.0, 0.028685980873120832
544.0, 0.025649855651301175
545.0, 0.02305672482771911
546.0, 0.0206716157203184
547.0, 0.018667751942540924
548.0, 0.01704478728709993
549.0, 0.01575095504591983
550.0, 0.014747373405522018
551.0, 0.013618720090531552
552.0, 0.012920156741579456
553.0, 0.01273806234691742
554.0, 0.01265982530608361
555.0, 0.012283209858963912
556.0, 0.011776641905319143
557.0, 0.011540278705546516
558.0, 0.011682751160284078
559.0, 0.011863346347613022
560.0, 0.011628143471328107
561.0, 0.010849120574573516
562.0, 0.010377920052149606
563.0, 0.010217226828911722
564.0, 0.009732255221938803
565.0, 0.008849371006670945
566.0, 0.007855248532485388
567.0, 0.006812906032024454
568.0, 0.005670307691572461
569.0, 0.0045789752887517125
570.0, 0.0037941547338048143
571.0, 0.0033899608378450473
572.0, 0.002903267616339985
573.0, 0.0012368331234926394
574.0, 0.0005185421819640312
575.0, 0.00014131616455493364
576.0, 0.0003663387383265813
577.0, 0.0005831601926002314
578.0, 0.001028653331626904
579.0, 0.0011582565085898465
580.0, 0.0014388068645885563
581.0, 0.001703344423223656
582.0, 0.0020973087212833993
583.0, 0.00256843104218229
584.0, 0.0021877252528090486
585.0, 0.0019569501447716004
586.0, 0.0019013340112101602
587.0, 0.0020467960374873587
588.0, 0.0021689324141953123
589.0, 0.001966753891809276
590.0, 0.0016761744383178808
591.0, 0.0015045976706175828
592.0, 0.0013105465751771408
593.0, 0.0008643896817732937
594.0, 0.0003778160608531286
595.0, 0.00015743667998777133
596.0, 0.0007255378316656363
597.0, 0.0015729872781334627
598.0, 0.002465256691629931
599.0, 0.003326199517451817
600.0, 0.0042812990093040945
601.0, 0.00578467105894048
602.0, 0.00672964483667759
603.0, 0.008179488071315537
604.0, 0.00944328601000279
605.0, 0.010570271490941915
606.0, 0.012272494062304224
607.0, 0.014381811230055525
608.0, 0.015683561389436756
609.0, 0.01726739917393942
610.0, 0.018712423616951388
611.0, 0.01993077073752347
612.0, 0.02124426046253431
613.0, 0.022188539170452715
614.0, 0.023146019378309318
615.0, 0.02328319860838416
616.0, 0.023008433251403164
617.0, 0.02287134219444515
618.0, 0.02282253359662723
619.0, 0.022604036724736223
620.0, 0.02284351699192942
621.0, 0.023035376433337123
622.0, 0.02317375540409662
623.0, 0.023535111840536322
624.0, 0.024343603525635023
625.0, 0.025929601480928495
626.0, 0.02722505444840149
627.0, 0.029428198970743166
628.0, 0.031749019852616196
629.0, 0.03382780164664906
630.0, 0.03669716011821352
631.0, 0.0395181727629264
632.0, 0.04280709897211669
633.0, 0.04684340517428271
634.0, 0.05142869898122448
635.0, 0.056503929592074786
636.0, 0.0621742082554645
637.0, 0.06863290390663022
638.0, 0.07652304254284156
639.0, 0.08584704851169667
640.0, 0.096754373617086
641.0, 0.10992007307589302
642.0, 0.12620743218799288
643.0, 0.14529826877837873
644.0, 0.1675464443258282
645.0, 0.19427321697011163
646.0, 0.22593540381997068
647.0, 0.26236122979867005
648.0, 0.3030112358690943
649.0, 0.3459918570190823
650.0, 0.39561502510833796
651.0, 0.44968404777850346
652.0, 0.5086155353533146
653.0, 0.5734197117927676
654.0, 0.6430494571787896
655.0, 0.7144395598733241
656.0, 0.7885414867790561
657.0, 0.8589328558086742
658.0, 0.921946517819292
659.0, 0.9716430024456796
660.0, 0.9981153699300559
661.0, 0.9933315517583744
662.0, 0.9532599881283849
663.0, 0.8850719582984236
664.0, 0.7969052519872261
665.0, 0.7003549051321779
666.0, 0.6081485022203595
667.0, 0.5253434305708146
668.0, 0.4549831872232319
669.0, 0.3962298495907401
670.0, 0.34745325825479756
671.0, 0.307509153908903
672.0, 0.2759103555058112
673.0, 0.2507526735858994
674.0, 0.23078662076988996
675.0, 0.2132041888237968
676.0, 0.19881126451905098
677.0, 0.18710254921911867
678.0, 0.176138310549093
679.0, 0.16641675418798432
680.0, 0.15629954704451615
681.0, 0.1457142281153804
682.0, 0.1343067601691444
683.0, 0.12171168973469876
684.0, 0.10867020203222685
685.0, 0.09710580736866091
686.0, 0.08597599697144347
687.0, 0.07575830294740533
688.0, 0.06689153263068888
689.0, 0.059394198700500736
690.0, 0.05311637938875841
691.0, 0.04820263811569002
692.0, 0.04448284349994826
693.0, 0.04192723063314269
694.0, 0.03978642061131302
695.0, 0.0379661051277022
696.0, 0.036789913676509994
697.0, 0.03633005516239257
698.0, 0.03629243732907498
699.0, 0.036245652735841086
700.0, 0.03562322753377939
701.0, 0.03518161115015253
702.0, 0.034924749361113075
703.0, 0.034184555408113534
704.0, 0.034043868200619914
705.0, 0.03335167060153873
706.0, 0.03203596082739135
707.0, 0.030646822440212763
708.0, 0.02912977189643574
709.0, 0.027392478779535306
710.0, 0.025952428840293446
711.0, 0.024935542642659143
712.0, 0.02413460641172
713.0, 0.023312407445911298
714.0, 0.021950336266535343
715.0, 0.020576177850633395
716.0, 0.02027003269329358
717.0, 0.01895581851099286
718.0, 0.018648603269418272
719.0, 0.01866742672537544
720.0, 0.01845651487478916
721.0, 0.018241902507393458
722.0, 0.01826639433524061
723.0, 0.017839877248005495
724.0, 0.017174596791570945
725.0, 0.01605772814989085
726.0, 0.014617045418089673
727.0, 0.01312453722490291
728.0, 0.011541543082554588
729.0, 0.00963041832345804
730.0, 0.007995653849745042
731.0, 0.006842643257538629
732.0, 0.0055338483401141956
733.0, 0.004282681401237467
734.0, 0.0033533681265908986
735.0, 0.002654510526571127
736.0, 0.0019610283626497653
737.0, 0.001367848585967518
738.0, 0.0008857932052010343
739.0, 0.000591578530474585
740.0, 0.0002130600824048307
741.0, 0.0007252270580942444
742.0, 0.000765813832992332
743.0, 0.001292801357218958
744.0, 0.0013373166200309496
745.0, 0.0011457311119205435
746.0, 0.0014647448228102204
747.0, 0.0019015237840869803
748.0, 0.0016628506591320202
749.0, 0.001681372691351926
750.0, 0.0020746737372937776
751.0, 0.002174434641213794
752.0, 0.001999670068510948
753.0, 0.002088062216380744
754.0, 0.0023749686672856945
755.0, 0.002005275955727436
756.0, 0.0012123982563156676
757.0, 0.0007526623635607933
758.0, 0.00019249500353384929
759.0, 0.0004417435171805776
760.0, 0.00024651270175384926
761.0, 0.0006097343619470439
762.0, 0.000570458549324233
763.0, 0.0013332972850972702
764.0, 0.0011032730878711402
765.0, 0.0012473398678646492
766.0, 0.0016104757664040627
767.0, 0.001870421985029858
768.0, 0.0025665810129744705
769.0, 0.0031964493023163487
770.0, 0.003734305740769089
771.0, 0.004456303627050764
772.0, 0.005502619093603841
773.0, 0.006518619277682468
774.0, 0.0073128601346005555
775.0, 0.008186369256981947
776.0, 0.009109542840376366
777.0, 0.010518215366572402
778.0, 0.011971748059297642
779.0, 0.012957737004812316
780.0, 0.013826380632005811
781.0, 0.014989806469063019
782.0, 0.016160607031577172
783.0, 0.017496367007931692
784.0, 0.018640576649338287
785.0, 0.019470883000569338
786.0, 0.020072509561960824
787.0, 0.020641756914023507
788.0, 0.0211400934196446
789.0, 0.02114414444198151
790.0, 0.02098966746875864
791.0, 0.02152328105067877
792.0, 0.021822712885403498
793.0, 0.021810941150668454
794.0, 0.021637378893684316
795.0, 0.021089460147116282
796.0, 0.02021609523952522
797.0, 0.01927055380612333
798.0, 0.018148801019817248
799.0, 0.017859563332433732
800.0, 0.016616831501117788
801.0, 0.01424441983817593
802.0, 0.012739351855434981
803.0, 0.010707790898791982
804.0, 0.00921031890187125
805.0, 0.008150571225957002
806.0, 0.007133100944557947
807.0, 0.005530287096814103
808.0, 0.003464320463556618
809.0, 0.0017808352292359142
810.0, 0.0007334113852011969
811.0, 0.0003156114990593825
812.0, 0.0012027922331862334
813.0, 0.0025120319848849944
814.0, 0.0031490089114316394
815.0, 0.0033733967007238625
816.0, 0.0029504670204664133
817.0, 0.0014127089794996523
818.0, 0.0009219891703800512
819.0, 0.00025032063432266444
820.0, 0.0014465254938156407
821.0, 0.0033645085868086923
822.0, 0.005094766460368384
823.0, 0.006861132269955557
824.0, 0.008716396378120007
825.0, 0.010779130197308674
826.0, 0.013072146775914548
827.0, 0.014984246040944274
828.0, 0.017392916194116856
829.0, 0.02067941639769057
830.0, 0.024267150339026173
831.0, 0.028025605236178804
832.0, 0.03203141369740849
833.0, 0.036535890463464296
834.0, 0.04250577319200651
835.0, 0.04906617626034793
836.0, 0.05566146650830105
837.0, 0.062175203278047646
838.0, 0.06812632836334752
839.0, 0.07657220325429896
840.0, 0.08397086644510826
841.0, 0.09217585760435706
842.0, 0.09968308908350912
843.0, 0.10562321388045989
844.0, 0.11123867257376198
845.0, 0.11737110774649676
846.0, 0.1219867928661129
847.0, 0.12485946057665318
848.0, 0.12618616145167813
849.0, 0.12750290351648685
850.0, 0.12784307664752315
851.0, 0.1262311647416283
852.0, 0.12366670116854712
853.0, 0.11993006107818731
854.0, 0.11431374049530231
855.0, 0.10850608935291654
856.0, 0.10179190163222113
857.0, 0.09600015055518862
858.0, 0.09106052871017836
859.0, 0.08533778346793047
860.0, 0.08154357770488295
861.0, 0.07677244817430955
862.0, 0.07215027686324266
863.0, 0.06683437667750625
864.0, 0.06139382964137311
865.0, 0.05620423677958209
866.0, 0.05022199944614453
867.0, 0.04260430317942318
868.0, 0.03691061077480323
869.0, 0.030443130795768752
870.0, 0.024140912762065765
871.0, 0.01865002288087261
872.0, 0.015060998295953077
873.0, 0.012930368879242642
874.0, 0.010677802371725846
875.0, 0.00930183036555714
876.0, 0.009226546209075854
877.0, 0.008864836650249674
878.0, 0.009130368602367257
879.0, 0.009273017647006016
880.0, 0.008834147095790657
881.0, 0.008766061269519121
882.0, 0.009828871643930481
883.0, 0.010953611250939249
884.0, 0.011878679647493237
885.0, 0.01249048931762928
886.0, 0.013743614602622608
887.0, 0.015750771884463045
888.0, 0.018025513330223612
889.0, 0.020502447628890454
890.0, 0.02321014236889791
891.0, 0.025898598599600448
892.0, 0.027774737468597634
893.0, 0.03017929509154944
894.0, 0.032103275100369984
895.0, 0.03283945385063194
896.0, 0.03326030954737967
897.0, 0.034232018909606726
898.0, 0.03402786092651524
899.0, 0.03388465475185258
900.0, 0.03326139184683154
901.0, 0.03180740490641137
902.0, 0.03120643525924698
903.0, 0.031302982544199644
904.0, 0.030366954399605524
905.0, 0.02864063030553821
906.0, 0.02753461274269789
907.0, 0.02614071296894385
908.0, 0.02476139182141324
909.0, 0.0233242131115886
910.0, 0.021522103787627117
911.0, 0.020024587523042984
912.0, 0.019765141080560003
913.0, 0.019568321945910204
914.0, 0.018923871968443768
915.0, 0.017864980432646803
916.0, 0.01806282106982298
917.0, 0.01893050671413698
918.0, 0.019231378551470585
919.0, 0.019829901290314252
920.0, 0.021846017900017393
921.0, 0.022665650183972243
922.0, 0.024619177163416564
923.0, 0.024164371675155418
924.0, 0.025427787601445106
925.0, 0.02585584543932592
926.0, 0.02511974120372667
927.0, 0.02457114247153392
928.0, 0.02346984355449388
929.0, 0.02271035005645241
930.0, 0.020607632530496283
931.0, 0.01726849583530737
932.0, 0.014710852082409468
933.0, 0.011703152949108555
934.0, 0.008518768048807471
935.0, 0.005704216072202801
936.0, 0.002628788378299004
937.0, 0.00048788964617065293
938.0, 0.0022525039954891368
939.0, 0.00328775231271335
940.0, 0.004276809694293402
941.0, 0.004812510012662735
942.0, 0.0046614793596279165
943.0, 0.004044731151383031
944.0, 0.0028938105419203655
945.0, 0.0013067367698690866
946.0, 0.0008372930281945648
947.0, 0.0016388539363360053
948.0, 0.0033013290630406634
949.0, 0.004630186719534965
950.0, 0.006325213998951762
951.0, 0.008187063904672392
952.0, 0.009955219910942715
953.0, 0.011125437035271132
954.0, 0.010679796209144578
955.0, 0.011149096084857934
956.0, 0.01093129817011905
957.0, 0.011576503893287507
958.0, 0.012148782890483344
959.0, 0.012219385169760144
960.0, 0.012819486851573574
961.0, 0.013832850302360158
962.0, 0.015297806322074677
963.0, 0.016353042464654053
964.0, 0.02020453834489796
965.0, 0.02331663453673806
966.0, 0.028284993396023205
967.0, 0.0353236375303282
968.0, 0.04205202947350417
969.0, 0.04966804459408581
970.0, 0.059130189776512874
971.0, 0.07044706483760106
972.0, 0.0828248795815441
973.0, 0.09627036132186186
974.0, 0.11010052233995789
975.0, 0.1255469522921405
976.0, 0.14271245674743246
977.0, 0.15985865356343792
978.0, 0.17719797140268323
979.0, 0.1945280087518096
980.0, 0.20858134917158297
981.0, 0.22172896863685804
982.0, 0.2338930233464398
983.0, 0.24347505203559072
984.0, 0.2505503362850113
985.0, 0.2556349083623064
986.0, 0.25857759424735294
987.0, 0.26097430802923005
988.0, 0.26067186443581986
989.0, 0.261621467012064
990.0, 0.2588780484491103
991.0, 0.2556416393754637
992.0, 0.2530507464850814
993.0, 0.25068975936663296
994.0, 0.24954151768249794
995.0, 0.2494563496131736
996.0, 0.25264697672407516
997.0, 0.2583368040102422
998.0, 0.2664645258014182
999.0, 0.27571955077620575
1000.0, 0.2882403869746507
1001.0, 0.303735001599626
1002.0, 0.32105267474443006
1003.0, 0.34118421180523323
1004.0, 0.3641376724235353
1005.0, 0.3861060670771828
1006.0, 0.4085920248443978
1007.0, 0.4314712834309375
1008.0, 0.44977974757502404
1009.0, 0.4650047889630456
1010.0, 0.47551164900860543
1011.0, 0.47764430956886444
1012.0, 0.47146358158345125
1013.0, 0.45509078538787623
1014.0, 0.43095448195510827
1015.0, 0.3958070372023968
1016.0, 0.35697693132434166
1017.0, 0.3155992296479169
1018.0, 0.275507063559529
1019.0, 0.23857782456601268
1020.0, 0.20498745193905432
1021.0, 0.17657905804490318
1022.0, 0.15034537467784645
1023.0, 0.12866376953923925
1024.0, 0.11048658984129264
1025.0, 0.09572142029930214
1026.0, 0.083345246402743
1027.0, 0.0730119161810951
1028.0, 0.06390680987716536
1029.0, 0.05580845798566631
1030.0, 0.04921032275070782
1031.0, 0.042898779670401684
1032.0, 0.038999221602604044
1033.0, 0.03448858441213937
1034.0, 0.03103564233074024
1035.0, 0.027552929886954857
1036.0, 0.024409373340321127
1037.0, 0.022026578354921035
1038.0, 0.01960285927093649
1039.0, 0.01710353799555743
1040.0, 0.01563526311542775
1041.0, 0.013949716975421094
1042.0, 0.012689212900625324
1043.0, 0.010377121680522152
1044.0, 0.009226119326762393
1045.0, 0.007817184754279515
1046.0, 0.005883299656173377
1047.0, 0.004560414023190804
1048.0, 0.0036835959944383307
1049.0, 0.002732381136778726
1050.0, 0.001834769247606688
1051.0, 0.00037872666613638067
1052.0, 0.00016917124652780183
1053.0, 0.0005394543833104545
1054.0, 0.00048453040789052745
1055.0, 0.0011811065282133447
1056.0, 0.0008399992080748174
1057.0, 0.0006992782909725071
1058.0, 0.0013197109439204873
1059.0, 0.0020322762006265266
1060.0, 0.0022385761941758173
1061.0, 0.001667747957442107
1062.0, 0.0015687107664690298
1063.0, 0.0014465799506134778
1064.0, 0.0007329624558574662
1065.0, 0.0003747753580738092
1066.0, 0.00040158855410590236
1067.0, 0.0002616623652456634
1068.0, 0.0011234561139817456
1069.0, 0.0014635806832815426
1070.0, 0.0020779651246035087
1071.0, 0.0019090273544336454
1072.0, 0.0014137392161769529
1073.0, 0.002479678573373053
1074.0, 0.00442129949640112
1075.0, 0.004849958818220652
1076.0, 0.004985984942719113
1077.0, 0.006796696105223059
1078.0, 0.007307446919171161
1079.0, 0.008669286583305827
1080.0, 0.010081505409524107
1081.0, 0.012138448921677699
1082.0, 0.013433471933276772
1083.0, 0.015126541170802369
1084.0, 0.018027514855233694
1085.0, 0.021213704723432675
1086.0, 0.023947882338235797
1087.0, 0.02680627420873253
1088.0, 0.02887816080728406
1089.0, 0.028215992210365495
1090.0, 0.023972966769126376
1091.0, 0.019447431534461
1092.0, 0.016061643725385072
1093.0, 0.01394266115837688
1094.0, 0.013294644852584974
1095.0, 0.013286552570535341
1096.0, 0.01317664146841972
1097.0, 0.013391711463419208
1098.0, 0.013282124361668748
1099.0, 0.013623455214279023
1100.0, 0.01430889740710599
1101.0, 0.01549536326880326
1102.0, 0.015765807809265946
1103.0, 0.015070858619392506
1104.0, 0.014732865114279292
1105.0, 0.014782060877766958
1106.0, 0.014698924298337886
1107.0, 0.01455417475990195
1108.0, 0.013926846666083008
1109.0, 0.013885804512590852
1110.0, 0.013153357105959993
1111.0, 0.013289413251675325
1112.0, 0.012201093032448537
1113.0, 0.011590757574595583
1114.0, 0.010211094415506652
1115.0, 0.008729892614144445
1116.0, 0.008442094965229324
1117.0, 0.007728527178231472
1118.0, 0.00723011484165047
1119.0, 0.007806239297278594
1120.0, 0.005292450521915094
1121.0, 0.004376424345080854
1122.0, 0.004572616788783125
1123.0, 0.0038556475698955065
1124.0, 0.0023916870169041365
1125.0, 0.001789591074860132
1126.0, 0.0018675498534546015
1127.0, 0.0016166015422742377
1128.0, 0.001399817095805969
1129.0, 0.0011716537345707037
1130.0, 0.0009422611371004381
1131.0, 0.0005455446568557251
1132.0, 0.0003992346702025977
1133.0, 0.0004033959544884813
1134.0, 0.0012718848641378856
1135.0, 0.0008474589837037572
1136.0, 0.0004635699503462496
1137.0, 0.00042823642494009393
1138.0, 0.0003386803830192585
1139.0, 0.0010960495237538905
1140.0, 0.00016291607106027592
1141.0, 0.0006438306244700692
1142.0, 0.001014086335026816
1143.0, 0.0008343320810140877
1144.0, 0.0008340896328411374
1145.0, 0.0011658943597339642
1146.0, 0.000923648003624093
1147.0, 0.00047352345493294353
1148.0, 0.000785282135666082
1149.0, 0.0013185722078811039
1150.0, 0.0008922009796708891
1151.0, 0.0005529285469722363
1152.0, 0.0013831162564192296
1153.0, 0.0017396969903203429
1154.0, 0.0015169133078962724
1155.0, 0.0016401286778643912
1156.0, 0.0024252930187728173
1157.0, 0.0026727088977051942
1158.0, 0.0021179824244067875
1159.0, 0.0014366271566379283
1160.0, 0.001245452449792771
1161.0, 0.001519340006951369
1162.0, 0.0007971652784816951
1163.0, 0.001482652620790998
1164.0, 0.0009311243086642734
1165.0, 0.0008586842953580589
1166.0, 0.0012132354876104793
1167.0, 0.001747050759304844
1168.0, 0.0015079788237937213
1169.0, 0.0007991225236241564
1170.0, 0.0005434934523076906
1171.0, 0.0010057818123113823
1172.0, 0.0012548712755723814
1173.0, 0.0006658069914562151
1174.0, 0.0012932204863771478
1175.0, 0.0012765512453717296
1176.0, 0.0015304657302873863
1177.0, 0.0013689850753903939
1178.0, 0.000956760920778169
1179.0, 0.0008267769485689432
1180.0, 0.0013526010392139538
1181.0, 0.001527377633993818
1182.0, 0.0008700815141964531
1183.0, 0.0010052851460611767
1184.0, 0.0019583914365661724
1185.0, 0.0019426117984538752
1186.0, 0.0013645454337160806
1187.0, 0.002517296037792336
1188.0, 0.002076686413122928
1189.0, 0.001975110143946298
1190.0, 0.0028342529632017915
1191.0, 0.003604949118346743
1192.0, 0.002905516039287149
1193.0, 0.0016968409323356503
1194.0, 0.0010502633312719132
1195.0, 0.0007813675916884199
1196.0, 0.0013288271217504158
1197.0, 0.001177845729149977
1198.0, 0.0012404506512604392
1199.0, 0.0008798264936514744
1200.0, 0.0005828049066120291
1201.0, 0.00026471858022085427
1202.0, 0.00021427727052664484
1203.0, 0.0007149006571272847
1204.0, 0.001598926180103297
1205.0, 0.0016506616759782505
1206.0, 0.0009099977078637589
1207.0, 0.0008212223693228835
1208.0, 0.001166303008258445
1209.0, 0.001246740398283623
1210.0, 0.0010197261535187334
1211.0, 0.0010902649287604924
1212.0, 0.0010188984998502528
1213.0, 0.0014040981432818524
1214.0, 0.0012365586325333445
1215.0, 0.0011023819863465235
1216.0, 0.0010377402899485776
1217.0, 0.0006608120375745596
1218.0, 0.00036383188728478076
1219.0, 0.0005704293794213532
1220.0, 0.0008681727208702411
1221.0, 0.0010017426433991032
1222.0, 0.0012556929067886534
1223.0, 0.0008109973783300876
1224.0, 0.0009449469159379981
1225.0, 0.0011285860237385257
1226.0, 0.0003177759331542919
1227.0, 0.00018639125500459532
1228.0, 0.0010394392097564488
1229.0, 0.0006059713071665134
1230.0, 9.112122537787806e-05
1231.0, 0.00018866461823006657
1232.0, 0.00031212807569946634
1233.0, 0.00015616149381663207
1234.0, 0.00013209101528689995
1235.0, 0.00020498068666011224
1236.0, 0.0007402006011364413
1237.0, 0.00025189975217760344
1238.0, 0.0004034247090248623
1239.0, 0.0002691569183300668
1240.0, 0.0006977778417565863
1241.0, 0.0001251954809146857
1242.0, 0.00015295719907220935
1243.0, 0.00017595594070148572
1244.0, 0.00103585298957259
1245.0, 0.0008728993905905051
1246.0, 0.0009650805091953288
1247.0, 0.0009849392383688858
1248.0, 0.0017933912090539147
1249.0, 0.001279800481364159
1250.0, 0.001120697914911237
1251.0, 0.0021653433686209065
1252.0, 0.001402503120377084
1253.0, 0.0012684596477871288
1254.0, 0.0012129870029785354
1255.0, 0.0015523657019140453
1256.0, 0.001656719626524232
1257.0, 0.002184572856356144
1258.0, 0.002679969159703433
1259.0, 0.0018037085581834634
1260.0, 0.00218803231011229
1261.0, 0.0021575093918295416
1262.0, 0.0031492697522941537
1263.0, 0.002645267175650146
1264.0, 0.0027549423801009865
1265.0, 0.0012989116490871953
1266.0, 0.0006224037246583442
1267.0, 0.0014661100553140414
1268.0, 0.0018711655639979535
1269.0, 0.002103102036129807
1270.0, 0.0018614493493509761
1271.0, 0.0013281491908474056
1272.0, 0.001248087176260975
1273.0, 0.001988856727507366
1274.0, 0.002687372063101821
1275.0, 0.0018821992044224358
1276.0, 0.0025458513462308426
1277.0, 0.0034333496446744545
1278.0, 0.0023316435059546146
1279.0, 0.0028879639457268288
1280.0, 0.0032497737784582337
1281.0, 0.0028833920873155795
1282.0, 0.001625425926481851
1283.0, 0.0016481636347972673
1284.0, 0.0014811226144498656
1285.0, 0.0015671649995867428
1286.0, 0.001628544264832698
1287.0, 0.0006352923443272211
1288.0, 0.00145197053977916
1289.0, 0.0019867814597623874
1290.0, 0.0006588897599129445
1291.0, 0.0010928696783259256
1292.0, 0.0016066036086210505
1293.0, 0.0012646288405938396
1294.0, 0.001416749583664768
1295.0, 0.0014063162854054238
1296.0, 0.0002114072216463863
1297.0, 0.0008111648209099037
1298.0, 0.001981343516913578
1299.0, 0.0012859091481574028
1300.0, 0.00011329187679365767
1301.0, 0.00015608588548297967
1302, 0.0
1303, 0.0
1304, 0.0
1305, 0.0
1306, 0.0
1307, 0.0
1308, 0.0
1309, 0.0
1310, 0.0
1311, 0.0
1312, 0.0
1313, 0.0
1314, 0.0
1315, 0.0
1316, 0.0
1317, 0.0
1318, 0.0
1319, 0.0
1320, 0.0
1321, 0.0
1322, 0.0
1323, 0.0
1324, 0.0
1325, 0.0
1326, 0.0
1327, 0.0
1328, 0.0
1329, 0.0
1330, 0.0
1331, 0.0
1332, 0.0
1333, 0.0
1334, 0.0
1335, 0.0
1336, 0.0
1337, 0.0
1338, 0.0
1339, 0.0
1340, 0.0
1341, 0.0
1342, 0.0
1343, 0.0
1344, 0.0
1345, 0.0
1346, 0.0
1347, 0.0
1348, 0.0
1349, 0.0
1350, 0.0
1351, 0.0
1352, 0.0
1353, 0.0
1354, 0.0
1355, 0.0
1356, 0.0
1357, 0.0
1358, 0.0
1359, 0.0
1360, 0.0
1361, 0.0
1362, 0.0
1363, 0.0
1364, 0.0
1365, 0.0
1366, 0.0
1367, 0.0
1368, 0.0
1369, 0.0
1370, 0.0
1371, 0.0
1372, 0.0
1373, 0.0
1374, 0.0
1375, 0.0
1376, 0.0
1377, 0.0
1378, 0.0
1379, 0.0
1380, 0.0
1381, 0.0
1382, 0.0
1383, 0.0
1384, 0.0
1385, 0.0
1386, 0.0
1387, 0.0
1388, 0.0
1389, 0.0
1390, 0.0
1391, 0.0
1392, 0.0
1393, 0.0
1394, 0.0
1395, 0.0
1396, 0.0
1397, 0.0
1398, 0.0
1399, 0.0
1400, 0.0
1401, 0.0
1402, 0.0
1403, 0.0
1404, 0.0
1405, 0.0
1406, 0.0
1407, 0.0
1408, 0.0
1409, 0.0
1410, 0.0
1411, 0.0
1412, 0.0
1413, 0.0
1414, 0.0
1415, 0.0
1416, 0.0
1417, 0.0
1418, 0.0
1419, 0.0
1420, 0.0
1421, 0.0
1422, 0.0
1423, 0.0
1424, 0.0
1425, 0.0
1426, 0.0
1427, 0.0
1428, 0.0
1429, 0.0
1430, 0.0
1431, 0.0
1432, 0.0
1433, 0.0
1434, 0.0
1435, 0.0
1436, 0.0
1437, 0.0
1438, 0.0
1439, 0.0
1440, 0.0
1441, 0.0
1442, 0.0
1443, 0.0
1444, 0.0
1445, 0.0
1446, 0.0
1447, 0.0
1448, 0.0
1449, 0.0
1450, 0.0
1451, 0.0
1452, 0.0
1453, 0.0
1454, 0.0
1455, 0.0
1456, 0.0
1457, 0.0
1458, 0.0
1459, 0.0
1460, 0.0
1461, 0.0
1462, 0.0
1463, 0.0
1464, 0.0
1465, 0.0
1466, 0.0
1467, 0.0
1468, 0.0
1469, 0.0
1470, 0.0
1471, 0.0
1472, 0.0
1473, 0.0
1474, 0.0
1475, 0.0
1476, 0.0
1477, 0.0
1478, 0.0
1479, 0.0
1480, 0.0
1481, 0.0
1482, 0.0
1483, 0.0
1484, 0.0
1485, 0.0
1486, 0.0
1487, 0.0
1488, 0.0
1489, 0.0
1490, 0.0
1491, 0.0
1492, 0.0
1493, 0.0
1494, 0.0
1495, 0.0
1496, 0.0
1497, 0.0
1498, 0.0
1499, 0.0
1500, 0.0
1501, 0.0
1502, 0.0
1503, 0.0
1504, 0.0
1505, 0.0
1506, 0.0
1507, 0.0
1508, 0.0
1509, 0.0
1510, 0.0
1511, 0.0
1512, 0.0
1513, 0.0
1514, 0.0
1515, 0.0
1516, 0.0
1517, 0.0
1518, 0.0
1519, 0.0
1520, 0.0
1521, 0.0
1522, 0.0
1523, 0.0
1524, 0.0
1525, 0.0
1526, 0.0
1527, 0.0
1528, 0.0
1529, 0.0
1530, 0.0
1531, 0.0
1532, 0.0
1533, 0.0
1534, 0.0
1535, 0.0
1536, 0.0
1537, 0.0
1538, 0.0
1539, 0.0
1540, 0.0
1541, 0.0
1542, 0.0
1543, 0.0
1544, 0.0
1545, 0.0
1546, 0.0
1547, 0.0
1548, 0.0
1549, 0.0
1550, 0.0
1551, 0.0
1552, 0.0
1553, 0.0
1554, 0.0
1555, 0.0
1556, 0.0
1557, 0.0
1558, 0.0
1559, 0.0
1560, 0.0
1561, 0.0
1562, 0.0
1563, 0.0
1564, 0.0
1565, 0.0
1566, 0.0
1567, 0.0
1568, 0.0
1569, 0.0
1570, 0.0
1571, 0.0
1572, 0.0
1573, 0.0
1574, 0.0
1575, 0.0
1576, 0.0
1577, 0.0
1578, 0.0
1579, 0.0
1580, 0.0
1581, 0.0
1582, 0.0
1583, 0.0
1584, 0.0
1585, 0.0
1586, 0.0
1587, 0.0
1588, 0.0
1589, 0.0
1590, 0.0
1591, 0.0
1592, 0.0
1593, 0.0
1594, 0.0
1595, 0.0
1596, 0.0
1597, 0.0
1598, 0.0
1599, 0.0
