30, 0.0
31, 0.0
32, 0.0
33, 0.0
34, 0.0
35, 0.0
36, 0.0
37, 0.0
38, 0.0
39, 0.0
40, 0.0
41, 0.0
42, 0.0
43, 0.0
44, 0.0
45, 0.0
46, 0.0
47, 0.0
48, 0.0
49, 0.0
50, 0.0
51, 0.0
52, 0.0
53, 0.0
54, 0.0
55, 0.0
56, 0.0
57, 0.0
58, 0.0
59, 0.0
60, 0.0
61, 0.0
62, 0.0
63, 0.0
64, 0.0
65, 0.0
66, 0.0
67, 0.0
68, 0.0
69, 0.0
70, 0.0
71, 0.0
72, 0.0
73, 0.0
74, 0.0
75, 0.0
76, 0.0
77, 0.0
78, 0.0
79, 0.0
80, 0.0
81, 0.0
82, 0.0
83, 0.0
84, 0.0
85, 0.0
86, 0.0
87, 0.0
88, 0.0
89, 0.0
90, 0.0
91, 0.0
92, 0.0
93, 0.0
94, 0.0
95, 0.0
96.0, 0.00016438563159069578
97.0, 0.00046329237345626116
98.0, 0.000711709314265258
99.0, 0.0009575191595840978
100.0, 0.0009829649685962542
101.0, 0.0006113551763072815
102.0, 0.000507314700943117
103.0, 0.00032452092052483
104.0, 0.00024334661263758918
105.0, 0.0009276125258896777
106.0, 0.001340007520839539
107.0, 0.0016986449594533167
108.0, 0.0020849245573497975
109.0, 0.0020880411663625814
110.0, 0.0018042242241396054
111.0, 0.0013952319777072147
112.0, 0.001181263172212895
113.0, 0.00105488801682514
114.0, 0.0013798247706493984
115.0, 0.0022470258669112456
116.0, 0.0029767715863183177
117.0, 0.00334766923150717
118.0, 0.003340974971499929
119.0, 0.002813615107352069
120.0, 0.002305933899550468
121.0, 0.0017980310949335097
122.0, 0.0013622066391833446
123.0, 0.0015799874505447202
124.0, 0.0019438562600846874
125.0, 0.0021599893244281785
126.0, 0.0019477512168439915
127.0, 0.0019901817885081617
128.0, 0.002040770014294019
129.0, 0.002127681919898117
130.0, 0.002444115135803135
131.0, 0.002272083422420277
132.0, 0.0023343371579721737
133.0, 0.0030012830334540854
134.0, 0.0036800291193368733
135.0, 0.004221507950851474
136.0, 0.004970861972887993
137.0, 0.006750381839777281
138.0, 0.008667497598119824
139.0, 0.010478152781019994
140.0, 0.012191512013121367
141.0, 0.01488371436449585
142.0, 0.015790023445927392
143.0, 0.015950408333876353
144.0, 0.016369381336296143
145.0, 0.01411579599690928
146.0, 0.0119885129566249
147.0, 0.010336508093713434
148.0, 0.009342773201846056
149.0, 0.007192446977452174
150.0, 0.005396390205794546
151.0, 0.004887382569860058
152.0, 0.003849037166603259
153.0, 0.003382538301309048
154.0, 0.0034096247424399255
155.0, 0.0038108040579655045
156.0, 0.003469536090470639
157.0, 0.003397245271083622
158.0, 0.0038820151921604438
159.0, 0.004837699238071594
160.0, 0.006428647685488337
161.0, 0.008387989642867601
162.0, 0.0105067088415908
163.0, 0.013195331229042644
164.0, 0.016518137485752735
165.0, 0.020422823672749092
166.0, 0.02472357901110855
167.0, 0.029457898374280343
168.0, 0.033623916228420106
169.0, 0.03665370939508626
170.0, 0.03661386316093516
171.0, 0.03387318479719527
172.0, 0.02918369167777721
173.0, 0.023559773245971482
174.0, 0.018807562712266968
175.0, 0.014281299721339518
176.0, 0.009992612754469676
177.0, 0.007097784235260939
178.0, 0.0048458987178740896
179.0, 0.0028490663522601515
180.0, 0.0008522953814525315
181.0, 0.0008381073164628922
182.0, 0.0006014419630059971
183.0, 0.00029402934338507603
184.0, 0.0006395732617567554
185.0, 0.0004515257606791751
186.0, 0.0004094469095249412
187.0, 0.0007005217614643457
188.0, 0.0008741724598162989
189.0, 0.0007574803801837417
190.0, 0.0005106084505451899
191.0, 0.0002771997474114575
192.0, 0.0002973999643990838
193.0, 0.0002815791986846877
194.0, 0.0002289411190157604
195.0, 0.00022782996395408667
196.0, 0.000938817801890879
197.0, 0.0014544244945391995
198.0, 0.0014286292265218669
199.0, 0.0014412049872442542
200.0, 0.0020832092212478455
201.0, 0.0028172792200626233
202.0, 0.0029630918466076114
203.0, 0.00327702008407073
204.0, 0.004120962704122632
205.0, 0.005478972209762711
206.0, 0.007162969400500166
207.0, 0.00882567325642923
208.0, 0.009959221839265982
209.0, 0.01033676317058982
210.0, 0.011371411002156839
211.0, 0.012501291786074778
212.0, 0.013810783103849988
213.0, 0.015455314510375887
214.0, 0.01572312352877125
215.0, 0.015660933340765817
216.0, 0.01506409489075787
217.0, 0.012424490029585887
218.0, 0.010478112079964633
219.0, 0.008370906413119373
220.0, 0.005790987231726019
221.0, 0.0046366783294170275
222.0, 0.003748713038686747
223.0, 0.003145985786655281
224.0, 0.002911288973364865
225.0, 0.002290193237241126
226.0, 0.0020334966913903092
227.0, 0.0021750743768966176
228.0, 0.002596436219810977
229.0, 0.002490143491349068
230.0, 0.002737488574563228
231.0, 0.0036187357005504376
232.0, 0.003899400021268269
233.0, 0.0038394402908080365
234.0, 0.004145554453725359
235.0, 0.005634286651214007
236.0, 0.006580686720207854
237.0, 0.0074973652876678355
238.0, 0.008523095291114838
239.0, 0.009977668466510568
240.0, 0.011058918756524955
241.0, 0.012532434171410273
242.0, 0.01460988718187527
243.0, 0.01711511182855448
244.0, 0.020153915926059425
245.0, 0.023534091813361607
246.0, 0.027156600775852732
247.0, 0.03189797063731666
248.0, 0.03789437943435905
249.0, 0.04506359382012909
250.0, 0.05344161781939807
251.0, 0.0639460220896609
252.0, 0.07518324099814354
253.0, 0.0867459879013417
254.0, 0.09774115751851445
255.0, 0.10495412565903323
256.0, 0.10806056681187447
257.0, 0.106437925739988
258.0, 0.09621200634950593
259.0, 0.08235002986598641
260.0, 0.06735172322072339
261.0, 0.054139880385425214
262.0, 0.04404820753963985
263.0, 0.03605917597380253
264.0, 0.029963476945955143
265.0, 0.025669761035921897
266.0, 0.023773556917790158
267.0, 0.022092644448696068
268.0, 0.02030349124355703
269.0, 0.02082985485925665
270.0, 0.02068596786374151
271.0, 0.0205788018064402
272.0, 0.020982146558500985
273.0, 0.020638662526397428
274.0, 0.020317845951223774
275.0, 0.019653657090367035
276.0, 0.01800054987932357
277.0, 0.014853232398147313
278.0, 0.012855966368846962
279.0, 0.01179177506865032
280.0, 0.00976453883760075
281.0, 0.007165496797240987
282.0, 0.005634759026297636
283.0, 0.005556881293130173
284.0, 0.004854132081246058
285.0, 0.004955261354321532
286.0, 0.005124129321025009
287.0, 0.004837599667105223
288.0, 0.003523532266502954
289.0, 0.0039410636466467195
290.0, 0.004991934354938199
291.0, 0.004944805743483667
292.0, 0.005402071676223806
293.0, 0.0064779622455371924
294.0, 0.007726204115315698
295.0, 0.0075684803705625735
296.0, 0.009850630229457197
297.0, 0.012291881682286359
298.0, 0.014610409679828346
299.0, 0.0201626012497286
300.0, 0.025240512781706685
301.0, 0.030545506901063457
302.0, 0.03650028381950427
303.0, 0.0407379059743137
304.0, 0.04277074787335742
305.0, 0.042670219926208626
306.0, 0.04023904258942545
307.0, 0.03514790234753638
308.0, 0.029394690747782476
309.0, 0.023706168005559414
310.0, 0.019551176814143697
311.0, 0.015142672823548002
312.0, 0.01179106089332354
313.0, 0.009653978259565791
314.0, 0.008046755011318425
315.0, 0.00700684538149348
316.0, 0.006345980510437312
317.0, 0.006048816372978396
318.0, 0.006751918830263828
319.0, 0.007159038575910379
320.0, 0.0076772407513990785
321.0, 0.008650035168971235
322.0, 0.010595530033907521
323.0, 0.012403420220768336
324.0, 0.014736213017997674
325.0, 0.018723884402527726
326.0, 0.023375561357260394
327.0, 0.027372719577263935
328.0, 0.03081272075345064
329.0, 0.034305094496410726
330.0, 0.03629033046432611
331.0, 0.036237095202007304
332.0, 0.03415317474645775
333.0, 0.030857789605524384
334.0, 0.026477314986484916
335.0, 0.021718991624679756
336.0, 0.017016224941666006
337.0, 0.01439114397197573
338.0, 0.011306596480304106
339.0, 0.008877655612131944
340.0, 0.007979815288902297
341.0, 0.006034129531844501
342.0, 0.005096776728204899
343.0, 0.00460873274648659
344.0, 0.003870354635264272
345.0, 0.0031679658435075694
346.0, 0.0023782584805261196
347.0, 0.0017494170578990307
348.0, 0.0018688025683247518
349.0, 0.0010762508189836306
350.0, 0.0004268511806039385
351.0, 0.00013621919019740387
352.0, 0.00039119891005092995
353.0, 0.00035837560577428373
354.0, 0.00022127681951106755
355.0, 0.00011543644122065356
356.0, 0.0006169286011846946
357.0, 0.0006912713219521148
358.0, 0.0007465974818522374
359.0, 0.0009499817111541992
360.0, 0.0008559957490316773
361.0, 0.00046700889900460544
362.0, 0.0002330694140055322
363.0, 0.0005015917856201782
364.0, 0.00016117849951898685
365.0, 0.00035967058577831743
366.0, 0.0005428170477437941
367.0, 2.8618813821111903e-05
368.0, 0.0013268613083053055
369.0, 0.0012044589315158883
370.0, 0.0005927391583976911
371.0, 0.0014958063891423168
372.0, 0.0014973843061113058
373.0, 0.001803629240599337
374.0, 0.002447787216105467
375.0, 0.0031357442873803498
376.0, 0.003586608864549658
377.0, 0.004316224004547396
378.0, 0.0052378803462739
379.0, 0.005505326946067962
380.0, 0.006122453173310996
381.0, 0.00682232093673386
382.0, 0.007649547143162537
383.0, 0.009500085059971028
384.0, 0.012134554509757697
385.0, 0.01452729552108512
386.0, 0.01629232930680733
387.0, 0.018764494667867403
388.0, 0.023119509365148408
389.0, 0.02840037935560161
390.0, 0.03403492418580267
391.0, 0.040516212567501556
392.0, 0.04870792230649515
393.0, 0.05745413972831665
394.0, 0.06570842859523539
395.0, 0.07263781534809761
396.0, 0.07985521066647006
397.0, 0.0860081892228781
398.0, 0.08922626539031667
399.0, 0.0911424856907655
400.0, 0.08769731536102317
401.0, 0.08123745134177945
402.0, 0.07599427065635808
403.0, 0.06756404455756425
404.0, 0.05988613427473208
405.0, 0.053148144478510434
406.0, 0.04694139003652474
407.0, 0.039490379174431905
408.0, 0.033558328453786875
409.0, 0.029136718914749123
410.0, 0.024977290842645685
411.0, 0.02153033077193097
412.0, 0.018566829716661407
413.0, 0.01602014826432919
414.0, 0.013825037249331784
415.0, 0.012042036926530286
416.0, 0.010608301882004673
417.0, 0.00944297579716735
418.0, 0.008182280149113033
419.0, 0.0072884633427699064
420.0, 0.00653295865602289
421.0, 0.00583514279905067
422.0, 0.005185554815723087
423.0, 0.004754527612209194
424.0, 0.0043523558395673284
425.0, 0.003926679402624632
426.0, 0.003798524449393462
427.0, 0.0035847550957448454
428.0, 0.0030789665616689156
429.0, 0.0022541381868610368
430.0, 0.0025269359548974473
431.0, 0.0018776166240841148
432.0, 0.001436273746401248
433.0, 0.0019119781379003523
434.0, 0.0023743631450473374
435.0, 0.00237881924095128
436.0, 0.002114082521257608
437.0, 0.0017266682627761997
438.0, 0.0016984417060455946
439.0, 0.001465742279064533
440.0, 0.0012187343494779416
441.0, 0.001126707701738955
442.0, 0.000976903767845524
443.0, 0.0009759279257805545
444.0, 0.0009444545546251176
445.0, 0.0006966023384262101
446.0, 0.0008555056896832277
447.0, 0.0010188976414422096
448.0, 0.0009853112087777893
449.0, 0.0005194209918953177
450.0, 0.0007432985013500747
451.0, 0.0006102207935765632
452.0, 0.00047074739370375686
453.0, 0.0008069812848648104
454.0, 0.0008563867846348398
455.0, 0.0008099483015029607
456.0, 0.0007435840995485269
457.0, 0.0007515384861905739
458.0, 0.0002267257926025634
459.0, 8.44510544281091e-05
460.0, 0.00022338268532752465
461.0, 0.0004390789090395667
462.0, 0.000615050661823894
463.0, 0.0006794757681605563
464.0, 0.0007570495349240033
465.0, 0.0010509269021500777
466.0, 0.0003358874256554448
467.0, 2.8376906113946737e-05
468.0, 0.00020890834447540848
469.0, 0.0008764303780650073
470.0, 0.0004033486552579802
471.0, 0.00011066119139742146
472.0, 0.00032925584328587324
473.0, 0.001477292990938247
474.0, 0.0007386013366128953
475.0, 0.000852344115789054
476.0, 0.0012063184089288674
477.0, 0.0004402949844174571
478.0, 0.0002703558095994901
479.0, 0.0004955563037141507
480.0, 0.0011500873384467267
481.0, 0.0023358531336546548
482.0, 0.0013128841669103695
483.0, 0.0009481265499203083
484.0, 0.0010639165634005313
485.0, 0.0010502727574520697
486.0, 0.000359579693856748
487.0, 0.0003225436780797838
488.0, 0.00074029809985797
489.0, 0.0011772963913067856
490.0, 0.0009543750567859361
491.0, 0.0011164424105458428
492.0, 0.001331901453831156
493.0, 0.0010148999980611442
494.0, 0.0007362152456078274
495.0, 0.0014643464615935221
496.0, 0.0020813910895644077
497.0, 0.0009546121056104542
498.0, 0.0010393821936534858
499.0, 0.0016842425655382858
500.0, 0.002344202741733188
501.0, 0.00235279605215403
502.0, 0.002147548538748366
503.0, 0.002154858815039358
504.0, 0.0024091768347145976
505.0, 0.0029379876477955156
506.0, 0.0025893136989587674
507.0, 0.002814214919935381
508.0, 0.003220943015793056
509.0, 0.0033773772140558707
510.0, 0.0036278644477838887
511.0, 0.003424570510523379
512.0, 0.0034261689187443977
513.0, 0.004238054190443915
514.0, 0.005196491451789336
515.0, 0.0048921531588696394
516.0, 0.004813610252564568
517.0, 0.006110424308600868
518.0, 0.006966931534445315
519.0, 0.00871911966287401
520.0, 0.010272054139890643
521.0, 0.011023779678508849
522.0, 0.01366361565371771
523.0, 0.01741408199405027
524.0, 0.022326174408837975
525.0, 0.028719389065727855
526.0, 0.03946625283313832
527.0, 0.046934030025892144
528.0, 0.05430601803189123
529.0, 0.063231898168174
530.0, 0.07428629731799707
531.0, 0.0786769443949197
532.0, 0.07905240821644897
533.0, 0.07591598316156462
534.0, 0.06630051394296622
535.0, 0.057000840823672766
536.0, 0.04881553650187142
537.0, 0.04172705908518713
538.0, 0.034492475456811986
539.0, 0.02752448423456459
540.0, 0.02235534843702226
541.0, 0.018959535978984268
542.0, 0.015956010718135263
543.0, 0.014260177010414248
544.0, 0.013210739401086927
545.0, 0.012154925445066139
546.0, 0.009727343812816033
547.0, 0.00990335671799591
548.0, 0.00927064901341084
549.0, 0.008202720610292695
550.0, 0.008313675678989255
551.0, 0.007666403808294846
552.0, 0.007429732851725689
553.0, 0.007373999356337108
554.0, 0.0070126359968281935
555.0, 0.007343417526263708
556.0, 0.007645797521142174
557.0, 0.007864995542609107
558.0, 0.00797322043931657
559.0, 0.008770401882801605
560.0, 0.008748026421485254
561.0, 0.008728331090589382
562.0, 0.009361901372131824
563.0, 0.009426321608998811
564.0, 0.010717853191116384
565.0, 0.0118356680887048
566.0, 0.012081067677146614
567.0, 0.013264092516179993
568.0, 0.015154300372478028
569.0, 0.016555609352848347
570.0, 0.01762539910867156
571.0, 0.02251497772245989
572.0, 0.025625877197745846
573.0, 0.02786862574279695
574.0, 0.029213000614054054
575.0, 0.02845900450363329
576.0, 0.030136336548631817
577.0, 0.029733484856547445
578.0, 0.027371852220578908
579.0, 0.0257444736692788
580.0, 0.023530732545806822
581.0, 0.02125240954971173
582.0, 0.0191512822773586
583.0, 0.01753691400713098
584.0, 0.016526429601791678
585.0, 0.01541640768582822
586.0, 0.01392722986419091
587.0, 0.011784482467215926
588.0, 0.00965373208786624
589.0, 0.00913669267714007
590.0, 0.00885259411564761
591.0, 0.007731588204734956
592.0, 0.007135975453233781
593.0, 0.006787475138264425
594.0, 0.006132012121326365
595.0, 0.004986095646055188
596.0, 0.004208962949923008
597.0, 0.004543540448064837
598.0, 0.004033765820938129
599.0, 0.002609887752178068
600.0, 0.00275893200524081
601.0, 0.0021151547753903836
602.0, 0.001960717267802583
603.0, 0.0020862066357743045
604.0, 0.0013159977959983872
605.0, 0.0011665443508673558
606.0, 0.001401902452182411
607.0, 0.0018857595457427642
608.0, 0.002446336750474545
609.0, 0.002212525730626108
610.0, 0.0020814936673187005
611.0, 0.0018044305368495805
612.0, 0.0011447853349528972
613.0, 0.0008874365677511212
614.0, 0.00047862959687387845
615.0, 0.0005712592589354113
616.0, 0.0013134736672498145
617.0, 0.0006707163737327732
618.0, 0.0006215771698637802
619.0, 0.0007202772462969604
620.0, 0.0007475690980580279
621.0, 0.0004814591248681287
622.0, 0.0005572949751200724
623.0, 0.0003897335346057457
624.0, 0.00011384870866623168
625.0, 0.00031036577124195274
626.0, 0.00014473501834991976
627.0, 0.00046741058054368954
628.0, 0.0010094830901081302
629.0, 0.0013081617524453263
630.0, 0.0013703177430464998
631.0, 0.0009629465778903604
632.0, 0.0004556862070346134
633.0, 0.00026971435319435993
634.0, 0.0018916233652448477
635.0, 0.001004590782307701
636.0, 0.00039117853360870047
637.0, 0.0009385100718722854
638.0, 0.0005232184969979245
639.0, 0.00021918425970226282
640.0, 0.00040197909685065364
641.0, 0.0009130306909050335
642.0, 0.0010920216305047672
643.0, 0.0004446991795768471
644.0, 0.0004623482130453739
645.0, 0.0007787999823780506
646.0, 0.000629571132937711
647.0, 0.0005977048051971104
648.0, 0.0003594609602433661
649.0, 0.00033998865614888316
650.0, 0.0008150923957075755
651.0, 0.0008647385129679037
652.0, 0.0003816793355400737
653.0, 0.0002508823477478932
654.0, 0.0006989209837812187
655.0, 0.0009427410631797769
656.0, 0.0006447272668963513
657.0, 0.0008156675967493175
658.0, 0.0013108302463017256
659.0, 0.0012853945263587394
660.0, 0.0004084488441398557
661.0, 0.0008134065336247594
662.0, 0.0013516784620826452
663.0, 0.0004821549116830228
664.0, 0.0007498751125242135
665.0, 0.0006002030812942935
666.0, 0.00045669900763261874
667.0, 0.0005483125404679995
668.0, 0.0004796351518541331
669.0, 0.0004297184370804628
670.0, 0.0007794349028223405
671.0, 0.0013630768724428675
672.0, 0.00126878807836502
673.0, 0.0006730726524937182
674.0, 0.0002676989798322962
675.0, 0.0002674557881548334
676.0, 0.0008384765591740576
677.0, 0.00038159237532006034
678.0, 0.0001782920949870955
679.0, 0.0001720800373935194
680.0, 0.00025676063927870883
681.0, 4.95299764417664e-05
682.0, 0.0005640703262645086
683.0, 0.001060514057670772
684.0, 0.0013488613248550856
685.0, 0.0018251352418769404
686.0, 0.0022262336511781763
687.0, 0.001901576727818182
688.0, 0.0015568678668578075
689.0, 0.0025774948631645178
690.0, 0.002167732966722219
691.0, 0.0018957486425325322
692.0, 0.0015648726069500563
693.0, 0.0010035015919144677
694.0, 0.0006504347166749109
695.0, 0.001065091329981211
696.0, 0.0017274540588880112
697.0, 0.002345261047593444
698.0, 0.0026365900474137616
699.0, 0.0010347785903490644
700.0, 0.0011007331291576121
701.0, 0.0020295039827407176
702.0, 0.0015207131308797727
703.0, 0.000694919045962773
704.0, 0.0007245964088282085
705.0, 0.000837191176161097
706.0, 0.0004628257505747804
707.0, 0.00034813392551778674
708.0, 0.0012410269821213015
709.0, 0.0017741085298775092
710.0, 0.001572488026792861
711.0, 0.001020089610251572
712.0, 0.002070447828845235
713.0, 0.0017353932583522805
714.0, 0.0009300030907426996
715.0, 0.0014128279023129379
716.0, 0.000493821093417349
717.0, 0.0015876438698183557
718.0, 0.002764289860572073
719.0, 0.0026844550780176766
720.0, 0.0009354588170292253
721.0, 0.0017749192007811886
722.0, 0.00246961733561001
723.0, 0.002694571059262773
724.0, 0.0033932965781663274
725.0, 0.002213137071501593
726.0, 0.0016029142437420129
727.0, 0.0015502950210818814
728.0, 0.0018771294738621663
729.0, 0.0030552030660744413
730.0, 0.0022259800681534367
731.0, 0.002286734690400009
732.0, 0.003795514710216383
733.0, 0.00400151911309231
734.0, 0.0023694898164641444
735.0, 0.0021636337574248376
736.0, 0.0029979413772249445
737.0, 0.003513125101199857
738.0, 0.003493656275626658
739.0, 0.0037740340224970553
740.0, 0.003956043481798542
741.0, 0.0038945461035553557
742.0, 0.004308885718686938
743.0, 0.003904455039401625
744.0, 0.0035251762759034703
745.0, 0.0034341686324586757
746.0, 0.0037252556013229643
747.0, 0.0054081397543346635
748.0, 0.004766022180336445
749.0, 0.003929591299739884
750.0, 0.004764876748789854
751.0, 0.00552197678553187
752.0, 0.00481232643798025
753.0, 0.005315416517608568
754.0, 0.006688452580257791
755.0, 0.005411458794618466
756.0, 0.006766195914449266
757.0, 0.007181699385384124
758.0, 0.006795385867204568
759.0, 0.0062742459846013
760.0, 0.007650929841918639
761.0, 0.007086068534576566
762.0, 0.006542484347580832
763.0, 0.006707699886861768
764.0, 0.0069431962286508
765.0, 0.008028704225514735
766.0, 0.008197519072809741
767.0, 0.007769772366150796
768.0, 0.007536467827981841
769.0, 0.009523486882176805
770.0, 0.009231143934714258
771.0, 0.009447060113469045
772.0, 0.010819205475492888
773.0, 0.010256523821000537
774.0, 0.010219549129656395
775.0, 0.010859877169997182
776.0, 0.011302501498655337
777.0, 0.010415170601958205
778.0, 0.012064577940751029
779.0, 0.012017936965639879
780.0, 0.012089000828196176
781.0, 0.013040279147709588
782.0, 0.013836779276685704
783.0, 0.014390362670741804
784.0, 0.015080993158635652
785.0, 0.015351852512921522
786.0, 0.014444238005239267
787.0, 0.016963947391127693
788.0, 0.01728403397837818
789.0, 0.017449597072127614
790.0, 0.018651675780835476
791.0, 0.021084527985272
792.0, 0.02259497724041676
793.0, 0.02417884001143607
794.0, 0.025827043196588927
795.0, 0.0272908565489619
796.0, 0.027970908810744977
797.0, 0.03232704370263526
798.0, 0.0363925907805909
799.0, 0.039196850464791176
800.0, 0.04480721112637686
801.0, 0.049087745579528996
802.0, 0.055940744688325404
803.0, 0.06371875607277212
804.0, 0.0698588290049606
805.0, 0.07773545944918074
806.0, 0.09198689075740124
807.0, 0.1079896702111771
808.0, 0.1263672098660649
809.0, 0.15560926764841482
810.0, 0.19253356506150668
811.0, 0.2372089371896411
812.0, 0.2907932625437412
813.0, 0.35406009608590483
814.0, 0.42734484058727823
815.0, 0.4939971461004797
816.0, 0.5504067890219878
817.0, 0.5901016657962643
818.0, 0.6009733916578323
819.0, 0.5693158413595127
820.0, 0.5152290782667571
821.0, 0.45152833341075316
822.0, 0.3886363146272719
823.0, 0.3272654956350765
824.0, 0.27623501438922865
825.0, 0.23662847907040482
826.0, 0.2054141180173378
827.0, 0.1762582640259681
828.0, 0.15725610604886778
829.0, 0.1421993240764159
830.0, 0.1308500806833045
831.0, 0.12312612112257176
832.0, 0.11987919907219283
833.0, 0.11633137922346425
834.0, 0.11418870590199831
835.0, 0.1137821142548459
836.0, 0.11528213607556483
837.0, 0.12350222752996926
838.0, 0.1343290026811131
839.0, 0.15208318647111763
840.0, 0.17821566616999307
841.0, 0.21155182348884422
842.0, 0.2595643807594725
843.0, 0.32758189207637095
844.0, 0.41166791079644416
845.0, 0.5084798804742725
846.0, 0.6293990721719429
847.0, 0.7674984156554484
848.0, 0.8830845510088672
849.0, 0.9619050929192837
850.0, 0.9999619431497704
851.0, 0.9443926926748134
852.0, 0.83268488106388
853.0, 0.7027330394403724
854.0, 0.5786063874944466
855.0, 0.46331184813897397
856.0, 0.3753677750464244
857.0, 0.3069778958952562
858.0, 0.2531117046284756
859.0, 0.20872784722011156
860.0, 0.17516797968060566
861.0, 0.14731764991945967
862.0, 0.12639122615185777
863.0, 0.11138694420756613
864.0, 0.0992633799627371
865.0, 0.08546081182970187
866.0, 0.07730348817305681
867.0, 0.07080401457239378
868.0, 0.06385117853959016
869.0, 0.05926518105034827
870.0, 0.054676160170884704
871.0, 0.051128554170071026
872.0, 0.048157563736817025
873.0, 0.045086499036589504
874.0, 0.04251531488462218
875.0, 0.04055436386448944
876.0, 0.03854937239867986
877.0, 0.03648573986974564
878.0, 0.03476244748217703
879.0, 0.033237152440751885
880.0, 0.03333294638659537
881.0, 0.03427393819086804
882.0, 0.035082725309493835
883.0, 0.034062317369284924
884.0, 0.0344399335843349
885.0, 0.036047606546132795
886.0, 0.03876255329457913
887.0, 0.04234131993965709
888.0, 0.04611870132866657
889.0, 0.050401157426964716
890.0, 0.05940974678060694
891.0, 0.0715532176463772
892.0, 0.08229643676623012
893.0, 0.10446102154453041
894.0, 0.1340935085057208
895.0, 0.17087836879543433
896.0, 0.2134172731373031
897.0, 0.2586728466388136
898.0, 0.28712955282028085
899.0, 0.2903534534216883
900.0, 0.2721933089683546
901.0, 0.23748283578360152
902.0, 0.18721372158866492
903.0, 0.14158125113964148
904.0, 0.10779899836374542
905.0, 0.08419157406349015
906.0, 0.06627709328310886
907.0, 0.05159129410091499
908.0, 0.04282518809981176
909.0, 0.03630316306041669
910.0, 0.030741133265719207
911.0, 0.026022497106933412
912.0, 0.022771276739041935
913.0, 0.02096760583444691
914.0, 0.019502528152952208
915.0, 0.017836972584938212
916.0, 0.0162281183718391
917.0, 0.015880359129446662
918.0, 0.01477439617294144
919.0, 0.013433531370031053
920.0, 0.012530124721125002
921.0, 0.012680377863847308
922.0, 0.012540440734467962
923.0, 0.01218530745859513
924.0, 0.011582262924810313
925.0, 0.010870534213067627
926.0, 0.011829506617784764
927.0, 0.01152609454354739
928.0, 0.012006709642388478
929.0, 0.012707427320554722
930.0, 0.011899653131723675
931.0, 0.01232630052854097
932.0, 0.014142810837012501
933.0, 0.015492372388325038
934.0, 0.016407999082793764
935.0, 0.018784380639790366
936.0, 0.021035964242603664
937.0, 0.02525185703460359
938.0, 0.029653561284689392
939.0, 0.0349130863300509
940.0, 0.046999286701375945
941.0, 0.05863911574701445
942.0, 0.07678879849010105
943.0, 0.10184997353328856
944.0, 0.13244478939914092
945.0, 0.16411671497905503
946.0, 0.1843378782203774
947.0, 0.19368280616444694
948.0, 0.18935383209030243
949.0, 0.16912177423999264
950.0, 0.13329853816581289
951.0, 0.10485825478116705
952.0, 0.08192261335270726
953.0, 0.06383882010916722
954.0, 0.0498114198462159
955.0, 0.0364747178078892
956.0, 0.027624140279935813
957.0, 0.022240066592982385
958.0, 0.018917390800335318
959.0, 0.015777714950479894
960.0, 0.012599901967321742
961.0, 0.010038824069801397
962.0, 0.008333295268249797
963.0, 0.007380036408145837
964.0, 0.006732854462233561
965.0, 0.004468246542199301
966.0, 0.004713156932136651
967.0, 0.0048582957761328805
968.0, 0.0035541471951290315
969.0, 0.001169668116668239
970.0, 0.0018645967058943547
971.0, 0.001987626410885279
972.0, 0.0017549611277145902
973.0, 0.0013281821891577607
974.0, 0.0003341561179632167
975.0, 0.0004339317509411938
976.0, 0.00023577624490136293
977.0, 0.0004210252696553345
978.0, 0.0012065491185121247
979.0, 0.0009686960797189374
980.0, 0.0010452106948552339
981.0, 0.000836366796639145
982.0, 0.0005123349226788977
983.0, 0.00039588572924732107
984.0, 0.0010262485702111912
985.0, 0.0018953254471767733
986.0, 0.003138513040517938
987.0, 0.0033381685312627797
988.0, 0.0015465611015768892
989.0, 0.0005315362694117161
990.0, 0.0013900124907893776
991.0, 0.0015630379717100728
992.0, 0.00095461945837096
993.0, 0.00016510157737901696
994.0, 0.00024435224165358476
995.0, 0.0005733828260353474
996.0, 0.0003853875203733436
997.0, 0.0004841817762149218
998.0, 0.0017610787487822171
999.0, 0.0018446987729890966
1000.0, 0.0017947933485227125
1001.0, 0.0012777992628876422
1002.0, 0.0016033239179753973
1003.0, 0.003895583948523482
1004.0, 0.0016508322288994865
1005.0, 0.002629174259981439
1006.0, 0.002565041100597141
1007.0, 0.0017109473438547901
1008.0, 0.0019111388531547599
1009.0, 0.0024775109269882466
1010.0, 0.002065471644254519
1011.0, 0.0014952935267713281
1012.0, 0.0013942995506286385
1013.0, 0.00215708570036752
1014.0, 0.0021851493127730613
1015.0, 0.002902680861041315
1016.0, 0.0025491893913353095
1017.0, 0.0015722065654854905
1018.0, 0.0014130730599112413
1019.0, 0.002958579418293018
1020.0, 0.00389809126508671
1021.0, 0.0030266188275824626
1022.0, 0.002019376605691021
1023.0, 0.003418521266249404
1024.0, 0.0035648725335181105
1025.0, 0.004295619005253558
1026.0, 0.0050664813825548535
1027.0, 0.005375875391350471
1028.0, 0.004919798299741414
1029.0, 0.005359043241952509
1030.0, 0.004993033341813308
1031.0, 0.004865446656698827
1032.0, 0.00474601769063874
1033.0, 0.004133792487339884
1034.0, 0.00488037597489071
1035.0, 0.005105245263488853
1036.0, 0.005484998408567654
1037.0, 0.006158242907351626
1038.0, 0.007015370304898672
1039.0, 0.007588199148682351
1040.0, 0.007446047627631733
1041.0, 0.00752816927233196
1042.0, 0.007985562270452388
1043.0, 0.008390142252656125
1044.0, 0.006183955364649641
1045.0, 0.005507443754041647
1046.0, 0.005613857112033387
1047.0, 0.005697395589279082
1048.0, 0.005043365005460722
1049.0, 0.0035387377390298175
1050.0, 0.0028801302340403373
1051.0, 0.0035677320749688012
1052.0, 0.0038334111275936692
1053.0, 0.0027195160909871197
1054.0, 0.004363248942463118
1055.0, 0.003398510731424964
1056.0, 0.00230907861192981
1057.0, 0.0013765411391123434
1058.0, 0.0008199860683551924
1059.0, 0.0017475452990434247
1060.0, 0.0014094049896417192
1061.0, 0.0009496332388843847
1062.0, 0.00048522955809324967
1063.0, 0.00015890754281031407
1064.0, 0.00042774100204725476
1065.0, 0.0011817344598023334
1066.0, 0.001357307606810871
1067.0, 0.0015508881132878902
1068.0, 0.0017051833008647325
1069.0, 0.000550611054413023
1070.0, 0.0021864974773602623
1071.0, 0.0014197169273465096
1072.0, 0.0009119233200106928
1073.0, 0.0016946328810833106
1074.0, 0.0027276643181486085
1075.0, 0.001734291650375564
1076.0, 0.001743497246491708
1077.0, 0.001479864248430228
1078.0, 0.001023187023250324
1079.0, 0.001427740061847988
1080.0, 0.002432305247332745
1081.0, 0.0026359013955523773
1082.0, 0.0024685626887311295
1083.0, 0.002387908224032342
1084.0, 0.0026606332726478985
1085.0, 0.0016230204397089949
1086.0, 0.0020447723003939318
1087.0, 0.0015839580246712808
1088.0, 0.0010263479811389526
1089.0, 0.00145108135982173
1090.0, 0.00047183237005685695
1091.0, 0.0018983454980503994
1092.0, 0.001216843827448215
1093.0, 3.413478872102964e-05
1094.0, 0.00013978180066430605
1095.0, 0.0005944422567754726
1096.0, 0.0005614081319373446
1097.0, 0.0002488628377108814
1098.0, 0.0006682666348386627
1099.0, 0.0016279513631348868
1100.0, 0.0008556955821000549
1101.0, 0.000363670499006362
1102.0, 0.001145213787047689
1103.0, 0.0013155934072625894
1104.0, 0.0008512619275988333
1105.0, 0.0014930147305479504
1106.0, 0.0007487246618431371
1107.0, 0.0011586966441320863
1108.0, 0.0008405717936076511
1109.0, 0.0005607546979484402
1110.0, 0.001975635871836473
1111.0, 0.0016862700273794476
1112.0, 0.0027979769812387636
1113.0, 0.0035356850222372786
1114.0, 0.0037700276073389456
1115.0, 0.003744292857624662
1116.0, 0.003174232852954062
1117.0, 0.004334993617018208
1118.0, 0.0029369778056405923
1119.0, 0.0015273214110419508
1120.0, 0.0020314853407216323
1121.0, 0.0031730451137933794
1122.0, 0.002448109096756368
1123.0, 0.003197702302844256
1124.0, 0.003429565324025965
1125.0, 0.002469839382475223
1126.0, 0.0013100973606851207
1127.0, 0.0022013162063569767
1128.0, 0.001461029651439389
1129.0, 0.0015292445529486074
1130.0, 0.0017482761537493618
1131.0, 0.0005987055991880381
1132.0, 0.0020636021938539384
1133.0, 0.002004011242925472
1134.0, 0.002543014535563516
1135.0, 0.0022604901323665704
1136.0, 0.0004399181334207035
1137.0, 0.0008867170109837178
1138.0, 0.0022135458599681222
1139.0, 0.0013632224063553219
1140.0, 0.002066310701005794
1141.0, 0.004137709158346622
1142.0, 0.0015647679395079995
1143.0, 0.0011587714114744802
1144.0, 0.000707283015417026
1145.0, 0.0007400521534501458
1146.0, 0.0012891227286533384
1147.0, 0.001960969118904151
1148.0, 0.0015502114213083499
1149.0, 0.002315073271869412
1150.0, 0.002968566761485913
1151.0, 0.0037524946633410135
1152.0, 0.004678591588463908
1153.0, 0.003793381111399564
1154.0, 0.0036558317709651906
1155.0, 0.004353604046094829
1156.0, 0.00455783756508845
1157.0, 0.0038278779140684706
1158.0, 0.003033789110277074
1159.0, 0.0024305665600681267
1160.0, 0.003064255488774391
1161.0, 0.003129834358675103
1162.0, 0.0029425989324481927
1163.0, 0.0034792867171034286
1164.0, 0.00217641328511082
1165.0, 0.0032995223352436723
1166.0, 0.0034679168521700747
1167.0, 0.003014928447106362
1168.0, 0.0025155223507929156
1169.0, 0.0012706988540516534
1170.0, 0.001653914929296742
1171.0, 0.0025426923435554064
1172.0, 0.003087709118945333
1173.0, 0.0030110960670434836
1174.0, 0.0027037786514203014
1175.0, 0.004400014638130654
1176.0, 0.0035181636004311856
1177.0, 0.003527104891284289
1178.0, 0.004162754820076011
1179.0, 0.0038646986309796676
1180.0, 0.0011439151899248843
1181.0, 0.001002482363251382
1182.0, 0.00203420607687147
1183.0, 0.0021126339102397616
1184.0, 0.0015489014823278462
1185.0, 0.0034992904628206906
1186.0, 0.0031886367110355784
1187.0, 0.0028776842336130874
1188.0, 0.0032622251937402284
1189.0, 0.0036851088278069695
1190.0, 0.003241752183858678
1191.0, 0.002811303750795632
1192.0, 0.0020172551808217538
1193.0, 0.002552315970207834
1194.0, 0.0031247995203251295
1195.0, 0.002994300794552396
1196.0, 0.0029224152265650387
1197.0, 0.0030127366488133943
1198.0, 0.0028214827512228783
1199.0, 0.002827969140938536
1200.0, 0.0033555318928683675
1201.0, 0.0042653928582553026
1202.0, 0.0035802616473786662
1203.0, 0.004311238377423093
1204.0, 0.0049752854322494796
1205.0, 0.004853167957645098
1206.0, 0.003968282754269218
1207.0, 0.003279261336103351
1208.0, 0.003980257767541989
1209.0, 0.003506704555770398
1210.0, 0.002495499935317061
1211.0, 0.0018101905844820146
1212.0, 0.0021432138043001284
1213.0, 0.0030391315165094286
1214.0, 0.002375949456523671
1215.0, 0.002031066416047892
1216.0, 0.002097491281920398
1217.0, 0.0023260097195891252
1218.0, 0.0023768969581368124
1219.0, 0.0020919388571869106
1220.0, 0.0018548758301365135
1221.0, 0.0014550196601135078
1222.0, 0.0010445846036129848
1223.0, 0.0009964022515262221
1224.0, 0.0019070064774722513
1225.0, 0.000975865087693605
1226.0, 0.0011977923141455204
1227.0, 0.0018636624430541189
1228.0, 0.0020355157574133845
1229.0, 0.0012187129816635797
1230.0, 0.0019501770013938755
1231.0, 0.0027932156237817176
1232.0, 0.002683192216918412
1233.0, 0.001789814936240863
1234.0, 0.0007736356232747742
1235.0, 0.00039313245808860305
1236.0, 0.0010244200233997232
1237.0, 0.0013942801822100918
1238.0, 0.0013415034379450433
1239.0, 0.0012477492486896692
1240.0, 0.0015278287727286902
1241.0, 0.00018778373128011737
1242.0, 0.0003632596268958119
1243.0, 0.001621044523482172
1244.0, 0.001672414751851552
1245.0, 0.00032403263794084525
1246.0, 0.0011787890872907844
1247.0, 0.0007039555779620496
1248.0, 0.001037203945551557
1249.0, 0.0007244418496931212
1250.0, 0.00039475052037757726
1251.0, 0.0011145071864249935
1252.0, 0.0019978339146225254
1253.0, 0.0006387677927622092
1254.0, 0.0008777911060151044
1255.0, 0.001634324321540326
1256.0, 0.0018450198263027283
1257.0, 0.001128504875826691
1258.0, 0.000743369613967001
1259.0, 0.0018723175229725024
1260.0, 0.0017841995960802652
1261.0, 0.0023290939040925464
1262.0, 0.0033983271099534
1263.0, 0.00010585568404121871
1264.0, 0.0012181386293899572
1265.0, 0.0023799980289153644
1266.0, 0.0021452457520039097
1267.0, 0.0015372613490384763
1268.0, 0.0017816475996918525
1269.0, 0.0010169784334993486
1270.0, 0.0003228714789961487
1271.0, 0.0008279855951880497
1272.0, 0.001604170880167307
1273.0, 0.0017488074893754365
1274.0, 0.0009564962106205328
1275.0, 0.0014086526741281522
1276.0, 0.0005471658628314936
1277.0, 0.0006459569617633758
1278.0, 0.0008787349748394818
1279.0, 0.0006622466511259852
1280.0, 0.0005176070560003351
1281.0, 0.0014516609458486295
1282.0, 0.000889105650988983
1283.0, 0.0008206200401994381
1284.0, 0.0009578793670249463
1285.0, 0.0006500852375055669
1286.0, 9.784506373883343e-05
1287.0, 0.0009040207578689468
1288.0, 0.0008308415602033042
1289.0, 0.0005021739669025065
1290.0, 0.0007646355720518445
1291.0, 0.0016588339803227064
1292.0, 0.00036167423537927074
1293.0, 0.0014798637187752573
1294.0, 0.0015937929025598195
1295.0, 0.0019787754649900832
1296.0, 0.0023068940705651547
1297.0, 0.0014313952098628654
1298.0, 0.001852606244784501
1299.0, 0.0013166709287315964
1300.0, 0.0013766797935647413
1301.0, 0.0020854936509533207
1302.0, 0.0027065171329396956
1303.0, 0.0021612711099423497
1304.0, 0.0012530308395585213
1305.0, 0.0019326168798139383
1306.0, 0.0015217950984843644
1307.0, 0.0018474580580948841
1308.0, 0.0033516257898908624
1309.0, 0.0033004702910094763
1310.0, 0.0035242573854958824
1311.0, 0.003280354724153807
1312.0, 0.003734962200218188
1313.0, 0.004089655706435069
1314.0, 0.003915440035569522
1315.0, 0.004587822253699812
1316.0, 0.00490148089106182
1317.0, 0.005898829952857742
1318.0, 0.006103436753935788
1319.0, 0.006084366239470671
1320.0, 0.006157247257729308
1321.0, 0.0040200359580146216
1322.0, 0.005500784990761917
1323.0, 0.004474578716177346
1324.0, 0.003437169970192713
1325.0, 0.0036917615526463614
1326.0, 0.00458292082977532
1327.0, 0.002184021565909376
1328.0, 0.003216278789567307
1329.0, 0.0023367679562749026
1330.0, 0.0016051632142389687
1331.0, 0.0020538004243070324
1332.0, 0.0035381979653954397
1333.0, 0.005048126095589803
1334.0, 0.0039614815047806
1335.0, 0.0023569005704236396
1336.0, 0.0019577828292898156
1337.0, 0.0025915278046408125
1338.0, 0.0028451460230812494
1339.0, 0.0016413849778285673
1340.0, 0.0021629189261857173
1341.0, 0.0023794792866616067
1342.0, 0.0026206072427008187
1343.0, 0.0033556631781649824
1344.0, 0.0043136420253581075
1345.0, 0.002288972402112491
1346.0, 0.003664074587455344
1347.0, 0.0034132846225651135
1348.0, 0.003175701429919201
1349.0, 0.0037401180261152677
1350.0, 0.004643127569562072
1351.0, 0.005229317201880763
1352.0, 0.004019449583641908
1353.0, 0.0039867339893686835
1354.0, 0.004000469747160246
1355.0, 0.0040783103899714734
1356.0, 0.004951191109257498
1357.0, 0.0051122198473076115
1358.0, 0.002989779318803231
1359.0, 0.004141205549991706
1360.0, 0.0046427928137668184
1361.0, 0.003529358288189844
1362.0, 0.0029370062850860978
1363.0, 0.005196516780173401
1364.0, 0.00392888054167845
1365.0, 0.003492014387740282
1366.0, 0.00395441770442246
1367.0, 0.004677775517359473
1368.0, 0.004923468583471022
1369.0, 0.004431458414912643
1370.0, 0.0038477719224378594
1371.0, 0.0030567207848828815
1372.0, 0.0031645369680351
1373.0, 0.003993874174042998
1374.0, 0.004614317277734177
1375.0, 0.004609840167573398
1376.0, 0.00454074911827146
1377.0, 0.004075863151984108
1378.0, 0.003674576317925358
1379.0, 0.0035781459106699652
1380.0, 0.0034732212529522064
1381.0, 0.002063276480168146
1382.0, 0.004239069540439842
1383.0, 0.0035135160039359214
1384.0, 0.002629664101469081
1385.0, 0.002884561871444778
1386.0, 0.003965426420892021
1387.0, 0.004111250906838732
1388.0, 0.0037345645992231105
1389.0, 0.0027923138727803595
1390.0, 0.002552753643160797
1391.0, 0.0025033717078575294
1392.0, 0.0021656411824976444
1393.0, 0.0023194829910061585
1394.0, 0.0030403226354370093
1395.0, 0.0025836582861030787
1396.0, 0.003020166394073441
1397.0, 0.003049227256886033
1398.0, 0.002713426328711523
1399.0, 0.004511547315838876
1400.0, 0.003956036912020149
1401.0, 0.002566916475938676
1402.0, 0.002539976413577508
1403.0, 0.0032000520673176698
1404.0, 0.0037365977209108227
1405.0, 0.0038625895019926194
1406.0, 0.0031239178358398547
1407.0, 0.0035113453748912104
1408.0, 0.0036496136824149383
1409.0, 0.0024088021558830064
1410.0, 0.0015580127575366477
1411.0, 0.0034583122975933933
1412.0, 0.004733661189130525
1413.0, 0.002940066793676365
1414.0, 0.0035081966843221045
1415.0, 0.0041306925666890594
1416.0, 0.003631296200617175
1417.0, 0.002661073649665239
1418.0, 0.003739341347733635
1419.0, 0.005106688682344051
1420.0, 0.003673991749427269
1421.0, 0.004831662462947462
1422.0, 0.005228138373618167
1423.0, 0.003304606064582241
1424.0, 0.004711272024282973
1425.0, 0.0029818740511111637
1426.0, 0.00483185193166483
1427.0, 0.005102441345566507
1428.0, 0.004834789027260654
1429.0, 0.004760071260922962
1430.0, 0.004116528488374887
1431.0, 0.004302447271301464
1432.0, 0.004048160335122052
1433.0, 0.0031812677256623802
1434.0, 0.0036498878096097487
1435.0, 0.00443746877355021
1436.0, 0.003707518954460093
1437.0, 0.003738738836668618
1438.0, 0.004814423947651116
1439.0, 0.00522987439884364
1440.0, 0.00522156281544641
1441.0, 0.004856330120657237
1442.0, 0.004828984513727972
1443.0, 0.006561320596964031
1444.0, 0.005115111551658357
1445.0, 0.005955205373398074
1446.0, 0.0056386345383596164
1447.0, 0.004636668494409692
1448.0, 0.004646986428087476
1449.0, 0.006338440603910021
1450.0, 0.004150529492598108
1451.0, 0.005430646282182476
1452.0, 0.006267602055443492
1453.0, 0.00734693095292474
1454.0, 0.0071157797145651415
1455.0, 0.004649149289318639
1456.0, 0.004227264651790866
1457.0, 0.005038459531039539
1458.0, 0.003982435949915022
1459.0, 0.004234093350511042
1460.0, 0.0053094671973202626
1461.0, 0.005663415967606084
1462.0, 0.0048341571623517895
1463.0, 0.007411349047539584
1464.0, 0.004094797325936763
1465.0, 0.003949127052718827
1466.0, 0.004693287087797901
1467.0, 0.0039792424069326465
1468.0, 0.0027582039675989743
1469.0, 0.0075446794128563085
1470.0, 0.0030587223467134755
1471.0, 0.0035789663914120623
1472.0, 0.004140933300671426
1473.0, 0.004848166047911843
1474.0, 0.006118545343903719
1475.0, 0.005942420180162959
1476.0, 0.004790186044433722
1477.0, 0.005613175830023394
1478.0, 0.004545279428333412
1479.0, 0.0034379281210898094
1480.0, 0.0037801237061690345
1481.0, 0.004921069757133399
1482.0, 0.0032832142930104375
1483.0, 0.005218810239129646
1484.0, 0.00471938038034147
1485.0, 0.00464990341873596
1486.0, 0.004399671224321637
1487.0, 0.003710813029726315
1488.0, 0.004218161882773707
1489.0, 0.0037589185138706695
1490.0, 0.005442542118492416
1491.0, 0.004268393224455799
1492.0, 0.0031274260929896134
1493.0, 0.0031000126840046945
1494.0, 0.003666307644246542
1495.0, 0.005393654451674549
1496.0, 0.004201537209747424
1497.0, 0.002180924279328687
1498.0, 0.0022019827384351983
1499.0, 0.0018788199701377472
1500.0, 0.0004713226245309319
1501.0, 0.0004337274020778883
1502.0, 0.0015258431195690147
1503.0, 0.0004500422287699535
1504.0, 0.0005757631391271697
1505.0, 0.0012394668997794448
1506.0, 0.0020446585552088906
1507.0, 0.0027798285008904483
1508.0, 0.0030813612833419596
1509.0, 0.003421719740084074
1510.0, 0.003431866826606292
1511.0, 0.003337406877436866
1512.0, 0.0030960317751046696
1513.0, 0.002558458690242407
1514.0, 0.0020707497283635793
1515.0, 0.0034190795586187274
1516.0, 0.00346520086955829
1517.0, 0.0011385945345160123
1518.0, 0.0017423528675862018
1519.0, 0.002573395307369891
1520.0, 0.0028032093449836407
1521.0, 0.004989331807629503
1522.0, 0.0011835247154878118
1523.0, 0.0011345895236660659
1524.0, 0.00039835057691917596
1525, 0.0
1526, 0.0
1527, 0.0
1528, 0.0
1529, 0.0
1530, 0.0
1531, 0.0
1532, 0.0
1533, 0.0
1534, 0.0
1535, 0.0
1536, 0.0
1537, 0.0
1538, 0.0
1539, 0.0
1540, 0.0
1541, 0.0
1542, 0.0
1543, 0.0
1544, 0.0
1545, 0.0
1546, 0.0
1547, 0.0
1548, 0.0
1549, 0.0
1550, 0.0
1551, 0.0
1552, 0.0
1553, 0.0
1554, 0.0
1555, 0.0
1556, 0.0
1557, 0.0
1558, 0.0
1559, 0.0
1560, 0.0
1561, 0.0
1562, 0.0
1563, 0.0
1564, 0.0
1565, 0.0
1566, 0.0
1567, 0.0
1568, 0.0
1569, 0.0
1570, 0.0
1571, 0.0
1572, 0.0
1573, 0.0
1574, 0.0
1575, 0.0
1576, 0.0
1577, 0.0
1578, 0.0
1579, 0.0
1580, 0.0
1581, 0.0
1582, 0.0
1583, 0.0
1584, 0.0
1585, 0.0
1586, 0.0
1587, 0.0
1588, 0.0
1589, 0.0
1590, 0.0
1591, 0.0
1592, 0.0
1593, 0.0
1594, 0.0
1595, 0.0
1596, 0.0
1597, 0.0
1598, 0.0
1599, 0.0
