30, 0.0
31, 0.0
32, 0.0
33, 0.0
34, 0.0
35, 0.0
36, 0.0
37, 0.0
38, 0.0
39, 0.0
40, 0.0
41, 0.0
42, 0.0
43, 0.0
44, 0.0
45, 0.0
46, 0.0
47, 0.0
48, 0.0
49, 0.0
50, 0.0
51, 0.0
52, 0.0
53, 0.0
54, 0.0
55, 0.0
56, 0.0
57, 0.0
58, 0.0
59, 0.0
60, 0.0
61, 0.0
62, 0.0
63, 0.0
64, 0.0
65, 0.0
66, 0.0
67, 0.0
68, 0.0
69, 0.0
70, 0.0
71, 0.0
72.0, 0.0680433731454025
73.0, 0.21216196301748255
74.0, 0.3956059680113185
75.0, 0.5510834606878002
76.0, 0.6654412020582057
77.0, 0.6615637508487476
78.0, 0.5977678585094255
79.0, 0.4901799069936535
80.0, 0.3429770684755939
81.0, 0.18431059197714944
82.0, 0.08081814134402097
83.0, 0.04305143456886312
84.0, 0.03442099322773552
85.0, 0.019451902871828585
86.0, 0.004150574869505128
87.0, 0.006050589810532023
88.0, 0.010674818886281273
89.0, 0.014867023392923678
90.0, 0.019726348127981505
91.0, 0.031241820194656638
92.0, 0.04992544789197605
93.0, 0.03365466983575682
94.0, 0.016078480041454415
95.0, 0.010924115417052845
96.0, 0.013019049149500294
97.0, 0.007383782084646566
98.0, 0.004757167509576899
99.0, 0.0028707069833407363
100.0, 0.0019045845667553097
101.0, 0.003097508992799733
102.0, 0.00844521350768052
103.0, 0.03833340678462082
104.0, 0.0861699480744598
105.0, 0.14922506654006856
106.0, 0.23180327795295178
107.0, 0.35547132505254797
108.0, 0.5116381746424287
109.0, 0.5715402772425332
110.0, 0.5203776555759145
111.0, 0.4460666358293279
112.0, 0.5284997779602896
113.0, 0.6684103424303486
114.0, 0.7317318760425948
115.0, 0.7942479345788968
116.0, 0.861471197345742
117.0, 0.8950424419620883
118.0, 0.8140115338887499
119.0, 0.9416336215723212
120.0, 0.7739889814061695
121.0, 0.45221278318313524
122.0, 0.21087329894112603
123.0, 0.11324026583043617
124.0, 0.06334796096009339
125.0, 0.03028612291810199
126.0, 0.01639634967958435
127.0, 0.01429028359022045
128.0, 0.003932458364680746
129.0, 0.004004979520143839
130.0, 0.005067903078732797
131.0, 0.00679124002839211
132.0, 0.006513271069561841
133.0, 0.0022411177841050755
134.0, 0.0037824680752406425
135.0, 0.01205296542692355
136.0, 0.019457628057446368
137.0, 0.02201261814632821
138.0, 0.018490217571239143
139.0, 0.011997950395676832
140.0, 0.011796400728492161
141.0, 0.006214748548357521
142.0, 0.0014121448259211092
143.0, 0.0007625649532231737
144.0, 0.0035397476180109005
145.0, 0.006982130740048855
146.0, 0.010364412555378876
147.0, 0.0089828593391667
148.0, 0.005493756706576326
149.0, 0.004166759801943665
150.0, 0.0028465857892449042
151.0, 0.0074886397004084275
152.0, 0.010640895373524003
153.0, 0.013778966522101057
154.0, 0.018483526856747298
155.0, 0.02446395760834148
156.0, 0.021918298092852263
157.0, 0.03092803613500058
158.0, 0.03143760067058087
159.0, 0.026330535045353463
160.0, 0.030935334191473263
161.0, 0.03975116884418575
162.0, 0.039962653414841856
163.0, 0.03538594547236806
164.0, 0.03137900517731002
165.0, 0.030285235388727145
166.0, 0.02653493707746356
167.0, 0.023842604881457032
168.0, 0.02297000551677248
169.0, 0.025355015431554117
170.0, 0.028536100886520442
171.0, 0.027741095983538844
172.0, 0.029588032282019235
173.0, 0.026680508353008447
174.0, 0.028042474412709035
175.0, 0.029503879140908483
176.0, 0.025398212203700112
177.0, 0.018033017322053143
178.0, 0.026262385553895044
179.0, 0.026564792516814633
180.0, 0.021489936530758477
181.0, 0.014908496641421186
182.0, 0.009552645741676732
183.0, 0.006186740722321621
184.0, 0.00958468761125295
185.0, 0.012678605030419916
186.0, 0.015904606524749038
187.0, 0.021352178010213704
188.0, 0.027311323609082817
189.0, 0.031884646500603575
190.0, 0.037312725475546586
191.0, 0.042527773256422874
192.0, 0.044908687894741874
193.0, 0.04198938340965461
194.0, 0.05591086079830959
195.0, 0.05433507305449289
196.0, 0.050717307187123084
197.0, 0.050409692680851576
198.0, 0.05452918578128479
199.0, 0.060912271057769786
200.0, 0.059235286396532055
201.0, 0.056696644119035626
202.0, 0.056295039372942064
203.0, 0.05326479053676148
204.0, 0.037113862952948995
205.0, 0.0222868034785033
206.0, 0.009477791967329884
207.0, 0.0066803822204596275
208.0, 0.0071424526450919144
209.0, 0.004568741527287265
210.0, 0.008822144506278991
211.0, 0.0020632455151896882
212.0, 0.003910854592599633
213.0, 0.008983395057682473
214.0, 0.01044463113347553
215.0, 0.00539980604669436
216.0, 0.024841649702476334
217.0, 0.016821590328524854
218.0, 0.010603947164359093
219.0, 0.0074975452614856625
220.0, 0.004318792074331121
221.0, 0.004645073104327895
222.0, 0.0019097139195497985
223.0, 0.0030082717483233762
224.0, 0.004120297918257211
225.0, 0.004701471081010671
226.0, 0.006469071779583155
227.0, 0.009356425529169517
228.0, 0.0075510971636889536
229.0, 0.008133040319261346
230.0, 0.009435124326715304
231.0, 0.008790659234967024
232.0, 0.00477061115220587
233.0, 0.0014096366679424745
234.0, 0.004430653370695642
235.0, 0.0035429946949528377
236.0, 0.0018227693637422858
237.0, 0.005180249832681543
238.0, 0.007207463669940973
239.0, 0.005229191339899175
240.0, 0.0051780019913341725
241.0, 0.004487492092486885
242.0, 0.002580884469025282
243.0, 0.0017222891443650972
244.0, 0.005524975242693894
245.0, 0.0026948164575294874
246.0, 0.0007234510841096331
247.0, 0.0012802830218055514
248.0, 0.0028733606426043167
249.0, 0.001128129064024994
250.0, 0.0031642629339756877
251.0, 0.004378964094206688
252.0, 0.006129202259579699
253.0, 0.008447423506617872
254.0, 0.01069431558366578
255.0, 0.012908666205476324
256.0, 0.0191639714650387
257.0, 0.04063914412491601
258.0, 0.10874079722949541
259.0, 0.1730242067824201
260.0, 0.12495610959123313
261.0, 0.16455212520205076
262.0, 0.0986624741235482
263.0, 0.06099172451623697
264.0, 0.0539971928295735
265.0, 0.054948398888435404
266.0, 0.06493361430110442
267.0, 0.06047856048515824
268.0, 0.05726734151253825
269.0, 0.04869349250776578
270.0, 0.038394190932925704
271.0, 0.03145635292880956
272.0, 0.017971345029870085
273.0, 0.017488091802023292
274.0, 0.01782923568345618
275.0, 0.01950151712413113
276.0, 0.021721879385527814
277.0, 0.022104696587866974
278.0, 0.021438428592821766
279.0, 0.022141836712624267
280.0, 0.02172523315636881
281.0, 0.021136464560568564
282.0, 0.020615215815431964
283.0, 0.018527289259578444
284.0, 0.017238059472621928
285.0, 0.015011367570224372
286.0, 0.017025889299158495
287.0, 0.019522579858599582
288.0, 0.018168612745598296
289.0, 0.015219536405593414
290.0, 0.020451740137590067
291.0, 0.020806916302510383
292.0, 0.015477618658668701
293.0, 0.01188240227479564
294.0, 0.016950166035696983
295.0, 0.018786651219469153
296.0, 0.02033871039816783
297.0, 0.021807294837401788
298.0, 0.02215391022558354
299.0, 0.02203158976796089
300.0, 0.02297458666164565
301.0, 0.02198321061465202
302.0, 0.02331840769124376
303.0, 0.026119543588786986
304.0, 0.028691687174303322
305.0, 0.029446054285067295
306.0, 0.027561171619718453
307.0, 0.025566278826434537
308.0, 0.026699071679381393
309.0, 0.02786977948874162
310.0, 0.02938943191876821
311.0, 0.03108601635758652
312.0, 0.030578830159356894
313.0, 0.031398796253012985
314.0, 0.03576537878572204
315.0, 0.03435486990795855
316.0, 0.029896350316387772
317.0, 0.027458381766858747
318.0, 0.025669108292991398
319.0, 0.03124527117117104
320.0, 0.030937393074805114
321.0, 0.03033882534043115
322.0, 0.03126448538290429
323.0, 0.03264421027717618
324.0, 0.03207072202152785
325.0, 0.03333009778137767
326.0, 0.030034956605524125
327.0, 0.03191179243421526
328.0, 0.033581125886103784
329.0, 0.02654929549835506
330.0, 0.035196966531155865
331.0, 0.03402572657871464
332.0, 0.037450327120584034
333.0, 0.03922797577738961
334.0, 0.03707802908120415
335.0, 0.03390713729385707
336.0, 0.03268209647302138
337.0, 0.039149494908988766
338.0, 0.038936076719671954
339.0, 0.035384471150977606
340.0, 0.03458959133000624
341.0, 0.03971478652800873
342.0, 0.034365584719822685
343.0, 0.033310833843278626
344.0, 0.03547945661175263
345.0, 0.038326931593295255
346.0, 0.03878998036375735
347.0, 0.03511917002682437
348.0, 0.03669825671064135
349.0, 0.038643567714156536
350.0, 0.03807939460212594
351.0, 0.03531198162244829
352.0, 0.03315379152186614
353.0, 0.03552764434470601
354.0, 0.03746648540242887
355.0, 0.031433139234940496
356.0, 0.0298245251628888
357.0, 0.03088570023328491
358.0, 0.03279932483334571
359.0, 0.037343628394884185
360.0, 0.037878346512464516
361.0, 0.031171043355135826
362.0, 0.030269561294102878
363.0, 0.028505772365019187
364.0, 0.023888297911522242
365.0, 0.02607303496700573
366.0, 0.028299106759301855
367.0, 0.035010093542041515
368.0, 0.03153325703483588
369.0, 0.027617232804587135
370.0, 0.029151521509208394
371.0, 0.028599517850416437
372.0, 0.026491703846314794
373.0, 0.018791463442431842
374.0, 0.019078722926061737
375.0, 0.022714235584718842
376.0, 0.023200951288701803
377.0, 0.019439395140420947
378.0, 0.024603530615556826
379.0, 0.024028538338042606
380.0, 0.022216611111293583
381.0, 0.021748523780978336
382.0, 0.020868072476994244
383.0, 0.015124820959219503
384.0, 0.020817415244523442
385.0, 0.01620185188063968
386.0, 0.014048389171338244
387.0, 0.01331997385587186
388.0, 0.013981572132909962
389.0, 0.018935368312381
390.0, 0.018250706281321548
391.0, 0.017196009158207116
392.0, 0.018038203529195898
393.0, 0.013469312696352955
394.0, 0.008516123733349007
395.0, 0.016763245892676158
396.0, 0.014869065217881231
397.0, 0.011426259655120648
398.0, 0.014837963143093293
399.0, 0.01900435034848088
400.0, 0.020077653160194293
401.0, 0.018255592697358675
402.0, 0.011919705030814614
403.0, 0.02301580152986961
404.0, 0.023338097747156256
405.0, 0.02536862721053956
406.0, 0.0262702791927819
407.0, 0.0161465404082742
408.0, 0.016671127448787987
409.0, 0.024114583467148093
410.0, 0.02270108145678073
411.0, 0.02094436483257538
412.0, 0.02261533494282612
413.0, 0.024685543685446697
414.0, 0.017467475358628765
415.0, 0.018092552193016306
416.0, 0.0200849557066993
417.0, 0.022606870576837197
418.0, 0.02092675334989108
419.0, 0.015787240213765114
420.0, 0.02283586407112828
421.0, 0.017741904549372425
422.0, 0.016086076487486157
423.0, 0.017109900673753335
424.0, 0.020459091444322286
425.0, 0.02331221231960085
426.0, 0.019808362045888595
427.0, 0.019637741182233884
428.0, 0.01695939666696354
429.0, 0.018901439696049835
430.0, 0.023044343166415685
431.0, 0.02484659605731026
432.0, 0.021730803985006878
433.0, 0.019216113788583712
434.0, 0.02479958840827533
435.0, 0.025031360364918303
436.0, 0.022769245637992166
437.0, 0.02029645754197365
438.0, 0.017128502367626062
439.0, 0.014563408332903682
440.0, 0.012398066564976086
441.0, 0.015755990135562073
442.0, 0.019090669205530104
443.0, 0.020378404082346115
444.0, 0.02105725225524018
445.0, 0.023439193873807843
446.0, 0.022862064603851838
447.0, 0.023578726388679094
448.0, 0.022999319968191552
449.0, 0.02108824973915633
450.0, 0.019399747515797854
451.0, 0.019748494595173874
452.0, 0.01953025218368253
453.0, 0.02012798691021602
454.0, 0.019543678465285572
455.0, 0.01984852435428671
456.0, 0.02057078399615792
457.0, 0.018643408881994998
458.0, 0.022799122183483258
459.0, 0.021603331632333175
460.0, 0.020052883695072545
461.0, 0.016681267136409543
462.0, 0.013383262804244683
463.0, 0.014554189573982006
464.0, 0.022074973315283856
465.0, 0.023165709822171542
466.0, 0.019051498720901474
467.0, 0.018694759240253697
468.0, 0.02018868620775627
469.0, 0.020345420579058623
470.0, 0.024294287008518264
471.0, 0.029112194817169895
472.0, 0.029266393299694986
473.0, 0.027633697050995144
474.0, 0.02405335394894702
475.0, 0.021003035015088684
476.0, 0.023017365727405287
477.0, 0.02315864256271941
478.0, 0.027654602717610787
479.0, 0.027890775316512642
480.0, 0.026347790795143128
481.0, 0.025240744250606743
482.0, 0.024879846403824662
483.0, 0.02386795107088726
484.0, 0.026553182451792327
485.0, 0.0294340146441172
486.0, 0.03131608264059122
487.0, 0.031962839526107956
488.0, 0.03175937879727852
489.0, 0.03115141241186782
490.0, 0.027882067438048653
491.0, 0.025188575756101825
492.0, 0.023600340076331442
493.0, 0.025772894964713224
494.0, 0.02750500875999744
495.0, 0.02371838684518016
496.0, 0.028857693166945916
497.0, 0.03594580984205481
498.0, 0.03173730190661585
499.0, 0.030223608783746355
500.0, 0.033327770021735786
501.0, 0.036498888058231156
502.0, 0.03660374879176146
503.0, 0.03645160403867695
504.0, 0.034656061404047374
505.0, 0.03196018056531371
506.0, 0.03068973454763032
507.0, 0.028926740193854918
508.0, 0.02513940115388131
509.0, 0.03652823734719365
510.0, 0.03195773935445274
511.0, 0.03574978074737883
512.0, 0.03979443758447073
513.0, 0.040436136992780335
514.0, 0.03884772537795783
515.0, 0.038433071171118154
516.0, 0.03802197282091698
517.0, 0.03962492698094126
518.0, 0.0422885354834087
519.0, 0.04068628034450211
520.0, 0.038795082426098595
521.0, 0.043165362580487705
522.0, 0.03738515747112631
523.0, 0.04100490943024939
524.0, 0.043080319435174784
525.0, 0.04101890646647103
526.0, 0.03778829154450155
527.0, 0.03572642431178281
528.0, 0.03341465423791617
529.0, 0.038473797086650954
530.0, 0.03805154366653105
531.0, 0.035597429115388865
532.0, 0.031873743496015385
533.0, 0.029372967564716385
534.0, 0.030498844962227878
535.0, 0.03336739401194217
536.0, 0.033609202124042406
537.0, 0.032187622414219866
538.0, 0.03659690499071148
539.0, 0.03690873069145247
540.0, 0.031935957331150046
541.0, 0.03457431530356216
542.0, 0.040762396610974055
543.0, 0.04156008076363963
544.0, 0.041194927100115464
545.0, 0.04389885230673517
546.0, 0.04265170409686504
547.0, 0.03579747074725441
548.0, 0.03985856099942172
549.0, 0.037991022873804486
550.0, 0.04071501683668494
551.0, 0.04006572568005142
552.0, 0.039055752360794484
553.0, 0.0402203315312683
554.0, 0.042010271986415666
555.0, 0.03817333441380034
556.0, 0.04229753708688823
557.0, 0.043642052491115114
558.0, 0.03912960861144229
559.0, 0.03709399124999664
560.0, 0.04163410185303095
561.0, 0.046671699372935624
562.0, 0.042851687224794405
563.0, 0.04454955931008016
564.0, 0.04898553803652317
565.0, 0.04771610163455174
566.0, 0.04325227080329971
567.0, 0.04244023462232444
568.0, 0.047386941254490035
569.0, 0.04158808974508802
570.0, 0.04383206612858283
571.0, 0.045094891499160336
572.0, 0.046263579373070976
573.0, 0.044435796692193524
574.0, 0.03884735190340824
575.0, 0.03914308887647417
576.0, 0.039935986792081685
577.0, 0.03178868395538255
578.0, 0.02913887123322422
579.0, 0.033037472514333976
580.0, 0.031481377843682185
581.0, 0.019219123878371987
582.0, 0.029991182726058746
583.0, 0.02388817713329169
584.0, 0.021418676183810215
585.0, 0.02041878257759125
586.0, 0.014549096039524673
587.0, 0.009728712636893629
588.0, 0.017852734345834485
589.0, 0.023866348343595314
590.0, 0.012013138765028209
591.0, 0.017157260686458353
592.0, 0.01408713574515456
593.0, 0.011904967306025482
594.0, 0.01615455778808731
595.0, 0.015230546929133127
596.0, 0.014906698546690165
597.0, 0.015324343921826866
598.0, 0.01640790537299306
599.0, 0.011808530519077019
600.0, 0.008173280918775474
601.0, 0.009178235421343255
602.0, 0.008227442368612592
603.0, 0.00951342664188214
604.0, 0.011341233578546621
605.0, 0.007896900404666327
606.0, 0.007879160647154609
607.0, 0.00850450257397568
608.0, 0.007900706415045306
609.0, 0.012094180263721424
610.0, 0.008715888117629477
611.0, 0.009778363236438235
612.0, 0.010157341902528807
613.0, 0.009908611331684835
614.0, 0.010181644255087397
615.0, 0.01106009882816598
616.0, 0.011304616406242286
617.0, 0.01541888893897891
618.0, 0.017590648235307524
619.0, 0.01321928166245018
620.0, 0.012560413225946889
621.0, 0.01177430574206327
622.0, 0.008417493377241599
623.0, 0.01278793063040709
624.0, 0.014586592891018728
625.0, 0.009236870803142443
626.0, 0.010725486076826647
627.0, 0.013565614143502441
628.0, 0.013702310954651332
629.0, 0.012920911057222643
630.0, 0.016252579186641945
631.0, 0.01162166406775294
632.0, 0.017740615882432757
633.0, 0.012967384151337039
634.0, 0.009499653077768557
635.0, 0.0075182039283672834
636.0, 0.004158970097334938
637.0, 0.0039032514746802005
638.0, 0.013704743895859902
639.0, 0.0052927193514382695
640.0, 0.007957223388983935
641.0, 0.012354212231709561
642.0, 0.01217983488797974
643.0, 0.006907856907866345
644.0, 0.0021154703801083722
645.0, 0.014072033819163847
646.0, 0.003220267619764393
647.0, 0.0029942645132665655
648.0, 0.004428193820119288
649.0, 0.004456045098455756
650.0, 0.004225448258886251
651.0, 0.005041688223136124
652.0, 0.004792701977168978
653.0, 0.004454424956704196
654.0, 0.004979799800213703
655.0, 0.004654604636145701
656.0, 0.004733032682355408
657.0, 0.005666463488363814
658.0, 0.006226180407155173
659.0, 0.0056409974890565704
660.0, 0.005107917423837606
661.0, 0.006220160584587386
662.0, 0.004012800941089115
663.0, 0.0014352502417377126
664.0, 0.0008916553710003306
665.0, 0.0023107666295610367
666.0, 0.0048626666531966945
667.0, 0.006791276533164478
668.0, 0.003473739426206244
669.0, 0.007775317065595542
670.0, 0.010197696985266185
671.0, 0.007774822508973173
672.0, 0.006488028705198767
673.0, 0.011927437729706242
674.0, 0.0014139475572849444
675.0, 0.002614513633275935
676.0, 0.0015153644100728359
677.0, 0.0015912184006153303
678.0, 0.003372182795839146
679.0, 0.004620838197239005
680.0, 0.003344502289705659
681.0, 0.001148583015296046
682.0, 0.001190557788910216
683.0, 0.0027042507812789556
684.0, 0.00504542103290521
685.0, 0.006522669885392165
686.0, 0.007545052157593511
687.0, 0.009048729824323958
688.0, 0.007356239042249692
689.0, 0.0022119650587116902
690.0, 0.003934562429784187
691.0, 0.0032126472858448143
692.0, 0.0031596133192635842
693.0, 0.0037972296540601776
694.0, 0.003547688159306583
695.0, 0.0041077739077357185
696.0, 0.0009006138961297756
697.0, 0.0012388567362825854
698.0, 0.0017535023765846644
699.0, 0.003687546167262184
700.0, 0.005212438027185778
701.0, 0.0047186159354921115
702.0, 0.004259554192962806
703.0, 0.010631236190414778
704.0, 0.006300524165045428
705.0, 0.0021521806524504956
706.0, 0.0009849378261632903
707.0, 0.00372193358416745
708.0, 0.006615277310476751
709.0, 0.007109290655326081
710.0, 0.010179862975465009
711.0, 0.002610167609912282
712.0, 0.0008774138223554199
713.0, 0.0008080669478113131
714.0, 0.0007597130491001047
715.0, 0.0005280446863616995
716.0, 0.0004622263118332136
717.0, 0.0007415351423840482
718.0, 0.0012723010109867922
719.0, 0.0002027033493391043
720.0, 0.0020102223450756134
721.0, 0.0028086533984685723
722.0, 0.0015688040228789893
723.0, 0.00034922253212675634
724.0, 0.0013730673378302546
725.0, 0.0034415255862944353
726.0, 0.004234790233773754
727.0, 0.002668034263870852
728.0, 0.0056175348114509294
729.0, 0.005436133973455745
730.0, 0.005288999360492331
731.0, 0.008037754453303339
732.0, 0.009048408472423813
733.0, 0.003943426065884544
734.0, 0.0054270169507167525
735.0, 0.0019198092160300259
736.0, 0.003989962754814525
737.0, 0.004772720847866349
738.0, 0.005632768504510155
739.0, 0.007556750876061948
740.0, 0.001316753129640351
741.0, 0.0038912185014837826
742.0, 0.0043692410431288905
743.0, 0.005495086720579105
744.0, 0.004670808607214445
745.0, 0.004243748666427634
746.0, 0.00660365732238838
747.0, 0.009137668904414016
748.0, 0.004033762237844596
749.0, 0.00888568091487936
750.0, 0.007024389882700588
751.0, 0.0031761831498766943
752.0, 0.0033838339169214486
753.0, 0.003922987562660031
754.0, 0.002309042679390434
755.0, 0.004258883513037716
756.0, 0.016437236953193317
757.0, 0.002639650705213178
758.0, 0.00022813626593945515
759.0, 0.00380977655032855
760.0, 0.010070124916676314
761.0, 0.01271089961051661
762.0, 0.01096609112312731
763.0, 0.01175581033006386
764.0, 0.007556457585112161
765.0, 0.006723351609257927
766.0, 0.006287394599381999
767.0, 0.0037369090738968496
768.0, 0.005835308003339926
769.0, 0.007907875385964928
770.0, 0.008184611781043651
771.0, 0.019249971603327646
772.0, 0.004710893255993373
773.0, 0.0014285425394914776
774.0, 0.005519480535713179
775.0, 0.008745392322430198
776.0, 0.01036536302076008
777.0, 0.010614383145234326
778.0, 0.008850926903551293
779.0, 0.00601608294914537
780.0, 0.007516814467411784
781.0, 0.0022874124726009856
782.0, 0.002132833907230383
783.0, 0.0043292507183103615
784.0, 0.0049372928197654745
785.0, 0.0029463202933591084
786.0, 0.0016070886548684136
787.0, 0.0053300504656687295
788.0, 0.002498714137827163
789.0, 0.005487610339755061
790.0, 0.008855637599331901
791.0, 0.00660893813879114
792.0, 0.004941659512248712
793.0, 0.006096720558667026
794.0, 0.005109063676754702
795.0, 0.0010239283929123978
796.0, 0.007721869955725432
797.0, 0.009226121766020019
798.0, 0.003493851318593842
799.0, 0.00677136923864379
800.0, 0.0063588985951155905
801.0, 0.005387419394245144
802.0, 0.01408512567404935
803.0, 0.0096988326839237
804.0, 0.011550183529121297
805.0, 0.025976951833130865
806.0, 0.0094283437981763
807.0, 0.004384226936679062
808.0, 0.004109499011312988
809.0, 0.001902229513599038
810.0, 0.0024925037558442475
811.0, 0.0006776496360599011
812.0, 0.0066828137412335495
813.0, 0.011125395352525522
814.0, 0.009531863393888427
815.0, 0.008458334680714677
816.0, 0.008924909140021284
817.0, 0.008735240637902458
818.0, 0.009101049689376459
819.0, 0.01426138387904195
820.0, 0.006235108408217621
821.0, 0.008759237321116296
822.0, 0.01051171810876016
823.0, 0.008101628954697095
824.0, 0.006351691290336082
825.0, 0.004536760673409316
826.0, 0.002559552080873304
827.0, 0.004871650010220612
828.0, 0.0012709294797535403
829.0, 0.004297291959753006
830.0, 0.010015571522127318
831.0, 0.008189655541765642
832.0, 0.006505850288781985
833.0, 0.008508004351414066
834.0, 0.008701984023833272
835.0, 0.0032651983496783674
836.0, 0.0068917839233483495
837.0, 0.0075788724053784074
838.0, 0.003666574906352117
839.0, 0.0014154414682124947
840.0, 0.006250134411162917
841.0, 0.006072119794647604
842.0, 0.0010449304740677932
843.0, 0.0019466127806894574
844.0, 0.0033226162415416647
845.0, 0.004718492103586278
846.0, 0.002440567223437879
847.0, 0.0041182865934568155
848.0, 0.0040644566850999665
849.0, 0.0025380241951682633
850.0, 0.0023023077209820375
851.0, 0.003327198591517911
852.0, 0.002692711717125
853.0, 0.004407440662666328
854.0, 0.003983926983108347
855.0, 0.004027717016731926
856.0, 0.0027328926082930698
857.0, 0.0013981757203687841
858.0, 0.000736240014213863
859.0, 0.0005426509617070708
860.0, 0.00040398739503744565
861.0, 0.0002794156781582385
862.0, 0.0002515950573254852
863.0, 6.695172635841744e-05
864.0, 0.0018812234308673965
865.0, 0.0018741151473464068
866.0, 0.0028549134290200688
867.0, 0.003958948752232973
868.0, 0.0029840508675612215
869.0, 0.0019760293102981594
870.0, 0.00029447116509880825
871.0, 0.0026454822023807673
872.0, 0.002379398646848124
873.0, 0.002856444983590689
874.0, 0.0018512867627300486
875.0, 0.001968699367349677
876.0, 0.004181106590638061
877.0, 0.005397856033880548
878.0, 0.004242782499030571
879.0, 0.0031942525125371953
880.0, 0.002934685734963658
881.0, 0.0021402242261707115
882.0, 0.0012094550623742875
883.0, 0.0006691961247582681
884.0, 0.0005141966784806432
885.0, 0.0004636718230132905
886.0, 0.0010798386878966468
887.0, 0.004209500554157383
888.0, 0.0008172634557588913
889.0, 0.00021110979838207615
890.0, 0.0010772355047194274
891.0, 0.005085087559805478
892.0, 0.007815989202228995
893.0, 0.006219644272203063
894.0, 0.00353493163605064
895.0, 0.004934185890523087
896.0, 0.0032785356829831422
897.0, 0.005109152749468298
898.0, 0.0026670630497135626
899.0, 0.003875359598778643
900.0, 0.002228182169314257
901.0, 0.005758627129285075
902.0, 0.00875638693760804
903.0, 0.0032526734771718695
904.0, 0.0072307432600928895
905.0, 0.013493288280852663
906.0, 0.011259620885201351
907.0, 0.01274041522153351
908.0, 0.013315396525867263
909.0, 0.007325257755229623
910.0, 0.0055604188317677165
911.0, 0.00839902138597628
912.0, 0.006388695224171049
913.0, 0.006582104445968617
914.0, 0.009619464838761919
915.0, 0.0077322424609718695
916.0, 0.010696114582486942
917.0, 0.010866390524421374
918.0, 0.008295922461715875
919.0, 0.009806941815594557
920.0, 0.013059514364504702
921.0, 0.012294055024949214
922.0, 0.016105936380360064
923.0, 0.014080998091580636
924.0, 0.00953886819179964
925.0, 0.012611744347165655
926.0, 0.008224841466246262
927.0, 0.011507648741803385
928.0, 0.011114001334240165
929.0, 0.008279765787205112
930.0, 0.013026882752628297
931.0, 0.005164832186120814
932.0, 0.016784254246606067
933.0, 0.01383800818423231
934.0, 0.010359043021985932
935.0, 0.009960895937099194
936.0, 0.012562574508319255
937.0, 0.013697505868308184
938.0, 0.013234444524768869
939.0, 0.014120691967971003
940.0, 0.014628646539350622
941.0, 0.013165630387348519
942.0, 0.0163373825238234
943.0, 0.01641325675692173
944.0, 0.01893606125288372
945.0, 0.01578857847092834
946.0, 0.010901546934662965
947.0, 0.009586976626726383
948.0, 0.0131832527392328
949.0, 0.020023580780698182
950.0, 0.021136713786465252
951.0, 0.009256644310049616
952.0, 0.012383756301557336
953.0, 0.007383860509055528
954.0, 0.012716636982738056
955.0, 0.019702859917130347
956.0, 0.01950435185585191
957.0, 0.016916493309457152
958.0, 0.018846209942472467
959.0, 0.016376097877837614
960.0, 0.010714897681116201
961.0, 0.009860585952406931
962.0, 0.013268529943989617
963.0, 0.012172296843085795
964.0, 0.011698375842820529
965.0, 0.013373868910340963
966.0, 0.014344277973945684
967.0, 0.013105493117159858
968.0, 0.012563070837507911
969.0, 0.016809030601323525
970.0, 0.024836094013957314
971.0, 0.01967171016398621
972.0, 0.012942228024142473
973.0, 0.015314869086779417
974.0, 0.015573383069647222
975.0, 0.013834745628273162
976.0, 0.016536664107635136
977.0, 0.017734679781888113
978.0, 0.011165528815971304
979.0, 0.021887497593437645
980.0, 0.038988534519266385
981.0, 0.03165141053325614
982.0, 0.025190518420911044
983.0, 0.026921986724445277
984.0, 0.026116370425074815
985.0, 0.023171450534604978
986.0, 0.02573213946827153
987.0, 0.026384721002211106
988.0, 0.025184804636665923
989.0, 0.02064440657272656
990.0, 0.024715300314800168
991.0, 0.023220383921404176
992.0, 0.025613717960436252
993.0, 0.026359224072072942
994.0, 0.026114814419068263
995.0, 0.027226110613889673
996.0, 0.025752589862207454
997.0, 0.020463471402762848
998.0, 0.023949737739342336
999.0, 0.018874702804642214
1000.0, 0.01642631651016443
1001.0, 0.023663317236936782
1002.0, 0.022618889882261562
1003.0, 0.016265655765602918
1004.0, 0.01390627049639429
1005.0, 0.017797108108781875
1006.0, 0.02323700708825637
1007.0, 0.02466479916004426
1008.0, 0.016084835274291123
1009.0, 0.026377485931733922
1010.0, 0.020307630680790077
1011.0, 0.025292221092418295
1012.0, 0.026169995353986685
1013.0, 0.024636411489975
1014.0, 0.025970089830813774
1015.0, 0.0266809163219928
1016.0, 0.023431954074577006
1017.0, 0.026178172428886197
1018.0, 0.03447986565065086
1019.0, 0.03104078269744696
1020.0, 0.02023768427029997
1021.0, 0.02595750319634964
1022.0, 0.02520004608836032
1023.0, 0.02366083661127322
1024.0, 0.02210715664092534
1025.0, 0.021104167610503332
1026.0, 0.02775164572683848
1027.0, 0.025845560905988427
1028.0, 0.0257282099737039
1029.0, 0.03358429905918499
1030.0, 0.03003086813139034
1031.0, 0.029428421547418118
1032.0, 0.026533722832600047
1033.0, 0.024835730897725308
1034.0, 0.025611007137811666
1035.0, 0.02650951229163836
1036.0, 0.02783693308358374
1037.0, 0.031847327095031554
1038.0, 0.03236144633532756
1039.0, 0.03591537585193762
1040.0, 0.03669414530274184
1041.0, 0.03225178772978047
1042.0, 0.02997841747224122
1043.0, 0.028591620402176107
1044.0, 0.027862488777975872
1045.0, 0.027858131129979775
1046.0, 0.02919146254845718
1047.0, 0.03350356468853129
1048.0, 0.03233217917082922
1049.0, 0.038890312426097126
1050.0, 0.03873721063066814
1051.0, 0.036214591137144196
1052.0, 0.036731245869357505
1053.0, 0.039462525277516064
1054.0, 0.03845032009034277
1055.0, 0.039366443870573954
1056.0, 0.040655728069696334
1057.0, 0.0329471269212485
1058.0, 0.04044132625224169
1059.0, 0.033677919128578926
1060.0, 0.03614034672698404
1061.0, 0.040368269712271324
1062.0, 0.04279154406390328
1063.0, 0.03782152040164597
1064.0, 0.036608233931834766
1065.0, 0.03758757946812389
1066.0, 0.03638621112963618
1067.0, 0.03599445295662973
1068.0, 0.03626768775978767
1069.0, 0.03405365609496755
1070.0, 0.03602536594568905
1071.0, 0.04204826657864473
1072.0, 0.040198798367411706
1073.0, 0.04142261238046802
1074.0, 0.043509197514348764
1075.0, 0.04116872092252181
1076.0, 0.04002396276259798
1077.0, 0.04180188686052889
1078.0, 0.04079674100570729
1079.0, 0.0427986527351259
1080.0, 0.042778950097416314
1081.0, 0.04430686407569496
1082.0, 0.041389895103266815
1083.0, 0.04294686727190058
1084.0, 0.04056848529925993
1085.0, 0.0393489336902531
1086.0, 0.04016633241382987
1087.0, 0.04278938180070384
1088.0, 0.043958708027836295
1089.0, 0.04139953529573824
1090.0, 0.043773025100543254
1091.0, 0.0383136894411828
1092.0, 0.03558181285503961
1093.0, 0.03472406873730006
1094.0, 0.03505669929952859
1095.0, 0.03878149299765185
1096.0, 0.03857842280165757
1097.0, 0.04210494715844731
1098.0, 0.039569273307400885
1099.0, 0.0371602457437741
1100.0, 0.051703148120068536
1101.0, 0.04101313280733289
1102.0, 0.03795084091132821
1103.0, 0.045317807953294674
1104.0, 0.03917123962730964
1105.0, 0.03422982518372573
1106.0, 0.031929255313058215
1107.0, 0.034251555279060444
1108.0, 0.037201004447805004
1109.0, 0.03722673967930769
1110.0, 0.03509801871539017
1111.0, 0.03299276494059434
1112.0, 0.03129143327050514
1113.0, 0.030843345970322688
1114.0, 0.028065369820883066
1115.0, 0.027718190787333206
1116.0, 0.03174550373606162
1117.0, 0.031839911478822445
1118.0, 0.033160046460176215
1119.0, 0.03163717777035775
1120.0, 0.03508340410968394
1121.0, 0.03840301825871547
1122.0, 0.03328490805526228
1123.0, 0.03472434751050466
1124.0, 0.03653580741077862
1125.0, 0.027689051205651044
1126.0, 0.027331077767374964
1127.0, 0.02563622501919227
1128.0, 0.0277028018439133
1129.0, 0.027184819275393863
1130.0, 0.026490552215923654
1131.0, 0.02561822657703578
1132.0, 0.02454332458597595
1133.0, 0.02330618369481062
1134.0, 0.020839696467734
1135.0, 0.018683405294675038
1136.0, 0.019621853217276913
1137.0, 0.015595319703976103
1138.0, 0.018248964440388156
1139.0, 0.019863987931249966
1140.0, 0.019751627843394046
1141.0, 0.019425998516892102
1142.0, 0.01679760185171402
1143.0, 0.021228464495785422
1144.0, 0.025093088508611906
1145.0, 0.02148804305949506
1146.0, 0.020601501750248177
1147.0, 0.012079498703028801
1148.0, 0.016513447152744005
1149.0, 0.017861487078610235
1150.0, 0.02118425265897691
1151.0, 0.009482029713667016
1152.0, 0.015998149461261137
1153.0, 0.015257557600887877
1154.0, 0.012301527487561687
1155.0, 0.013415031470965538
1156.0, 0.012805012982574932
1157.0, 0.010247620332061492
1158.0, 0.011373226267384174
1159.0, 0.007441702646009334
1160.0, 0.007798687260519352
1161.0, 0.011609877594182295
1162.0, 0.010478403322249656
1163.0, 0.015116540840912324
1164.0, 0.013910007258024581
1165.0, 0.014527387953262865
1166.0, 0.015398606104188809
1167.0, 0.012278970317420144
1168.0, 0.013171555498981732
1169.0, 0.017189687786972052
1170.0, 0.013491074637907715
1171.0, 0.01406983017423258
1172.0, 0.010456602407547389
1173.0, 0.010724172043990432
1174.0, 0.012979244290106912
1175.0, 0.003538861078559394
1176.0, 0.01352468478729307
1177.0, 0.00859583427509654
1178.0, 0.005361051985409757
1179.0, 0.00849620446200426
1180.0, 0.011361947455789436
1181.0, 0.011828553199003637
1182.0, 0.010719992595014403
1183.0, 0.008371827010523204
1184.0, 0.008093246935250613
1185.0, 0.005793814698264748
1186.0, 0.0019227014731656921
1187.0, 0.0013976623089173392
1188.0, 0.007984086672743952
1189.0, 0.010196162101350112
1190.0, 0.004857249173281856
1191.0, 0.004096378746334884
1192.0, 0.00349673302876238
1193.0, 0.0021664760729840017
1194.0, 0.002671028779036354
1195.0, 0.003003628653144644
1196.0, 0.009306038864129678
1197.0, 0.011940964308433416
1198.0, 0.007785437356554273
1199.0, 0.0025257863571650652
1200.0, 0.0009743173365371629
1201.0, 0.0032481484592362594
1202.0, 0.0016506961735771961
1203.0, 0.0044105835611593786
1204.0, 0.003238224400498219
1205.0, 0.002954493033209318
1206.0, 0.0041974138956464725
1207.0, 0.004013363548036517
1208.0, 0.005046434260408291
1209.0, 0.0008891684799599972
1210.0, 0.002361497766884749
1211.0, 0.005492500033691137
1212.0, 0.0020393391337364813
1213.0, 0.013234463424541093
1214.0, 0.00691161144576111
1215.0, 0.0021183959701925924
1216.0, 0.003686736380238016
1217.0, 0.0022517705127285616
1218.0, 0.00026540493229847525
1219.0, 0.004985430195281889
1220.0, 0.010814134632691944
1221.0, 0.008141763259346554
1222.0, 0.0032862794188072454
1223.0, 0.005602657217130399
1224.0, 0.010496554765614598
1225.0, 0.0021583577731584735
1226.0, 0.004653499538219168
1227.0, 0.001243908133369264
1228.0, 0.011670637510753208
1229.0, 0.012963842432047712
1230.0, 0.00919820181643136
1231.0, 0.00714523220938641
1232.0, 0.003900032119389909
1233.0, 0.0006949154293739168
1234.0, 0.0018420901986292118
1235.0, 0.00441695222679167
1236.0, 0.00562027442539669
1237.0, 0.0008610934442030112
1238.0, 0.003151367337760277
1239.0, 0.0002493258847056218
1240.0, 0.0021161906146969257
1241.0, 0.0006649425084235412
1242.0, 0.0073282190209950655
1243.0, 0.003549938908460285
1244.0, 0.003005493729646653
1245.0, 0.006715018853981365
1246.0, 0.006097878544164179
1247.0, 0.003126869574809758
1248.0, 0.0038934449737436324
1249.0, 0.0056871276012619735
1250.0, 0.004606494534726623
1251.0, 0.0013577837287894706
1252.0, 0.003496832671435796
1253.0, 0.014713899716161147
1254.0, 0.004099098519347875
1255.0, 0.012375189959822647
1256.0, 0.007353599563947562
1257.0, 0.007756353014943334
1258.0, 0.004029732394755799
1259.0, 0.0029266356858049366
1260.0, 0.0024995557849040334
1261.0, 0.0015511499279246992
1262.0, 0.0033537546003710988
1263.0, 0.00301967064989716
1264.0, 0.00521440451809483
1265.0, 0.007585925906008298
1266.0, 0.0046496107797154825
1267.0, 0.003322315809896278
1268.0, 0.0049236607840619775
1269.0, 0.007786387785338166
1270.0, 0.007137303581917625
1271.0, 0.01485445229116124
1272.0, 0.00895676313655136
1273.0, 0.002081435800469409
1274.0, 0.003063797447700651
1275.0, 0.004346594023978768
1276.0, 0.0036219647645504005
1277.0, 0.003442791363985258
1278.0, 0.0025860304429385426
1279.0, 0.00825078110681289
1280.0, 0.013527903640425354
1281.0, 0.005641813058342951
1282.0, 0.011961405819851757
1283.0, 0.005880838139131338
1284.0, 0.008497686496242466
1285.0, 0.004233166831754683
1286.0, 0.00547473663322183
1287.0, 0.005870730698953721
1288.0, 0.011379865251270166
1289.0, 0.009551374813958739
1290.0, 0.007234378563932587
1291.0, 0.011409043480845874
1292.0, 0.01050553955544035
1293.0, 0.008905317504369398
1294.0, 0.00984641826585896
1295.0, 0.009093409727347892
1296.0, 0.006212060904366754
1297.0, 0.010197960465854274
1298.0, 0.009171120149519167
1299.0, 0.01014306789429963
1300.0, 0.008862799810990819
1301.0, 0.003916856315241774
1302.0, 0.010101713303271507
1303.0, 0.013066198825569173
1304.0, 0.01176398718945301
1305.0, 0.006135365948467004
1306.0, 0.0036623701016601715
1307.0, 0.009152112509101164
1308.0, 0.009925331074799378
1309.0, 0.008357867849678284
1310.0, 0.016289482013745325
1311.0, 0.001386049663230316
1312.0, 0.001651634942181622
1313.0, 0.001372629630115303
1314.0, 0.01009493986462874
1315.0, 0.010997098656463162
1316.0, 0.009025680335774718
1317.0, 0.01318973978499643
1318.0, 0.014347786344827444
1319.0, 0.012851377687966804
1320.0, 0.00737897047099158
1321.0, 0.0020348505471871215
1322.0, 0.003441887301857552
1323.0, 0.007846077348365846
1324.0, 0.007343871027501741
1325.0, 0.004360511682881884
1326.0, 0.0034121435581836324
1327.0, 0.003411107563828142
1328.0, 0.011259567703001733
1329.0, 0.011762206503996987
1330.0, 0.01042564931560485
1331.0, 0.009170439915550749
1332.0, 0.008980870753385104
1333.0, 0.011093771976502777
1334.0, 0.006174845924675548
1335.0, 0.0026577493035251773
1336.0, 0.0027947889275402545
1337.0, 0.004815247451724904
1338.0, 0.005747707288528916
1339.0, 0.0071924465562777295
1340.0, 0.006540489745974592
1341.0, 0.003286017334628225
1342.0, 0.011436395789356846
1343.0, 0.010188128177547415
1344.0, 0.003141479617204579
1345.0, 0.005027585578295811
1346.0, 0.005705312068092705
1347.0, 0.00776189934128631
1348.0, 0.010548045370198787
1349.0, 0.010188568448407202
1350.0, 0.011648518416204628
1351.0, 0.00949089434978201
1352.0, 0.006150409418089472
1353.0, 0.003361191687784242
1354.0, 0.003435139422921083
1355.0, 0.007820758728576812
1356.0, 0.006682628219081658
1357.0, 0.00316040283395602
1358.0, 0.007978199788820821
1359.0, 0.006128941488981534
1360.0, 0.0035901413328945937
1361.0, 0.009098740423892526
1362.0, 0.00480126378040405
1363.0, 0.005214121643302964
1364.0, 0.0032520039884812845
1365.0, 0.008955426994453751
1366.0, 0.010320694776815796
1367.0, 0.010998678361000994
1368.0, 0.014948320145335783
1369.0, 0.01379652823627616
1370.0, 0.009266371976448428
1371.0, 0.007227533383718295
1372.0, 0.007202871117981328
1373.0, 0.0051999565150542505
1374.0, 0.0022848567941721842
1375.0, 0.0010863517436080546
1376.0, 0.0005801604389328945
1377.0, 0.0034534538115991186
1378.0, 0.01039833202700417
1379.0, 0.00522678506066815
1380.0, 0.007702541843749945
1381.0, 0.012996816514029843
1382.0, 0.004719165560091769
1383.0, 0.004667147027974465
1384.0, 0.008710379862746705
1385.0, 0.008234369208852392
1386.0, 0.003920753109905319
1387.0, 0.005124560161367307
1388.0, 0.005287350540512076
1389.0, 0.0027683663454546557
1390.0, 0.0053118560063521465
1391.0, 0.007205736316908909
1392.0, 0.005557696018404733
1393.0, 0.0035861494323483254
1394.0, 0.004592507421012349
1395.0, 0.007415190826432625
1396.0, 0.006740130011958118
1397.0, 0.00884456081320768
1398.0, 0.007416346797879853
1399.0, 0.00650714500692765
1400.0, 0.007324502509585853
1401.0, 0.00901354788514508
1402.0, 0.008160667513386188
1403.0, 0.007023692881475484
1404.0, 0.007757586944583013
1405.0, 0.006675880731887865
1406.0, 0.005826361119815046
1407.0, 0.006386344852740924
1408.0, 0.006152579295620746
1409.0, 0.0040434278579450575
1410.0, 0.004626227035112928
1411.0, 0.006672358365234639
1412.0, 0.0070784343694053065
1413.0, 0.0040722881463714855
1414.0, 0.004816159079033402
1415.0, 0.008228519828032708
1416.0, 0.002628299117693535
1417.0, 0.0048100989291545255
1418.0, 0.006064924040314802
1419.0, 0.004582230539727656
1420.0, 0.007608845435901835
1421.0, 0.012057066437071674
1422.0, 0.012732497353848531
1423.0, 0.013690428760540486
1424.0, 0.007005751107466191
1425.0, 0.011812088781422179
1426.0, 0.010272336502464592
1427.0, 0.008489302196793584
1428.0, 0.008492592365940991
1429.0, 0.009715003806729957
1430.0, 0.011209713940938351
1431.0, 0.013495192328520656
1432.0, 0.009819514556468784
1433.0, 0.0061486719927871854
1434.0, 0.006740861519056175
1435.0, 0.004491965638111797
1436.0, 0.0052654476807059755
1437.0, 0.010475699301058763
1438.0, 0.006239160158923834
1439.0, 0.011267803354326627
1440.0, 0.015285526882005424
1441.0, 0.0051938035052553205
1442.0, 0.011758842467477841
1443.0, 0.0032969950993270696
1444.0, 0.012786430516102166
1445.0, 0.008075936254680827
1446.0, 0.013449778356165891
1447.0, 0.008783750152443894
1448.0, 0.001758200080841845
1449.0, 0.0008272061460614331
1450.0, 0.0068637246707359935
1451.0, 0.013028648440405211
1452.0, 0.0073538421827626385
1453.0, 0.00587923405643254
1454.0, 0.004629975586931996
1455.0, 0.004397943465382863
1456.0, 0.0062771477755311856
1457.0, 0.006178267784870417
1458.0, 0.004943191011394625
1459.0, 0.004787883188666937
1460.0, 0.008989659830085131
1461.0, 0.010055311676755448
1462.0, 0.002368111563542514
1463.0, 0.008895319157610677
1464.0, 0.011065918349060401
1465.0, 0.006693352290959962
1466.0, 0.0035063429364831354
1467.0, 0.006610641074856052
1468.0, 0.0018226959712334969
1469.0, 0.0008205157228087079
1470.0, 0.010157545489154304
1471.0, 0.004098859402358794
1472.0, 0.007917018508862162
1473.0, 0.007657692910672462
1474.0, 0.0023299239741312932
1475.0, 0.00458027980311764
1476.0, 0.0021190857546009925
1477.0, 0.005075304043604807
1478.0, 0.007786128320333667
1479.0, 0.00768193099132769
1480.0, 0.006136083101262527
1481.0, 0.006110032291401666
1482.0, 0.009026915150559102
1483.0, 0.009616564388024693
1484.0, 0.00660977253073768
1485.0, 0.004303040059050593
1486.0, 0.0037230996709693392
1487.0, 0.0009542302373345586
1488.0, 0.0012011205234179613
1489.0, 0.0010499142974893512
1490.0, 0.0016081282048489845
1491.0, 0.0035404558818476544
1492.0, 0.003459334695378637
1493.0, 0.008919354859780555
1494.0, 0.011978839635636142
1495.0, 0.0034001984128506505
1496.0, 0.008580063206651372
1497.0, 0.004714177748306179
1498.0, 0.0013457902777007985
1499.0, 0.004165054220619669
1500.0, 0.0025020870177352716
1501.0, 0.0010386331436429055
1502.0, 0.008667040839299612
1503.0, 0.006490352613131091
1504.0, 0.009967261744646815
1505.0, 0.008751309834207759
1506.0, 0.010964907349510075
1507.0, 0.012471282039763158
1508.0, 0.010355208790413161
1509.0, 0.012066705996601972
1510.0, 0.010300567384802678
1511.0, 0.00522480463564316
1512.0, 0.0062162396238784785
1513.0, 0.009358901945084593
1514.0, 0.004305088890061635
1515.0, 0.003156867399685154
1516.0, 0.004924261999482352
1517.0, 0.012452029216977334
1518.0, 0.006441822525814325
1519.0, 0.006260437564930228
1520.0, 0.014290608608769864
1521.0, 0.00510053927240571
1522.0, 0.009143853520875121
1523.0, 0.0011721588052964523
1524.0, 0.004388801097996097
1525.0, 0.006529738086497158
1526.0, 0.001613794857347826
1527.0, 0.006717197140575223
1528.0, 0.016917956849327318
1529.0, 0.009881429126691857
1530.0, 0.008156619851111758
1531.0, 0.008102609112915217
1532.0, 0.0028529501871556884
1533.0, 0.0025936285889577287
1534.0, 0.0014161228526646888
1535.0, 0.006758780252105409
1536.0, 0.012416062241281412
1537.0, 0.011180167471449804
1538.0, 0.007323249928969036
1539.0, 0.004162443849261229
1540.0, 0.007991461782322176
1541.0, 0.008329632414284905
1542.0, 0.004104145228382529
1543.0, 0.006897185428585571
1544.0, 0.00456074022964089
1545.0, 0.009817130707738311
1546.0, 0.004974819702530379
1547, 0.0
1548, 0.0
1549, 0.0
1550, 0.0
1551, 0.0
1552, 0.0
1553, 0.0
1554, 0.0
1555, 0.0
1556, 0.0
1557, 0.0
1558, 0.0
1559, 0.0
1560, 0.0
1561, 0.0
1562, 0.0
1563, 0.0
1564, 0.0
1565, 0.0
1566, 0.0
1567, 0.0
1568, 0.0
1569, 0.0
1570, 0.0
1571, 0.0
1572, 0.0
1573, 0.0
1574, 0.0
1575, 0.0
1576, 0.0
1577, 0.0
1578, 0.0
1579, 0.0
1580, 0.0
1581, 0.0
1582, 0.0
1583, 0.0
1584, 0.0
1585, 0.0
1586, 0.0
1587, 0.0
1588, 0.0
1589, 0.0
1590, 0.0
1591, 0.0
1592, 0.0
1593, 0.0
1594, 0.0
1595, 0.0
1596, 0.0
1597, 0.0
1598, 0.0
1599, 0.0
