30, 0.0
31, 0.0
32, 0.0
33, 0.0
34, 0.0
35, 0.0
36, 0.0
37, 0.0
38, 0.0
39, 0.0
40, 0.0
41, 0.0
42, 0.0
43, 0.0
44, 0.0
45, 0.0
46, 0.0
47, 0.0
48, 0.0
49, 0.0
50, 0.0
51, 0.0
52, 0.0
53, 0.0
54, 0.0
55, 0.0
56, 0.0
57, 0.0
58, 0.0
59, 0.0
60, 0.0
61, 0.0
62, 0.0
63, 0.0
64, 0.0
65, 0.0
66, 0.0
67, 0.0
68, 0.0
69, 0.0
70, 0.0
71, 0.0
72, 0.0
73, 0.0
74, 0.0
75, 0.0
76, 0.0
77, 0.0
78, 0.0
79, 0.0
80, 0.0
81, 0.0
82, 0.0
83, 0.0
84, 0.0
85, 0.0
86, 0.0
87, 0.0
88, 0.0
89, 0.0
90, 0.0
91, 0.0
92, 0.0
93, 0.0
94, 0.0
95, 0.0
96, 0.0
97, 0.0
98, 0.0
99, 0.0
100, 0.0
101, 0.0
102, 0.0
103, 0.0
104, 0.0
105, 0.0
106, 0.0
107, 0.0
108, 0.0
109, 0.0
110, 0.0
111, 0.0
112, 0.0
113, 0.0
114, 0.0
115, 0.0
116, 0.0
117, 0.0
118, 0.0
119.0, 0.005453265936340282
120.0, 0.08934966495696292
121.0, 0.036277842511792655
122.0, 0.026832037577846583
123.0, 0.056937164767248395
124.0, 0.0620736956568263
125.0, 0.026313329767577023
126.0, 0.029691911977314328
127.0, 0.05590961096128038
128.0, 0.07011069201709219
129.0, 0.05548289387339269
130.0, 0.05729548567572687
131.0, 0.06412008034412418
132.0, 0.08337602855875917
133.0, 0.1100305896674664
134.0, 0.12885380687902817
135.0, 0.11159045621161247
136.0, 0.14237438635948474
137.0, 0.14094224742028474
138.0, 0.17417195920291934
139.0, 0.24045821955668775
140.0, 0.27873919001311914
141.0, 0.26367721943907263
142.0, 0.2855383108776335
143.0, 0.30211005968436117
144.0, 0.2955785586980098
145.0, 0.27808219034989184
146.0, 0.3775392268784688
147.0, 0.33674400779334285
148.0, 0.34501245407815384
149.0, 0.3668037145606372
150.0, 0.35374804561368
151.0, 0.3578062714820348
152.0, 0.4072848104227702
153.0, 0.3769417493090655
154.0, 0.34982773050056687
155.0, 0.34910701950865897
156.0, 0.29582735443375846
157.0, 0.32258204847116295
158.0, 0.3258667843874864
159.0, 0.3261238096481287
160.0, 0.3288465820983043
161.0, 0.3281354781220783
162.0, 0.30889655650849507
163.0, 0.3227845994316769
164.0, 0.2867025737610662
165.0, 0.25093609445591736
166.0, 0.2637696183172092
167.0, 0.2198461051056468
168.0, 0.20596837505624097
169.0, 0.25212574384384717
170.0, 0.2609712535441337
171.0, 0.21338460732600584
172.0, 0.23211123179466034
173.0, 0.20420749717171352
174.0, 0.23406655896755965
175.0, 0.2503101785244402
176.0, 0.23273026342758046
177.0, 0.20681597236851645
178.0, 0.26091302380456555
179.0, 0.29952146675477903
180.0, 0.2866148076560388
181.0, 0.266284716008677
182.0, 0.27808487144076377
183.0, 0.26764846410248194
184.0, 0.31912105248968187
185.0, 0.2897910140247958
186.0, 0.26398157852321197
187.0, 0.28045653983179425
188.0, 0.28807719555540007
189.0, 0.2585282467855127
190.0, 0.2404954978420961
191.0, 0.23577210671065488
192.0, 0.23362714862507164
193.0, 0.2220605669099296
194.0, 0.22344937334588064
195.0, 0.22379004565888158
196.0, 0.22272448957855728
197.0, 0.22281974311071612
198.0, 0.22465456828545774
199.0, 0.22335586751578432
200.0, 0.22931747531161567
201.0, 0.2322109091729381
202.0, 0.23575958979751035
203.0, 0.2283173503597913
204.0, 0.19270511380910632
205.0, 0.19500366918923712
206.0, 0.19458376807080138
207.0, 0.21087772848373504
208.0, 0.2252399027990112
209.0, 0.2259267504162331
210.0, 0.2591061887456991
211.0, 0.2309537735473703
212.0, 0.23528270534281537
213.0, 0.2406294008295262
214.0, 0.22780102163143431
215.0, 0.20343680948275902
216.0, 0.17078998368133605
217.0, 0.18449140174216655
218.0, 0.20150880682790204
219.0, 0.21941842581783508
220.0, 0.24239539572436009
221.0, 0.23758262834235802
222.0, 0.24572931032065196
223.0, 0.24141147959680134
224.0, 0.23837260919910003
225.0, 0.24764085125336524
226.0, 0.26852607823867247
227.0, 0.2399177070793271
228.0, 0.24633375149344874
229.0, 0.2512713939660286
230.0, 0.2438490813401003
231.0, 0.23100734430209152
232.0, 0.24280635330409406
233.0, 0.2554450706903763
234.0, 0.277574483469951
235.0, 0.2561128991347069
236.0, 0.19189172180684005
237.0, 0.15872378460603287
238.0, 0.22028433954177729
239.0, 0.2674857312525998
240.0, 0.23937119036863852
241.0, 0.19674571694400203
242.0, 0.20381601444941033
243.0, 0.1591624893990054
244.0, 0.1586228208213679
245.0, 0.18924443792456347
246.0, 0.17444723959166705
247.0, 0.13588277658834177
248.0, 0.18815349463052253
249.0, 0.1992778752793591
250.0, 0.18118175184861843
251.0, 0.21858620575905824
252.0, 0.2434806794764225
253.0, 0.20328837854316
254.0, 0.22256098316942396
255.0, 0.22749639041513353
256.0, 0.2040958858645543
257.0, 0.22646564495738047
258.0, 0.2526732683168184
259.0, 0.18099710119175508
260.0, 0.22423907422921727
261.0, 0.23453207164755316
262.0, 0.2267495591072087
263.0, 0.22532589957513846
264.0, 0.2442335612424959
265.0, 0.27327734018238464
266.0, 0.26439317843879917
267.0, 0.29846987005886605
268.0, 0.3056861191989932
269.0, 0.29274262302929766
270.0, 0.303287202527923
271.0, 0.34869972186153564
272.0, 0.3537324692262108
273.0, 0.3214631476750751
274.0, 0.30217073239572856
275.0, 0.31943513286791914
276.0, 0.35496644893639134
277.0, 0.35902194775952906
278.0, 0.3030007667627154
279.0, 0.3173374507368294
280.0, 0.33025685044397585
281.0, 0.2898705199312661
282.0, 0.3361437513072801
283.0, 0.30238924025338787
284.0, 0.2696949399721893
285.0, 0.2439926311269467
286.0, 0.2197756841606443
287.0, 0.1945335555469299
288.0, 0.21216792672438933
289.0, 0.2648199595798215
290.0, 0.2349069502729347
291.0, 0.20704370506823858
292.0, 0.21156104145677163
293.0, 0.18609128486846155
294.0, 0.13511858329371143
295.0, 0.18856018386130793
296.0, 0.1959454183950697
297.0, 0.16413849908953845
298.0, 0.15277083335805178
299.0, 0.2245846621309035
300.0, 0.208866513539381
301.0, 0.2117259519316819
302.0, 0.217789862533516
303.0, 0.19646306560860963
304.0, 0.1420191408444375
305.0, 0.16387455507964815
306.0, 0.1448746751150942
307.0, 0.17634337949182727
308.0, 0.17520811654115284
309.0, 0.13066007433458182
310.0, 0.11114652012349649
311.0, 0.18289181742921287
312.0, 0.17063764580415422
313.0, 0.1938486334526686
314.0, 0.19839604074176315
315.0, 0.17362269540902653
316.0, 0.20455832000684726
317.0, 0.19006329751928436
318.0, 0.19819916681540573
319.0, 0.19942742454490497
320.0, 0.18232945642458284
321.0, 0.1547628536592538
322.0, 0.14907055318601573
323.0, 0.16535918067543895
324.0, 0.14414606032099186
325.0, 0.11241621088387867
326.0, 0.08291616095403678
327.0, 0.07653063457842238
328.0, 0.16796953397855327
329.0, 0.08420125963989814
330.0, 0.12399343381387753
331.0, 0.14251514401663856
332.0, 0.11034830481361478
333.0, 0.08821953093484311
334.0, 0.05536592230582051
335.0, 0.07722264250786928
336.0, 0.09218245701911498
337.0, 0.057170196967221754
338.0, 0.013782250454374005
339.0, 0.050546631538387045
340.0, 0.03526921433956762
341.0, 0.06798938212454797
342.0, 0.06971707194772106
343.0, 0.04353026173478293
344.0, 0.02446473708838038
345.0, 0.05437377750039553
346.0, 0.052151287803840825
347.0, 0.021901335920012935
348.0, 0.03153777244317681
349.0, 0.05592934409445317
350.0, 0.06857013688239186
351.0, 0.07938020931857004
352.0, 0.07354287870285378
353.0, 0.07326046198748651
354.0, 0.07746972361545892
355.0, 0.0671633884601917
356.0, 0.05029390730867688
357.0, 0.08875629270543067
358.0, 0.07017409223589662
359.0, 0.06395261574291694
360.0, 0.04299585833682812
361.0, 0.027251242373275517
362.0, 0.03820757505803244
363.0, 0.05922778503637581
364.0, 0.07233839918214097
365.0, 0.04904540120112595
366.0, 0.06854183265293017
367.0, 0.08381543005548278
368.0, 0.0542673545764254
369.0, 0.09587727648894193
370.0, 0.09904836759651149
371.0, 0.0699581050059512
372.0, 0.046630990429180195
373.0, 0.05124005553431643
374.0, 0.07640163453297162
375.0, 0.0657302493545209
376.0, 0.10101941007903878
377.0, 0.08831888008793068
378.0, 0.06147979253547802
379.0, 0.07201120320761754
380.0, 0.11899555565180238
381.0, 0.048399789011030335
382.0, 0.06639389939193378
383.0, 0.059031401718095636
384.0, 0.05187399438964586
385.0, 0.05862063424557813
386.0, 0.06420308812303378
387.0, 0.003771451815818165
388.0, 0.007501916488916106
389.0, 0.007447754412235718
390.0, 0.04435154537502535
391.0, 0.05782733714450234
392.0, 0.006406342775890472
393.0, 0.037645914147766815
394.0, 0.02073513485169745
395.0, 0.03471832816626981
396.0, 0.028681576811573177
397.0, 0.022359270963268365
398.0, 0.039014209928105364
399.0, 0.02057255616681273
400.0, 0.010229414667308867
401.0, 0.029863044267904863
402.0, 0.034214347732437964
403.0, 0.039184410334637404
404.0, 0.0644856038916818
405.0, 0.07622238463993115
406.0, 0.06321295534370014
407.0, 0.025101384520770837
408.0, 0.01677551126339508
409.0, 0.023546967407729928
410.0, 0.020982682301316315
411.0, 0.02120222446694414
412.0, 0.015944459693675334
413.0, 0.01588876893684165
414.0, 0.035915087119379734
415.0, 0.038906603670530636
416.0, 0.01790754147707579
417.0, 0.03260150699489674
418.0, 0.03365967324666087
419.0, 0.010555286293386867
420.0, 0.0011016135003661678
421.0, 0.0026331545725781697
422.0, 0.008158871371557078
423.0, 0.0198673072661565
424.0, 0.04319812703054283
425.0, 0.04960209052764044
426.0, 0.02430812886209527
427.0, 0.012663854759818592
428.0, 0.023486959801462932
429.0, 0.02236010403509751
430.0, 0.02248691318043562
431.0, 0.006169533601978353
432.0, 0.021076055173796474
433.0, 0.03369920682438443
434.0, 0.025526726708429974
435.0, 0.00903839424572497
436.0, 0.031279876306603796
437.0, 0.0146481833800524
438.0, 0.038900007019433844
439.0, 0.03785576433473726
440.0, 0.02816861618310649
441.0, 0.046467953474380465
442.0, 0.03059310643436692
443.0, 0.012349446860035033
444.0, 0.07943000641401698
445.0, 0.07926449165359215
446.0, 0.04024808805892164
447.0, 0.02453248458764782
448.0, 0.002286398857530847
449.0, 0.02074126347696576
450.0, 0.03212478707778116
451.0, 0.05406575994450986
452.0, 0.07410120351575333
453.0, 0.08791368927416762
454.0, 0.10743544980272357
455.0, 0.09892374986051644
456.0, 0.07561136130967214
457.0, 0.0501981758157905
458.0, 0.041604506442453164
459.0, 0.051845814779056316
460.0, 0.06594883432764789
461.0, 0.06615649969478783
462.0, 0.07248201197550319
463.0, 0.08692986916508677
464.0, 0.06251633697544683
465.0, 0.05702915129724793
466.0, 0.10491080129915935
467.0, 0.046616606476547376
468.0, 0.05910829889768051
469.0, 0.09589091201088182
470.0, 0.06872254724520391
471.0, 0.057668548823767485
472.0, 0.09506935666690601
473.0, 0.0695480532084509
474.0, 0.023324266077753956
475.0, 0.01066308505746608
476.0, 0.05969581116179354
477.0, 0.09812668603319148
478.0, 0.09109755340967174
479.0, 0.07364732262820085
480.0, 0.14058058867805728
481.0, 0.10000958567340534
482.0, 0.04748100154570451
483.0, 0.07407843669025778
484.0, 0.09429554586491579
485.0, 0.04425585617349655
486.0, 0.09935943003436203
487.0, 0.03924318899187971
488.0, 0.0881803718845343
489.0, 0.07331768931333513
490.0, 0.032010308371587526
491.0, 0.03670779563973166
492.0, 0.10361830469626707
493.0, 0.15393468149761003
494.0, 0.0899246870134475
495.0, 0.04849182079691626
496.0, 0.08048723774372946
497.0, 0.12544536191522487
498.0, 0.10100152103334152
499.0, 0.05589253082387641
500.0, 0.07707566073142046
501.0, 0.046654399361331554
502.0, 0.05091155674637581
503.0, 0.08301194785809675
504.0, 0.08855333219806402
505.0, 0.02395019651616184
506.0, 0.020451603825600843
507.0, 0.07304994486798963
508.0, 0.07862492748511465
509.0, 0.06350066965531079
510.0, 0.06290375679519006
511.0, 0.08792647161181269
512.0, 0.10913280880212332
513.0, 0.05437607759516025
514.0, 0.06380232530494734
515.0, 0.1183985718831602
516.0, 0.1311975840249655
517.0, 0.09786532692711243
518.0, 0.13180569781078322
519.0, 0.12853459132945397
520.0, 0.10724375186924723
521.0, 0.1049083082333309
522.0, 0.1007663481507815
523.0, 0.11004869572009945
524.0, 0.14290674166298759
525.0, 0.12114467871505422
526.0, 0.11348204017424801
527.0, 0.05488380551011342
528.0, 0.017212332321979502
529.0, 0.02744069205283594
530.0, 0.06758395855860069
531.0, 0.08531225269717614
532.0, 0.020005608583102477
533.0, 0.08653647246139651
534.0, 0.057359624793426385
535.0, 0.03592953907434346
536.0, 0.04943487889612895
537.0, 0.06525301368742441
538.0, 0.06211000508020488
539.0, 0.01845278680583653
540.0, 0.011205136364468396
541.0, 0.02937466021768617
542.0, 0.031378454803741775
543.0, 0.033857028252055874
544.0, 0.07275389215848944
545.0, 0.05027594975638528
546.0, 0.05435536527824568
547.0, 0.04611783917084271
548.0, 0.0314789426470662
549.0, 0.018864884799159525
550.0, 0.03355087265803139
551.0, 0.09396537896294349
552.0, 0.040025723930570516
553.0, 0.04760209353337369
554.0, 0.029143486935548846
555.0, 0.028944172031945218
556.0, 0.061114323478658965
557.0, 0.08837723365137824
558.0, 0.042739234912465764
559.0, 0.037301878520609226
560.0, 0.10553695151311585
561.0, 0.05214165342150366
562.0, 0.025587737184978455
563.0, 0.048286746795056325
564.0, 0.03318808976358158
565.0, 0.0597900153040786
566.0, 0.09745302298105069
567.0, 0.044827155960215234
568.0, 0.026803838153121783
569.0, 0.03292546517977436
570.0, 0.030863204291360382
571.0, 0.03480884540837137
572.0, 0.137805198013633
573.0, 0.04327402622965291
574.0, 0.10090185784899919
575.0, 0.12235563439606434
576.0, 0.07947180638454684
577.0, 0.033440733084050704
578.0, 0.037016589616659226
579.0, 0.07472560658906854
580.0, 0.01906016615194772
581.0, 0.07295458020385608
582.0, 0.05829828828414117
583.0, 0.02901290964034847
584.0, 0.06408022394415902
585.0, 0.0431429091010664
586.0, 0.008981958814558128
587.0, 0.07269930387923809
588.0, 0.06320836728425958
589.0, 0.04417613872488652
590.0, 0.0478384207973786
591.0, 0.06373449781556213
592.0, 0.08260489118211126
593.0, 0.029288839832456098
594.0, 0.067501055203569
595.0, 0.04922364295132372
596.0, 0.05653674496508615
597.0, 0.07978918363811767
598.0, 0.06932933826567202
599.0, 0.11027319852176341
600.0, 0.09746249039738313
601.0, 0.02534128053595779
602.0, 0.013495678395753413
603.0, 0.035141153809879026
604.0, 0.035407343372726316
605.0, 0.014445948254416897
606.0, 0.08173004351549985
607.0, 0.031175903159666393
608.0, 0.011976971269424833
609.0, 0.03768104585405997
610.0, 0.08465132108800857
611.0, 0.08200833334009622
612.0, 0.018699481341484928
613.0, 0.10162684460104066
614.0, 0.16676118103677834
615.0, 0.05104485333941782
616.0, 0.027032103253401954
617.0, 0.046107917794242795
618.0, 0.06820176323067012
619.0, 0.10405666117297048
620.0, 0.09211178646396634
621.0, 0.10705649587101237
622.0, 0.05642426350765929
623.0, 0.08290449947229941
624.0, 0.10135565536321157
625.0, 0.08660404057552328
626.0, 0.09423105156229744
627.0, 0.12820163271350093
628.0, 0.10570194416813493
629.0, 0.07627496750629033
630.0, 0.11616040864575891
631.0, 0.14459612675674724
632.0, 0.12743443185306433
633.0, 0.0932871943786455
634.0, 0.06262480618292776
635.0, 0.07893715930027757
636.0, 0.10739546617536151
637.0, 0.14079489110292304
638.0, 0.18741951069631166
639.0, 0.23301045887166474
640.0, 0.27013169037356544
641.0, 0.331175007658982
642.0, 0.3601812093350676
643.0, 0.4365886231013098
644.0, 0.507664358408343
645.0, 0.5522829668415041
646.0, 0.5853631682338811
647.0, 0.6340016590267878
648.0, 0.710216977316028
649.0, 0.8138295883213581
650.0, 0.9644114598184587
651.0, 0.9871116132374668
652.0, 0.9446943391442337
653.0, 0.9176379162514807
654.0, 0.886499394243232
655.0, 0.7485686603089733
656.0, 0.6241614914460069
657.0, 0.47286270037877554
658.0, 0.44162196323171526
659.0, 0.4165211915995735
660.0, 0.3226087010121546
661.0, 0.22497190451367186
662.0, 0.2384682467497319
663.0, 0.22067729655254995
664.0, 0.20450740877171966
665.0, 0.17156485476993938
666.0, 0.1591672535277913
667.0, 0.12414327257060848
668.0, 0.12389569379248971
669.0, 0.18933670653927842
670.0, 0.08109988163236648
671.0, 0.11082069255113072
672.0, 0.18508863003885756
673.0, 0.13563044653889614
674.0, 0.11650643914781983
675.0, 0.14817047086540716
676.0, 0.15481550880556116
677.0, 0.12612820461474356
678.0, 0.164482292560883
679.0, 0.14828845944352995
680.0, 0.2037126014192239
681.0, 0.17995621061151265
682.0, 0.1583065122087807
683.0, 0.19810197535162405
684.0, 0.21748893073379502
685.0, 0.2204716346121163
686.0, 0.22809320936215605
687.0, 0.2122769423289224
688.0, 0.2151656143616954
689.0, 0.2013973153506883
690.0, 0.18606808012688203
691.0, 0.20822169000496246
692.0, 0.2255132643682382
693.0, 0.16565880681909048
694.0, 0.11398707773423696
695.0, 0.08843916752655738
696.0, 0.09308424764273919
697.0, 0.10007829049305365
698.0, 0.10858226579177904
699.0, 0.14702891211006883
700.0, 0.10567138596144905
701.0, 0.14225646491572058
702.0, 0.12264610832039127
703.0, 0.10426513987076788
704.0, 0.0703825796451165
705.0, 0.039359835795371355
706.0, 0.05980018759147282
707.0, 0.11812317869965645
708.0, 0.16582329920048663
709.0, 0.13210987186842324
710.0, 0.14115597492658774
711.0, 0.1259403331390653
712.0, 0.11670350221268605
713.0, 0.14655944546686028
714.0, 0.16222262265201395
715.0, 0.14269533264512022
716.0, 0.06611400364010127
717.0, 0.07147118054185428
718.0, 0.11075425862799909
719.0, 0.0868043324273651
720.0, 0.0585193331031888
721.0, 0.10494738873350656
722.0, 0.07907924504128538
723.0, 0.06329125786692036
724.0, 0.027805715596724803
725.0, 0.07066120967291044
726.0, 0.05694001291043444
727.0, 0.04707675427842068
728.0, 0.07613651084551452
729.0, 0.06727186643654359
730.0, 0.0710574344035182
731.0, 0.07557735725353783
732.0, 0.08648385757270842
733.0, 0.06606011733130832
734.0, 0.08077562359957956
735.0, 0.09554249987306637
736.0, 0.054643636254517285
737.0, 0.010109476645391448
738.0, 0.07446495918479548
739.0, 0.020455091528378322
740.0, 0.020115034081449823
741.0, 0.05114263142834606
742.0, 0.05939945949080756
743.0, 0.06246519936525318
744.0, 0.08038960335658357
745.0, 0.03519325417007795
746.0, 0.12062070695334831
747.0, 0.06353625133102547
748.0, 0.09111713384384038
749.0, 0.12050476533545908
750.0, 0.11378632992700959
751.0, 0.09780321204067052
752.0, 0.09773822995604944
753.0, 0.05397101235005905
754.0, 0.007844254291030642
755.0, 0.08806216693475541
756.0, 0.10071978490041758
757.0, 0.10705918941494545
758.0, 0.08413176005114997
759.0, 0.029354536879332205
760.0, 0.008734103799870394
761.0, 0.002654318832794239
762.0, 0.06680029915822366
763.0, 0.028714457275235687
764.0, 0.07724118369316657
765.0, 0.07315753858130664
766.0, 0.05152935836330263
767.0, 0.07287942848563347
768.0, 0.06602721655802392
769.0, 0.021428231449606948
770.0, 0.10364248933040102
771.0, 0.06361845822727899
772.0, 0.0991274242152881
773.0, 0.07133513821165405
774.0, 0.03971827584286389
775.0, 0.07030620710771672
776.0, 0.04580232459540007
777.0, 0.020038757885063305
778.0, 0.07802182023060757
779.0, 0.022161809148910316
780.0, 0.04917456104123954
781.0, 0.06182788433682018
782.0, 0.055042393986866035
783.0, 0.07142808449353302
784.0, 0.08819426103642077
785.0, 0.12877203449985633
786.0, 0.12122918496406461
787.0, 0.08723686882555338
788.0, 0.08805052970011337
789.0, 0.06109689583646711
790.0, 0.03094904578080758
791.0, 0.025360586593518822
792.0, 0.005087289644124238
793.0, 0.028134870430497266
794.0, 0.05859784659415658
795.0, 0.05372576271400254
796.0, 0.029508093016305702
797.0, 0.0609152409649838
798.0, 0.10716051865849484
799.0, 0.10863902133073951
800.0, 0.07521197699058028
801.0, 0.016263616313275806
802.0, 0.06374463537428814
803.0, 0.08119888261818825
804.0, 0.030846589192887866
805.0, 0.024762907001736695
806.0, 0.09314055621269898
807.0, 0.13617016277925528
808.0, 0.06089313065892182
809.0, 0.015243467141797251
810.0, 0.1415897523937612
811.0, 0.10812231195851323
812.0, 0.038961555587507773
813.0, 0.05855544978486786
814.0, 0.0974160968490418
815.0, 0.07093815556329423
816.0, 0.03343592381425663
817.0, 0.1312057624682812
818.0, 0.05997820618805431
819.0, 0.029195597940184607
820.0, 0.11592477067202037
821.0, 0.06840552337226978
822.0, 0.05065261387962213
823.0, 0.08481962485442957
824.0, 0.06892637362666182
825.0, 0.06863512671684482
826.0, 0.1318984502237925
827.0, 0.12140000648601273
828.0, 0.12838835223189862
829.0, 0.10091619774684057
830.0, 0.08295618738378539
831.0, 0.05871436438264368
832.0, 0.033929776062902026
833.0, 0.05191963284683533
834.0, 0.007871124324881795
835.0, 0.08187478565589684
836.0, 0.11311777296237739
837.0, 0.09062744391810573
838.0, 0.08330054495392002
839.0, 0.07711660187365094
840.0, 0.08725490594080518
841.0, 0.12518280852336883
842.0, 0.0886613127604853
843.0, 0.08189402523817703
844.0, 0.0902289929224016
845.0, 0.07337558160765309
846.0, 0.07410887898847164
847.0, 0.06853403304426166
848.0, 0.05760838069936493
849.0, 0.059389196076823164
850.0, 0.06740496179069608
851.0, 0.060830045197205945
852.0, 0.11167125950682538
853.0, 0.13473907053511447
854.0, 0.0686735020948612
855.0, 0.06263093254893654
856.0, 0.07263802331222027
857.0, 0.07598411644133106
858.0, 0.10665228645476396
859.0, 0.0981693346191405
860.0, 0.07957900586283835
861.0, 0.16311519665158067
862.0, 0.1033693358141515
863.0, 0.05097142623223924
864.0, 0.027198494393383565
865.0, 0.051509730156692544
866.0, 0.09426202427732196
867.0, 0.08555896440650287
868.0, 0.08458800151030003
869.0, 0.12321106542466788
870.0, 0.09843476272402976
871.0, 0.08850447604635467
872.0, 0.10144436267151241
873.0, 0.07887209685517148
874.0, 0.06232773302770535
875.0, 0.08419977618158343
876.0, 0.07168873317403165
877.0, 0.1570296147964666
878.0, 0.13885006745394676
879.0, 0.04277521275110828
880.0, 0.08851003893297799
881.0, 0.09104521043375954
882.0, 0.08991438631067138
883.0, 0.11896406373113325
884.0, 0.10964343085580405
885.0, 0.05390634848353977
886.0, 0.04353033173872749
887.0, 0.008075517897055432
888.0, 0.014361497635601721
889.0, 0.027890919561687287
890.0, 0.06028318646489299
891.0, 0.07995857474926871
892.0, 0.06577893010588008
893.0, 0.06224370518777209
894.0, 0.1256582086603146
895.0, 0.050547203300607566
896.0, 0.06958675218907534
897.0, 0.040188336401615336
898.0, 0.08153134439137524
899.0, 0.08317038241931957
900.0, 0.069852720682047
901.0, 0.0804610008447462
902.0, 0.0646689928605913
903.0, 0.018753440819043714
904.0, 0.07661569763571166
905.0, 0.0541249227454579
906.0, 0.06588416008277757
907.0, 0.03580614372933364
908.0, 0.047861747326951205
909.0, 0.0559911740806671
910.0, 0.055630238076016046
911.0, 0.09258360541764134
912.0, 0.030876206758609533
913.0, 0.00934870530216402
914.0, 0.0621056212374691
915.0, 0.060334397980923556
916.0, 0.05111128592536618
917.0, 0.06586177214144501
918.0, 0.09357669194908595
919.0, 0.10080537685345946
920.0, 0.06732063599842152
921.0, 0.016283565786138036
922.0, 0.03175136386772319
923.0, 0.010725431782775425
924.0, 0.03681784066042765
925.0, 0.030964863594758064
926.0, 0.026382440529943887
927.0, 0.03298736127065422
928.0, 0.038478620817190216
929.0, 0.05390734497460002
930.0, 0.10458597742375733
931.0, 0.09540072806788795
932.0, 0.05610665945928339
933.0, 0.048310001114075365
934.0, 0.08040533207746484
935.0, 0.09784180400628648
936.0, 0.09156017140576819
937.0, 0.07006016336256106
938.0, 0.06235969289423167
939.0, 0.0906353529299311
940.0, 0.05057738942755953
941.0, 0.05536619162735315
942.0, 0.028921133209819976
943.0, 0.0649016226437546
944.0, 0.0714945830003803
945.0, 0.08220749894555997
946.0, 0.10658364479793717
947.0, 0.1138655144322423
948.0, 0.10444394930375761
949.0, 0.12596786009892802
950.0, 0.12579823769776163
951.0, 0.15426003648521908
952.0, 0.17093112610270314
953.0, 0.14076922344230963
954.0, 0.17826497761867988
955.0, 0.19699903983208414
956.0, 0.17925154771382615
957.0, 0.17835635112211162
958.0, 0.13408712716106186
959.0, 0.20068284472762812
960.0, 0.21057238088791844
961.0, 0.23764654637224608
962.0, 0.2996349171014807
963.0, 0.315359931165945
964.0, 0.35356474229083773
965.0, 0.38075001115478485
966.0, 0.37866335895230235
967.0, 0.43809192381888457
968.0, 0.5378169094103818
969.0, 0.5727833209643313
970.0, 0.5519463051640738
971.0, 0.462454012509726
972.0, 0.4996110706991567
973.0, 0.4709762881414036
974.0, 0.39365570434643615
975.0, 0.40553148679423295
976.0, 0.47463592899986073
977.0, 0.4325706991751546
978.0, 0.4515995167328583
979.0, 0.4067694110884183
980.0, 0.3467003824141441
981.0, 0.3428128370989856
982.0, 0.2893993538424759
983.0, 0.27588301949978006
984.0, 0.2288286750167783
985.0, 0.18591695168206682
986.0, 0.25705228538900254
987.0, 0.29881600335471087
988.0, 0.2684938848186037
989.0, 0.22615460161460882
990.0, 0.20409812380387402
991.0, 0.18975071655594541
992.0, 0.16039134902695193
993.0, 0.15741581829151438
994.0, 0.1852623597319127
995.0, 0.20290659642645711
996.0, 0.17207132392138752
997.0, 0.11552294686203748
998.0, 0.17289534014738786
999.0, 0.2230943472983029
1000.0, 0.16115116361107534
1001.0, 0.2154512489485193
1002.0, 0.24267565396370927
1003.0, 0.2043543350178609
1004.0, 0.16946859181582
1005.0, 0.18576788745410222
1006.0, 0.19852123318363749
1007.0, 0.14256919295107454
1008.0, 0.1970332280395536
1009.0, 0.09163958280059087
1010.0, 0.16986966511148474
1011.0, 0.13010504243337354
1012.0, 0.15292804444995087
1013.0, 0.11801125846547016
1014.0, 0.11964343509774826
1015.0, 0.1760919767537977
1016.0, 0.17102816074008348
1017.0, 0.22623275867065018
1018.0, 0.2881847027887686
1019.0, 0.24179394634929482
1020.0, 0.21117638892136142
1021.0, 0.3052561948844552
1022.0, 0.266340477682491
1023.0, 0.2615623291651688
1024.0, 0.2429051635703324
1025.0, 0.23587051427638187
1026.0, 0.30586918921146994
1027.0, 0.2715500207211181
1028.0, 0.22688314860669592
1029.0, 0.1780460030485937
1030.0, 0.12802590681442952
1031.0, 0.06251602918944493
1032.0, 0.06466340232934482
1033.0, 0.06974372794275507
1034.0, 0.1294495865511591
1035.0, 0.1342898477144636
1036.0, 0.06258844816428821
1037.0, 0.1154361024951287
1038.0, 0.14215795793074779
1039.0, 0.0737353207076765
1040.0, 0.0075308644315133545
1041.0, 0.021157515630817136
1042.0, 0.01642446391068781
1043.0, 0.009082322956723274
1044.0, 0.02110581435716772
1045.0, 0.03751302939659198
1046.0, 0.05780400602926985
1047.0, 0.080024623794704
1048.0, 0.05467209121903592
1049.0, 0.030358484319290807
1050.0, 0.11452640873661846
1051.0, 0.022201775343183898
1052.0, 0.061543257007468946
1053.0, 0.05288653399989968
1054.0, 0.049929715834493335
1055.0, 0.06304284932887277
1056.0, 0.04791383959429457
1057.0, 0.038020292596274624
1058.0, 0.07666576571400265
1059.0, 0.022425176230604495
1060.0, 0.017323821699546053
1061.0, 0.05087424173439558
1062.0, 0.06010568448196069
1063.0, 0.11101686283659941
1064.0, 0.1341276626411302
1065.0, 0.13844700746629196
1066.0, 0.13948548015067627
1067.0, 0.1376818853312186
1068.0, 0.12840844927970912
1069.0, 0.11188694251792242
1070.0, 0.09917880932433676
1071.0, 0.072357358164661
1072.0, 0.07776573160745397
1073.0, 0.07775823041563074
1074.0, 0.09496738589895842
1075.0, 0.07088868961758879
1076.0, 0.09379112993719366
1077.0, 0.11436430700893593
1078.0, 0.12780160570905513
1079.0, 0.1780611960929528
1080.0, 0.1836487672030744
1081.0, 0.16243850932266998
1082.0, 0.18741687488786377
1083.0, 0.1617258169355047
1084.0, 0.12737691043067262
1085.0, 0.10946149363236925
1086.0, 0.10051087841947758
1087.0, 0.07444422588551627
1088.0, 0.0810618193412057
1089.0, 0.14565951936608076
1090.0, 0.1999151725298457
1091.0, 0.17245822422210477
1092.0, 0.11107995659982821
1093.0, 0.1312753364788905
1094.0, 0.06986112705675768
1095.0, 0.10833033164470107
1096.0, 0.10302605486633422
1097.0, 0.10645179229285416
1098.0, 0.0777501799577498
1099.0, 0.08284099739422301
1100.0, 0.11550953942660107
1101.0, 0.10317800793954383
1102.0, 0.078542033482812
1103.0, 0.09360998980741483
1104.0, 0.04015037504529969
1105.0, 0.0670526791633975
1106.0, 0.129840840105777
1107.0, 0.06474449473137885
1108.0, 0.062250009706193925
1109.0, 0.09209166935117276
1110.0, 0.10331006031339152
1111.0, 0.059785388077800365
1112.0, 0.06114417145290697
1113.0, 0.13953620324698965
1114.0, 0.05868830089907147
1115.0, 0.08205496431048218
1116.0, 0.036405116116416766
1117.0, 0.003331482893133916
1118, 0.0
1119, 0.0
1120, 0.0
1121, 0.0
1122, 0.0
1123, 0.0
1124, 0.0
1125, 0.0
1126, 0.0
1127, 0.0
1128, 0.0
1129, 0.0
1130, 0.0
1131, 0.0
1132, 0.0
1133, 0.0
1134, 0.0
1135, 0.0
1136, 0.0
1137, 0.0
1138, 0.0
1139, 0.0
1140, 0.0
1141, 0.0
1142, 0.0
1143, 0.0
1144, 0.0
1145, 0.0
1146, 0.0
1147, 0.0
1148, 0.0
1149, 0.0
1150, 0.0
1151, 0.0
1152, 0.0
1153, 0.0
1154, 0.0
1155, 0.0
1156, 0.0
1157, 0.0
1158, 0.0
1159, 0.0
1160, 0.0
1161, 0.0
1162, 0.0
1163, 0.0
1164, 0.0
1165, 0.0
1166, 0.0
1167, 0.0
1168, 0.0
1169, 0.0
1170, 0.0
1171, 0.0
1172, 0.0
1173, 0.0
1174, 0.0
1175, 0.0
1176, 0.0
1177, 0.0
1178, 0.0
1179, 0.0
1180, 0.0
1181, 0.0
1182, 0.0
1183, 0.0
1184, 0.0
1185, 0.0
1186, 0.0
1187, 0.0
1188, 0.0
1189, 0.0
1190, 0.0
1191, 0.0
1192, 0.0
1193, 0.0
1194, 0.0
1195, 0.0
1196, 0.0
1197, 0.0
1198, 0.0
1199, 0.0
1200, 0.0
1201, 0.0
1202, 0.0
1203, 0.0
1204, 0.0
1205, 0.0
1206, 0.0
1207, 0.0
1208, 0.0
1209, 0.0
1210, 0.0
1211, 0.0
1212, 0.0
1213, 0.0
1214, 0.0
1215, 0.0
1216, 0.0
1217, 0.0
1218, 0.0
1219, 0.0
1220, 0.0
1221, 0.0
1222, 0.0
1223, 0.0
1224, 0.0
1225, 0.0
1226, 0.0
1227, 0.0
1228, 0.0
1229, 0.0
1230, 0.0
1231, 0.0
1232, 0.0
1233, 0.0
1234, 0.0
1235, 0.0
1236, 0.0
1237, 0.0
1238, 0.0
1239, 0.0
1240, 0.0
1241, 0.0
1242, 0.0
1243, 0.0
1244, 0.0
1245, 0.0
1246, 0.0
1247, 0.0
1248, 0.0
1249, 0.0
1250, 0.0
1251, 0.0
1252, 0.0
1253, 0.0
1254, 0.0
1255, 0.0
1256, 0.0
1257, 0.0
1258, 0.0
1259, 0.0
1260, 0.0
1261, 0.0
1262, 0.0
1263, 0.0
1264, 0.0
1265, 0.0
1266, 0.0
1267, 0.0
1268, 0.0
1269, 0.0
1270, 0.0
1271, 0.0
1272, 0.0
1273, 0.0
1274, 0.0
1275, 0.0
1276, 0.0
1277, 0.0
1278, 0.0
1279, 0.0
1280, 0.0
1281, 0.0
1282, 0.0
1283, 0.0
1284, 0.0
1285, 0.0
1286, 0.0
1287, 0.0
1288, 0.0
1289, 0.0
1290, 0.0
1291, 0.0
1292, 0.0
1293, 0.0
1294, 0.0
1295, 0.0
1296, 0.0
1297, 0.0
1298, 0.0
1299, 0.0
1300, 0.0
1301, 0.0
1302, 0.0
1303, 0.0
1304, 0.0
1305, 0.0
1306, 0.0
1307, 0.0
1308, 0.0
1309, 0.0
1310, 0.0
1311, 0.0
1312, 0.0
1313, 0.0
1314, 0.0
1315, 0.0
1316, 0.0
1317, 0.0
1318, 0.0
1319, 0.0
1320, 0.0
1321, 0.0
1322, 0.0
1323, 0.0
1324, 0.0
1325, 0.0
1326, 0.0
1327, 0.0
1328, 0.0
1329, 0.0
1330, 0.0
1331, 0.0
1332, 0.0
1333, 0.0
1334, 0.0
1335, 0.0
1336, 0.0
1337, 0.0
1338, 0.0
1339, 0.0
1340, 0.0
1341, 0.0
1342, 0.0
1343, 0.0
1344, 0.0
1345, 0.0
1346, 0.0
1347, 0.0
1348, 0.0
1349, 0.0
1350, 0.0
1351, 0.0
1352, 0.0
1353, 0.0
1354, 0.0
1355, 0.0
1356, 0.0
1357, 0.0
1358, 0.0
1359, 0.0
1360, 0.0
1361, 0.0
1362, 0.0
1363, 0.0
1364, 0.0
1365, 0.0
1366, 0.0
1367, 0.0
1368, 0.0
1369, 0.0
1370, 0.0
1371, 0.0
1372, 0.0
1373, 0.0
1374, 0.0
1375, 0.0
1376, 0.0
1377, 0.0
1378, 0.0
1379, 0.0
1380, 0.0
1381, 0.0
1382, 0.0
1383, 0.0
1384, 0.0
1385, 0.0
1386, 0.0
1387, 0.0
1388, 0.0
1389, 0.0
1390, 0.0
1391, 0.0
1392, 0.0
1393, 0.0
1394, 0.0
1395, 0.0
1396, 0.0
1397, 0.0
1398, 0.0
1399, 0.0
1400, 0.0
1401, 0.0
1402, 0.0
1403, 0.0
1404, 0.0
1405, 0.0
1406, 0.0
1407, 0.0
1408, 0.0
1409, 0.0
1410, 0.0
1411, 0.0
1412, 0.0
1413, 0.0
1414, 0.0
1415, 0.0
1416, 0.0
1417, 0.0
1418, 0.0
1419, 0.0
1420, 0.0
1421, 0.0
1422, 0.0
1423, 0.0
1424, 0.0
1425, 0.0
1426, 0.0
1427, 0.0
1428, 0.0
1429, 0.0
1430, 0.0
1431, 0.0
1432, 0.0
1433, 0.0
1434, 0.0
1435, 0.0
1436, 0.0
1437, 0.0
1438, 0.0
1439, 0.0
1440, 0.0
1441, 0.0
1442, 0.0
1443, 0.0
1444, 0.0
1445, 0.0
1446, 0.0
1447, 0.0
1448, 0.0
1449, 0.0
1450, 0.0
1451, 0.0
1452, 0.0
1453, 0.0
1454, 0.0
1455, 0.0
1456, 0.0
1457, 0.0
1458, 0.0
1459, 0.0
1460, 0.0
1461, 0.0
1462, 0.0
1463, 0.0
1464, 0.0
1465, 0.0
1466, 0.0
1467, 0.0
1468, 0.0
1469, 0.0
1470, 0.0
1471, 0.0
1472, 0.0
1473, 0.0
1474, 0.0
1475, 0.0
1476, 0.0
1477, 0.0
1478, 0.0
1479, 0.0
1480, 0.0
1481, 0.0
1482, 0.0
1483, 0.0
1484, 0.0
1485, 0.0
1486, 0.0
1487, 0.0
1488, 0.0
1489, 0.0
1490, 0.0
1491, 0.0
1492, 0.0
1493, 0.0
1494, 0.0
1495, 0.0
1496, 0.0
1497, 0.0
1498, 0.0
1499, 0.0
1500, 0.0
1501, 0.0
1502, 0.0
1503, 0.0
1504, 0.0
1505, 0.0
1506, 0.0
1507, 0.0
1508, 0.0
1509, 0.0
1510, 0.0
1511, 0.0
1512, 0.0
1513, 0.0
1514, 0.0
1515, 0.0
1516, 0.0
1517, 0.0
1518, 0.0
1519, 0.0
1520, 0.0
1521, 0.0
1522, 0.0
1523, 0.0
1524, 0.0
1525, 0.0
1526, 0.0
1527, 0.0
1528, 0.0
1529, 0.0
1530, 0.0
1531, 0.0
1532, 0.0
1533, 0.0
1534, 0.0
1535, 0.0
1536, 0.0
1537, 0.0
1538, 0.0
1539, 0.0
1540, 0.0
1541, 0.0
1542, 0.0
1543, 0.0
1544, 0.0
1545, 0.0
1546, 0.0
1547, 0.0
1548, 0.0
1549, 0.0
1550, 0.0
1551, 0.0
1552, 0.0
1553, 0.0
1554, 0.0
1555, 0.0
1556, 0.0
1557, 0.0
1558, 0.0
1559, 0.0
1560, 0.0
1561, 0.0
1562, 0.0
1563, 0.0
1564, 0.0
1565, 0.0
1566, 0.0
1567, 0.0
1568, 0.0
1569, 0.0
1570, 0.0
1571, 0.0
1572, 0.0
1573, 0.0
1574, 0.0
1575, 0.0
1576, 0.0
1577, 0.0
1578, 0.0
1579, 0.0
1580, 0.0
1581, 0.0
1582, 0.0
1583, 0.0
1584, 0.0
1585, 0.0
1586, 0.0
1587, 0.0
1588, 0.0
1589, 0.0
1590, 0.0
1591, 0.0
1592, 0.0
1593, 0.0
1594, 0.0
1595, 0.0
1596, 0.0
1597, 0.0
1598, 0.0
1599, 0.0
