30, 0.0
31, 0.0
32, 0.0
33, 0.0
34, 0.0
35, 0.0
36, 0.0
37, 0.0
38, 0.0
39, 0.0
40, 0.0
41, 0.0
42, 0.0
43, 0.0
44, 0.0
45, 0.0
46, 0.0
47, 0.0
48, 0.0
49, 0.0
50, 0.0
51, 0.0
52, 0.0
53, 0.0
54, 0.0
55, 0.0
56, 0.0
57, 0.0
58, 0.0
59, 0.0
60, 0.0
61, 0.0
62, 0.0
63, 0.0
64, 0.0
65, 0.0
66, 0.0
67, 0.0
68, 0.0
69, 0.0
70, 0.0
71, 0.0
72, 0.0
73, 0.0
74, 0.0
75, 0.0
76, 0.0
77, 0.0
78, 0.0
79, 0.0
80, 0.0
81, 0.0
82, 0.0
83, 0.0
84, 0.0
85, 0.0
86, 0.0
87, 0.0
88, 0.0
89, 0.0
90, 0.0
91, 0.0
92, 0.0
93, 0.0
94, 0.0
95, 0.0
96, 0.0
97, 0.0
98, 0.0
99, 0.0
100, 0.0
101, 0.0
102, 0.0
103, 0.0
104, 0.0
105, 0.0
106, 0.0
107, 0.0
108, 0.0
109, 0.0
110, 0.0
111, 0.0
112, 0.0
113, 0.0
114, 0.0
115, 0.0
116, 0.0
117.0, 0.009469085491034882
118.0, 0.029930222750102937
119.0, 0.055530228655162626
120.0, 0.05609715004270158
121.0, 0.02465257450323616
122.0, 0.005921120183865199
123.0, 0.011335893262767361
124.0, 0.03255010898652248
125.0, 0.024356670723843968
126.0, 0.0193799658252233
127.0, 0.04640434727710287
128.0, 0.05097186219866306
129.0, 0.014244987061959206
130.0, 0.06738248926366916
131.0, 0.038079197952069044
132.0, 0.025718259051711
133.0, 0.04202842604079068
134.0, 0.060450959596384496
135.0, 0.009697999089198345
136.0, 0.05216682349899313
137.0, 0.09594713600559693
138.0, 0.12943885792859644
139.0, 0.14117378907664654
140.0, 0.1242064022986504
141.0, 0.1568628032130302
142.0, 0.16094544500041974
143.0, 0.17231997769640242
144.0, 0.1797842071593209
145.0, 0.16252395830131616
146.0, 0.17010172774550572
147.0, 0.1703077411071087
148.0, 0.1720752018256517
149.0, 0.1713891719812409
150.0, 0.159941345807752
151.0, 0.12442592059146323
152.0, 0.11539238497359798
153.0, 0.09388202574263209
154.0, 0.09187719847209762
155.0, 0.11311604294204762
156.0, 0.11653648671701404
157.0, 0.08582907066384685
158.0, 0.11685347514601263
159.0, 0.08947879140632278
160.0, 0.03774694752915965
161.0, 0.07490900154997342
162.0, 0.0745127729490793
163.0, 0.06089111346906766
164.0, 0.058604340646218916
165.0, 0.05881959937381615
166.0, 0.05027748401228594
167.0, 0.04980998203022356
168.0, 0.08944275474830103
169.0, 0.12083668404296195
170.0, 0.13084167809461597
171.0, 0.12483992082331732
172.0, 0.12946410025078872
173.0, 0.14764371848136082
174.0, 0.1566036514988546
175.0, 0.17298295922274873
176.0, 0.18850213149621073
177.0, 0.1832871866614728
178.0, 0.19744749645654328
179.0, 0.19779089488313287
180.0, 0.18587395442218996
181.0, 0.18221856798942554
182.0, 0.19422762541178848
183.0, 0.16879875521912494
184.0, 0.10062622513633837
185.0, 0.11167571384694369
186.0, 0.11762197562613134
187.0, 0.07243473848254511
188.0, 0.011170861463045308
189.0, 0.09667758649814721
190.0, 0.12324674594200638
191.0, 0.12483450242587917
192.0, 0.12709630446767395
193.0, 0.14031226810937772
194.0, 0.11322857911017357
195.0, 0.07132854208697773
196.0, 0.10868259449837595
197.0, 0.1457886864816651
198.0, 0.11748571163349433
199.0, 0.0674461466492361
200.0, 0.1401755590901458
201.0, 0.10465976572799676
202.0, 0.041950089000316146
203.0, 0.027931190776389277
204.0, 0.10238037461354471
205.0, 0.11584004066568357
206.0, 0.05405783583940627
207.0, 0.03915994899814501
208.0, 0.044255924381711956
209.0, 0.026122388108207165
210.0, 0.03762327620128615
211.0, 0.030235669024990728
212.0, 0.04370181606776886
213.0, 0.09386657052159904
214.0, 0.12949547175212656
215.0, 0.04976810220549621
216.0, 0.09561424103943231
217.0, 0.09879422836925586
218.0, 0.07382043287726175
219.0, 0.06598466853194476
220.0, 0.09749887067112421
221.0, 0.06009008868555876
222.0, 0.12107078742939598
223.0, 0.11655694170584219
224.0, 0.10190181650339851
225.0, 0.10606002230875723
226.0, 0.09677043550579839
227.0, 0.13000774558682493
228.0, 0.07364264935265241
229.0, 0.08309485215134502
230.0, 0.10757465532406248
231.0, 0.06368185131598308
232.0, 0.09772388707565363
233.0, 0.10535522580604269
234.0, 0.049248153526175314
235.0, 0.06548663684865273
236.0, 0.1370311856133296
237.0, 0.057167742565246184
238.0, 0.06273667568856134
239.0, 0.10354367015456123
240.0, 0.07301917620805629
241.0, 0.04855168475676386
242.0, 0.10041829850970842
243.0, 0.0079595161709579
244.0, 0.007185408496085484
245.0, 0.022843965519989295
246.0, 0.06362432168848892
247.0, 0.08809224716591875
248.0, 0.017507631537169818
249.0, 0.07450599557434068
250.0, 0.03537347417529317
251.0, 0.03324205918801536
252.0, 0.05213723742673869
253.0, 0.05441989468295253
254.0, 0.0806159054261759
255.0, 0.02227764269429159
256.0, 0.03685254415755207
257.0, 0.06304340062577593
258.0, 0.05627130092234774
259.0, 0.015761576651382975
260.0, 0.07989638779970917
261.0, 0.09306793556401446
262.0, 0.12707561464960176
263.0, 0.1461826266816504
264.0, 0.13319981014891522
265.0, 0.14772339376498117
266.0, 0.05648462126177394
267.0, 0.10761108877831999
268.0, 0.1241675845837339
269.0, 0.11053785658233206
270.0, 0.14059913753626668
271.0, 0.12668081658000016
272.0, 0.11645065670081894
273.0, 0.14416257631833657
274.0, 0.15859403431436397
275.0, 0.12866855535726351
276.0, 0.07072732596457032
277.0, 0.1442493896226727
278.0, 0.13345898323452304
279.0, 0.19455877462198032
280.0, 0.23037472885677002
281.0, 0.15619617395364258
282.0, 0.09926837016245527
283.0, 0.19565740441997947
284.0, 0.13340813562263323
285.0, 0.07733560976681593
286.0, 0.08039933127577664
287.0, 0.10242075888943025
288.0, 0.07374644413204084
289.0, 0.12844548126301789
290.0, 0.08728169007043003
291.0, 0.08135244758043281
292.0, 0.13827880775878057
293.0, 0.12820344115549928
294.0, 0.10289288224435991
295.0, 0.07179146308128644
296.0, 0.10037358134827506
297.0, 0.13990864797145977
298.0, 0.1459893861054618
299.0, 0.1564289823287487
300.0, 0.07780689159357776
301.0, 0.047598915197267534
302.0, 0.02751571338802234
303.0, 0.011480965279828217
304.0, 0.009256125395075124
305.0, 0.016524436281234085
306.0, 0.04356068984346963
307.0, 0.07914672578812103
308.0, 0.11107388946246549
309.0, 0.13292222052415664
310.0, 0.14733541496157843
311.0, 0.1798079248905917
312.0, 0.10611193701350641
313.0, 0.08950361920251088
314.0, 0.09740085750722854
315.0, 0.09305161155600312
316.0, 0.09103605300642545
317.0, 0.13887849468146007
318.0, 0.20692862633218922
319.0, 0.1630517099476094
320.0, 0.14617984544612037
321.0, 0.23281172299601352
322.0, 0.18725453407610307
323.0, 0.1084130826360533
324.0, 0.13051172893776042
325.0, 0.15232236422435194
326.0, 0.13717843461102075
327.0, 0.10683106770470048
328.0, 0.14565564276392837
329.0, 0.135911792098323
330.0, 0.09934031266886298
331.0, 0.08279681771720981
332.0, 0.09230211839935244
333.0, 0.10135970881307858
334.0, 0.08129683759074134
335.0, 0.06852418485928556
336.0, 0.05121459299220536
337.0, 0.0294539482912047
338.0, 0.01903563456762174
339.0, 0.041408436691021955
340.0, 0.06873487282065308
341.0, 0.06789733254825375
342.0, 0.04594317501842385
343.0, 0.032517940942017404
344.0, 0.057519414364337676
345.0, 0.128102168540832
346.0, 0.06885769508398006
347.0, 0.16586006975291656
348.0, 0.1494849914092327
349.0, 0.09054374127475796
350.0, 0.07275473914539941
351.0, 0.05698676277926064
352.0, 0.00998177885341631
353.0, 0.039061676994744415
354.0, 0.06831190834676956
355.0, 0.06444620376893204
356.0, 0.04993201351289643
357.0, 0.11225418325802536
358.0, 0.0783168770520039
359.0, 0.1398855714374083
360.0, 0.12903894068396363
361.0, 0.11123118268279383
362.0, 0.1513005001738183
363.0, 0.1105099178829654
364.0, 0.039592301508854046
365.0, 0.03946663095238563
366.0, 0.032057218766756136
367.0, 0.011638261926582417
368.0, 0.0027907955752397486
369.0, 0.015360514321562399
370.0, 0.028304587350110433
371.0, 0.015338922712311378
372.0, 0.05975951718789974
373.0, 0.12019427503796237
374.0, 0.13050441275242033
375.0, 0.13057885512098255
376.0, 0.06816748222340116
377.0, 0.03837153281130629
378.0, 0.08613710811962241
379.0, 0.131559931027262
380.0, 0.0989955546182727
381.0, 0.09992489601057133
382.0, 0.04874233669193535
383.0, 0.06207204793636251
384.0, 0.09025470362062155
385.0, 0.08499330835831152
386.0, 0.0615077080823465
387.0, 0.185638492425167
388.0, 0.11257402842136967
389.0, 0.06278051247728969
390.0, 0.0991152067551341
391.0, 0.14920560336611494
392.0, 0.12248383800206802
393.0, 0.06394288050673622
394.0, 0.06873508524405367
395.0, 0.026725745370484534
396.0, 0.03519348854870902
397.0, 0.05697388418103776
398.0, 0.03714742692440386
399.0, 0.050116119939626946
400.0, 0.02995324340990107
401.0, 0.023758718355922647
402.0, 0.02387431470353413
403.0, 0.019765879076304445
404.0, 0.009974573922166125
405.0, 0.012775013532966704
406.0, 0.005175870284659798
407.0, 0.011882516518607503
408.0, 0.04382444342483203
409.0, 0.05569586333380774
410.0, 0.027700782517453768
411.0, 0.025279517661180518
412.0, 0.029185104831856525
413.0, 0.06947305567621463
414.0, 0.06277512980558489
415.0, 0.06071639120843181
416.0, 0.09193022003284389
417.0, 0.08304846032096949
418.0, 0.05623553633472427
419.0, 0.04302572303486359
420.0, 0.05740568577857052
421.0, 0.05193699787687568
422.0, 0.03292267813419515
423.0, 0.08168449807175385
424.0, 0.14962250656126735
425.0, 0.09419201749063251
426.0, 0.16088461981131627
427.0, 0.17239942273895492
428.0, 0.07749886814712467
429.0, 0.03464105706448017
430.0, 0.14382974697723688
431.0, 0.06983880042274936
432.0, 0.08663398605476207
433.0, 0.08822892860078524
434.0, 0.09520235604317781
435.0, 0.18437920043217737
436.0, 0.09456628111722444
437.0, 0.19716442586363653
438.0, 0.17973673230970583
439.0, 0.14006260910267498
440.0, 0.10365797423786605
441.0, 0.06422303470537835
442.0, 0.09793944616709738
443.0, 0.16439056516739348
444.0, 0.09612478428100549
445.0, 0.07184149547216576
446.0, 0.129028886887743
447.0, 0.17853460115054925
448.0, 0.061574923408278526
449.0, 0.1937774807250704
450.0, 0.17091216466955503
451.0, 0.09164823856585072
452.0, 0.08402753892843202
453.0, 0.14733268811267433
454.0, 0.1297078409687305
455.0, 0.04809471523036468
456.0, 0.054371338538413194
457.0, 0.08197109712904808
458.0, 0.06801320285730234
459.0, 0.06986647231807358
460.0, 0.17141625579462952
461.0, 0.14277775974551438
462.0, 0.11062101579213852
463.0, 0.06677024024886342
464.0, 0.028508381139327695
465.0, 0.06830460583905805
466.0, 0.17039772829798538
467.0, 0.06405949238128386
468.0, 0.24050739792636455
469.0, 0.24461202285253048
470.0, 0.2203249766306189
471.0, 0.16795169869850143
472.0, 0.09495343934671117
473.0, 0.08453097648662065
474.0, 0.11082337830931163
475.0, 0.1296171952754625
476.0, 0.14561966539092489
477.0, 0.09672574883096399
478.0, 0.03418212046333212
479.0, 0.07640238298681637
480.0, 0.15389143288858215
481.0, 0.06788042941580964
482.0, 0.08418578164105225
483.0, 0.13656797425210884
484.0, 0.18774411343403885
485.0, 0.23036382842909053
486.0, 0.25811018976005373
487.0, 0.28045686799792896
488.0, 0.3196521505891676
489.0, 0.3084998195421248
490.0, 0.24259079983188558
491.0, 0.16119820201558105
492.0, 0.12094226128883084
493.0, 0.12782786806820884
494.0, 0.2170958903903651
495.0, 0.11307788051361968
496.0, 0.09615287259528064
497.0, 0.13395696719684805
498.0, 0.06048637389112524
499.0, 0.07814815785359926
500.0, 0.1626227415102322
501.0, 0.1478110963065748
502.0, 0.18920163861539327
503.0, 0.18380803886988692
504.0, 0.0903852335485609
505.0, 0.06481867645186432
506.0, 0.03898540172201849
507.0, 0.020641245012331135
508.0, 0.029359075173326164
509.0, 0.04262113598804434
510.0, 0.07067818530526071
511.0, 0.1254130977822795
512.0, 0.13950291758850095
513.0, 0.12606547561838022
514.0, 0.13832685368416345
515.0, 0.1328228978148505
516.0, 0.10758167837301041
517.0, 0.11013095129819608
518.0, 0.19136547031642287
519.0, 0.10918515552945385
520.0, 0.07323518476262025
521.0, 0.15500009836621229
522.0, 0.19452040955232053
523.0, 0.16992092595060035
524.0, 0.15196070781114843
525.0, 0.12509441743388547
526.0, 0.11637027110787133
527.0, 0.07132507142026315
528.0, 0.0867790405434238
529.0, 0.10114211962671552
530.0, 0.12496134854367663
531.0, 0.25371914314092403
532.0, 0.23376292929887313
533.0, 0.136183612456255
534.0, 0.05891615231546668
535.0, 0.03917474632408547
536.0, 0.1144879555232419
537.0, 0.21117765972028685
538.0, 0.08085590470822442
539.0, 0.09414482493072268
540.0, 0.0870679336915747
541.0, 0.06369427688674864
542.0, 0.0837464345163663
543.0, 0.12654405513976882
544.0, 0.1355370071929733
545.0, 0.21773194393754414
546.0, 0.14937879113039867
547.0, 0.13405389782145813
548.0, 0.07753527868601336
549.0, 0.04189356748942304
550.0, 0.09211418607369809
551.0, 0.18735039154584776
552.0, 0.1746448760162912
553.0, 0.07675124604258561
554.0, 0.14629910354338427
555.0, 0.1332519726952296
556.0, 0.06323180525544822
557.0, 0.05832422992556033
558.0, 0.039240091735233296
559.0, 0.1040044312390446
560.0, 0.05946751112260121
561.0, 0.03316451930529744
562.0, 0.04243722285573561
563.0, 0.0513113156487711
564.0, 0.04055168857398727
565.0, 0.10353124908613781
566.0, 0.11281529254793547
567.0, 0.07136479573487252
568.0, 0.08338796230599675
569.0, 0.12150307486190169
570.0, 0.11816894278067272
571.0, 0.05559311015771887
572.0, 0.0901672136986535
573.0, 0.058685058672801556
574.0, 0.06409828425250642
575.0, 0.07169727629047787
576.0, 0.0556042714209184
577.0, 0.07583051141154995
578.0, 0.2305999294758006
579.0, 0.20171323809714067
580.0, 0.05067725853937495
581.0, 0.059302582623246794
582.0, 0.08115182697466358
583.0, 0.08600066000252075
584.0, 0.08437489326346712
585.0, 0.02361392282575636
586.0, 0.05530249738012251
587.0, 0.05750124288828454
588.0, 0.09691403369479923
589.0, 0.07289840164938166
590.0, 0.021358919415282913
591.0, 0.021457382510372085
592.0, 0.024681312842306295
593.0, 0.046752750201119665
594.0, 0.04185557968527979
595.0, 0.15297154761901316
596.0, 0.1732887592423632
597.0, 0.1410767358611641
598.0, 0.17016898077827697
599.0, 0.03173347353531585
600.0, 0.039281239804043966
601.0, 0.16248348766709286
602.0, 0.13040416170604655
603.0, 0.09189188397514912
604.0, 0.12650446184833877
605.0, 0.1711418039843865
606.0, 0.16140907230363538
607.0, 0.19141538239484715
608.0, 0.18957274691210646
609.0, 0.1864534093037458
610.0, 0.1481709805091469
611.0, 0.07556230771126277
612.0, 0.03199786125599018
613.0, 0.11411572320906678
614.0, 0.021188233664852126
615.0, 0.18134988076496306
616.0, 0.19203517235158454
617.0, 0.23654048978412026
618.0, 0.29329949021266666
619.0, 0.1720536093780863
620.0, 0.046813364857795664
621.0, 0.11529167579206967
622.0, 0.050949882606947994
623.0, 0.031794391756585466
624.0, 0.07346804372027589
625.0, 0.08662723337228806
626.0, 0.05206239293747349
627.0, 0.2178800124895546
628.0, 0.1803575383892428
629.0, 0.12368559324667464
630.0, 0.1498566917983481
631.0, 0.19988933248196458
632.0, 0.18949933775304176
633.0, 0.12298905841500468
634.0, 0.15554245600042724
635.0, 0.15309457865656526
636.0, 0.15259993722806045
637.0, 0.15717832581497468
638.0, 0.26495418695501916
639.0, 0.3320895799563935
640.0, 0.2912778208514438
641.0, 0.4958201296052477
642.0, 0.39738576274828824
643.0, 0.3521544270451317
644.0, 0.5703661570261412
645.0, 0.6028667686446229
646.0, 0.6370055009856623
647.0, 0.8780912558905839
648.0, 0.8981888773291251
649.0, 0.9208342013705509
650.0, 0.9487293204525346
651.0, 0.9284874458267602
652.0, 0.9266961544079233
653.0, 0.8793998307475885
654.0, 0.7813645293671267
655.0, 0.7499263291613522
656.0, 0.6271904309731701
657.0, 0.4854671066358588
658.0, 0.43454491115287536
659.0, 0.4185309119572035
660.0, 0.37205658178850626
661.0, 0.33486274130748594
662.0, 0.3567749791235961
663.0, 0.15282188580777123
664.0, 0.31773642529415197
665.0, 0.1825075115996971
666.0, 0.12587171089704205
667.0, 0.23782562529909637
668.0, 0.2944480159804551
669.0, 0.1583578192190155
670.0, 0.28265408139324816
671.0, 0.2542198245173133
672.0, 0.27671091272378956
673.0, 0.18286800610149648
674.0, 0.1716134389729975
675.0, 0.245541033993952
676.0, 0.2582379521140065
677.0, 0.15093202933570019
678.0, 0.19134924308153742
679.0, 0.17374316261981365
680.0, 0.18591897487490414
681.0, 0.19643814029936238
682.0, 0.21957018251294633
683.0, 0.28688898485458064
684.0, 0.4012426260465577
685.0, 0.5007961327055527
686.0, 0.3482316814135846
687.0, 0.24574254494542683
688.0, 0.21788249810399427
689.0, 0.2079427256277486
690.0, 0.19341890317409988
691.0, 0.17819013938609096
692.0, 0.13135053481631653
693.0, 0.16868249591101683
694.0, 0.2599320060901529
695.0, 0.15264167886762114
696.0, 0.17829874479780622
697.0, 0.20239169794792952
698.0, 0.11704222881551335
699.0, 0.1737113509598078
700.0, 0.16574537406757617
701.0, 0.028275804469834034
702.0, 0.16121723673744986
703.0, 0.10576287050060161
704.0, 0.1811744228875562
705.0, 0.3032788509108093
706.0, 0.1408475746959195
707.0, 0.14775335519392443
708.0, 0.06874692989471921
709.0, 0.028798364946594497
710.0, 0.09206527918201819
711.0, 0.20455542209474797
712.0, 0.17727641435685565
713.0, 0.08527882420646683
714.0, 0.2557291160571272
715.0, 0.18246885471153299
716.0, 0.15385113385983817
717.0, 0.1441442523212277
718.0, 0.23824966299990502
719.0, 0.2390322292726336
720.0, 0.18534452216591057
721.0, 0.21129860055465494
722.0, 0.1373959615105644
723.0, 0.24724660295436088
724.0, 0.11785656255151766
725.0, 0.1332654049302423
726.0, 0.11660485644273444
727.0, 0.08058232629417014
728.0, 0.11669842926950319
729.0, 0.23007719959445225
730.0, 0.30968670482044497
731.0, 0.271620835058367
732.0, 0.06620482249265316
733.0, 0.02096210926143573
734.0, 0.07043313871704174
735.0, 0.17232528393664623
736.0, 0.2678521158549258
737.0, 0.20346173970716386
738.0, 0.016422512905541517
739.0, 0.18715290915531638
740.0, 0.09276789868161989
741.0, 0.08315058252745773
742.0, 0.0787736274172616
743.0, 0.11924699113999183
744.0, 0.22767356660997573
745.0, 0.058763540641987744
746.0, 0.2575888613570681
747.0, 0.2712560503245217
748.0, 0.11865136684645616
749.0, 0.1867319070357712
750.0, 0.27331977024706056
751.0, 0.19336552969570509
752.0, 0.08471040901522689
753.0, 0.12643471282511434
754.0, 0.02416871842268547
755.0, 0.08853252781242127
756.0, 0.14052407801528388
757.0, 0.08770128010955308
758.0, 0.07057722501138992
759.0, 0.19227017866059998
760.0, 0.3138955981681201
761.0, 0.1464790815189972
762.0, 0.18098134180992848
763.0, 0.04429033531598333
764.0, 0.15105362793594782
765.0, 0.13992688811522264
766.0, 0.20007515739948536
767.0, 0.33725144913237903
768.0, 0.10335629705966971
769.0, 0.1639806049572765
770.0, 0.09789059480187771
771.0, 0.22406024768920976
772.0, 0.2837654033982488
773.0, 0.21514687453210632
774.0, 0.14684635627169287
775.0, 0.19996107220861065
776.0, 0.28262020276908334
777.0, 0.04903453647249517
778.0, 0.17978783985158606
779.0, 0.0831613050640441
780.0, 0.025989640780429424
781.0, 0.16488718898088495
782.0, 0.280512280754552
783.0, 0.2471845364529413
784.0, 0.27476225426170914
785.0, 0.12753010505032764
786.0, 0.15801004436455315
787.0, 0.20638054160512828
788.0, 0.15612277959328186
789.0, 0.1747768590404304
790.0, 0.20203265224142467
791.0, 0.13772249575221238
792.0, 0.12251984224145399
793.0, 0.4276928815114082
794.0, 0.3524438354339076
795.0, 0.31147687265318985
796.0, 0.19925900115830839
797.0, 0.151624101325544
798.0, 0.21168412289767996
799.0, 0.26638644580050097
800.0, 0.17586986877727068
801.0, 0.027259576799836538
802.0, 0.2591226055389298
803.0, 0.3948961518255197
804.0, 0.4450605350814898
805.0, 0.3196082134654568
806.0, 0.19453178683184896
807.0, 0.14457031705100448
808.0, 0.06836078437417192
809.0, 0.12580329947460644
810.0, 0.34194926987976304
811.0, 0.21586675332742203
812.0, 0.3094545494215952
813.0, 0.2816676153861266
814.0, 0.23253113299494535
815.0, 0.2245822086108154
816.0, 0.21526716054297873
817.0, 0.40842224686322914
818.0, 0.337526527300801
819.0, 0.07641730874836575
820.0, 0.25022107908605373
821.0, 0.32505175375377177
822.0, 0.22718597655784598
823.0, 0.22986283801095694
824.0, 0.389880773638917
825.0, 0.3221549694962458
826.0, 0.3021839247973608
827.0, 0.20479044294242899
828.0, 0.17688734132102693
829.0, 0.23316047770813147
830.0, 0.3487786435359038
831.0, 0.35419542588097475
832.0, 0.29300645825321237
833.0, 0.4032965847695548
834.0, 0.38262633926932904
835.0, 0.2873369992696297
836.0, 0.21563747902767333
837.0, 0.16370519247555956
838.0, 0.09922262241457347
839.0, 0.08477676381677303
840.0, 0.08138428786366302
841.0, 0.026330967586234766
842.0, 0.07024472888188368
843.0, 0.22030816662235417
844.0, 0.24683070903184515
845.0, 0.2513127769414753
846.0, 0.2652772219399018
847.0, 0.25828231403753865
848.0, 0.2853659332753259
849.0, 0.3099275638235114
850.0, 0.23185022738945094
851.0, 0.4401119949307889
852.0, 0.2260289873743524
853.0, 0.1520695041296024
854.0, 0.251929935791687
855.0, 0.24824983520396496
856.0, 0.2165348917461813
857.0, 0.19053931792624826
858.0, 0.16474663951516738
859.0, 0.3311579944293689
860.0, 0.06481631922560227
861.0, 0.26031503310499216
862.0, 0.2408132834689394
863.0, 0.21544700760101093
864.0, 0.30587025134136026
865.0, 0.4037409205384468
866.0, 0.41580426492824046
867.0, 0.3702823738563081
868.0, 0.18555657565727818
869.0, 0.2769317891981721
870.0, 0.24605768196170463
871.0, 0.2264776096674908
872.0, 0.3105259639709881
873.0, 0.3884277307665993
874.0, 0.3321796139752715
875.0, 0.211014723940963
876.0, 0.26502346499854523
877.0, 0.4372564808996998
878.0, 0.07957578245966468
879.0, 0.12410784690545429
880.0, 0.3066116087779718
881.0, 0.4324015814362142
882.0, 0.3810660243382297
883.0, 0.21450892179322975
884.0, 0.1589764774184027
885.0, 0.3451777523323908
886.0, 0.25570454881759436
887.0, 0.38204191716304137
888.0, 0.1632483778668986
889.0, 0.13572998609479414
890.0, 0.09111280817100553
891.0, 0.10888582310615523
892.0, 0.2391174887588695
893.0, 0.3300843121232184
894.0, 0.3417689175707483
895.0, 0.11091191202844675
896.0, 0.2235933453240198
897.0, 0.2817820848013388
898.0, 0.11396005731049465
899.0, 0.14134946136505724
900.0, 0.22363959719782422
901.0, 0.14594825097221284
902.0, 0.09755282307789213
903.0, 0.2971839983109282
904.0, 0.3129803073971471
905.0, 0.04493355969681102
906.0, 0.36193218120870174
907.0, 0.2430698320798674
908.0, 0.09694694308362581
909.0, 0.15771964696603938
910.0, 0.27756647254002687
911.0, 0.29397931994702586
912.0, 0.24634045193053042
913.0, 0.3365019980836011
914.0, 0.43127165487299335
915.0, 0.2023806980844577
916.0, 0.13434077306144343
917.0, 0.1927461702076424
918.0, 0.16278606677087132
919.0, 0.12056301320524518
920.0, 0.20945893697560672
921.0, 0.11349134577914927
922.0, 0.09936768906209834
923.0, 0.17119608905410041
924.0, 0.0531903804617509
925.0, 0.02737427744944882
926.0, 0.1055533240858288
927.0, 0.23925970173553165
928.0, 0.32889361835856984
929.0, 0.30686208960042227
930.0, 0.2677696726020131
931.0, 0.3742901654599714
932.0, 0.24666252795468854
933.0, 0.38465559863567544
934.0, 0.3866801662813053
935.0, 0.39251094016610527
936.0, 0.3914203527493367
937.0, 0.3119612370616275
938.0, 0.22301431707122313
939.0, 0.24422605309846512
940.0, 0.13366230374710625
941.0, 0.27335212009465076
942.0, 0.0631742042536768
943.0, 0.15373546702053265
944.0, 0.21388757297348568
945.0, 0.17427946096908353
946.0, 0.17894619059466255
947.0, 0.2344384912967378
948.0, 0.2654551128345087
949.0, 0.4792233229617061
950.0, 0.21528920593168957
951.0, 0.1043417278648843
952.0, 0.2164602243188879
953.0, 0.17897041405075775
954.0, 0.16566672835010038
955.0, 0.20539051696692479
956.0, 0.30367192200667625
957.0, 0.4391853088464194
958.0, 0.4219860797195988
959.0, 0.27715803984887366
960.0, 0.4436125044946872
961.0, 0.5016219637711392
962.0, 0.6175178144505022
963.0, 0.4775026093811605
964.0, 0.4597765780623165
965.0, 0.4016459476544251
966.0, 0.2960697348131073
967.0, 0.5434631675853951
968.0, 0.6138844620547503
969.0, 0.8609674715196309
970.0, 0.9849631687171398
971.0, 0.7885854004686574
972.0, 0.6259993122840012
973.0, 0.5651379588113377
974.0, 0.49439355674154595
975.0, 0.400391858674903
976.0, 0.36316202060301034
977.0, 0.3685518221969311
978.0, 0.31303928104986684
979.0, 0.3562721565477311
980.0, 0.5205855354583642
981.0, 0.4921517594753747
982.0, 0.4066003431941167
983.0, 0.4972957934557252
984.0, 0.342067881887168
985.0, 0.1597905868203999
986.0, 0.4094617132313498
987.0, 0.3663404618400983
988.0, 0.060187576448800045
989.0, 0.06769118792387824
990.0, 0.2901256316846714
991.0, 0.2453672119338471
992.0, 0.20968876485385862
993.0, 0.26038893520512485
994.0, 0.3042214345313185
995.0, 0.3196304328657155
996.0, 0.35724517067329686
997.0, 0.36135579014976155
998.0, 0.37189597008141473
999.0, 0.40089743991577736
1000.0, 0.26309457963775934
1001.0, 0.39556330462638845
1002.0, 0.38875884873317573
1003.0, 0.361065406595283
1004.0, 0.3707144547625533
1005.0, 0.38908801763005413
1006.0, 0.44850120371552293
1007.0, 0.497369301079341
1008.0, 0.319146470857818
1009.0, 0.41411340856825196
1010.0, 0.37865080675157614
1011.0, 0.23154978851816985
1012.0, 0.20934643775028888
1013.0, 0.2677989621786869
1014.0, 0.31049476824112615
1015.0, 0.33100411885237985
1016.0, 0.3629750195053486
1017.0, 0.3855188772132364
1018.0, 0.388983396411388
1019.0, 0.42949850226502995
1020.0, 0.42217159688029854
1021.0, 0.47071555986328756
1022.0, 0.4139133111386844
1023.0, 0.49098278496589304
1024.0, 0.40995316757656364
1025.0, 0.1936973086340922
1026.0, 0.2024528864028622
1027.0, 0.30750099593880165
1028.0, 0.3814487300941529
1029.0, 0.46359864946250573
1030.0, 0.3167522133081259
1031.0, 0.38466713287661813
1032.0, 0.1676805123282085
1033.0, 0.18999916586287632
1034.0, 0.2075628769736605
1035.0, 0.20755832898195647
1036.0, 0.2652039246719994
1037.0, 0.16567873820915896
1038.0, 0.32021076146732924
1039.0, 0.12650225095499962
1040.0, 0.5176157667871517
1041.0, 0.4541155888571959
1042.0, 0.43502518947605073
1043.0, 0.25248840340055356
1044.0, 0.10523768548044903
1045.0, 0.11455957958825198
1046.0, 0.21979275551608823
1047.0, 0.37710609721161825
1048.0, 0.4935076290603264
1049.0, 0.10684824615464619
1050.0, 0.3406459595765223
1051.0, 0.2638286283129571
1052.0, 0.4111817496334753
1053.0, 0.39126126157424285
1054.0, 0.38803358412592914
1055.0, 0.21109482833561832
1056.0, 0.20582502058991572
1057.0, 0.3945034235183956
1058.0, 0.15205524459469885
1059.0, 0.08340846149530276
1060.0, 0.1961381371086899
1061.0, 0.4403305684612073
1062.0, 0.25195521587783876
1063.0, 0.35782253605240405
1064.0, 0.5558576105337918
1065.0, 0.4389247545319292
1066.0, 0.24479018436168085
1067.0, 0.27035767965515195
1068.0, 0.31567497700551156
1069.0, 0.17499861013212775
1070.0, 0.41479995808597003
1071.0, 0.7294010134471159
1072.0, 0.34695268385788985
1073.0, 0.3833385993080335
1074.0, 0.5895234127822853
1075.0, 0.2659078521965453
1076.0, 0.1343128130135705
1077.0, 0.4807181521690756
1078.0, 0.5898736118755193
1079.0, 0.38043446748159215
1080.0, 0.7100279017950175
1081.0, 0.3700185403427544
1082.0, 0.22512419321053348
1083.0, 0.3175950209218809
1084.0, 0.18168724977950323
1085.0, 0.34302322994429973
1086.0, 0.49564285884395864
1087.0, 0.41118847553604476
1088.0, 0.32341444888420234
1089.0, 0.35654111722248766
1090.0, 0.3844683665804329
1091.0, 0.40653348499949277
1092.0, 0.4430927316206613
1093.0, 0.4082148989140953
1094.0, 0.3543634665536658
1095.0, 0.0832030524711447
1096.0, 0.37680111362466545
1097.0, 0.3555518019303741
1098.0, 0.2724402399934946
1099.0, 0.43520013606730196
1100.0, 0.5311150811744776
1101.0, 0.37114937922586017
1102.0, 0.2889812072481776
1103.0, 0.19940569186144935
1104.0, 0.25871433880699757
1105.0, 0.26992432334318267
1106.0, 0.18288199278196793
1107.0, 0.23557932358256242
1108.0, 0.1630155553417153
1109.0, 0.12441518441169637
1110.0, 0.10796969175471029
1111.0, 0.0874161668066895
1112.0, 0.08408354259585218
1113.0, 0.09339526776870613
1114.0, 0.09357921879956413
1115.0, 0.006057889373816416
1116.0, 0.05860327191985244
1117.0, 0.005444314487542824
1118, 0.0
1119, 0.0
1120, 0.0
1121, 0.0
1122, 0.0
1123, 0.0
1124, 0.0
1125, 0.0
1126, 0.0
1127, 0.0
1128, 0.0
1129, 0.0
1130, 0.0
1131, 0.0
1132, 0.0
1133, 0.0
1134, 0.0
1135, 0.0
1136, 0.0
1137, 0.0
1138, 0.0
1139, 0.0
1140, 0.0
1141, 0.0
1142, 0.0
1143, 0.0
1144, 0.0
1145, 0.0
1146, 0.0
1147, 0.0
1148, 0.0
1149, 0.0
1150, 0.0
1151, 0.0
1152, 0.0
1153, 0.0
1154, 0.0
1155, 0.0
1156, 0.0
1157, 0.0
1158, 0.0
1159, 0.0
1160, 0.0
1161, 0.0
1162, 0.0
1163, 0.0
1164, 0.0
1165, 0.0
1166, 0.0
1167, 0.0
1168, 0.0
1169, 0.0
1170, 0.0
1171, 0.0
1172, 0.0
1173, 0.0
1174, 0.0
1175, 0.0
1176, 0.0
1177, 0.0
1178, 0.0
1179, 0.0
1180, 0.0
1181, 0.0
1182, 0.0
1183, 0.0
1184, 0.0
1185, 0.0
1186, 0.0
1187, 0.0
1188, 0.0
1189, 0.0
1190, 0.0
1191, 0.0
1192, 0.0
1193, 0.0
1194, 0.0
1195, 0.0
1196, 0.0
1197, 0.0
1198, 0.0
1199, 0.0
1200, 0.0
1201, 0.0
1202, 0.0
1203, 0.0
1204, 0.0
1205, 0.0
1206, 0.0
1207, 0.0
1208, 0.0
1209, 0.0
1210, 0.0
1211, 0.0
1212, 0.0
1213, 0.0
1214, 0.0
1215, 0.0
1216, 0.0
1217, 0.0
1218, 0.0
1219, 0.0
1220, 0.0
1221, 0.0
1222, 0.0
1223, 0.0
1224, 0.0
1225, 0.0
1226, 0.0
1227, 0.0
1228, 0.0
1229, 0.0
1230, 0.0
1231, 0.0
1232, 0.0
1233, 0.0
1234, 0.0
1235, 0.0
1236, 0.0
1237, 0.0
1238, 0.0
1239, 0.0
1240, 0.0
1241, 0.0
1242, 0.0
1243, 0.0
1244, 0.0
1245, 0.0
1246, 0.0
1247, 0.0
1248, 0.0
1249, 0.0
1250, 0.0
1251, 0.0
1252, 0.0
1253, 0.0
1254, 0.0
1255, 0.0
1256, 0.0
1257, 0.0
1258, 0.0
1259, 0.0
1260, 0.0
1261, 0.0
1262, 0.0
1263, 0.0
1264, 0.0
1265, 0.0
1266, 0.0
1267, 0.0
1268, 0.0
1269, 0.0
1270, 0.0
1271, 0.0
1272, 0.0
1273, 0.0
1274, 0.0
1275, 0.0
1276, 0.0
1277, 0.0
1278, 0.0
1279, 0.0
1280, 0.0
1281, 0.0
1282, 0.0
1283, 0.0
1284, 0.0
1285, 0.0
1286, 0.0
1287, 0.0
1288, 0.0
1289, 0.0
1290, 0.0
1291, 0.0
1292, 0.0
1293, 0.0
1294, 0.0
1295, 0.0
1296, 0.0
1297, 0.0
1298, 0.0
1299, 0.0
1300, 0.0
1301, 0.0
1302, 0.0
1303, 0.0
1304, 0.0
1305, 0.0
1306, 0.0
1307, 0.0
1308, 0.0
1309, 0.0
1310, 0.0
1311, 0.0
1312, 0.0
1313, 0.0
1314, 0.0
1315, 0.0
1316, 0.0
1317, 0.0
1318, 0.0
1319, 0.0
1320, 0.0
1321, 0.0
1322, 0.0
1323, 0.0
1324, 0.0
1325, 0.0
1326, 0.0
1327, 0.0
1328, 0.0
1329, 0.0
1330, 0.0
1331, 0.0
1332, 0.0
1333, 0.0
1334, 0.0
1335, 0.0
1336, 0.0
1337, 0.0
1338, 0.0
1339, 0.0
1340, 0.0
1341, 0.0
1342, 0.0
1343, 0.0
1344, 0.0
1345, 0.0
1346, 0.0
1347, 0.0
1348, 0.0
1349, 0.0
1350, 0.0
1351, 0.0
1352, 0.0
1353, 0.0
1354, 0.0
1355, 0.0
1356, 0.0
1357, 0.0
1358, 0.0
1359, 0.0
1360, 0.0
1361, 0.0
1362, 0.0
1363, 0.0
1364, 0.0
1365, 0.0
1366, 0.0
1367, 0.0
1368, 0.0
1369, 0.0
1370, 0.0
1371, 0.0
1372, 0.0
1373, 0.0
1374, 0.0
1375, 0.0
1376, 0.0
1377, 0.0
1378, 0.0
1379, 0.0
1380, 0.0
1381, 0.0
1382, 0.0
1383, 0.0
1384, 0.0
1385, 0.0
1386, 0.0
1387, 0.0
1388, 0.0
1389, 0.0
1390, 0.0
1391, 0.0
1392, 0.0
1393, 0.0
1394, 0.0
1395, 0.0
1396, 0.0
1397, 0.0
1398, 0.0
1399, 0.0
1400, 0.0
1401, 0.0
1402, 0.0
1403, 0.0
1404, 0.0
1405, 0.0
1406, 0.0
1407, 0.0
1408, 0.0
1409, 0.0
1410, 0.0
1411, 0.0
1412, 0.0
1413, 0.0
1414, 0.0
1415, 0.0
1416, 0.0
1417, 0.0
1418, 0.0
1419, 0.0
1420, 0.0
1421, 0.0
1422, 0.0
1423, 0.0
1424, 0.0
1425, 0.0
1426, 0.0
1427, 0.0
1428, 0.0
1429, 0.0
1430, 0.0
1431, 0.0
1432, 0.0
1433, 0.0
1434, 0.0
1435, 0.0
1436, 0.0
1437, 0.0
1438, 0.0
1439, 0.0
1440, 0.0
1441, 0.0
1442, 0.0
1443, 0.0
1444, 0.0
1445, 0.0
1446, 0.0
1447, 0.0
1448, 0.0
1449, 0.0
1450, 0.0
1451, 0.0
1452, 0.0
1453, 0.0
1454, 0.0
1455, 0.0
1456, 0.0
1457, 0.0
1458, 0.0
1459, 0.0
1460, 0.0
1461, 0.0
1462, 0.0
1463, 0.0
1464, 0.0
1465, 0.0
1466, 0.0
1467, 0.0
1468, 0.0
1469, 0.0
1470, 0.0
1471, 0.0
1472, 0.0
1473, 0.0
1474, 0.0
1475, 0.0
1476, 0.0
1477, 0.0
1478, 0.0
1479, 0.0
1480, 0.0
1481, 0.0
1482, 0.0
1483, 0.0
1484, 0.0
1485, 0.0
1486, 0.0
1487, 0.0
1488, 0.0
1489, 0.0
1490, 0.0
1491, 0.0
1492, 0.0
1493, 0.0
1494, 0.0
1495, 0.0
1496, 0.0
1497, 0.0
1498, 0.0
1499, 0.0
1500, 0.0
1501, 0.0
1502, 0.0
1503, 0.0
1504, 0.0
1505, 0.0
1506, 0.0
1507, 0.0
1508, 0.0
1509, 0.0
1510, 0.0
1511, 0.0
1512, 0.0
1513, 0.0
1514, 0.0
1515, 0.0
1516, 0.0
1517, 0.0
1518, 0.0
1519, 0.0
1520, 0.0
1521, 0.0
1522, 0.0
1523, 0.0
1524, 0.0
1525, 0.0
1526, 0.0
1527, 0.0
1528, 0.0
1529, 0.0
1530, 0.0
1531, 0.0
1532, 0.0
1533, 0.0
1534, 0.0
1535, 0.0
1536, 0.0
1537, 0.0
1538, 0.0
1539, 0.0
1540, 0.0
1541, 0.0
1542, 0.0
1543, 0.0
1544, 0.0
1545, 0.0
1546, 0.0
1547, 0.0
1548, 0.0
1549, 0.0
1550, 0.0
1551, 0.0
1552, 0.0
1553, 0.0
1554, 0.0
1555, 0.0
1556, 0.0
1557, 0.0
1558, 0.0
1559, 0.0
1560, 0.0
1561, 0.0
1562, 0.0
1563, 0.0
1564, 0.0
1565, 0.0
1566, 0.0
1567, 0.0
1568, 0.0
1569, 0.0
1570, 0.0
1571, 0.0
1572, 0.0
1573, 0.0
1574, 0.0
1575, 0.0
1576, 0.0
1577, 0.0
1578, 0.0
1579, 0.0
1580, 0.0
1581, 0.0
1582, 0.0
1583, 0.0
1584, 0.0
1585, 0.0
1586, 0.0
1587, 0.0
1588, 0.0
1589, 0.0
1590, 0.0
1591, 0.0
1592, 0.0
1593, 0.0
1594, 0.0
1595, 0.0
1596, 0.0
1597, 0.0
1598, 0.0
1599, 0.0
