30, 0.0
31, 0.0
32, 0.0
33, 0.0
34, 0.0
35, 0.0
36, 0.0
37, 0.0
38, 0.0
39, 0.0
40, 0.0
41, 0.0
42, 0.0
43, 0.0
44, 0.0
45, 0.0
46, 0.0
47, 0.0
48, 0.0
49, 0.0
50, 0.0
51, 0.0
52, 0.0
53, 0.0
54, 0.0
55, 0.0
56, 0.0
57, 0.0
58, 0.0
59, 0.0
60, 0.0
61, 0.0
62, 0.0
63, 0.0
64, 0.0
65, 0.0
66, 0.0
67, 0.0
68, 0.0
69, 0.0
70, 0.0
71, 0.0
72, 0.0
73, 0.0
74, 0.0
75, 0.0
76, 0.0
77, 0.0
78, 0.0
79, 0.0
80, 0.0
81, 0.0
82, 0.0
83, 0.0
84, 0.0
85, 0.0
86, 0.0
87, 0.0
88, 0.0
89, 0.0
90, 0.0
91, 0.0
92, 0.0
93, 0.0
94, 0.0
95, 0.0
96, 0.0
97, 0.0
98, 0.0
99, 0.0
100, 0.0
101, 0.0
102, 0.0
103, 0.0
104, 0.0
105, 0.0
106, 0.0
107, 0.0
108, 0.0
109, 0.0
110, 0.0
111, 0.0
112, 0.0
113, 0.0
114, 0.0
115, 0.0
116, 0.0
117, 0.0
118, 0.0
119, 0.0
120, 0.0
121, 0.0
122, 0.0
123, 0.0
124, 0.0
125, 0.0
126, 0.0
127, 0.0
128, 0.0
129, 0.0
130, 0.0
131, 0.0
132, 0.0
133, 0.0
134, 0.0
135, 0.0
136, 0.0
137, 0.0
138, 0.0
139, 0.0
140, 0.0
141, 0.0
142, 0.0
143, 0.0
144, 0.0
145, 0.0
146, 0.0
147, 0.0
148, 0.0
149, 0.0
150, 0.0
151, 0.0
152, 0.0
153, 0.0
154, 0.0
155, 0.0
156, 0.0
157, 0.0
158, 0.0
159, 0.0
160, 0.0
161, 0.0
162, 0.0
163, 0.0
164, 0.0
165, 0.0
166, 0.0
167, 0.0
168, 0.0
169, 0.0
170.0, 4.743212605281863e-06
171.0, 2.501974394300343e-05
172.0, 0.00013785153836068994
173.0, 0.0006874830326487057
174.0, 0.001087640651740252
175.0, 0.0011797990229444981
176.0, 0.0010815354953921997
177.0, 0.00030626875721709984
178.0, 0.0015032665378475083
179.0, 0.002373334001969304
180.0, 0.00342619137402626
181.0, 0.00517547571743086
182.0, 0.004174127612155463
183.0, 0.0042552658957957954
184.0, 0.005015312813696936
185.0, 0.006221584095521567
186.0, 0.007830448840537976
187.0, 0.010139506821536992
188.0, 0.009926969509753723
189.0, 0.01131431157471563
190.0, 0.013890706101849304
191.0, 0.015619735674275747
192.0, 0.013891744529361438
193.0, 0.01460911562309839
194.0, 0.016493314947457476
195.0, 0.017862746414621735
196.0, 0.01938706412750215
197.0, 0.021808460391450582
198.0, 0.02238187715565607
199.0, 0.02448408093868821
200.0, 0.026733144676097758
201.0, 0.028189135493872038
202.0, 0.028792684675690194
203.0, 0.029841541554741103
204.0, 0.03037808350101361
205.0, 0.02893999827588674
206.0, 0.02882752042226462
207.0, 0.029943567500322312
208.0, 0.02988681258365596
209.0, 0.02930478647896776
210.0, 0.03019950317752325
211.0, 0.030901793915528098
212.0, 0.03130509381477985
213.0, 0.03184121586031868
214.0, 0.033187306961788794
215.0, 0.03185372182419775
216.0, 0.03245004142815815
217.0, 0.03322322681407925
218.0, 0.03325868962848833
219.0, 0.03330559961580989
220.0, 0.035475552420327454
221.0, 0.037193924901031385
222.0, 0.03852909008513776
223.0, 0.03917927876673527
224.0, 0.03877025004880514
225.0, 0.037194233869716924
226.0, 0.03653220336676975
227.0, 0.03520742953777704
228.0, 0.03379513884241347
229.0, 0.03268690818849897
230.0, 0.03150027408613469
231.0, 0.029173202546389193
232.0, 0.027797745043376204
233.0, 0.02644220667475548
234.0, 0.024646246493988264
235.0, 0.022466006323983025
236.0, 0.021113718754238568
237.0, 0.021883493132118396
238.0, 0.020164302075826618
239.0, 0.018679786084888513
240.0, 0.018538539884243407
241.0, 0.015719181042679484
242.0, 0.014770334287542725
243.0, 0.014444769370409446
244.0, 0.013328882355168542
245.0, 0.011640067088079908
246.0, 0.010451975537692532
247.0, 0.00965031780257921
248.0, 0.008703251731918866
249.0, 0.008347855321709721
250.0, 0.00763565747144396
251.0, 0.006308198639196827
252.0, 0.0057812268446885895
253.0, 0.0045695040107156075
254.0, 0.003680998529742045
255.0, 0.0025100309860136734
256.0, 0.0015303213666627868
257.0, 0.00142925001594568
258.0, 0.0007744451554054395
259.0, 0.003920253411541238
260.0, 0.003404021496763515
261.0, 0.0020099777973769987
262.0, 0.0015550437006521321
263.0, 0.00016464954158862763
264.0, 0.000534725059415412
265.0, 0.0020460994192120817
266.0, 0.0028837475821503283
267.0, 0.003026732344507529
268.0, 0.0032239241728777156
269.0, 0.003852980774115542
270.0, 0.0028469995586887236
271.0, 0.002813331370236275
272.0, 0.0028970949304872574
273.0, 0.002722641986738368
274.0, 0.0027351731129971833
275.0, 0.0021550605991428567
276.0, 0.0016789830970152272
277.0, 0.0007727183403584847
278.0, 0.00021592198315400037
279.0, 0.0006292684505147582
280.0, 0.0013002897246562788
281.0, 0.0028525359914397296
282.0, 0.004533319217014788
283.0, 0.006977826053540801
284.0, 0.009388123944255311
285.0, 0.010905873243730154
286.0, 0.016227945646251185
287.0, 0.021066973790502565
288.0, 0.026191686032035037
289.0, 0.033067106452476146
290.0, 0.04145150147308491
291.0, 0.04886020862955964
292.0, 0.0564921110228864
293.0, 0.06566350058789955
294.0, 0.07484913408549322
295.0, 0.08338895881921474
296.0, 0.09070264938492414
297.0, 0.0954616743570473
298.0, 0.09699974853469598
299.0, 0.09733477392924827
300.0, 0.0944919561016318
301.0, 0.08874234195567751
302.0, 0.08157188180019354
303.0, 0.0710102043849509
304.0, 0.06284001109042439
305.0, 0.054726735930329534
306.0, 0.04711973523148771
307.0, 0.04045234194721827
308.0, 0.03463640112688449
309.0, 0.03075448750046793
310.0, 0.027801436096883424
311.0, 0.025413766170313188
312.0, 0.023040244223621647
313.0, 0.02081406522110394
314.0, 0.020369776382949983
315.0, 0.017786016261410395
316.0, 0.017732603056467205
317.0, 0.018286687034576747
318.0, 0.01791733579231496
319.0, 0.01646760074776745
320.0, 0.017404924591555924
321.0, 0.017147158493788672
322.0, 0.01725319456442799
323.0, 0.017559361609388053
324.0, 0.017924739149905923
325.0, 0.018333296787565168
326.0, 0.018612036037474935
327.0, 0.018771342654894902
328.0, 0.019386770784953464
329.0, 0.020095315952685714
330.0, 0.020836489799805347
331.0, 0.022038062131004617
332.0, 0.023019587457039598
333.0, 0.022870843966187025
334.0, 0.02374753994003878
335.0, 0.024796425669712813
336.0, 0.02532641425286103
337.0, 0.0263828653605989
338.0, 0.027182566572828824
339.0, 0.027315388058954837
340.0, 0.028346349575674504
341.0, 0.029802689634548962
342.0, 0.03089072854072024
343.0, 0.03212693205037525
344.0, 0.03183682601728262
345.0, 0.033674672556327855
346.0, 0.035425823247791186
347.0, 0.035937796007388965
348.0, 0.0355308458224632
349.0, 0.03679891471465633
350.0, 0.03805109800500734
351.0, 0.03838448503298367
352.0, 0.03898205044809634
353.0, 0.040194696427609374
354.0, 0.04174668123715171
355.0, 0.04378097388793371
356.0, 0.04429890644288801
357.0, 0.04580229745607368
358.0, 0.0478258635067485
359.0, 0.04988356736577763
360.0, 0.05174726587713134
361.0, 0.05311367669869653
362.0, 0.055521138181176835
363.0, 0.05869626703650552
364.0, 0.06084043446577358
365.0, 0.06297995263978882
366.0, 0.06785544379930236
367.0, 0.07024513248316804
368.0, 0.07107673788207777
369.0, 0.07463036931325048
370.0, 0.07890194453838886
371.0, 0.08263856135087425
372.0, 0.08666909757973604
373.0, 0.09207806000464003
374.0, 0.09426674614958108
375.0, 0.09753185627227239
376.0, 0.10206660832214635
377.0, 0.10663667945665227
378.0, 0.10980271124425048
379.0, 0.11411553168413244
380.0, 0.1182955907123304
381.0, 0.1237490999602034
382.0, 0.12882967775707707
383.0, 0.13240055119206579
384.0, 0.1349876750751516
385.0, 0.13902684793616527
386.0, 0.1420129122881936
387.0, 0.1433342330385087
388.0, 0.1437717500348088
389.0, 0.1438081096876356
390.0, 0.14304559229603991
391.0, 0.13989368782184855
392.0, 0.1390656958414007
393.0, 0.13605251173936644
394.0, 0.13086473455966377
395.0, 0.12457115262186583
396.0, 0.11819072610026912
397.0, 0.11184935892190204
398.0, 0.10401707268235175
399.0, 0.09636900642247458
400.0, 0.08842367077923508
401.0, 0.08091235338092433
402.0, 0.07562340245468924
403.0, 0.07056085847206671
404.0, 0.063614897130071
405.0, 0.059117751109732296
406.0, 0.055064314199940484
407.0, 0.05159280666322878
408.0, 0.050464183260454855
409.0, 0.04587050405941477
410.0, 0.042934542470581545
411.0, 0.041527587133340677
412.0, 0.039824165517026014
413.0, 0.036770972249257766
414.0, 0.03289411452749087
415.0, 0.0315861814557859
416.0, 0.029156030797442754
417.0, 0.027670771476642677
418.0, 0.026953475877900566
419.0, 0.02670402551177637
420.0, 0.026256655301288085
421.0, 0.023559158096425517
422.0, 0.022069467742662004
423.0, 0.02232173877047652
424.0, 0.022052595762546694
425.0, 0.02117648930713089
426.0, 0.020411212997948954
427.0, 0.0191222555873434
428.0, 0.020014666092906405
429.0, 0.020004132207520148
430.0, 0.020330657059622677
431.0, 0.020509231195133388
432.0, 0.020354868207243665
433.0, 0.021483627326952526
434.0, 0.022116349446546398
435.0, 0.023174721803814278
436.0, 0.02500149188583584
437.0, 0.02608204315223394
438.0, 0.02588178638855924
439.0, 0.026108863275874514
440.0, 0.02962334891657442
441.0, 0.029632272529141496
442.0, 0.03163002561123311
443.0, 0.03393576965120409
444.0, 0.035466031901298656
445.0, 0.03713809681432169
446.0, 0.03929382331419381
447.0, 0.04358689285911824
448.0, 0.047277806307562044
449.0, 0.05083746337995561
450.0, 0.05482026833461189
451.0, 0.059414149335848696
452.0, 0.06433568743447345
453.0, 0.0702425550134145
454.0, 0.07671779049925405
455.0, 0.08296518922309454
456.0, 0.09059140545874393
457.0, 0.10031553252653694
458.0, 0.10919478802559815
459.0, 0.12035010659293084
460.0, 0.13043918648744074
461.0, 0.14395198202047121
462.0, 0.16084539631167197
463.0, 0.17967466554980613
464.0, 0.19931247615966594
465.0, 0.22033487288855066
466.0, 0.2465845936355749
467.0, 0.2731886682247671
468.0, 0.30427197589287613
469.0, 0.3396420677960549
470.0, 0.37700603224101537
471.0, 0.42310274818411225
472.0, 0.47138394275249035
473.0, 0.5231861291089789
474.0, 0.5775753809209162
475.0, 0.6380170389861469
476.0, 0.7029755096907639
477.0, 0.758907236646853
478.0, 0.8189004639042105
479.0, 0.8731330181289674
480.0, 0.9204302266812416
481.0, 0.9588232868369855
482.0, 0.9858879651239142
483.0, 0.999573210939324
484.0, 0.9999705936773835
485.0, 0.9830853554018121
486.0, 0.9547915929380323
487.0, 0.911081277616693
488.0, 0.8583649099541155
489.0, 0.8043020736227827
490.0, 0.7409666809990818
491.0, 0.6743131312109757
492.0, 0.6186813450770431
493.0, 0.5608276363413928
494.0, 0.5030150629244451
495.0, 0.4518471361829625
496.0, 0.4100087760917424
497.0, 0.36878859347019793
498.0, 0.3334453720899834
499.0, 0.3009378293545517
500.0, 0.27225434856383174
501.0, 0.24665669037946794
502.0, 0.2227907726437709
503.0, 0.20231680616701245
504.0, 0.18353985346396556
505.0, 0.1673552333455796
506.0, 0.15347074159659319
507.0, 0.1408456675165463
508.0, 0.1288970519653288
509.0, 0.11813894849227342
510.0, 0.10973568276973011
511.0, 0.10047511655014886
512.0, 0.09420398801594407
513.0, 0.08899311225979999
514.0, 0.08295493161144284
515.0, 0.07615791678244553
516.0, 0.07167069102808994
517.0, 0.06644573450167036
518.0, 0.06195055900398822
519.0, 0.05751847238471092
520.0, 0.05346114996606639
521.0, 0.05009236533671713
522.0, 0.04714698063660509
523.0, 0.043502658959043955
524.0, 0.041375139709293796
525.0, 0.03845567022862166
526.0, 0.035929379155325306
527.0, 0.033124650743995794
528.0, 0.02998140204775664
529.0, 0.02981022411597119
530.0, 0.02632360953291073
531.0, 0.026265721356980822
532.0, 0.025117952789736317
533.0, 0.023224023657806046
534.0, 0.021478776465264436
535.0, 0.019816973729932002
536.0, 0.017027359430125653
537.0, 0.01733391697018069
538.0, 0.015877299197005416
539.0, 0.014632538289536272
540.0, 0.014376244904198362
541.0, 0.014035858185664605
542.0, 0.011710362694202482
543.0, 0.01108046077361836
544.0, 0.010918019403458826
545.0, 0.009759012152931961
546.0, 0.008413353467950054
547.0, 0.007248427717647197
548.0, 0.006436468202698978
549.0, 0.006491325179958215
550.0, 0.0036096776312327435
551.0, 0.0025988794424671776
552.0, 0.003193495397009893
553.0, 0.0031534477285515444
554.0, 0.0024555710493380854
555.0, 0.0022625584698283217
556.0, 0.00015296328876305242
557.0, 0.00013620179607616933
558.0, 0.0010107854280549428
559.0, 0.0007552710340954787
560.0, 0.00023769126299059547
561.0, 0.0005993479251410331
562.0, 0.0016811191098473116
563.0, 0.0017079232048004382
564.0, 0.0011760333296994296
565.0, 0.0009136112697546008
566.0, 0.0010362361748738997
567.0, 0.0015188161455962589
568.0, 0.0020173514143415885
569.0, 0.002090242548661598
570.0, 0.0032209047735487564
571.0, 0.001918790809762854
572.0, 0.0007481812264084841
573.0, 0.0006759493528591672
574.0, 0.001108598018842865
575.0, 0.0011142522559343382
576.0, 0.0007292091280243153
577.0, 0.0005379756736509851
578.0, 0.00023500494352357852
579.0, 0.00010291608239248945
580.0, 0.0005200981399077616
581.0, 0.0007987899765372219
582.0, 0.0004817674268569694
583.0, 0.0009779934635438649
584.0, 0.0007095144049847871
585.0, 0.0011635648212053847
586.0, 0.0015184068932307172
587.0, 0.0018646944943583646
588.0, 0.0022241327059142127
589.0, 0.002413754713469098
590.0, 0.002280500920522422
591.0, 0.002304849112784024
592.0, 0.0026995480726162533
593.0, 0.0033993661303771635
594.0, 0.0026344563688717433
595.0, 0.0016399684579547673
596.0, 0.002413298693157944
597.0, 0.0015804309930563518
598.0, 0.0024941477709186062
599.0, 0.0026122853104019843
600.0, 0.003805443204109468
601.0, 0.004340990362991648
602.0, 0.003878322894537776
603.0, 0.003953818268966021
604.0, 0.005351946717663624
605.0, 0.004862891045833845
606.0, 0.0055355466374991955
607.0, 0.007148694600355314
608.0, 0.008071473656270828
609.0, 0.008481176636242805
610.0, 0.00935958516331128
611.0, 0.008776086308581406
612.0, 0.00907732539258371
613.0, 0.009709221620558232
614.0, 0.01020002400139985
615.0, 0.011615997610837451
616.0, 0.013250063166405871
617.0, 0.013855452558013124
618.0, 0.015334199402775634
619.0, 0.016514908259465718
620.0, 0.016480723949238472
621.0, 0.017557453438025797
622.0, 0.01888199346790148
623.0, 0.019244476472563887
624.0, 0.018478154212395466
625.0, 0.017915202779391376
626.0, 0.01804818903514838
627.0, 0.016707822480667312
628.0, 0.014950118527061584
629.0, 0.013284065508101937
630.0, 0.012674909846191388
631.0, 0.0127214158754346
632.0, 0.010507881291163788
633.0, 0.01184154409797517
634.0, 0.00979822332275971
635.0, 0.009737814677976625
636.0, 0.009741275498605595
637.0, 0.009024303805540777
638.0, 0.009052556127328124
639.0, 0.01170361079193224
640.0, 0.011840243562854383
641.0, 0.012202069809122742
642.0, 0.012902849766045752
643.0, 0.013472097303296722
644.0, 0.01419499582866658
645.0, 0.015265878501083055
646.0, 0.016150365166834248
647.0, 0.016013146899022383
648.0, 0.015267712435535529
649.0, 0.015127725426612507
650.0, 0.014540099358260655
651.0, 0.014173460885416437
652.0, 0.014474808225583467
653.0, 0.014672306724777776
654.0, 0.01337355543954001
655.0, 0.013396830170223464
656.0, 0.01326919062924243
657.0, 0.012736080831062596
658.0, 0.01233448501405032
659.0, 0.012286469073651763
660.0, 0.01231664326813599
661.0, 0.012118200519928525
662.0, 0.012492269389109084
663.0, 0.01254946517601341
664.0, 0.012976933241661064
665.0, 0.013772112316442486
666.0, 0.014069230318626075
667.0, 0.013710831276170255
668.0, 0.01394649853765332
669.0, 0.013837784635654653
670.0, 0.015267747399559111
671.0, 0.015344545902339465
672.0, 0.014386516707393415
673.0, 0.014203902659248521
674.0, 0.014371392156545424
675.0, 0.01329292097342873
676.0, 0.015003623741149115
677.0, 0.01308434665328372
678.0, 0.013090337748683708
679.0, 0.012360647986136106
680.0, 0.01141205063191825
681.0, 0.010293864636941109
682.0, 0.008839036022629702
683.0, 0.008152224258163917
684.0, 0.007925942678307539
685.0, 0.007041631339357946
686.0, 0.004807873221716844
687.0, 0.004218798663093586
688.0, 0.00408371029941884
689.0, 0.0027898499782838294
690.0, 0.001398529625067633
691.0, 0.0020753455826126414
692.0, 0.001879191298472651
693.0, 0.001586083441816551
694.0, 0.0014314084776179885
695.0, 0.0016934396005502212
696.0, 0.0016628823699171918
697.0, 0.0010501112568974001
698.0, 0.0015518759379101964
699.0, 0.0008631349009752766
700.0, 0.00023394421680910285
701.0, 0.0006994218004681678
702.0, 0.0007223791210051527
703.0, 0.00039877439953735157
704.0, 0.0002535640398690343
705.0, 0.00025141027033780865
706.0, 0.0005306278057005295
707.0, 7.158017281024475e-05
708.0, 0.00036247145668804763
709.0, 0.0007658421359940451
710.0, 0.0006978614210669588
711.0, 0.0006623173042478597
712.0, 0.0008711762971710372
713.0, 0.00016116161680810085
714.0, 0.0002667139069808782
715.0, 0.0005034564900992
716.0, 0.0010347839129667589
717.0, 0.0008965642572221243
718.0, 0.0008788821086516755
719.0, 0.0011160865288674102
720.0, 0.0010812390644155609
721.0, 0.0017184739211762163
722.0, 0.00021953457695643496
723.0, 0.0010394548266662684
724.0, 0.0010158990406633898
725.0, 0.0004642098510746503
726.0, 0.0003095237382781217
727.0, 0.0004815046825752184
728.0, 0.0001280810696178943
729.0, 0.00039838624546750947
730.0, 0.00012030078137692137
731.0, 0.0002134368743983075
732.0, 0.00024795684111739966
733.0, 0.0003865376553972752
734.0, 0.0007433260350619686
735.0, 0.000865786084396112
736.0, 0.0001569261473604041
737.0, 0.0008320920552137381
738.0, 0.0009676752137061842
739.0, 0.0005524195277716963
740.0, 0.0004968430719478447
741.0, 0.0005237676110308503
742.0, 0.0005114423586226815
743.0, 0.0007009428870737762
744.0, 0.0010332458346699017
745.0, 0.0005924828568860396
746.0, 0.00012177701133236847
747.0, 0.00023539458390521546
748.0, 0.0005341400037689228
749.0, 0.0006002048291520775
750.0, 0.0006329673025545231
751.0, 0.0008372544004221238
752.0, 0.00034924728876658927
753.0, 0.00014243685241527185
754.0, 0.0005799381158981277
755.0, 0.000947650699600829
756.0, 0.0012400812258198792
757.0, 0.0014998854859704976
758.0, 0.001557522421751654
759.0, 0.0013815222140477674
760.0, 0.0016704233367069883
761.0, 0.0015453770686660103
762.0, 0.0011942100278282655
763.0, 0.0016169046052209504
764.0, 0.001975013328702044
765.0, 0.0023718488196882593
766.0, 0.0027715204482359366
767.0, 0.002789263464587517
768.0, 0.00300312916232046
769.0, 0.003199175434659396
770.0, 0.0026188535213975523
771.0, 0.003601145735310322
772.0, 0.00447465738733321
773.0, 0.004328531230917302
774.0, 0.0042188147701779114
775.0, 0.005412619949936742
776.0, 0.00616050284670016
777.0, 0.006876558842036497
778.0, 0.007069535427766721
779.0, 0.007053368401284613
780.0, 0.007640488056374113
781.0, 0.007745425890121571
782.0, 0.00796141844930083
783.0, 0.009590075192807695
784.0, 0.009698910662820722
785.0, 0.009265692580785502
786.0, 0.009513334062024594
787.0, 0.00963152328866734
788.0, 0.010197993009715073
789.0, 0.010470570938232613
790.0, 0.01057860094719859
791.0, 0.011337662890751636
792.0, 0.012029925730048274
793.0, 0.011606496545935213
794.0, 0.010056360045282176
795.0, 0.01055470613896236
796.0, 0.010525620784780348
797.0, 0.009898793085262257
798.0, 0.009840319418250788
799.0, 0.010367770832745682
800.0, 0.009687518044481605
801.0, 0.009196429000722272
802.0, 0.008417067446230364
803.0, 0.008682671748355691
804.0, 0.008611826192731998
805.0, 0.008247203849415408
806.0, 0.008161668874279979
807.0, 0.008194673768117288
808.0, 0.007570689353635811
809.0, 0.00769173671041439
810.0, 0.007391242593566584
811.0, 0.007478995941873215
812.0, 0.007486565346275816
813.0, 0.007347216213011674
814.0, 0.0072662020976437215
815.0, 0.007078504261524967
816.0, 0.006603448285787927
817.0, 0.006993036042927308
818.0, 0.007459275430320787
819.0, 0.006998903439634258
820.0, 0.006824285560745693
821.0, 0.006263914946448006
822.0, 0.005905213364825247
823.0, 0.006313752115929685
824.0, 0.006929362753315913
825.0, 0.006701167190452088
826.0, 0.008033168392125992
827.0, 0.006866873314947832
828.0, 0.005836676628698269
829.0, 0.005855458562417092
830.0, 0.0064511537801894055
831.0, 0.006565424992137366
832.0, 0.006430280654065752
833.0, 0.007211854066630451
834.0, 0.006723964094320164
835.0, 0.006333475138036751
836.0, 0.006564328889428936
837.0, 0.008146384184008147
838.0, 0.008815556783561275
839.0, 0.00884431644417911
840.0, 0.008914046550996205
841.0, 0.008976593401572103
842.0, 0.00924786282652434
843.0, 0.009146068573072708
844.0, 0.009545395361915942
845.0, 0.009378795895401765
846.0, 0.00913405366901299
847.0, 0.009241831419735294
848.0, 0.009435303324478207
849.0, 0.009582657815657335
850.0, 0.010067453671286725
851.0, 0.010546739468428304
852.0, 0.01139033959992489
853.0, 0.011697240614198993
854.0, 0.012621049272819939
855.0, 0.013081831282818061
856.0, 0.013347628187366288
857.0, 0.013658485008155913
858.0, 0.013934290252964164
859.0, 0.014358632475835034
860.0, 0.014239908698811015
861.0, 0.013272196407645627
862.0, 0.012858628830529066
863.0, 0.011921619232531301
864.0, 0.011071822299159546
865.0, 0.010264633680369579
866.0, 0.00963127788130875
867.0, 0.009226486037125668
868.0, 0.007694927852496425
869.0, 0.006484044133034931
870.0, 0.006085810416960491
871.0, 0.006740711441908772
872.0, 0.00632815780697731
873.0, 0.005646436269002078
874.0, 0.0055056656665974585
875.0, 0.005586842508792506
876.0, 0.005128156134344569
877.0, 0.004408723510204606
878.0, 0.0045910124862354315
879.0, 0.005448853419979996
880.0, 0.005256761389477658
881.0, 0.0046257658830731714
882.0, 0.004568968214426319
883.0, 0.004568460870539112
884.0, 0.003704471629126496
885.0, 0.0026057418535059503
886.0, 0.0031699611163325467
887.0, 0.0035750097040669025
888.0, 0.002418810481386275
889.0, 0.002247368796462424
890.0, 0.0021754852401495405
891.0, 0.00287342573602626
892.0, 0.0034880264736768516
893.0, 0.0030456775861476227
894.0, 0.0025374148041111995
895.0, 0.0020926438915768145
896.0, 0.003650028790613073
897.0, 0.0027329424429544916
898.0, 0.0020908127861926267
899.0, 0.002065187600009481
900.0, 0.0016195626711898602
901.0, 0.0014620668216833218
902.0, 0.0018002285054145913
903.0, 0.001139058353001733
904.0, 0.0023094367184144475
905.0, 0.0033180756655650794
906.0, 0.002424672960929868
907.0, 0.0022832637024507046
908.0, 0.0016227692874930056
909.0, 0.0009333181132707855
910.0, 0.0007865137933886374
911.0, 0.0009367158219872387
912.0, 0.0007659118338869675
913.0, 0.00012493498611015061
914.0, 0.0004138084669608993
915.0, 0.0006224914832070399
916.0, 0.0002519336217195825
917.0, 7.567696660797054e-05
918.0, 0.0006045181800333307
919.0, 0.0009260058592145319
920.0, 0.0008909181723050245
921.0, 0.0014037656981127965
922.0, 0.001123325258023807
923.0, 0.0008887225359626459
924.0, 0.0005255020583115092
925.0, 0.00014451688882313136
926.0, 0.00041577837362821436
927.0, 0.0003760811497561613
928.0, 0.00011961181687446155
929.0, 0.00023500762893770993
930.0, 0.0006184008067694875
931.0, 0.0005902526758241109
932.0, 0.00018181218856398225
933.0, 0.000414199593791683
934.0, 0.0007791123319799319
935.0, 0.00037149197410435875
936.0, 7.62681101698375e-05
937.0, 0.000126250490732911
938.0, 0.00021991821987285388
939.0, 0.00024195914302856827
940.0, 0.0004033590584712376
941.0, 0.0004978323832637701
942.0, 0.0007299308506859242
943.0, 0.0006212775855136777
944.0, 0.00022011279570966603
945.0, 0.0004082406038974645
946.0, 0.0003333407348750416
947.0, 0.0004037211409280158
948.0, 0.0010071732802732053
949.0, 0.001113935986265047
950.0, 0.0004837961788688689
951.0, 0.000933013998983169
952.0, 0.001234558038567475
953.0, 0.0012438706579802766
954.0, 0.0015217001165887924
955.0, 0.0015537298051388816
956.0, 0.0021512639925889182
957.0, 0.002204991123818117
958.0, 0.0009513882913916871
959.0, 0.0010624397117748514
960.0, 0.0003864965547722834
961.0, 0.0012374311174316822
962.0, 0.0018231071766604758
963.0, 0.002089378773036988
964.0, 0.002271499700143416
965.0, 0.002408936239266582
966.0, 0.0023394531393414447
967.0, 0.0020971061760289033
968.0, 0.0019596480065330107
969.0, 0.0018413013469750607
970.0, 0.0007868112937104038
971.0, 0.0019740569122750854
972.0, 0.0028930934060507514
973.0, 0.0025666708279810926
974.0, 0.003086068458025017
975.0, 0.0032405478898862856
976.0, 0.003718692482608094
977.0, 0.004978183511230737
978.0, 0.004861969027486954
979.0, 0.004925584021215282
980.0, 0.0054457760907535655
981.0, 0.004865819118202194
982.0, 0.0059041897238378835
983.0, 0.006602949110858067
984.0, 0.007846786940734422
985.0, 0.008644254099496769
986.0, 0.00897494354600553
987.0, 0.009330039321965897
988.0, 0.009042865234480375
989.0, 0.010107790226661618
990.0, 0.01021152105360555
991.0, 0.010558119268189526
992.0, 0.010186124151284037
993.0, 0.01060470000539972
994.0, 0.010916361418318157
995.0, 0.011914636087022366
996.0, 0.013895408004101445
997.0, 0.015996318022340878
998.0, 0.018270050922483003
999.0, 0.021375852737754986
1000.0, 0.022372633542303802
1001.0, 0.02322464351823878
1002.0, 0.022831321547247988
1003.0, 0.020245253693658993
1004.0, 0.018021775898166188
1005.0, 0.015971812965803193
1006.0, 0.013954208278106985
1007.0, 0.012939500766664377
1008.0, 0.012603724268696822
1009.0, 0.011928981074809565
1010.0, 0.011953725473128247
1011.0, 0.012336341713051145
1012.0, 0.01303420300342715
1013.0, 0.013406049066248744
1014.0, 0.013971732421202473
1015.0, 0.014677327919814616
1016.0, 0.015372815056120577
1017.0, 0.016059638021365303
1018.0, 0.01668355293627532
1019.0, 0.01738749182771154
1020.0, 0.01731393488105374
1021.0, 0.018336732586138223
1022.0, 0.017526580219672128
1023.0, 0.01856108811924183
1024.0, 0.01858420910901866
1025.0, 0.018535753760562556
1026.0, 0.018502141436565648
1027.0, 0.018196086316348045
1028.0, 0.018490474225218687
1029.0, 0.01778403028594476
1030.0, 0.0176128430673203
1031.0, 0.018519708681556602
1032.0, 0.018335435323628656
1033.0, 0.01948156328004432
1034.0, 0.019942806866616838
1035.0, 0.020274224458293476
1036.0, 0.020090151543023793
1037.0, 0.01974261397202711
1038.0, 0.020404990551161295
1039.0, 0.021031946549412067
1040.0, 0.021639382971111946
1041.0, 0.022817355820080487
1042.0, 0.021705394740197906
1043.0, 0.021819305665917752
1044.0, 0.023251669598637222
1045.0, 0.024557500940630878
1046.0, 0.024624256222588216
1047.0, 0.024610846690570374
1048.0, 0.02564282106408744
1049.0, 0.0260275088365801
1050.0, 0.024146047262950308
1051.0, 0.024959141767054382
1052.0, 0.025168150721876437
1053.0, 0.026164249091548377
1054.0, 0.026321995992448805
1055.0, 0.027073812851182065
1056.0, 0.027762451208506615
1057.0, 0.028215509218919667
1058.0, 0.029394622081216765
1059.0, 0.030512380994025413
1060.0, 0.02904559797595375
1061.0, 0.028854149191744005
1062.0, 0.031847827462289466
1063.0, 0.032193334470611644
1064.0, 0.03492698224444425
1065.0, 0.0353558071164024
1066.0, 0.03706783924438483
1067.0, 0.037381239117961707
1068.0, 0.03765932575865035
1069.0, 0.039752338907751504
1070.0, 0.0410386816618155
1071.0, 0.04134142095717848
1072.0, 0.042034604795426846
1073.0, 0.044475414924338444
1074.0, 0.045394583150124374
1075.0, 0.048705252744266
1076.0, 0.050691809567705935
1077.0, 0.051404095936725694
1078.0, 0.05273047761874254
1079.0, 0.054168622723307434
1080.0, 0.0552942791805573
1081.0, 0.05737269968020701
1082.0, 0.05866039152601831
1083.0, 0.0557006905527871
1084.0, 0.05846801909493342
1085.0, 0.059006340714312724
1086.0, 0.059534022005591464
1087.0, 0.061510076088639606
1088.0, 0.06115569799239089
1089.0, 0.06139868080380722
1090.0, 0.06265787392293982
1091.0, 0.06249319338512388
1092.0, 0.06165996972721535
1093.0, 0.06218889986597235
1094.0, 0.06272245404682009
1095.0, 0.06350168143949937
1096.0, 0.06338430081264217
1097.0, 0.06465232661036804
1098.0, 0.0646097299230108
1099.0, 0.06426786529757919
1100.0, 0.06505925122591136
1101.0, 0.06536279650254667
1102.0, 0.06476040491883138
1103.0, 0.06504880473011093
1104.0, 0.0654611377626593
1105.0, 0.06631491685717911
1106.0, 0.06503341409271743
1107.0, 0.06421362962335576
1108.0, 0.06392947908578522
1109.0, 0.0616941762689851
1110.0, 0.06152394934705391
1111.0, 0.06166464732902878
1112.0, 0.06052739366942045
1113.0, 0.05948319176954719
1114.0, 0.05948778071810408
1115.0, 0.05887821780297503
1116.0, 0.05725103205909939
1117.0, 0.05652717849059278
1118.0, 0.05520448736364416
1119.0, 0.05331257739615517
1120.0, 0.05253675589169554
1121.0, 0.0525366903026907
1122.0, 0.050741717062774395
1123.0, 0.04930359668984086
1124.0, 0.0485655185214205
1125.0, 0.04710574898047905
1126.0, 0.04543334811501759
1127.0, 0.04390117662021491
1128.0, 0.043764111365563324
1129.0, 0.04223541873120379
1130.0, 0.040022033291723665
1131.0, 0.03817007239433041
1132.0, 0.037746589830570866
1133.0, 0.0359111689532874
1134.0, 0.0348228693266758
1135.0, 0.03360212236354943
1136.0, 0.03247490742808733
1137.0, 0.031551388734159434
1138.0, 0.02866401043093418
1139.0, 0.028803878332775913
1140.0, 0.027247158457335937
1141.0, 0.026178306496651132
1142.0, 0.025158501673449234
1143.0, 0.023141002263930857
1144.0, 0.023406652472389135
1145.0, 0.021941636572713818
1146.0, 0.021200562518587564
1147.0, 0.021056919426899624
1148.0, 0.01959924722398586
1149.0, 0.01799167936168246
1150.0, 0.017625425235203603
1151.0, 0.016724875124775634
1152.0, 0.017471662069175664
1153.0, 0.016008100413178586
1154.0, 0.014448790056951152
1155.0, 0.01469782817237653
1156.0, 0.014261209089794133
1157.0, 0.013943756071461451
1158.0, 0.013364145200538063
1159.0, 0.012938639496884388
1160.0, 0.01235427500389381
1161.0, 0.011131635970964579
1162.0, 0.010306830383500788
1163.0, 0.008714088793110497
1164.0, 0.01004364044432512
1165.0, 0.008392698472066338
1166.0, 0.009454578729321334
1167.0, 0.007267210371170733
1168.0, 0.00785073487653073
1169.0, 0.007243491986566057
1170.0, 0.006049457836674519
1171.0, 0.005300510436481031
1172.0, 0.005088383614368733
1173.0, 0.005084144212736895
1174.0, 0.004611320316229638
1175.0, 0.004501526181362374
1176.0, 0.004435566898713146
1177.0, 0.004137486940889208
1178.0, 0.00431050090579709
1179.0, 0.004340285758871269
1180.0, 0.004013963560011262
1181.0, 0.003703119459399564
1182.0, 0.0031449944387065922
1183.0, 0.002818625286457181
1184.0, 0.0023931855159606235
1185.0, 0.001576690181226924
1186.0, 0.0013891376227053022
1187.0, 0.0020227358486190304
1188.0, 0.0017775302638389783
1189.0, 0.001244847227307152
1190.0, 0.000880663611875939
1191.0, 0.00038077550213327146
1192.0, 0.0003365517759447695
1193.0, 0.0004873839210557508
1194.0, 0.0002624465089981255
1195.0, 0.0004589182647773982
1196.0, 0.0006199499039313995
1197.0, 0.0003750467294283733
1198.0, 0.00022734994189886734
1199.0, 0.00019979614066951683
1200.0, 0.0003111646303263013
1201.0, 0.0004022919069983754
1202.0, 0.0005092252203053232
1203.0, 0.0008904493247063902
1204.0, 0.001304731668099548
1205.0, 0.001679615424538038
1206.0, 0.0007560924178386941
1207.0, 0.0006984513520424642
1208.0, 0.0006619544561884746
1209.0, 0.00027935875215255986
1210.0, 0.00014639559670459972
1211.0, 0.00020765985802505133
1212.0, 0.000328117078219902
1213.0, 0.0003573068350778137
1214.0, 0.0006454475300882625
1215.0, 0.0004844107194419434
1216.0, 0.001620109064024512
1217.0, 0.0005649886254024078
1218.0, 0.00015421281341305935
1219.0, 7.529759755586457e-05
1220.0, 0.0004778371894311921
1221.0, 0.0005346984977145528
1222.0, 0.0003487813690012689
1223.0, 0.00023402220037881024
1224.0, 0.0004820822776551217
1225.0, 0.0012558376941124068
1226.0, 0.0005662927035992065
1227.0, 0.0005621567588864496
1228.0, 0.000808376952334398
1229.0, 0.00026331839138317263
1230.0, 0.000107843594295143
1231.0, 9.660921658829528e-05
1232.0, 0.0015105030919395567
1233.0, 0.001726560860197428
1234.0, 0.002034045606183133
1235.0, 0.001332735085440817
1236.0, 0.0005593578081336581
1237.0, 0.0013681796376089409
1238.0, 0.0014836500694786208
1239.0, 0.001109827115718078
1240.0, 0.0013980215286234607
1241.0, 0.0009594160982475667
1242.0, 0.0019203433328124455
1243.0, 0.0020884247557599114
1244.0, 0.0027504444108903134
1245.0, 0.003294460828285336
1246.0, 0.002659350779193925
1247.0, 0.0026636933869988934
1248.0, 0.0025051867750529922
1249.0, 0.0015300060004827406
1250.0, 0.0016804329922051652
1251.0, 0.0032779029985838854
1252.0, 0.0031451042398992204
1253.0, 0.0015242922880494743
1254.0, 0.0012464870260854868
1255.0, 0.002597555668334901
1256.0, 0.00290420655744045
1257.0, 0.0019510046387234315
1258.0, 0.002210079393974506
1259.0, 0.0029599673023055586
1260.0, 0.0025264314717287906
1261.0, 0.002716142916513892
1262.0, 0.0029802767807834735
1263.0, 0.003316370756966764
1264.0, 0.0041518247619752886
1265.0, 0.004446654165181119
1266.0, 0.004158197271081668
1267.0, 0.004134563954839035
1268.0, 0.0056362715189543664
1269.0, 0.004093697385682721
1270.0, 0.005303227927569635
1271.0, 0.004285296376933201
1272.0, 0.0051638180028146475
1273.0, 0.00535146530315577
1274.0, 0.00657510285493351
1275.0, 0.006092681021138512
1276.0, 0.005014766274825173
1277.0, 0.004990066377210231
1278.0, 0.005204501677059267
1279.0, 0.005062288132445669
1280.0, 0.005038078438827683
1281.0, 0.0051993996211751525
1282.0, 0.004982059406545257
1283.0, 0.004008495074725353
1284.0, 0.004926797824756097
1285.0, 0.00483501668057037
1286.0, 0.004510247044020788
1287.0, 0.005110167405659365
1288.0, 0.0049522304408257155
1289.0, 0.004793149035405058
1290.0, 0.005048136559485935
1291.0, 0.005967126353395749
1292.0, 0.006517866556943857
1293.0, 0.006116283005397472
1294.0, 0.006307807078033855
1295.0, 0.006748467194300532
1296.0, 0.005647855305425418
1297.0, 0.00688890510618645
1298.0, 0.007304427992107588
1299.0, 0.006800449622051994
1300.0, 0.0071616188817125725
1301.0, 0.006972232430171381
1302.0, 0.0071486570073292215
1303.0, 0.007669005592399725
1304.0, 0.007247891341661575
1305.0, 0.006872912008815182
1306.0, 0.0076849157697468935
1307.0, 0.008558167703367446
1308.0, 0.008987532994390519
1309.0, 0.010190326361141058
1310.0, 0.010853961869929978
1311.0, 0.010392415115751577
1312.0, 0.009538180505816804
1313.0, 0.008455311805614953
1314.0, 0.008876405838271671
1315.0, 0.009181257554615357
1316.0, 0.009920158467204298
1317.0, 0.00960880573058428
1318.0, 0.008793171769285436
1319.0, 0.00920535701661186
1320.0, 0.00950241164538881
1321.0, 0.00853475439565915
1322.0, 0.007476497253931706
1323.0, 0.0075308885225057005
1324.0, 0.0077126223161677904
1325.0, 0.006632776392556418
1326.0, 0.00637040214621212
1327.0, 0.006651229010497051
1328.0, 0.005999150006134127
1329.0, 0.005737533010760798
1330.0, 0.004630719914872508
1331.0, 0.004247660801557876
1332.0, 0.003900951339382352
1333.0, 0.0038770772035927395
1334.0, 0.003257627555264694
1335.0, 0.003299810076631455
1336.0, 0.003801980900041108
1337.0, 0.0043008597742955415
1338.0, 0.004063429624183564
1339.0, 0.0028846828490078037
1340.0, 0.00295444418753652
1341.0, 0.00340606184327608
1342.0, 0.002847064704242799
1343.0, 0.002888273272391768
1344.0, 0.002764968652189322
1345.0, 0.004533147607012159
1346.0, 0.002854072073395867
1347.0, 0.003995007864702717
1348.0, 0.0037999990048778946
1349.0, 0.003481310069700977
1350.0, 0.003500066945759695
1351.0, 0.0030412426129654132
1352.0, 0.002382054292513478
1353.0, 0.0017318803148835056
1354.0, 0.0016217012879523372
1355.0, 0.002521992192031938
1356.0, 0.0031094033068295025
1357.0, 0.003370318576496922
1358.0, 0.0028232964107900824
1359.0, 0.0032494817981451518
1360.0, 0.0017427042454779369
1361.0, 0.0024266450836655166
1362.0, 0.0020619649204887654
1363.0, 0.001944650345376858
1364.0, 0.002109234746593479
1365.0, 0.0018923727511251558
1366.0, 0.0018845612753477243
1367.0, 0.0018611030315437366
1368.0, 0.0019214575822389549
1369.0, 0.002455472523413259
1370.0, 0.0030153858492370945
1371.0, 0.003186704692740266
1372.0, 0.0036257683593727474
1373.0, 0.00415484749803581
1374.0, 0.0034931511699672468
1375.0, 0.004211394905941408
1376.0, 0.003939187131266866
1377.0, 0.004388350713741913
1378.0, 0.00431965162348891
1379.0, 0.005380601717336126
1380.0, 0.004759466411952393
1381.0, 0.0035632036891077717
1382.0, 0.004863235125115615
1383.0, 0.005090095047268764
1384.0, 0.00468551679607808
1385.0, 0.004737774308578804
1386.0, 0.004719324776127249
1387.0, 0.004937864592700695
1388.0, 0.005444571132041453
1389.0, 0.00500025769292299
1390.0, 0.004016536248544494
1391.0, 0.003103277040991613
1392.0, 0.0026954019013857595
1393.0, 0.003824842475536313
1394.0, 0.0038484023288736825
1395.0, 0.0032745425441785317
1396.0, 0.004368537024768227
1397.0, 0.0032476741780007334
1398.0, 0.002864919014278629
1399.0, 0.0031158760600092468
1400.0, 0.0037051347633885396
1401.0, 0.0037555369500955043
1402.0, 0.00340818955671767
1403.0, 0.004478648787230299
1404.0, 0.00479876954367729
1405.0, 0.0037905262114365504
1406.0, 0.004323599135382424
1407.0, 0.0033063117822577683
1408.0, 0.003634041588303337
1409.0, 0.004410947298722822
1410.0, 0.004691214069691673
1411.0, 0.00449905430668652
1412.0, 0.004283035661921441
1413.0, 0.0034674983101937976
1414.0, 0.0031651890875396124
1415.0, 0.0030676723833358704
1416.0, 0.003025890672109175
1417.0, 0.0029781480952722973
1418.0, 0.0021454546967391535
1419.0, 0.0015397430455045534
1420.0, 0.0016076306549312428
1421.0, 0.002095763029141923
1422.0, 0.002164710751389552
1423.0, 0.0018117130207211413
1424.0, 0.002184890724744095
1425.0, 0.002681355816922998
1426.0, 0.003056937646166968
1427.0, 0.004076353372064646
1428.0, 0.004180194958235134
1429.0, 0.0032329111766956245
1430.0, 0.005590775645093829
1431.0, 0.004027992695375824
1432.0, 0.003921463469086316
1433.0, 0.006451845099369989
1434.0, 0.005662737809307797
1435.0, 0.006409635802827012
1436.0, 0.008486524306546705
1437.0, 0.009344128464294759
1438.0, 0.009456865735167715
1439.0, 0.009731675551462697
1440.0, 0.010738779868914779
1441.0, 0.012638846119049741
1442.0, 0.014114494956412683
1443.0, 0.014647149425023803
1444.0, 0.01536853187607644
1445.0, 0.014999926648688147
1446.0, 0.015286973863005666
1447.0, 0.015963514209727338
1448.0, 0.016131084467832055
1449.0, 0.017567579207382496
1450.0, 0.017035817109512026
1451.0, 0.016995838033056904
1452.0, 0.017370974744374858
1453.0, 0.018998015922844277
1454.0, 0.01915295877425494
1455.0, 0.018878201197415304
1456.0, 0.0186557085117457
1457.0, 0.01829575565395845
1458.0, 0.017872340723799063
1459.0, 0.017108403194039428
1460.0, 0.01593520602079465
1461.0, 0.014552180515982775
1462.0, 0.01337239810204051
1463.0, 0.013272061728040208
1464.0, 0.012884894813675257
1465.0, 0.010731501380834441
1466.0, 0.0100726423031709
1467.0, 0.010390974252313136
1468.0, 0.009534321485937594
1469.0, 0.00866018968510341
1470.0, 0.008247836304370978
1471.0, 0.00683568641902413
1472.0, 0.006479268894167879
1473.0, 0.007358890267725404
1474.0, 0.007630809695509566
1475.0, 0.0065631674230617314
1476.0, 0.0063435396695090815
1477.0, 0.006176415739297509
1478.0, 0.006255661925400694
1479.0, 0.006268406434057136
1480.0, 0.0059285864773401
1481.0, 0.0056825865799369065
1482.0, 0.005338248479978388
1483.0, 0.005356648217696587
1484.0, 0.00494635501549057
1485.0, 0.004262834075289844
1486.0, 0.003463220851479643
1487.0, 0.0036451193436247975
1488.0, 0.0025732869226791884
1489.0, 0.0019438455134237894
1490.0, 0.0023559843096743506
1491.0, 0.0017189810606092677
1492.0, 0.0024650143653252698
1493.0, 0.0019720010339563483
1494.0, 0.0017334473095697927
1495.0, 0.0005779047530630283
1496.0, 0.0007133068129012172
1497.0, 0.0007936953149089508
1498.0, 0.00041920657867814754
1499.0, 0.00020941083574693362
1500.0, 0.00017898039228799568
1501.0, 0.00010556449936167126
1502.0, 0.0003134196311779436
1503.0, 0.000563166561126366
1504.0, 0.0003201610530212127
1505.0, 0.000809779386839324
1506.0, 0.0005946345355316737
1507.0, 4.121294874841227e-05
1508.0, 6.176705706686681e-05
1509.0, 0.0003263307719131845
1510.0, 6.45073893021412e-05
1511.0, 0.0011067637652223746
1512.0, 0.0006188774327254378
1513.0, 8.659306415999973e-05
1514.0, 0.0016839043392002239
1515.0, 0.0006146121403457665
1516.0, 0.0007463824707605467
1517.0, 0.0012169096767885995
1518.0, 0.000621381367378239
1519.0, 0.0010331358466664341
1520.0, 0.0010137969984310158
1521.0, 0.0008815008057562441
1522.0, 0.0014142609941008258
1523.0, 0.0017650783080502598
1524.0, 0.0018148608780108914
1525.0, 0.0020398001044315776
1526.0, 0.00269655470139219
1527.0, 0.003412353940851168
1528.0, 0.0035520939213959553
1529.0, 0.003967482440418592
1530.0, 0.004172864041174731
1531.0, 0.004143629434795158
1532.0, 0.003602174650088408
1533.0, 0.003460864512141901
1534.0, 0.0030903884683766104
1535.0, 0.0020317367867502497
1536.0, 0.0020741192405592905
1537.0, 0.0019147093319577197
1538.0, 0.0018926605824048657
1539.0, 0.0012096274488870705
1540.0, 0.0012044555561907006
1541.0, 0.0009814028085900165
1542.0, 0.000903917061916081
1543.0, 0.0016711795203341237
1544.0, 0.0016604424717625067
1545.0, 0.0013426165984645635
1546.0, 0.0014087222040850172
1547.0, 0.0011802507160798672
1548.0, 0.001264800834298534
1549.0, 0.0016179873401205589
1550.0, 0.0011010322193645149
1551.0, 0.0007251587532726745
1552.0, 0.0015116320080304471
1553.0, 0.0024503642880821506
1554.0, 0.00225139768418279
1555.0, 0.0022493728313315825
1556.0, 0.0011082927722280002
1557.0, 0.0023337125791602163
1558.0, 0.0027886738050946435
1559.0, 0.000516860564548744
1560.0, 0.0013006922398078819
1561.0, 0.0002364257188534913
1562.0, 0.0010827938293970002
1563.0, 0.000826067765829045
1564.0, 0.0002970170731306352
1565.0, 4.9049487468016945e-05
1566, 0.0
1567, 0.0
1568, 0.0
1569, 0.0
1570, 0.0
1571, 0.0
1572, 0.0
1573, 0.0
1574, 0.0
1575, 0.0
1576, 0.0
1577, 0.0
1578, 0.0
1579, 0.0
1580, 0.0
1581, 0.0
1582, 0.0
1583, 0.0
1584, 0.0
1585, 0.0
1586, 0.0
1587, 0.0
1588, 0.0
1589, 0.0
1590, 0.0
1591, 0.0
1592, 0.0
1593, 0.0
1594, 0.0
1595, 0.0
1596, 0.0
1597, 0.0
1598, 0.0
1599, 0.0
