30, 0.0
31, 0.0
32, 0.0
33, 0.0
34, 0.0
35, 0.0
36, 0.0
37, 0.0
38, 0.0
39, 0.0
40, 0.0
41, 0.0
42, 0.0
43, 0.0
44, 0.0
45, 0.0
46, 0.0
47, 0.0
48, 0.0
49, 0.0
50, 0.0
51, 0.0
52, 0.0
53, 0.0
54, 0.0
55, 0.0
56, 0.0
57, 0.0
58, 0.0
59, 0.0
60, 0.0
61, 0.0
62, 0.0
63, 0.0
64, 0.0
65, 0.0
66, 0.0
67, 0.0
68, 0.0
69, 0.0
70, 0.0
71, 0.0
72, 0.0
73, 0.0
74, 0.0
75, 0.0
76, 0.0
77, 0.0
78, 0.0
79, 0.0
80, 0.0
81, 0.0
82, 0.0
83, 0.0
84, 0.0
85, 0.0
86, 0.0
87, 0.0
88, 0.0
89, 0.0
90, 0.0
91, 0.0
92, 0.0
93, 0.0
94, 0.0
95, 0.0
96, 0.0
97, 0.0
98, 0.0
99, 0.0
100, 0.0
101, 0.0
102.0, 0.00029523450523349145
103.0, 0.0028942262109607746
104.0, 0.0071309443248037995
105.0, 0.012176250605930517
106.0, 0.02032016973422389
107.0, 0.03064431825152387
108.0, 0.03558543325481917
109.0, 0.039248647048600795
110.0, 0.04459328005947192
111.0, 0.048372331190916384
112.0, 0.05105547409984098
113.0, 0.05629678043135303
114.0, 0.06022677347921633
115.0, 0.06130032602660167
116.0, 0.06108162222130401
117.0, 0.0633158417021252
118.0, 0.06320383061298752
119.0, 0.06393667331613666
120.0, 0.06522316609244351
121.0, 0.06530917189282447
122.0, 0.06721484066378541
123.0, 0.06850702636703257
124.0, 0.06835971560195458
125.0, 0.06831422405090845
126.0, 0.06977028154881597
127.0, 0.07138448179698136
128.0, 0.07384387234733095
129.0, 0.07455678154835897
130.0, 0.0742564835980525
131.0, 0.07235417242295081
132.0, 0.06558310328786492
133.0, 0.0683801868009618
134.0, 0.0654022773357146
135.0, 0.061900971517288524
136.0, 0.059728034401384626
137.0, 0.057603052599634025
138.0, 0.05278056829058587
139.0, 0.05131240956250499
140.0, 0.049944324724683
141.0, 0.04676619719826298
142.0, 0.04117666379537578
143.0, 0.03579557559111693
144.0, 0.03471370030080634
145.0, 0.035348779392234894
146.0, 0.03505810580988227
147.0, 0.032583427182373795
148.0, 0.029147847413849563
149.0, 0.030078662617443575
150.0, 0.028650186594992223
151.0, 0.027187846440756086
152.0, 0.0264217197732651
153.0, 0.025744825880438162
154.0, 0.026274144955038124
155.0, 0.027879248379356573
156.0, 0.02811813204412473
157.0, 0.027464844130251454
158.0, 0.02677491847040417
159.0, 0.024537523835249184
160.0, 0.02447869009059489
161.0, 0.02394923936997619
162.0, 0.02341063052464263
163.0, 0.02384239660390329
164.0, 0.026339779311466742
165.0, 0.02611521738755545
166.0, 0.026320803169878428
167.0, 0.02672834913970289
168.0, 0.026107556193314216
169.0, 0.024208071058976145
170.0, 0.03226434152138929
171.0, 0.03105432023844639
172.0, 0.028740822139215756
173.0, 0.02967135116296462
174.0, 0.033723447691349495
175.0, 0.03230441467050922
176.0, 0.033545374449705304
177.0, 0.035137406405495154
178.0, 0.037064523114801434
179.0, 0.038549353971500964
180.0, 0.0382254236468885
181.0, 0.03726632027579618
182.0, 0.03940814489369
183.0, 0.04185279019463235
184.0, 0.045064815699329686
185.0, 0.049391455614909166
186.0, 0.050618173248686
187.0, 0.05328306060661243
188.0, 0.056138431734450864
189.0, 0.0607139142409355
190.0, 0.06638068023769729
191.0, 0.06967991079179406
192.0, 0.07275085674148155
193.0, 0.07558639644868985
194.0, 0.07969126858367998
195.0, 0.08474841780973391
196.0, 0.08982707095749244
197.0, 0.0953765549742319
198.0, 0.09753055126200587
199.0, 0.09920552688654236
200.0, 0.10332058945185792
201.0, 0.10846057058702192
202.0, 0.10721550425064175
203.0, 0.10979909649002517
204.0, 0.10871579152758636
205.0, 0.10965258193991444
206.0, 0.11137959743348419
207.0, 0.11022674965343389
208.0, 0.10997692432246185
209.0, 0.10827151283566605
210.0, 0.1057179274693771
211.0, 0.10452372959331317
212.0, 0.10427342764028029
213.0, 0.10027788234872168
214.0, 0.09587207584735405
215.0, 0.09061139061221095
216.0, 0.08456255973555193
217.0, 0.07740517552784949
218.0, 0.06938779181540514
219.0, 0.06458886481782776
220.0, 0.05955640108199431
221.0, 0.05310707604367905
222.0, 0.047427636394346676
223.0, 0.04300069476574085
224.0, 0.03724361559968852
225.0, 0.0340208509893521
226.0, 0.02889261883837503
227.0, 0.025456702694633456
228.0, 0.02371774481850702
229.0, 0.021924243907576926
230.0, 0.018659156294144365
231.0, 0.01643556647200616
232.0, 0.015986290934806514
233.0, 0.015206552567908602
234.0, 0.012572908058387398
235.0, 0.00815087717146283
236.0, 0.008964655870491408
237.0, 0.005732083631310678
238.0, 0.0037974041207502157
239.0, 0.0039356186961915585
240.0, 0.004619051392172368
241.0, 0.002862966186400863
242.0, 0.0009061997937518754
243.0, 0.0008674686992232246
244.0, 0.0010126505376530264
245.0, 0.0006230281765559168
246.0, 0.00019912558632635208
247.0, 0.0003837014859512693
248.0, 0.00021809307556262418
249.0, 0.0005249696914511086
250.0, 0.0008317191377871894
251.0, 0.0008682211020894772
252.0, 0.0013817322369277228
253.0, 0.0009248188976764948
254.0, 0.0008119157715577791
255.0, 0.0006784461331367698
256.0, 0.0006146659797456182
257.0, 0.0009270633599977524
258.0, 0.0016391283111543706
259.0, 0.0028304674216039646
260.0, 0.0014357911996650129
261.0, 0.0003718984959517334
262.0, 0.0009598464914218041
263.0, 0.0015931956978396788
264.0, 0.0011963499031445144
265.0, 0.0017711383508154806
266.0, 0.003905624304910061
267.0, 0.005319687331773746
268.0, 0.004706113518074248
269.0, 0.005293163128365165
270.0, 0.005172663705236794
271.0, 0.0041847960722372615
272.0, 0.003937099377455694
273.0, 0.004369688160291312
274.0, 0.004548261050557989
275.0, 0.005203791829916614
276.0, 0.005618062638272094
277.0, 0.005702940959104763
278.0, 0.005740073401152475
279.0, 0.005991273308335651
280.0, 0.006360550674527659
281.0, 0.002832671202572231
282.0, 0.004537858597023138
283.0, 0.00433041854839348
284.0, 0.0031946614375159632
285.0, 0.0035146031306038297
286.0, 0.004940522767459038
287.0, 0.0035662553050731876
288.0, 0.00319049580572064
289.0, 0.002703467728764024
290.0, 0.0023226569576668774
291.0, 0.002585472779674184
292.0, 0.002022615387475819
293.0, 0.0006472398765310706
294.0, 0.0003773993477403921
295.0, 0.0009318059150598559
296.0, 0.0014217361110003051
297.0, 0.0009657144967422381
298.0, 0.0011199551366613575
299.0, 0.0030928507726504617
300.0, 0.002613069726691284
301.0, 0.0021216779930574256
302.0, 0.0034524837293359303
303.0, 0.005214429454862418
304.0, 0.00391874208617225
305.0, 0.006205519214145652
306.0, 0.006879704055431406
307.0, 0.006479369458393336
308.0, 0.007049667827731225
309.0, 0.009006358028230257
310.0, 0.008108400498731643
311.0, 0.01009728647361358
312.0, 0.012064875825213192
313.0, 0.012830162767169067
314.0, 0.01282884318093383
315.0, 0.01391480151969935
316.0, 0.01595579722140459
317.0, 0.016469724337770282
318.0, 0.017742292791309334
319.0, 0.020156855042252026
320.0, 0.02231596589621835
321.0, 0.023705077496946343
322.0, 0.02617303548300936
323.0, 0.028487118330322758
324.0, 0.029091147743196346
325.0, 0.028203213031459347
326.0, 0.028046274584347428
327.0, 0.031016643001875725
328.0, 0.030185880234348476
329.0, 0.030290139603015652
330.0, 0.028743718574033895
331.0, 0.025341045587017892
332.0, 0.025371337299760266
333.0, 0.024943595932674638
334.0, 0.021001967588312954
335.0, 0.01804105812627748
336.0, 0.017115097301356356
337.0, 0.017178284735524366
338.0, 0.01567030892557291
339.0, 0.013404326384266434
340.0, 0.014337523893455393
341.0, 0.01370208094970007
342.0, 0.011905815878110803
343.0, 0.010893245800150548
344.0, 0.01059954208791503
345.0, 0.010431464059209002
346.0, 0.010521856632248323
347.0, 0.011253869012862544
348.0, 0.01207786981973584
349.0, 0.012400480254844307
350.0, 0.012962553693167093
351.0, 0.014281942171080642
352.0, 0.015129632583867257
353.0, 0.01659466562413917
354.0, 0.018071624209888223
355.0, 0.018965493642475097
356.0, 0.022775585946465948
357.0, 0.02116483420193158
358.0, 0.020897403269286664
359.0, 0.0232825720015957
360.0, 0.026987404330111913
361.0, 0.029464569735275146
362.0, 0.029677846274464
363.0, 0.02942408035774715
364.0, 0.03002232201349004
365.0, 0.028977075176657777
366.0, 0.027975111071828016
367.0, 0.03000390095554801
368.0, 0.027955904936274697
369.0, 0.029457211243644563
370.0, 0.028765626378255194
371.0, 0.02545487357831633
372.0, 0.022552618113092407
373.0, 0.02323656931401757
374.0, 0.020550400566901796
375.0, 0.018979838040975226
376.0, 0.020023489573670967
377.0, 0.019617281896222746
378.0, 0.018880357495548252
379.0, 0.021329353309725105
380.0, 0.01774581605410054
381.0, 0.01818137763021895
382.0, 0.02006208372215656
383.0, 0.020349764127429247
384.0, 0.01970324261028295
385.0, 0.020823542482641646
386.0, 0.02081249844358518
387.0, 0.02184618437523711
388.0, 0.022304712558379975
389.0, 0.022063412139803305
390.0, 0.022966933405839392
391.0, 0.025972359674795012
392.0, 0.02182131931468509
393.0, 0.025843434926781435
394.0, 0.028493061521133976
395.0, 0.029874621894332192
396.0, 0.03183607371150206
397.0, 0.03490992388753579
398.0, 0.03211517521391487
399.0, 0.03599992080105087
400.0, 0.03896329997508876
401.0, 0.04086940639566639
402.0, 0.04341477275501979
403.0, 0.04813152663762274
404.0, 0.053222697865620484
405.0, 0.05829210268528374
406.0, 0.06198400419156244
407.0, 0.0662767403582084
408.0, 0.07259868377997494
409.0, 0.0803500824672479
410.0, 0.0848492931589187
411.0, 0.0942349064796666
412.0, 0.1031841320112918
413.0, 0.11521798040188438
414.0, 0.12912441105879974
415.0, 0.1434088348640813
416.0, 0.161927844952592
417.0, 0.18254634552509785
418.0, 0.20567302369165638
419.0, 0.23091519398100616
420.0, 0.25879829191673104
421.0, 0.28981741997678423
422.0, 0.3235940191650611
423.0, 0.3582302251608492
424.0, 0.391906240597632
425.0, 0.42781490444070636
426.0, 0.4606232741576334
427.0, 0.48470421889240994
428.0, 0.4989408001185345
429.0, 0.5068490879005654
430.0, 0.5005666692959041
431.0, 0.4812709035738117
432.0, 0.45181931113820845
433.0, 0.41608637514693053
434.0, 0.377765484898624
435.0, 0.3378060193798169
436.0, 0.29570246005111217
437.0, 0.2603247578219301
438.0, 0.2283811735271294
439.0, 0.19922741507331954
440.0, 0.1749979695364483
441.0, 0.15256726568524712
442.0, 0.13714663301160798
443.0, 0.11725713508462747
444.0, 0.101458360140117
445.0, 0.09185710178855855
446.0, 0.08498215683462038
447.0, 0.07735532650382133
448.0, 0.06930762448843093
449.0, 0.062484619196470775
450.0, 0.055721054114460315
451.0, 0.04976381717246198
452.0, 0.04553290586796587
453.0, 0.04244802392944631
454.0, 0.0378031336793751
455.0, 0.034423741865074006
456.0, 0.031041373155145456
457.0, 0.028556719473250128
458.0, 0.026699792003345962
459.0, 0.023791226434739486
460.0, 0.025002670104766672
461.0, 0.019858414486678178
462.0, 0.019075249580699467
463.0, 0.019565003934332702
464.0, 0.018014904856866763
465.0, 0.014497138556834887
466.0, 0.01464461919971103
467.0, 0.013752850265528242
468.0, 0.01104073922928461
469.0, 0.01131818845550119
470.0, 0.012515329527426568
471.0, 0.011982218039627353
472.0, 0.014730322613626553
473.0, 0.01051611158508195
474.0, 0.011473551439207275
475.0, 0.010046400555999705
476.0, 0.007743864509539201
477.0, 0.0073782968661240626
478.0, 0.008633142424554204
479.0, 0.007686165716197215
480.0, 0.0075952080774898635
481.0, 0.007422907548004623
482.0, 0.00654326661061131
483.0, 0.005736017117373608
484.0, 0.006046730845140971
485.0, 0.005338645140600173
486.0, 0.005318168792016164
487.0, 0.00517814760301949
488.0, 0.0059416044521363506
489.0, 0.00567716644214066
490.0, 0.0036823088926328158
491.0, 0.004164200048426644
492.0, 0.003775576061535607
493.0, 0.0058844982641862095
494.0, 0.005153273085299723
495.0, 0.004570016508914036
496.0, 0.00562397084163356
497.0, 0.005981849743415712
498.0, 0.005726510748692724
499.0, 0.006265044103720391
500.0, 0.006379214567714048
501.0, 0.0065326095543040905
502.0, 0.006780865915419532
503.0, 0.007095724596654858
504.0, 0.00809459662426991
505.0, 0.009119738998698146
506.0, 0.010721124988521392
507.0, 0.011368306677336196
508.0, 0.011744169485313118
509.0, 0.01310394507568478
510.0, 0.015650836856279698
511.0, 0.014596896063807931
512.0, 0.017905468830022683
513.0, 0.01867694759638879
514.0, 0.019375672229624257
515.0, 0.020950252396243277
516.0, 0.022782430164409697
517.0, 0.02505411241666232
518.0, 0.025739068489042748
519.0, 0.025538632614497462
520.0, 0.027283102648792686
521.0, 0.028141185105358502
522.0, 0.027327515637343102
523.0, 0.02789548624645649
524.0, 0.026095016995419756
525.0, 0.02684218730959323
526.0, 0.026600761960210533
527.0, 0.025391507296550268
528.0, 0.023938043300651926
529.0, 0.02280123907591236
530.0, 0.02164963968106182
531.0, 0.01695965203935302
532.0, 0.015326819921556298
533.0, 0.01473120479594362
534.0, 0.013920699574938165
535.0, 0.01311639155970784
536.0, 0.01333906829470186
537.0, 0.013119509036254222
538.0, 0.010152439380859647
539.0, 0.009502923826026952
540.0, 0.00919850714572027
541.0, 0.00875616516342748
542.0, 0.00809772447198597
543.0, 0.0061845380208685
544.0, 0.004086487542405801
545.0, 0.0047598808259324416
546.0, 0.004141707417000856
547.0, 0.003987803992085871
548.0, 0.004103515656352503
549.0, 0.00351716197363889
550.0, 0.006386015929835117
551.0, 0.005083730822008942
552.0, 0.004781508914367693
553.0, 0.004043764490596398
554.0, 0.004385611163741319
555.0, 0.0054438658386508085
556.0, 0.0046193321258539335
557.0, 0.0068024994586167314
558.0, 0.008835445591143484
559.0, 0.008118573642074047
560.0, 0.00820535156553865
561.0, 0.009674696511726557
562.0, 0.01150364529897232
563.0, 0.013298982291875401
564.0, 0.012246721519487377
565.0, 0.013078465153555319
566.0, 0.015089082697820725
567.0, 0.017322627875376098
568.0, 0.019226234911444394
569.0, 0.020849095213373872
570.0, 0.022689682350518613
571.0, 0.02132623791659198
572.0, 0.02270916759420438
573.0, 0.021966173624539734
574.0, 0.021540702159269145
575.0, 0.021757610953446044
576.0, 0.01927836471307106
577.0, 0.014068125144917308
578.0, 0.01111188983447608
579.0, 0.009880154535208565
580.0, 0.009533929059195444
581.0, 0.007468399882272467
582.0, 0.004069244288818847
583.0, 0.0034274273438229166
584.0, 0.0030480045382179416
585.0, 0.0021031777410777776
586.0, 0.0013473026547534133
587.0, 0.002868616173610212
588.0, 0.003950905736660188
589.0, 0.0035892009942019034
590.0, 0.0065568671733123975
591.0, 0.005233789009149733
592.0, 0.00637686697910503
593.0, 0.004697106585654658
594.0, 0.004654329752319764
595.0, 0.006485561457486966
596.0, 0.007992284784926472
597.0, 0.00961679743505368
598.0, 0.011087445156463389
599.0, 0.011868441912670216
600.0, 0.012288937465006427
601.0, 0.01474095324262043
602.0, 0.01700575257661657
603.0, 0.016713427066772306
604.0, 0.019457308462089217
605.0, 0.023005717048440726
606.0, 0.025975883109999695
607.0, 0.029110415874192032
608.0, 0.03178696280843055
609.0, 0.03495409413484691
610.0, 0.03980372669725077
611.0, 0.044184368872530896
612.0, 0.049240142534718555
613.0, 0.05649503816620147
614.0, 0.0662991634199188
615.0, 0.07653060079213587
616.0, 0.08832298594318869
617.0, 0.10386935417565403
618.0, 0.11879760391617603
619.0, 0.13869830398766708
620.0, 0.1605245848201236
621.0, 0.1851209409605209
622.0, 0.21394213626374167
623.0, 0.24498074986072432
624.0, 0.27626111818782195
625.0, 0.31495010921111244
626.0, 0.35257926031546327
627.0, 0.38001758808993874
628.0, 0.4005334752368112
629.0, 0.4106804570288415
630.0, 0.40789369090298944
631.0, 0.39045285624839643
632.0, 0.3525376625271063
633.0, 0.32741431690375716
634.0, 0.27159627639856315
635.0, 0.2229558833087015
636.0, 0.18425726691494848
637.0, 0.1510082319216825
638.0, 0.12231752392439268
639.0, 0.10060297670331837
640.0, 0.08191091623426926
641.0, 0.06936429564098075
642.0, 0.057739988454504634
643.0, 0.048119508592457255
644.0, 0.04077268857780618
645.0, 0.03430532799160836
646.0, 0.028101305400897943
647.0, 0.024501087312035666
648.0, 0.021617334266106465
649.0, 0.019330521056902316
650.0, 0.017270032604565017
651.0, 0.015357079630967276
652.0, 0.013336443164619146
653.0, 0.01043714403141723
654.0, 0.009970552685284262
655.0, 0.011015674059443537
656.0, 0.009023134832871664
657.0, 0.00822519108646707
658.0, 0.008201830271742346
659.0, 0.007272046943517854
660.0, 0.007457293863318664
661.0, 0.006082150739596393
662.0, 0.005537179182929337
663.0, 0.004201831350241728
664.0, 0.0039389896146680425
665.0, 0.00422419803514539
666.0, 0.004179576345357501
667.0, 0.003861894440687125
668.0, 0.0003993153416056148
669.0, 0.0007589723988462874
670.0, 0.0012764337725124362
671.0, 0.0019893667092810677
672.0, 0.0025528717874977
673.0, 0.0024179476969187264
674.0, 0.0017619975651662488
675.0, 0.0030044560176597053
676.0, 0.0021716646843981196
677.0, 0.0018439166503549853
678.0, 0.002183248702798083
679.0, 0.0019983561036802503
680.0, 0.0022242481366691017
681.0, 0.00343039515092859
682.0, 0.0010594714538359467
683.0, 0.0012783293485040806
684.0, 0.0019537931542735146
685.0, 0.0017600377691028778
686.0, 0.0023523750790735414
687.0, 0.002198073491801884
688.0, 0.0007097141753473425
689.0, 0.0016098898732767714
690.0, 0.0007064147360307994
691.0, 0.002218456170740795
692.0, 0.0022841720459559293
693.0, 0.0018268153774426618
694.0, 0.001518819255648205
695.0, 0.0014497591218673252
696.0, 0.0014308670785021344
697.0, 0.0015192718156020228
698.0, 0.0017234592557824214
699.0, 0.0012463663533985943
700.0, 0.0007345141891473027
701.0, 0.0003332711680229177
702.0, 0.0003991689269332714
703.0, 0.0009159860893536818
704.0, 0.0006591461664141713
705.0, 0.0006572921908204229
706.0, 0.000567262382416939
707.0, 0.00046096526066041434
708.0, 0.000580939116299242
709.0, 0.0006475979933728638
710.0, 0.0004688342793687393
711.0, 0.0006011094245132346
712.0, 0.0025199517644556766
713.0, 0.0006270162801664225
714.0, 0.0007158780232338327
715.0, 0.0018352622799299905
716.0, 0.0022294085421792017
717.0, 0.0014383011950031815
718.0, 0.0006731263728451036
719.0, 0.001497909606312927
720.0, 0.0011423919260199636
721.0, 0.0002537603807852337
722.0, 9.408329364200658e-05
723.0, 0.0014053618276109114
724.0, 0.0026777232434742164
725.0, 0.002446684557280719
726.0, 0.0012638673956133473
727.0, 0.0007874568642439223
728.0, 0.0007584158221481055
729.0, 0.0006479797383094537
730.0, 0.0007221316069818807
731.0, 0.0011427490799830985
732.0, 0.0017029234253830132
733.0, 0.0021701902310612468
734.0, 0.0027663125754537896
735.0, 0.0031341595741718573
736.0, 0.0027399447060894836
737.0, 0.003197821053282409
738.0, 0.0032532636635230257
739.0, 0.003515603547639034
740.0, 0.004191615102407062
741.0, 0.004120836738287318
742.0, 0.0031656012226503358
743.0, 0.0033098507402410673
744.0, 0.0022573360451884463
745.0, 0.0018447721075458647
746.0, 0.001613897378902919
747.0, 0.001564652426647376
748.0, 0.0014483676932193958
749.0, 0.0004267528625378
750.0, 0.0014731125047109678
751.0, 0.0028935976616361
752.0, 0.0015768337568911367
753.0, 0.000760694633040277
754.0, 0.0005527653114158565
755.0, 0.00044036384345415107
756.0, 0.0007410714167536262
757.0, 0.0020750443317247777
758.0, 0.0004784190666921476
759.0, 0.00014169013268280792
760.0, 0.0020405574548795274
761.0, 0.001493261819884834
762.0, 0.0005039384414246082
763.0, 0.0011392766028316015
764.0, 0.0020672920840095906
765.0, 0.0016771355993470817
766.0, 0.001875420219703592
767.0, 0.0009199789214866534
768.0, 0.0008431924575536295
769.0, 0.001391562271551777
770.0, 0.001628936187410446
771.0, 0.0015451441350542846
772.0, 0.002051905924659447
773.0, 0.0026622260049252544
774.0, 0.001049855420604828
775.0, 0.001910306258434715
776.0, 0.002070051959507055
777.0, 0.0014628180000529026
778.0, 0.001997571380673535
779.0, 0.002683324737690462
780.0, 0.0004062588155444621
781.0, 0.0025091370532230027
782.0, 0.0017957128652011836
783.0, 0.001583282222034345
784.0, 0.0008312910683404382
785.0, 0.0013802793431833965
786.0, 0.002222497618445312
787.0, 0.0017828336773868037
788.0, 0.0012609728951354648
789.0, 0.0029718617608393166
790.0, 0.0017938596662123135
791.0, 0.001895603460642265
792.0, 0.0010067875807029114
793.0, 0.0009342425607826746
794.0, 0.0010289940435608577
795.0, 0.00026644397484006533
796.0, 7.243898948761566e-05
797.0, 0.00013806123667555115
798.0, 0.0007660748378716771
799.0, 0.0015396211142877764
800.0, 0.0017703248058850579
801.0, 0.001014408706081296
802.0, 0.0006632636722557693
803.0, 0.0010930190505562265
804.0, 0.00039428571269279516
805.0, 3.678465316946206e-05
806.0, 0.0002577555616593824
807.0, 0.00046918611256006334
808.0, 0.0007390354384476997
809.0, 0.0017336274398026094
810.0, 0.0018226590579298546
811.0, 0.0005474991786317292
812.0, 0.000347366810752334
813.0, 0.0011243156351080368
814.0, 0.0021911794301618347
815.0, 0.0008537502416944521
816.0, 0.00037548451982884266
817.0, 0.0002737097984247912
818.0, 0.00039733988599128595
819.0, 0.001142416418312607
820.0, 0.00197415483964905
821.0, 0.000286538216205516
822.0, 0.0027119778727968027
823.0, 0.0015879459564836665
824.0, 0.0032376103757488033
825.0, 0.003376295796481211
826.0, 0.0035146075162829013
827.0, 0.003908206890555955
828.0, 0.0023585956723796184
829.0, 0.0018332616311350074
830.0, 0.0008790627620885799
831.0, 0.0020022811194624693
832.0, 0.0026464742839464985
833.0, 0.003092286130480768
834.0, 0.0029275277612899604
835.0, 0.0028668002123874467
836.0, 0.0031570562279622646
837.0, 0.0018852955073095244
838.0, 0.002728968181028118
839.0, 0.0036672414699004167
840.0, 0.001077186422784589
841.0, 0.003191317580778079
842.0, 0.003832449270750951
843.0, 0.0026382233812554047
844.0, 0.002267024846545295
845.0, 0.0015592828493249324
846.0, 0.0034736635580726433
847.0, 0.004495082139820118
848.0, 0.005329881652750214
849.0, 0.0035876674370821735
850.0, 0.004515102670585716
851.0, 0.005594657296400862
852.0, 0.0038432077099595286
853.0, 0.0017983490726280141
854.0, 0.0037874964031995063
855.0, 0.005974587195735237
856.0, 0.004725647344474921
857.0, 0.0038583500079290615
858.0, 0.004314030624538422
859.0, 0.004455424941532537
860.0, 0.003412331216689413
861.0, 0.002376946550315121
862.0, 0.003030602062220326
863.0, 0.0036275106470426925
864.0, 0.0039204191971833335
865.0, 0.004901170006933942
866.0, 0.003505911921784701
867.0, 0.0020128391593211676
868.0, 0.002658146545509895
869.0, 0.004193852738549239
870.0, 0.0044599284843580694
871.0, 0.005718393609482105
872.0, 0.0031170409861318617
873.0, 0.002595190483822718
874.0, 0.0026505043925824055
875.0, 0.001336209373179226
876.0, 0.0007078686656610931
877.0, 0.001175681598980598
878.0, 0.001915541686400905
879.0, 0.002553169395063559
880.0, 0.0005945801248719385
881.0, 0.0008303222528507572
882.0, 0.0009222518129359644
883.0, 0.0009560603448561809
884.0, 0.001192612216210527
885.0, 0.0013183161014543876
886.0, 0.0014547466139771435
887.0, 0.0015712755735094654
888.0, 0.0007475976008315727
889.0, 0.0006685601693731966
890.0, 0.0011038975497282924
891.0, 0.0011448667693569425
892.0, 0.0003974676985126013
893.0, 7.340070469180505e-05
894.0, 0.0002512306777171096
895.0, 0.0009659304237987934
896.0, 0.00210111802639938
897.0, 0.0018865993079338426
898.0, 0.0018462416224217083
899.0, 0.0022605268368519897
900.0, 0.0018064488824123886
901.0, 0.0018701797829492927
902.0, 0.001216149714439381
903.0, 0.0004109128422227057
904.0, 0.000541906027677888
905.0, 0.0010791908332750176
906.0, 0.0008744613571193965
907.0, 0.0012185102879027397
908.0, 0.0005329533198322346
909.0, 0.00017876081596607723
910.0, 0.0007097122075533991
911.0, 0.0017908947076389807
912.0, 0.0018815740122905878
913.0, 0.0007995735391388453
914.0, 0.0010251073430045362
915.0, 0.004458415260524892
916.0, 0.006557833985590247
917.0, 0.004340074596602673
918.0, 0.008103190176169204
919.0, 0.00851530203145436
920.0, 0.008501287770846513
921.0, 0.010797679609552982
922.0, 0.01370339563112007
923.0, 0.0159011604086677
924.0, 0.021268287271969114
925.0, 0.023824750709425586
926.0, 0.02565441965358721
927.0, 0.03061984906920262
928.0, 0.03499118398751998
929.0, 0.040288679755215634
930.0, 0.045439441704586025
931.0, 0.049087494775503795
932.0, 0.05135227729207773
933.0, 0.04912907143664673
934.0, 0.05380564581132704
935.0, 0.05347653132780973
936.0, 0.047123688042074424
937.0, 0.04241827202766022
938.0, 0.040182897772668265
939.0, 0.03546256996286501
940.0, 0.029131050157962687
941.0, 0.02643036554855316
942.0, 0.02237834351195163
943.0, 0.022442066240201473
944.0, 0.02063447661764297
945.0, 0.017960946875100834
946.0, 0.016141906622317438
947.0, 0.016908378772261905
948.0, 0.01599510673863457
949.0, 0.014020944058881293
950.0, 0.014599089184909939
951.0, 0.013160980618172512
952.0, 0.011990212761052268
953.0, 0.013202024882771378
954.0, 0.01218146579960402
955.0, 0.011500658253358465
956.0, 0.009657853837251679
957.0, 0.00913069238657545
958.0, 0.009818680013600506
959.0, 0.009920382184569625
960.0, 0.010438307270515673
961.0, 0.011592315715708509
962.0, 0.01293183062375041
963.0, 0.013952975167263537
964.0, 0.015398026584457075
965.0, 0.01621919157227571
966.0, 0.016062672197767084
967.0, 0.01685033743480869
968.0, 0.018970746396189585
969.0, 0.02082893365798898
970.0, 0.02331664045372611
971.0, 0.024833378772278078
972.0, 0.02942220267690594
973.0, 0.031131630986461437
974.0, 0.03402740434648992
975.0, 0.03999019371110237
976.0, 0.04458379623467367
977.0, 0.047789067706481995
978.0, 0.05319094783083683
979.0, 0.06058944353056193
980.0, 0.0693916277149728
981.0, 0.07473154494952901
982.0, 0.08664513608147538
983.0, 0.09895964300993462
984.0, 0.11173836112946411
985.0, 0.12766091398457843
986.0, 0.14747718553000555
987.0, 0.17014641089193397
988.0, 0.19625622269840415
989.0, 0.22921211486999732
990.0, 0.267604381239894
991.0, 0.31162485025260833
992.0, 0.362607334166408
993.0, 0.41803582973847203
994.0, 0.481051783356603
995.0, 0.5495535262965551
996.0, 0.6234210630415308
997.0, 0.6990116815280425
998.0, 0.7684587552726577
999.0, 0.8323349724935868
1000.0, 0.8881685476612828
1001.0, 0.948953559219325
1002.0, 0.9741560150720129
1003.0, 0.9933324895337686
1004.0, 0.9998548330476806
1005.0, 0.9932337925756457
1006.0, 0.9752402576554944
1007.0, 0.9493246009368596
1008.0, 0.9210535387045918
1009.0, 0.887820077478744
1010.0, 0.8456437972630257
1011.0, 0.8051256194105247
1012.0, 0.7588329717474932
1013.0, 0.704853512590819
1014.0, 0.656477697810357
1015.0, 0.6083146192422376
1016.0, 0.5575768765490062
1017.0, 0.5086154807886685
1018.0, 0.45988822524158673
1019.0, 0.4052262262712702
1020.0, 0.35736751480662426
1021.0, 0.31766419955456965
1022.0, 0.279740879497859
1023.0, 0.24660582541091283
1024.0, 0.2172230304869212
1025.0, 0.19317147833226755
1026.0, 0.17167303792495978
1027.0, 0.15341222586806955
1028.0, 0.14223746961228392
1029.0, 0.12746369311595893
1030.0, 0.12124093264674071
1031.0, 0.11540437753616306
1032.0, 0.1092560783124473
1033.0, 0.10474350271165285
1034.0, 0.10234424054764187
1035.0, 0.10363595305973936
1036.0, 0.10177996911627656
1037.0, 0.09907374998888319
1038.0, 0.10238469999823972
1039.0, 0.09663854251332926
1040.0, 0.10105339459603113
1041.0, 0.09935655116015259
1042.0, 0.096263658400932
1043.0, 0.0881567269177149
1044.0, 0.08412141044082298
1045.0, 0.07697409991527214
1046.0, 0.06869254578872211
1047.0, 0.06339402036581926
1048.0, 0.058953211058017006
1049.0, 0.05417253506156725
1050.0, 0.05102091594841299
1051.0, 0.04956159909049806
1052.0, 0.04644483991891972
1053.0, 0.048053655609120796
1054.0, 0.046117140499551235
1055.0, 0.04684543154497454
1056.0, 0.04752811134733574
1057.0, 0.0474110522580444
1058.0, 0.046607703968008875
1059.0, 0.04477397836152935
1060.0, 0.05119955968785995
1061.0, 0.050227964334719565
1062.0, 0.051209120592629685
1063.0, 0.055294360092060714
1064.0, 0.05829779725516032
1065.0, 0.06397241294695771
1066.0, 0.06872432129570413
1067.0, 0.07459757518603234
1068.0, 0.08333397989734775
1069.0, 0.09167563420853048
1070.0, 0.09850720446836699
1071.0, 0.10885286572546983
1072.0, 0.11745271727259435
1073.0, 0.13618061905017959
1074.0, 0.15422835777448904
1075.0, 0.16950840178962742
1076.0, 0.1896056785669941
1077.0, 0.21529851592188398
1078.0, 0.2470589946280316
1079.0, 0.28402118251897024
1080.0, 0.32450824874498524
1081.0, 0.37029828306860335
1082.0, 0.41794209190029635
1083.0, 0.4736835585642526
1084.0, 0.5362172328526434
1085.0, 0.5907524575823667
1086.0, 0.6361679765153121
1087.0, 0.682297604745358
1088.0, 0.7182337620051606
1089.0, 0.7348636071649546
1090.0, 0.7332660262613753
1091.0, 0.7145596729839455
1092.0, 0.6765469814443397
1093.0, 0.6252377334847662
1094.0, 0.5624341804928253
1095.0, 0.5055283266435016
1096.0, 0.4503995262762719
1097.0, 0.3928331795876598
1098.0, 0.3449561036344715
1099.0, 0.2984009548390844
1100.0, 0.25789169345283247
1101.0, 0.22743721179914583
1102.0, 0.19856855835166892
1103.0, 0.17346522455216687
1104.0, 0.1545747282243536
1105.0, 0.13755367616966882
1106.0, 0.12261659671776227
1107.0, 0.10575502196564739
1108.0, 0.09309679759711403
1109.0, 0.08714312424639353
1110.0, 0.07915700750734588
1111.0, 0.07123647433490068
1112.0, 0.06320058360247852
1113.0, 0.05448368197080192
1114.0, 0.0536887956058878
1115.0, 0.048073486513124396
1116.0, 0.042402789708806024
1117.0, 0.03523302233907663
1118.0, 0.03506368552495275
1119.0, 0.03204720163273117
1120.0, 0.02958687167215035
1121.0, 0.026211820343716632
1122.0, 0.02444247244504127
1123.0, 0.023786545419667748
1124.0, 0.022137088784757855
1125.0, 0.020562121405668578
1126.0, 0.018969675574812918
1127.0, 0.021268320612778568
1128.0, 0.0179886188117766
1129.0, 0.0164410723690219
1130.0, 0.01353289040628726
1131.0, 0.013875597994472159
1132.0, 0.013414109358894762
1133.0, 0.012177162216393592
1134.0, 0.012257242378552429
1135.0, 0.012930494793211463
1136.0, 0.011600805375387036
1137.0, 0.008884031505385514
1138.0, 0.008885437988689425
1139.0, 0.008953319466655542
1140.0, 0.007320203013467341
1141.0, 0.007130292502822709
1142.0, 0.006855996108749994
1143.0, 0.006338995258826452
1144.0, 0.007363326649521998
1145.0, 0.00722497736628874
1146.0, 0.005172175169434196
1147.0, 0.004658387677808653
1148.0, 0.005779698514178522
1149.0, 0.003339169429092512
1150.0, 0.0016687161120624205
1151.0, 0.005667174911747608
1152.0, 0.0049401295322159325
1153.0, 0.004431087140702874
1154.0, 0.000991171496960942
1155.0, 0.003392471243056745
1156.0, 0.003179354171288932
1157.0, 0.0023662582545587187
1158.0, 0.0017810511249667289
1159.0, 0.0011698205455213293
1160.0, 0.0023961141284649457
1161.0, 0.0029328103995559353
1162.0, 0.0007390516026279307
1163.0, 0.0024852013574415454
1164.0, 0.0007548670153464327
1165.0, 0.0014042470995428396
1166.0, 0.002531825420733981
1167.0, 0.0013834455397753582
1168.0, 0.0022613116919604
1169.0, 0.00292045226520385
1170.0, 0.0029037356574394906
1171.0, 0.002050638813114116
1172.0, 0.001658720225894533
1173.0, 0.0035950917571203056
1174.0, 0.00030832677934374735
1175.0, 0.0017864075082582413
1176.0, 0.0061780203610787236
1177.0, 0.00343224929280383
1178.0, 0.003488500065235821
1179.0, 0.005044515532602161
1180.0, 0.0035748877629334587
1181.0, 0.0037955244259358194
1182.0, 0.002896640491188004
1183.0, 0.0022840644686473203
1184.0, 0.0035595363795603296
1185.0, 0.0037256948369148394
1186.0, 0.0050550791243769416
1187.0, 0.002252381857031753
1188.0, 0.0032424984752027317
1189.0, 0.0032203606864299916
1190.0, 0.0007907204804274413
1191.0, 0.002240312274782033
1192.0, 0.0013409333245219571
1193.0, 0.0020748958810313453
1194.0, 0.002135977008605131
1195.0, 0.0018427838587745627
1196.0, 0.0013559864285010218
1197.0, 0.0006336009446624528
1198.0, 0.0012593290964264818
1199.0, 0.0009056647997906394
1200.0, 0.0009522493447095184
1201.0, 0.0005277933003227333
1202.0, 0.0011317403934112545
1203.0, 0.0018277310983124953
1204.0, 0.0006717276357782125
1205.0, 0.0019130312005418478
1206.0, 0.001754012396034236
1207.0, 0.0010364434306260922
1208.0, 0.0006693213173371443
1209.0, 0.0011333899378219777
1210.0, 0.0022672041279189277
1211.0, 0.002288946344499503
1212.0, 0.0010020534056917197
1213.0, 0.0003241629321209334
1214.0, 0.001487213590101134
1215.0, 0.0010232092606023793
1216.0, 0.00039639649955240056
1217.0, 0.0005020737631749733
1218.0, 0.0008689925487922957
1219.0, 0.0006438539006334625
1220.0, 0.000592556345852706
1221.0, 0.0003655351430522324
1222.0, 0.00025503783574122373
1223.0, 0.0004312636731701545
1224.0, 0.000532834207871636
1225.0, 0.0013557641149141153
1226.0, 0.0016058478511842046
1227.0, 0.0003524230304696551
1228.0, 0.0002674140320229685
1229.0, 0.00261124157225568
1230.0, 0.0010897015052665647
1231.0, 0.0010548126996629836
1232.0, 0.0014555814337977033
1233.0, 0.002479139058736478
1234.0, 0.003110553188093268
1235.0, 0.0027168018334833895
1236.0, 0.0015911142877134523
1237.0, 0.001438355777255336
1238.0, 0.002951131206921628
1239.0, 0.0026010216217911375
1240.0, 0.0009797878305866086
1241.0, 0.0006684351212405729
1242.0, 0.0033108728383093337
1243.0, 0.0015239168259017864
1244.0, 0.0017117472311713878
1245.0, 0.00244225707580893
1246.0, 0.0017883599085960873
1247.0, 0.0008532498547038625
1248.0, 0.0006542803333922445
1249.0, 0.0011918516458100717
1250.0, 0.001687501271408614
1251.0, 0.001352658609890275
1252.0, 0.0008524072143468158
1253.0, 0.001607715079012624
1254.0, 0.0015430150664421122
1255.0, 0.00025636189894190776
1256.0, 0.0027326951319121026
1257.0, 0.0014935470104948567
1258.0, 0.0023269167161317733
1259.0, 0.003775389755305387
1260.0, 0.0026089438046739796
1261.0, 0.0013488933231185702
1262.0, 0.0007254440801671808
1263.0, 0.0007281423447944043
1264.0, 0.0008104030868636569
1265.0, 0.0007209169742806858
1266.0, 0.001284066953848533
1267.0, 0.001823544451357585
1268.0, 0.0004876996094599406
1269.0, 0.0017022021393318463
1270.0, 0.001102800874172619
1271.0, 0.001688644130621096
1272.0, 0.0005255399413606261
1273.0, 0.00046376612068388254
1274.0, 0.0002775357886834821
1275.0, 0.0002282305483040367
1276.0, 0.0012928308611882481
1277.0, 0.0014653508363739653
1278.0, 0.0015855334774497625
1279.0, 0.0018763270733084569
1280.0, 0.0009641207362679828
1281.0, 0.0005973606411465526
1282.0, 0.00188292438421352
1283.0, 0.0011517829768775151
1284.0, 0.0004466391560303823
1285.0, 0.0016458033783810807
1286.0, 0.00019589312431862597
1287.0, 0.0015119614559270702
1288.0, 0.0022794350734986306
1289.0, 0.001233219620901953
1290.0, 0.0007813235847129709
1291.0, 0.0007009164605269882
1292.0, 0.0007219673220554822
1293.0, 0.0018055534648916019
1294.0, 0.0018349409933944199
1295.0, 0.0005481818085612971
1296.0, 0.0007969702076845249
1297.0, 0.0007559301720591636
1298.0, 0.000880185531399659
1299.0, 0.0006415260354872906
1300.0, 0.0021539713885413317
1301.0, 0.000818647644796379
1302.0, 0.0015177236944616678
1303.0, 0.0005770140424303661
1304.0, 0.0010671671216481785
1305.0, 0.0012125032302181394
1306.0, 0.002788699244235746
1307.0, 0.00258311763922714
1308.0, 0.0012464892037754652
1309.0, 0.0017261301059799219
1310.0, 0.0018096906552599267
1311.0, 0.0011654416050123643
1312.0, 0.0027742947654993055
1313.0, 0.0025052814276552
1314.0, 0.004314144947126464
1315.0, 0.00443213741868731
1316.0, 0.0026893598907324133
1317.0, 0.002005950278689995
1318.0, 0.0022367517881889663
1319.0, 0.00044660098043021294
1320.0, 0.0015135768557479998
1321.0, 0.000571980760971944
1322.0, 0.001624199066431537
1323.0, 0.004220587422401206
1324.0, 0.004698873303308097
1325.0, 0.0033111273479736166
1326.0, 0.00264872341585446
1327.0, 0.0030667206302772173
1328.0, 0.0036644298537319123
1329.0, 0.004315843840415413
1330.0, 0.003829173881616796
1331.0, 0.002717432224733873
1332.0, 0.004781145769254164
1333.0, 0.0017968679633431014
1334.0, 0.000477569929593528
1335.0, 0.001543892679992164
1336.0, 0.001235519657726894
1337.0, 0.0012179735776394268
1338.0, 0.0012125482047003634
1339.0, 0.001371597403604241
1340.0, 0.0016240453119710622
1341.0, 0.002089585662688456
1342.0, 0.003025316948619969
1343.0, 0.0031020931764045552
1344.0, 0.002430754920284562
1345.0, 0.0032662787623845995
1346.0, 0.004578171670244463
1347.0, 0.00537338960740427
1348.0, 0.0038849478646133737
1349.0, 0.003941216647702918
1350.0, 0.00282338583631367
1351.0, 0.0023867247067642255
1352.0, 0.0018373067456654802
1353.0, 0.004108200091813705
1354.0, 0.002679883086907918
1355.0, 0.002916365575553462
1356.0, 0.003971448732201289
1357.0, 0.003244677608554904
1358.0, 0.00291524488140119
1359.0, 0.0041071036505850485
1360.0, 0.004269557635492106
1361.0, 0.003033692223957534
1362.0, 0.0021894528616800113
1363.0, 0.0013129631578510474
1364.0, 0.0011400720697969488
1365.0, 0.0018948092983764975
1366.0, 0.0022307303943744205
1367.0, 0.0024246339722795787
1368.0, 0.003328713333330518
1369.0, 0.003063712235308584
1370.0, 0.0047828772294556225
1371.0, 0.005474790207520774
1372.0, 0.0053963781263161505
1373.0, 0.00463680521108458
1374.0, 0.0038572980444935615
1375.0, 0.0035373039265593565
1376.0, 0.0033370135655290865
1377.0, 0.0032326321039082206
1378.0, 0.003448809066927215
1379.0, 0.0037481351152779917
1380.0, 0.004100483920819586
1381.0, 0.004305125258829881
1382.0, 0.004015467950723219
1383.0, 0.0048777596154427425
1384.0, 0.0034341196729950714
1385.0, 0.002830916807654095
1386.0, 0.003744356689875056
1387.0, 0.00448425055544227
1388.0, 0.004608234275743613
1389.0, 0.0034744176091631046
1390.0, 0.0009511011590593121
1391.0, 0.004779868989429135
1392.0, 0.003859373757693426
1393.0, 0.001570308979158971
1394.0, 0.004273883455604071
1395.0, 0.004979965817739265
1396.0, 0.003607613008776145
1397.0, 0.0036739223971827342
1398.0, 0.003518236653566733
1399.0, 0.002560312201071939
1400.0, 0.0025115986321109863
1401.0, 0.002830528158498247
1402.0, 0.002654279767779417
1403.0, 0.003520880569517161
1404.0, 0.002708777646169085
1405.0, 0.006208721130464319
1406.0, 0.00492377818090402
1407.0, 0.004848536506974678
1408.0, 0.003580739181882368
1409.0, 0.002075064217376214
1410.0, 0.0016138479380933405
1411.0, 0.004570412935244423
1412.0, 0.003026291093380764
1413.0, 0.0009095313048296356
1414.0, 0.002492250868799409
1415.0, 0.0022522697673173003
1416.0, 0.0031349769492478806
1417.0, 0.0028295373150000348
1418.0, 0.0035316419384783795
1419.0, 0.005308482461180342
1420.0, 0.0021320566863405163
1421.0, 0.0030738742687238746
1422.0, 0.004571429244978429
1423.0, 0.005813521464079637
1424.0, 0.0016547257286303456
1425.0, 0.004056605235093838
1426.0, 0.0030499549368461967
1427.0, 0.0046434336210960945
1428.0, 0.005423185536304964
1429.0, 0.004368012828190728
1430.0, 0.0017102308804955685
1431.0, 0.0023316997003976683
1432.0, 0.003920932769846008
1433.0, 0.0028481339921785464
1434.0, 0.002721819280398978
1435.0, 0.0023973698630466275
1436.0, 0.0037201776775152226
1437.0, 0.00455747928947102
1438.0, 0.004377425809385578
1439.0, 0.0049476264198180485
1440.0, 0.0059980119584307325
1441.0, 0.007141763941442539
1442.0, 0.007913864603014785
1443.0, 0.0076803659975855166
1444.0, 0.007195316211366092
1445.0, 0.005403465573009051
1446.0, 0.007317484462867185
1447.0, 0.0061123753774224646
1448.0, 0.007402283111659482
1449.0, 0.0066951898350740904
1450.0, 0.008507909730504163
1451.0, 0.0096341315540117
1452.0, 0.007302371630371351
1453.0, 0.007945532409410282
1454.0, 0.008905349739258916
1455.0, 0.008000685270802856
1456.0, 0.007970768909166584
1457.0, 0.007992056571991391
1458.0, 0.007951354254206087
1459.0, 0.0071544477524503715
1460.0, 0.008412757447102497
1461.0, 0.008552668855412685
1462.0, 0.00794569083910703
1463.0, 0.007108238500091038
1464.0, 0.005488574312402524
1465.0, 0.0066707210487009505
1466.0, 0.006662168000424221
1467.0, 0.0060090615231315255
1468.0, 0.005876083043414047
1469.0, 0.006545605301681511
1470.0, 0.008189430368113414
1471.0, 0.007404598857834958
1472.0, 0.00684213866848673
1473.0, 0.0038384598624906343
1474.0, 0.006070746236322968
1475.0, 0.004429387515117589
1476.0, 0.007019960680177819
1477.0, 0.007754528596447986
1478.0, 0.008278402711562088
1479.0, 0.006446630129733373
1480.0, 0.007358454975227573
1481.0, 0.005361056250079251
1482.0, 0.005568579217494335
1483.0, 0.006347232271235288
1484.0, 0.005064046533405254
1485.0, 0.004899971274357462
1486.0, 0.007124764965813889
1487.0, 0.007849935623956503
1488.0, 0.007537232889853082
1489.0, 0.007103665204776454
1490.0, 0.005927020682908953
1491.0, 0.005869963816537676
1492.0, 0.003977189792587652
1493.0, 0.0057694135270088326
1494.0, 0.005650752446974585
1495.0, 0.004062624870161094
1496.0, 0.0031809217884532694
1497.0, 0.004117237236309869
1498.0, 0.005847205291768823
1499.0, 0.005660441579518493
1500.0, 0.004347387384268762
1501.0, 0.005741653206337705
1502.0, 0.0023926057068290787
1503.0, 0.0023292033236655446
1504.0, 0.004146875220112703
1505.0, 0.0030363150573731205
1506.0, 0.0036024249855161946
1507.0, 0.005262400070175458
1508.0, 0.005328210501696445
1509.0, 0.005745192247369441
1510.0, 0.005389433823700999
1511.0, 0.005245095291283852
1512.0, 0.004427837625291371
1513.0, 0.0025275847768847517
1514.0, 0.0021680660965933208
1515.0, 0.0031391378587849123
1516.0, 0.0026088821850337317
1517.0, 0.0016537628232996308
1518.0, 0.001953374983235137
1519.0, 0.0024235584444845084
1520.0, 0.003955577416113242
1521.0, 0.005141874923193722
1522.0, 0.005292777103377976
1523.0, 0.005885062602165898
1524.0, 0.006508103958249464
1525.0, 0.005976528616151772
1526.0, 0.005462975514893003
1527.0, 0.005287478700372004
1528.0, 0.0037951026313915114
1529.0, 0.003601819756998932
1530.0, 0.004321586633493521
1531.0, 0.006796600571357236
1532.0, 0.001971392960649922
1533.0, 0.004160612658680483
1534.0, 0.004818079882605819
1535.0, 0.0015059887155916246
1536.0, 0.00251791375742875
1537.0, 0.005641802177391406
1538.0, 0.004557938626087944
1539.0, 0.0016031632677141398
1540.0, 0.0031914536755714416
1541.0, 0.0037408693202961385
1542.0, 0.003675963808587733
1543.0, 0.004364567185524446
1544.0, 0.0029390165087347753
1545.0, 0.0036899703621268956
1546.0, 0.0033359559673657186
1547.0, 0.003160090970475901
1548.0, 0.005591993721092118
1549.0, 0.004936905615843266
1550.0, 0.004315752869489293
1551.0, 0.003460107164836264
1552.0, 0.004237175597396265
1553.0, 0.005776994293975363
1554.0, 0.00619940289009954
1555.0, 0.0052750713782243365
1556.0, 0.0029868251384880568
1557.0, 0.004577047524760984
1558.0, 0.0016838457345000693
1559.0, 0.004670564413883873
1560.0, 0.007581970551539774
1561.0, 2.0434991631271896e-05
1562, 0.0
1563, 0.0
1564, 0.0
1565, 0.0
1566, 0.0
1567, 0.0
1568, 0.0
1569, 0.0
1570, 0.0
1571, 0.0
1572, 0.0
1573, 0.0
1574, 0.0
1575, 0.0
1576, 0.0
1577, 0.0
1578, 0.0
1579, 0.0
1580, 0.0
1581, 0.0
1582, 0.0
1583, 0.0
1584, 0.0
1585, 0.0
1586, 0.0
1587, 0.0
1588, 0.0
1589, 0.0
1590, 0.0
1591, 0.0
1592, 0.0
1593, 0.0
1594, 0.0
1595, 0.0
1596, 0.0
1597, 0.0
1598, 0.0
1599, 0.0
