30, 0.0
31, 0.0
32, 0.0
33, 0.0
34, 0.0
35, 0.0
36, 0.0
37, 0.0
38, 0.0
39, 0.0
40, 0.0
41, 0.0
42, 0.0
43, 0.0
44, 0.0
45, 0.0
46, 0.0
47, 0.0
48, 0.0
49, 0.0
50, 0.0
51, 0.0
52, 0.0
53, 0.0
54, 0.0
55, 0.0
56, 0.0
57, 0.0
58, 0.0
59, 0.0
60, 0.0
61, 0.0
62, 0.0
63, 0.0
64, 0.0
65, 0.0
66, 0.0
67, 0.0
68, 0.0
69, 0.0
70, 0.0
71, 0.0
72, 0.0
73, 0.0
74, 0.0
75, 0.0
76, 0.0
77, 0.0
78, 0.0
79, 0.0
80, 0.0
81, 0.0
82, 0.0
83, 0.0
84, 0.0
85, 0.0
86, 0.0
87, 0.0
88, 0.0
89, 0.0
90, 0.0
91, 0.0
92, 0.0
93, 0.0
94, 0.0
95, 0.0
96.0, 6.771484787381811e-05
97.0, 0.0013699234608316924
98.0, 0.0005994973823971062
99.0, 0.0006667224117096033
100.0, 0.0011211195734910709
101.0, 0.0006359294252981448
102.0, 0.0005671578615975458
103.0, 0.0007561914683485722
104.0, 0.004379294050714082
105.0, 0.008615401739669428
106.0, 0.012509229216517627
107.0, 0.022316248051606778
108.0, 0.020474886078318093
109.0, 0.028465618748833174
110.0, 0.028209593439498838
111.0, 0.017599562319098223
112.0, 0.014571291796875427
113.0, 0.019156149943604803
114.0, 0.021230486757308924
115.0, 0.023343393201532017
116.0, 0.02474851557989005
117.0, 0.02356420864195347
118.0, 0.022123625026885346
119.0, 0.019207444684313367
120.0, 0.018646736907486097
121.0, 0.01999654914250046
122.0, 0.021773274477309434
123.0, 0.022591178848675765
124.0, 0.02416868800172596
125.0, 0.023026718238087617
126.0, 0.023176955329583103
127.0, 0.02602837183364719
128.0, 0.02919244834195714
129.0, 0.03308284630739608
130.0, 0.03311481824119421
131.0, 0.032803474954453106
132.0, 0.03350868086202215
133.0, 0.03519020074322566
134.0, 0.03683287515303295
135.0, 0.0390918092325467
136.0, 0.041032827689428085
137.0, 0.044825693346036755
138.0, 0.050120845979096
139.0, 0.049176467062985965
140.0, 0.051113771717507396
141.0, 0.05215830026713497
142.0, 0.05163205402273593
143.0, 0.05085319070190767
144.0, 0.052500397831700324
145.0, 0.0523042809104814
146.0, 0.05585932046777429
147.0, 0.05756978810591931
148.0, 0.059227536973445585
149.0, 0.06353048908004393
150.0, 0.06393319389138295
151.0, 0.07111180843164329
152.0, 0.0731563268093311
153.0, 0.07297764923936637
154.0, 0.07301592512500829
155.0, 0.07155272955827857
156.0, 0.07169890224118876
157.0, 0.07182369530089622
158.0, 0.07197404298864903
159.0, 0.07147664000504199
160.0, 0.0698261587467798
161.0, 0.07102114501363262
162.0, 0.0687789755527635
163.0, 0.06772475143455492
164.0, 0.06816076133992642
165.0, 0.06820538175558039
166.0, 0.0633825853246377
167.0, 0.06335989517453748
168.0, 0.0621672621322986
169.0, 0.06146640369492461
170.0, 0.06138484910548294
171.0, 0.060618886012454486
172.0, 0.0605021111917513
173.0, 0.05812567346237943
174.0, 0.0582502720284013
175.0, 0.05889922996390689
176.0, 0.05754670515200608
177.0, 0.056454645127041944
178.0, 0.057248325199803746
179.0, 0.05920828269745362
180.0, 0.06208833796242835
181.0, 0.06423507100662608
182.0, 0.0632192050811322
183.0, 0.06623366479342659
184.0, 0.06869204777608687
185.0, 0.07145544291916606
186.0, 0.07473748340181596
187.0, 0.07840492813628372
188.0, 0.08204474378500952
189.0, 0.08577505775509993
190.0, 0.09064818985208195
191.0, 0.09565636387990244
192.0, 0.10063716520405394
193.0, 0.10649263515788326
194.0, 0.1122927993371723
195.0, 0.11552675398000409
196.0, 0.12055214879424436
197.0, 0.12576867983766973
198.0, 0.12933377448838276
199.0, 0.13616812627138697
200.0, 0.14318666071616154
201.0, 0.14955196256137876
202.0, 0.153860152745611
203.0, 0.156571041179163
204.0, 0.15947077694647332
205.0, 0.15396993121699135
206.0, 0.1543654944145492
207.0, 0.15374548079085867
208.0, 0.1502117300344188
209.0, 0.14535486942008397
210.0, 0.14543798063571953
211.0, 0.13607585434089498
212.0, 0.13028028297224
213.0, 0.12456114342450303
214.0, 0.11739463086315455
215.0, 0.10965301483390238
216.0, 0.09741122814751318
217.0, 0.08884850336745169
218.0, 0.07812787793654745
219.0, 0.06932332718833105
220.0, 0.0642215370753296
221.0, 0.05394229071609669
222.0, 0.049512362742017556
223.0, 0.04298181904485675
224.0, 0.03851716971149062
225.0, 0.03567081356194771
226.0, 0.03135631644174868
227.0, 0.02761485596329538
228.0, 0.022713069523063414
229.0, 0.019725607659187298
230.0, 0.017910078204789213
231.0, 0.015877175425257475
232.0, 0.01258514072335016
233.0, 0.013004050268306698
234.0, 0.009980186347325655
235.0, 0.007877201177269207
236.0, 0.006374912999475361
237.0, 0.0043057338281355
238.0, 0.005493714701107355
239.0, 0.001975030083128973
240.0, 0.001554410383030988
241.0, 0.002667085602772728
242.0, 0.0028584635407177175
243.0, 0.0005934222302038391
244.0, 0.0023665940692981016
245.0, 0.001574618903371937
246.0, 0.00116902032352277
247.0, 0.001674392409938061
248.0, 0.0031132391538801095
249.0, 0.005795481238656191
250.0, 0.003455762640108673
251.0, 0.001941499769174141
252.0, 0.0007664506298508875
253.0, 0.0008572638384240591
254.0, 0.0026219300222264804
255.0, 0.0008197129734676517
256.0, 0.00163806618655599
257.0, 0.0025839743386138724
258.0, 0.0022465062318782203
259.0, 0.0011963830067700989
260.0, 0.0015640659640383464
261.0, 0.0010426658168755992
262.0, 0.0003502689963997505
263.0, 0.0007403895634460618
264.0, 0.0019526277693302427
265.0, 0.0033196616353336275
266.0, 0.004309630227609233
267.0, 0.002053277762580236
268.0, 0.0028728887190099753
269.0, 0.0032339397796559265
270.0, 0.003918371819950615
271.0, 0.006114992206346634
272.0, 0.0037714529523705815
273.0, 0.002956362994856669
274.0, 0.0026771477714043184
275.0, 0.0032086876091814666
276.0, 0.003340702114098338
277.0, 0.0012410406870576227
278.0, 0.0005707381235241389
279.0, 0.00025980714239365945
280.0, 0.001083411938614211
281.0, 0.001987636278867242
282.0, 0.002598437641823311
283.0, 0.004014569680067275
284.0, 0.005310145418710689
285.0, 0.007061545882036279
286.0, 0.010657842289336555
287.0, 0.012937154465828854
288.0, 0.012594591581811575
289.0, 0.01642004465147025
290.0, 0.017204020545695402
291.0, 0.018829042733637048
292.0, 0.019353464086625142
293.0, 0.019993413192369962
294.0, 0.022396813550174855
295.0, 0.02233232352312909
296.0, 0.021815249565708756
297.0, 0.020350117398642405
298.0, 0.020007488903607634
299.0, 0.020041055273875567
300.0, 0.018281107465132295
301.0, 0.020989883312567282
302.0, 0.016910736395314922
303.0, 0.01606926812288656
304.0, 0.016964791774826207
305.0, 0.017091926848390043
306.0, 0.015842244268178023
307.0, 0.018042195348949925
308.0, 0.01522226446466464
309.0, 0.014372945610940225
310.0, 0.015071411685062722
311.0, 0.015844830417762266
312.0, 0.017057753368640988
313.0, 0.016646549833275008
314.0, 0.015582700125297808
315.0, 0.016032861826460104
316.0, 0.016516375338950173
317.0, 0.01573185107596055
318.0, 0.016249571794285867
319.0, 0.016190879160895455
320.0, 0.016890726218323
321.0, 0.0164787615049388
322.0, 0.01573969210295393
323.0, 0.01576214819817119
324.0, 0.013913556894365176
325.0, 0.013789151716806421
326.0, 0.014928263358324383
327.0, 0.013558297523125035
328.0, 0.011591416820106192
329.0, 0.012846783015799345
330.0, 0.012294063069953814
331.0, 0.011234240703410588
332.0, 0.011475048787775746
333.0, 0.011506795294915766
334.0, 0.011052648785270482
335.0, 0.010662216014546753
336.0, 0.00800825884233674
337.0, 0.007626580707597856
338.0, 0.007377097239963794
339.0, 0.007482035278335265
340.0, 0.007712043735838716
341.0, 0.007331737003438296
342.0, 0.007050482489365337
343.0, 0.007326985424808548
344.0, 0.007516443977824348
345.0, 0.00799855365646872
346.0, 0.008874397680465477
347.0, 0.009727275109800704
348.0, 0.010012126268984201
349.0, 0.010496074274989322
350.0, 0.011220446002950876
351.0, 0.011729008762840049
352.0, 0.012242658344828784
353.0, 0.013909449796866667
354.0, 0.01809964459416426
355.0, 0.01962863763391064
356.0, 0.019396776465993575
357.0, 0.021332691001994687
358.0, 0.024472297283735792
359.0, 0.02203007480948906
360.0, 0.023022977824567456
361.0, 0.023935121298762206
362.0, 0.02543921634019037
363.0, 0.027563529479098212
364.0, 0.02849559262799366
365.0, 0.025111599979592163
366.0, 0.02382150561368067
367.0, 0.024764163770261634
368.0, 0.025099489445729782
369.0, 0.023746175679354418
370.0, 0.021776345287998464
371.0, 0.02197822023869504
372.0, 0.02124795848986113
373.0, 0.020533120525889965
374.0, 0.019635092916306843
375.0, 0.01892671649664518
376.0, 0.018443002447286944
377.0, 0.017769523759616553
378.0, 0.01870972659551975
379.0, 0.016590099236581012
380.0, 0.014650801952588515
381.0, 0.014837284801956846
382.0, 0.015646684306570624
383.0, 0.01295970452741001
384.0, 0.014413966507450462
385.0, 0.013668572966352854
386.0, 0.012637307982362131
387.0, 0.012767684203683268
388.0, 0.01345283763978342
389.0, 0.012267925062036172
390.0, 0.009917584495517138
391.0, 0.013999944373841448
392.0, 0.014259343239993423
393.0, 0.011830685923660161
394.0, 0.00994403147082095
395.0, 0.01068492278696163
396.0, 0.010384632869580298
397.0, 0.013031591794824755
398.0, 0.012578938726339696
399.0, 0.012286008992162789
400.0, 0.013192987553454383
401.0, 0.013591423080696035
402.0, 0.01492427522332366
403.0, 0.016971950698847982
404.0, 0.020606920580224192
405.0, 0.023630989437798015
406.0, 0.027083413389183502
407.0, 0.032948073395866403
408.0, 0.0362575592593028
409.0, 0.03994506669783338
410.0, 0.04662351756543943
411.0, 0.05482429614778227
412.0, 0.0628060251858634
413.0, 0.0707123644434839
414.0, 0.08374072814610876
415.0, 0.0923555866021847
416.0, 0.10766411627453197
417.0, 0.1231151622302737
418.0, 0.14088521561334966
419.0, 0.16344571907160346
420.0, 0.18383873449895816
421.0, 0.2060873309169425
422.0, 0.22741273796840053
423.0, 0.2492866230449436
424.0, 0.27067660585666453
425.0, 0.2882526023911229
426.0, 0.29734525056269967
427.0, 0.30049813512582874
428.0, 0.3000910025735958
429.0, 0.28815248448982994
430.0, 0.2731241903689539
431.0, 0.2579050286824076
432.0, 0.23532878234604696
433.0, 0.21724311533238133
434.0, 0.19443584049664517
435.0, 0.174067816012998
436.0, 0.15453976260199942
437.0, 0.13532074887381892
438.0, 0.1186182198970361
439.0, 0.10865347777564091
440.0, 0.0968744397753286
441.0, 0.0852531131508676
442.0, 0.0766653000378362
443.0, 0.06996301751245962
444.0, 0.06218900270970677
445.0, 0.05298872337058018
446.0, 0.04650843621524167
447.0, 0.044018541540020786
448.0, 0.040107717104433734
449.0, 0.03580211457114148
450.0, 0.03304570653671697
451.0, 0.030067787295274834
452.0, 0.026612060469934758
453.0, 0.025584258595218883
454.0, 0.023793790507161804
455.0, 0.021435372984111595
456.0, 0.019099977965670395
457.0, 0.016922449993944166
458.0, 0.016604363870041768
459.0, 0.01340410403709327
460.0, 0.012851572246666951
461.0, 0.012111623509377436
462.0, 0.01117161138317782
463.0, 0.011608977137639757
464.0, 0.009608509248870193
465.0, 0.009314053503138275
466.0, 0.008658345808132685
467.0, 0.007234115088632446
468.0, 0.006329739724634897
469.0, 0.006444543628431423
470.0, 0.005277929861920331
471.0, 0.005726768699070551
472.0, 0.0045132178293112585
473.0, 0.0028137136870574377
474.0, 0.0011684553938964566
475.0, 0.0011833384830151465
476.0, 0.004468421435282205
477.0, 0.0042211418213962725
478.0, 0.0026195040073866455
479.0, 0.0034934257388247987
480.0, 0.0042435374697689975
481.0, 0.0033480807134167187
482.0, 0.0014684636751030253
483.0, 0.0012144715447658006
484.0, 0.003306206632609952
485.0, 0.002991477377306631
486.0, 0.0029306743760816817
487.0, 0.0034546780066554705
488.0, 0.00421576250923238
489.0, 0.005329998977587762
490.0, 0.005619931258365825
491.0, 0.006330796034236661
492.0, 0.005878319172597146
493.0, 0.005661208868219686
494.0, 0.006007105044116057
495.0, 0.006498140339144199
496.0, 0.009454976109636191
497.0, 0.007448816545007118
498.0, 0.009546660797801315
499.0, 0.010314714191045056
500.0, 0.00968387359758572
501.0, 0.010309905775586313
502.0, 0.013741217955259677
503.0, 0.01670817382153143
504.0, 0.01746251527835777
505.0, 0.01907555920756584
506.0, 0.01991230486567711
507.0, 0.020646080531942862
508.0, 0.024031611616908147
509.0, 0.028545292377318947
510.0, 0.02683418349656213
511.0, 0.03046542901710234
512.0, 0.03420708656997054
513.0, 0.03686134291214165
514.0, 0.039849960089535
515.0, 0.04421130545852152
516.0, 0.046204703156455945
517.0, 0.04959409646768742
518.0, 0.053700130884883776
519.0, 0.057379977345827254
520.0, 0.06027077065911357
521.0, 0.06237885184925664
522.0, 0.06205427093986872
523.0, 0.06640114554808599
524.0, 0.06603510458083578
525.0, 0.06641973104791446
526.0, 0.06510496748625541
527.0, 0.06167100609254838
528.0, 0.0630767262655246
529.0, 0.06261234139912683
530.0, 0.06114927491081913
531.0, 0.05845443777241149
532.0, 0.05725194713375601
533.0, 0.05772162351399351
534.0, 0.057490099213945864
535.0, 0.05388889479843584
536.0, 0.05278659717379366
537.0, 0.05173577206059384
538.0, 0.05168619757380554
539.0, 0.050349994479786456
540.0, 0.04798487268297724
541.0, 0.04786358446335171
542.0, 0.04667124725990035
543.0, 0.04888392117144212
544.0, 0.04800822206691683
545.0, 0.04786072952392137
546.0, 0.04893226237045737
547.0, 0.04994555354769213
548.0, 0.05083990482155936
549.0, 0.052068370194935674
550.0, 0.05508648139360002
551.0, 0.06023453069234217
552.0, 0.0665889311556904
553.0, 0.07177226831171643
554.0, 0.07489353740298126
555.0, 0.08155158987534257
556.0, 0.09342049926608617
557.0, 0.10313818234306989
558.0, 0.1163212545060153
559.0, 0.13083495438567072
560.0, 0.14568260477185052
561.0, 0.16289639934411906
562.0, 0.17784453060466213
563.0, 0.19721478434493955
564.0, 0.2192570326986643
565.0, 0.2377395417078194
566.0, 0.25295513374819234
567.0, 0.26707184772802167
568.0, 0.2797726289132462
569.0, 0.2919401904063445
570.0, 0.29797603916402154
571.0, 0.295892570708205
572.0, 0.28852627996059754
573.0, 0.2755208657903866
574.0, 0.25613962923777633
575.0, 0.234277769763249
576.0, 0.21292840053142803
577.0, 0.18984527380875008
578.0, 0.16679905893000613
579.0, 0.14484697148052084
580.0, 0.12474933746887289
581.0, 0.10668954356656349
582.0, 0.0897586118977911
583.0, 0.07601274697910093
584.0, 0.06723599171449807
585.0, 0.05714459491277871
586.0, 0.04872400980193979
587.0, 0.04228462351888811
588.0, 0.03473214842006861
589.0, 0.03107574807808419
590.0, 0.027868598333400343
591.0, 0.02420517410676641
592.0, 0.021354431053364906
593.0, 0.018388229634362967
594.0, 0.015656355895820737
595.0, 0.014964233846044587
596.0, 0.01319972346032018
597.0, 0.014521774751747303
598.0, 0.013372913373754064
599.0, 0.012549823900658124
600.0, 0.013556902323633699
601.0, 0.015427819963043364
602.0, 0.01567835678959356
603.0, 0.015435191467533914
604.0, 0.01481156945335413
605.0, 0.015712861102348662
606.0, 0.019195069628684898
607.0, 0.02228748453424078
608.0, 0.024195039872096796
609.0, 0.028681288571937563
610.0, 0.029802976817223954
611.0, 0.03486875277579261
612.0, 0.040486209049221164
613.0, 0.04680373454023926
614.0, 0.05454786168558458
615.0, 0.0643178368843782
616.0, 0.07640962668716088
617.0, 0.09233006737046327
618.0, 0.1108942542966836
619.0, 0.1328393421468881
620.0, 0.15671912306263275
621.0, 0.18270532012016563
622.0, 0.21149613771665046
623.0, 0.24242944586186446
624.0, 0.27096177103689806
625.0, 0.29259455580785404
626.0, 0.31336123180957826
627.0, 0.323299486498255
628.0, 0.3230748993008804
629.0, 0.3138705018342055
630.0, 0.2903227706134267
631.0, 0.26481988202543716
632.0, 0.234424607951531
633.0, 0.19874001386373033
634.0, 0.1703762059324745
635.0, 0.14687581454938078
636.0, 0.12246504447219195
637.0, 0.09929601439465835
638.0, 0.08162898089630898
639.0, 0.07018106696828093
640.0, 0.057390428493784444
641.0, 0.04658256730538137
642.0, 0.03867759734749305
643.0, 0.033529633002866835
644.0, 0.030645286548535565
645.0, 0.025223477710589567
646.0, 0.024193593481771577
647.0, 0.020469335882119372
648.0, 0.01644502274095996
649.0, 0.014086445994818314
650.0, 0.013082889765927929
651.0, 0.011313534597597808
652.0, 0.008041628769212201
653.0, 0.006712132166465674
654.0, 0.006729779639346981
655.0, 0.0065283433892762395
656.0, 0.006834059892281105
657.0, 0.007204171662240887
658.0, 0.006320261161943729
659.0, 0.005788883223165547
660.0, 0.0036878534535006325
661.0, 0.003842507294509706
662.0, 0.004023925183259772
663.0, 0.002419374214419297
664.0, 0.0016966007877323571
665.0, 0.004175205440883681
666.0, 0.0040288308698228645
667.0, 0.0014049405201740715
668.0, 0.0005328641609025163
669.0, 0.00038052608310732886
670.0, 0.0011063604799556861
671.0, 0.0014590355767813694
672.0, 0.0007766539289774568
673.0, 0.0007489089817497626
674.0, 0.0002497393348665495
675.0, 0.0009764067356462201
676.0, 0.0005907229039696383
677.0, 0.0006301305493667941
678.0, 0.0007593812686031867
679.0, 0.0004410639680565273
680.0, 0.00023345141523096205
681.0, 0.00035262177590580717
682.0, 0.001671801285913052
683.0, 0.002107526420964986
684.0, 0.0018137482900504646
685.0, 0.0014903820158240317
686.0, 0.0015460260660963697
687.0, 0.0017923269361559983
688.0, 0.0017044742736630153
689.0, 0.0017947358261218686
690.0, 0.0018523906187327816
691.0, 0.0016555621730243628
692.0, 0.001334625696642592
693.0, 0.0014728479125329492
694.0, 0.001789337861336426
695.0, 0.0005770935980207146
696.0, 3.616831038055025e-05
697.0, 0.0010567375111980191
698.0, 0.0006898128826491336
699.0, 0.0004071363840492144
700.0, 0.0006142929140866871
701.0, 0.0012354541240920099
702.0, 0.0019511926318706184
703.0, 0.0007185246569380447
704.0, 0.00018126447146546453
705.0, 4.7304954637758336e-05
706.0, 0.0007090380264473406
707.0, 0.0008684408489711635
708.0, 0.0007830613574923963
709.0, 0.0015592269323997671
710.0, 0.0024848702052070867
711.0, 0.0012425361566494948
712.0, 0.004422110854352242
713.0, 0.0037871342373843727
714.0, 0.00546661720143116
715.0, 0.006436067562516363
716.0, 0.005436770220862823
717.0, 0.00789922265756334
718.0, 0.008091111784496058
719.0, 0.009114938689348038
720.0, 0.008634442705830867
721.0, 0.00954664549009314
722.0, 0.010995723100963476
723.0, 0.012664444610534491
724.0, 0.014993419029885316
725.0, 0.017060325854073875
726.0, 0.016019039698634194
727.0, 0.015626376397865616
728.0, 0.01878311069522461
729.0, 0.02100964315194248
730.0, 0.022325186524782797
731.0, 0.024011626120393956
732.0, 0.025610509748115396
733.0, 0.026127739734235843
734.0, 0.02683426253313355
735.0, 0.025516046782226017
736.0, 0.023867296989410435
737.0, 0.022932667431010002
738.0, 0.022506036259265658
739.0, 0.021697967007479807
740.0, 0.020122465910743424
741.0, 0.01936123073503581
742.0, 0.017960836702415314
743.0, 0.01702383137828183
744.0, 0.015296403097575025
745.0, 0.012786964352256387
746.0, 0.01114484934730322
747.0, 0.010857618964463762
748.0, 0.008318529343319024
749.0, 0.011299799727459531
750.0, 0.006684610041946226
751.0, 0.0058366105145243475
752.0, 0.006620061880326245
753.0, 0.006696982051623821
754.0, 0.004905070214785732
755.0, 0.001872943987436359
756.0, 0.0018692387010700532
757.0, 0.0006434551666927101
758.0, 0.0012146963220498628
759.0, 0.0008578066096808421
760.0, 0.0002972953051315799
761.0, 0.0004420993965667553
762.0, 0.0007872446286880068
763.0, 0.0006406828126965902
764.0, 0.005154203987022982
765.0, 0.0011495062866796687
766.0, 0.0014068257375230311
767.0, 0.0020473779968789
768.0, 0.0012463304127318876
769.0, 0.0009787039269166299
770.0, 0.002425063348547224
771.0, 0.002209198557928517
772.0, 0.001891350190637173
773.0, 0.0010068990033513167
774.0, 0.0010228937657350702
775.0, 0.0008950495367014118
776.0, 0.0004485241010517617
777.0, 8.87181899406315e-05
778.0, 0.00038136375060217754
779.0, 0.0014399122700396662
780.0, 0.0008802637100789709
781.0, 0.0014035429660054384
782.0, 0.0008463361664127734
783.0, 0.0013674225305218336
784.0, 0.0017316937338146046
785.0, 0.0013302308922680196
786.0, 0.001086420979413021
787.0, 0.0011640511250796464
788.0, 0.0003828888319613967
789.0, 0.00012045209280757288
790.0, 0.0015684966673117676
791.0, 0.0013966388674298974
792.0, 0.0009844517799321422
793.0, 0.0010357180979389039
794.0, 0.0007051584416467237
795.0, 0.0011491734355811305
796.0, 0.003091641252622147
797.0, 0.0018737712897086982
798.0, 0.001358743193893798
799.0, 0.0016966250192878218
800.0, 0.0017986337224736753
801.0, 0.0017060644463589589
802.0, 0.0019513849284558628
803.0, 0.0014873495408206545
804.0, 0.0014581403546680748
805.0, 0.0003705937491781277
806.0, 0.0006455113860571896
807.0, 0.0004799425640312769
808.0, 0.0003652025806466236
809.0, 0.0004703845406652796
810.0, 0.0007500426611570096
811.0, 0.002245695068045344
812.0, 0.0018285301805003235
813.0, 0.0010905768994099881
814.0, 0.001940861231842134
815.0, 0.0010765267985731858
816.0, 0.0010077927927349527
817.0, 0.0018177065575008028
818.0, 0.0020260538524058277
819.0, 0.0027890557261904198
820.0, 0.0020394461657710214
821.0, 0.0003694007888816654
822.0, 0.000670154176937101
823.0, 0.0014745612797536292
824.0, 0.0016156481951321543
825.0, 0.0016380488137112245
826.0, 0.0024784780931763235
827.0, 0.003460351703941616
828.0, 0.0019043686223531686
829.0, 0.0014901294346949911
830.0, 0.003051077042190071
831.0, 0.004946095153793845
832.0, 0.0045894096152116525
833.0, 0.004072862700057185
834.0, 0.004169740306075685
835.0, 0.0030137165598848044
836.0, 0.004474024770413138
837.0, 0.006118001738832797
838.0, 0.004348326317581106
839.0, 0.005472674054173244
840.0, 0.006052728273670266
841.0, 0.004159906178584905
842.0, 0.0025087146293227697
843.0, 0.003733119118076093
844.0, 0.003977613239364106
845.0, 0.0027807843545978287
846.0, 0.0005738183918039269
847.0, 0.0018441798599594448
848.0, 0.0035981016709202953
849.0, 0.0032295217454380142
850.0, 0.002492126199547786
851.0, 0.002895104268321536
852.0, 0.0027684868161621107
853.0, 0.006601599075404664
854.0, 0.004716171010544866
855.0, 0.005372838180040537
856.0, 0.004004797291364688
857.0, 0.004930751785102329
858.0, 0.006163823283191662
859.0, 0.004640464166857167
860.0, 0.00239263498196058
861.0, 0.00446003121186179
862.0, 0.004530809597732867
863.0, 0.004093106923999722
864.0, 0.004097622577887376
865.0, 0.00394930749393356
866.0, 0.00474236710427517
867.0, 0.00561574628953203
868.0, 0.0060436705279267025
869.0, 0.007653499662769744
870.0, 0.007032406809528972
871.0, 0.00485981607122189
872.0, 0.005828758589657757
873.0, 0.004942706283211285
874.0, 0.004525057059070639
875.0, 0.004731181276673725
876.0, 0.004994221790557232
877.0, 0.005764932854872107
878.0, 0.0071003354105447555
879.0, 0.005637853522869289
880.0, 0.006507303620619765
881.0, 0.007779204302553289
882.0, 0.007225122727923917
883.0, 0.007016723372207848
884.0, 0.00860032680839936
885.0, 0.009586685751035714
886.0, 0.00784513669266535
887.0, 0.010470660627371547
888.0, 0.008426980291395844
889.0, 0.007013456835364871
890.0, 0.012810598953256253
891.0, 0.013879268490050441
892.0, 0.014335168247296214
893.0, 0.015466797452451275
894.0, 0.015218310511024617
895.0, 0.01631462739060141
896.0, 0.015173886804455916
897.0, 0.019494952704070444
898.0, 0.02395979640108227
899.0, 0.02290905404201385
900.0, 0.02558446006157563
901.0, 0.029041663234818577
902.0, 0.03051058725175118
903.0, 0.03332895786125947
904.0, 0.03948727130368865
905.0, 0.04405111348413218
906.0, 0.04496920913318531
907.0, 0.0500386427152946
908.0, 0.05663157237618062
909.0, 0.0651836562676397
910.0, 0.07441382758599266
911.0, 0.08291708162778323
912.0, 0.09089318964496396
913.0, 0.09998641333547617
914.0, 0.11308693439122419
915.0, 0.13155574632766032
916.0, 0.14737234678263408
917.0, 0.1667292507095417
918.0, 0.1911276396398123
919.0, 0.22300553771243906
920.0, 0.25937290328417345
921.0, 0.299203568354024
922.0, 0.3527338159275272
923.0, 0.39647672655563737
924.0, 0.4557293422005545
925.0, 0.5203040377220496
926.0, 0.5906552070680771
927.0, 0.654576612412159
928.0, 0.7127639978270424
929.0, 0.7644207050318416
930.0, 0.7997702158522663
931.0, 0.8132955610578688
932.0, 0.8153785094591657
933.0, 0.7918825223876428
934.0, 0.7502437467095918
935.0, 0.6973241531642812
936.0, 0.6387302161143402
937.0, 0.5732106502205558
938.0, 0.5059439507672402
939.0, 0.44552860948683143
940.0, 0.39157806519786675
941.0, 0.34700314899052037
942.0, 0.303701925546305
943.0, 0.27199137478650987
944.0, 0.2399826299688752
945.0, 0.21696441947883163
946.0, 0.19491310076837073
947.0, 0.17163957396193735
948.0, 0.15109528573309322
949.0, 0.13177716502805417
950.0, 0.1201644675346426
951.0, 0.10480783548718824
952.0, 0.08940134132867168
953.0, 0.08023674053307689
954.0, 0.07001240029993626
955.0, 0.062372225561183145
956.0, 0.0570949123151323
957.0, 0.05124934387445304
958.0, 0.04516044678501784
959.0, 0.03985158861470787
960.0, 0.04173991610083137
961.0, 0.03806633874340551
962.0, 0.036792365958615285
963.0, 0.0351524251266163
964.0, 0.03368260546732242
965.0, 0.03339358749510718
966.0, 0.033392359133926804
967.0, 0.03305450761722823
968.0, 0.03460294685621706
969.0, 0.036543739253939896
970.0, 0.037842278736792204
971.0, 0.03998294881638367
972.0, 0.04302068112222208
973.0, 0.04472334025773782
974.0, 0.04771774329722721
975.0, 0.05282310377966213
976.0, 0.05732112845050757
977.0, 0.060495740292673586
978.0, 0.06810711965947151
979.0, 0.07186872927562817
980.0, 0.07925834111277255
981.0, 0.09212058937241784
982.0, 0.10227941629658084
983.0, 0.11481283841276152
984.0, 0.12969886293680064
985.0, 0.14619437525091708
986.0, 0.16721613785944017
987.0, 0.1942901175072882
988.0, 0.2220317339562219
989.0, 0.2587324557374255
990.0, 0.30032186286394974
991.0, 0.34583545016879497
992.0, 0.4017036409852576
993.0, 0.4630560732274718
994.0, 0.5271751918638558
995.0, 0.593882337564069
996.0, 0.6630223225651104
997.0, 0.7358178816675712
998.0, 0.8075089214174266
999.0, 0.8603066573392386
1000.0, 0.9137142474420847
1001.0, 0.9542019474552931
1002.0, 0.9820044335885662
1003.0, 0.9948342970053227
1004.0, 0.998472663671646
1005.0, 0.9942515029178987
1006.0, 0.9760147451070245
1007.0, 0.9510088304718649
1008.0, 0.9099473044599712
1009.0, 0.8557601224348301
1010.0, 0.8155076111111229
1011.0, 0.7618619416631195
1012.0, 0.7121470554862475
1013.0, 0.6639951214215745
1014.0, 0.6102480380770362
1015.0, 0.5533802719168949
1016.0, 0.5001495502584777
1017.0, 0.4506759210327017
1018.0, 0.40559904995316043
1019.0, 0.3617705237515513
1020.0, 0.3208647949571666
1021.0, 0.2839237189914535
1022.0, 0.2523738988468312
1023.0, 0.22241265269429503
1024.0, 0.19810692101568975
1025.0, 0.17976443245180407
1026.0, 0.16050575446451987
1027.0, 0.1477529015408296
1028.0, 0.13181025349979383
1029.0, 0.12244306692373087
1030.0, 0.11372594535647543
1031.0, 0.10781131291129514
1032.0, 0.10159946412194636
1033.0, 0.09566401171098118
1034.0, 0.09097984629730213
1035.0, 0.08878552569255306
1036.0, 0.0887587890167813
1037.0, 0.08653993388637457
1038.0, 0.08644867877095067
1039.0, 0.07988998498666301
1040.0, 0.07709687289565917
1041.0, 0.07185630125716196
1042.0, 0.06738293988801199
1043.0, 0.06348833075041954
1044.0, 0.06033502930507414
1045.0, 0.05426012317556715
1046.0, 0.04541152346078502
1047.0, 0.04365478204686366
1048.0, 0.04038106438451791
1049.0, 0.03758234804784115
1050.0, 0.034665722652568676
1051.0, 0.03162364043686465
1052.0, 0.029094901403910002
1053.0, 0.027715976118785787
1054.0, 0.024627263221441053
1055.0, 0.021966458690463833
1056.0, 0.022650303348701092
1057.0, 0.023127872661512297
1058.0, 0.020421479001068995
1059.0, 0.016642543835747224
1060.0, 0.017385841240781474
1061.0, 0.015725612120007556
1062.0, 0.016533689686751
1063.0, 0.015981289730665673
1064.0, 0.017018931383459907
1065.0, 0.016013057142553924
1066.0, 0.015273304969649694
1067.0, 0.017954033506120782
1068.0, 0.014967552301607113
1069.0, 0.018658630222753485
1070.0, 0.020010824558077227
1071.0, 0.01896225241830155
1072.0, 0.019861450389296154
1073.0, 0.02086061254301444
1074.0, 0.022595419135839925
1075.0, 0.02579267568166126
1076.0, 0.029747392619637318
1077.0, 0.033383884008143065
1078.0, 0.037113991011083904
1079.0, 0.04272188542230422
1080.0, 0.050012679143570826
1081.0, 0.05086160476775526
1082.0, 0.0628930147470019
1083.0, 0.07006277361948167
1084.0, 0.07526936170851084
1085.0, 0.07992493408139015
1086.0, 0.08436672348657853
1087.0, 0.08761889294125738
1088.0, 0.08852694253944711
1089.0, 0.08764965836707936
1090.0, 0.08629807980471534
1091.0, 0.08103851287474007
1092.0, 0.07388838097649923
1093.0, 0.06679961833173073
1094.0, 0.060280744076769366
1095.0, 0.0537991435158739
1096.0, 0.04817532722999278
1097.0, 0.04215544759357183
1098.0, 0.03561270676356103
1099.0, 0.029743542697742962
1100.0, 0.025125182359491183
1101.0, 0.021448277831576223
1102.0, 0.016019880979073337
1103.0, 0.015477634564002385
1104.0, 0.013328228113167051
1105.0, 0.011686331027195632
1106.0, 0.01009329418524049
1107.0, 0.008843761904853717
1108.0, 0.006753861602224924
1109.0, 0.005497097361517926
1110.0, 0.00601025653334741
1111.0, 0.006183671820247019
1112.0, 0.00548849866718581
1113.0, 0.00366960604579126
1114.0, 0.0036391990797619285
1115.0, 0.004353960324297679
1116.0, 0.005934306943218146
1117.0, 0.005667468909749339
1118.0, 0.0071205733276958
1119.0, 0.0069966830872099425
1120.0, 0.007888590175101988
1121.0, 0.010276472745611222
1122.0, 0.009819705232921321
1123.0, 0.007583846530860619
1124.0, 0.007701634256764976
1125.0, 0.009553043711041799
1126.0, 0.007266550264977419
1127.0, 0.0050784268352609616
1128.0, 0.00588730676970817
1129.0, 0.0066560802334353145
1130.0, 0.004458630019851627
1131.0, 0.0021011423688542916
1132.0, 0.0019205499793301384
1133.0, 0.002272283077206416
1134.0, 0.0016001772943508908
1135.0, 0.0020935070972420105
1136.0, 0.004016114417286529
1137.0, 0.002766426884599119
1138.0, 0.003777340693368605
1139.0, 0.005356669257414467
1140.0, 0.002072802059546318
1141.0, 0.002568616207385707
1142.0, 0.002782904566532572
1143.0, 0.0032088752279801603
1144.0, 0.0034740838646210807
1145.0, 0.001563755262222196
1146.0, 0.0005092373408690355
1147.0, 0.002342568881957606
1148.0, 0.003401416317199774
1149.0, 0.003447879905317176
1150.0, 0.004775898455019926
1151.0, 0.0029307383088061157
1152.0, 0.0031645435881719067
1153.0, 0.0017565793961188921
1154.0, 0.0010885139655552954
1155.0, 0.002160313717043472
1156.0, 0.0020063904399582368
1157.0, 0.0004175114317567284
1158.0, 0.0012862953802760815
1159.0, 0.0029790778136107353
1160.0, 0.0005023313306616413
1161.0, 0.0020383836263260765
1162.0, 0.0017197157851615832
1163.0, 0.001093694100917831
1164.0, 0.0004396013009109194
1165.0, 0.0022089771845048203
1166.0, 0.0024201152900287237
1167.0, 0.001082154524096555
1168.0, 0.0010893430682866986
1169.0, 0.001969989321825732
1170.0, 0.001255479738738269
1171.0, 0.000329981011403847
1172.0, 0.0001765941342318551
1173.0, 0.0009545434936304566
1174.0, 0.0008465720864447738
1175.0, 0.0009049372549688428
1176.0, 0.000652840672643897
1177.0, 0.00048227172429303336
1178.0, 0.0004570045007951925
1179.0, 0.0003319164905715358
1180.0, 0.00044942197977066394
1181.0, 0.0006254270010666422
1182.0, 0.0003417549260472838
1183.0, 0.000617146066573291
1184.0, 0.0021809173969542885
1185.0, 0.0013182855556320371
1186.0, 0.0012801837596911197
1187.0, 0.000360091854609062
1188.0, 0.0018520397572024095
1189.0, 0.0019414428420389733
1190.0, 0.0012777670136630264
1191.0, 0.0014688402528205402
1192.0, 0.0021775397527880303
1193.0, 0.0015196827359355636
1194.0, 0.00022204474052581807
1195.0, 0.0012111392374810582
1196.0, 0.003078135580023054
1197.0, 0.0020710195532625615
1198.0, 0.004746189739480102
1199.0, 0.00025755268599366105
1200.0, 0.00235199661548223
1201.0, 0.002711214412750011
1202.0, 0.0010126078925995338
1203.0, 0.0002714208614365496
1204.0, 0.001342761821526341
1205.0, 0.0012392600598742987
1206.0, 0.00031428056211994126
1207.0, 0.0004584813503069618
1208.0, 0.0008230066157813285
1209.0, 0.0016028751167205348
1210.0, 0.001309589924345571
1211.0, 0.002272535745903719
1212.0, 0.000768087724126847
1213.0, 0.002500797995306659
1214.0, 0.0011666617835682156
1215.0, 0.0010170236428475618
1216.0, 0.0005934469064035571
1217.0, 0.0005251704919067617
1218.0, 0.0008841827347604259
1219.0, 0.0010822851247331397
1220.0, 0.0010167236383854467
1221.0, 0.0007895837185461099
1222.0, 0.0005680824645293699
1223.0, 0.0009051058635690151
1224.0, 7.339985397920206e-05
1225.0, 0.001094875975169563
1226.0, 0.0010152837197687783
1227.0, 0.0030878454657074844
1228.0, 0.002864592488824686
1229.0, 0.002748235289668033
1230.0, 0.0016710889162488227
1231.0, 0.0018802259236544454
1232.0, 0.0014519203286291653
1233.0, 0.0004870424143153957
1234.0, 0.0016707097758903186
1235.0, 0.002573687036832637
1236.0, 0.0014641020389588011
1237.0, 0.0005039249446821209
1238.0, 0.002276659381346477
1239.0, 0.002399987525576485
1240.0, 0.0004132951017184213
1241.0, 0.0015472129966432493
1242.0, 0.0021762355883358253
1243.0, 0.003126973539030669
1244.0, 0.002392608976147101
1245.0, 0.0019217564945972604
1246.0, 0.0033202601656133627
1247.0, 0.003276418019452246
1248.0, 0.0008134634528067705
1249.0, 0.0002578374580067564
1250.0, 0.0004616129629441561
1251.0, 0.001899879631640162
1252.0, 0.0021629057569856705
1253.0, 0.0012166217190678315
1254.0, 0.0019289682879904961
1255.0, 0.0005214801341297127
1256.0, 0.0009115979303806583
1257.0, 0.0020664490906003134
1258.0, 0.002856212978805074
1259.0, 0.0039060252278978404
1260.0, 0.005007905275472394
1261.0, 0.004001826532734792
1262.0, 0.0027284643207113888
1263.0, 0.0041600837568329906
1264.0, 0.003843452576457293
1265.0, 0.005835366437839729
1266.0, 0.0006067091615894817
1267.0, 0.0005910223463967825
1268.0, 0.0025998913683115913
1269.0, 0.003886259564741008
1270.0, 0.002919232518852024
1271.0, 0.003667206212722998
1272.0, 0.0015207194623174341
1273.0, 0.0018696217167163318
1274.0, 0.003253727234109858
1275.0, 0.0018836971949026178
1276.0, 0.0014087384821752683
1277.0, 0.0029833415910111216
1278.0, 0.0020277093521681574
1279.0, 0.003389830453900889
1280.0, 0.0015752533574910296
1281.0, 0.0007248922306594026
1282.0, 0.002231085910254635
1283.0, 0.0043690170372283205
1284.0, 0.0028784409298709818
1285.0, 0.004498025412458214
1286.0, 0.003831328904353347
1287.0, 0.00485878388043502
1288.0, 0.004166416270483226
1289.0, 0.0029784089002399205
1290.0, 0.0039860066549199805
1291.0, 0.005048989758049377
1292.0, 0.0043948096952895485
1293.0, 0.004274266430283433
1294.0, 0.0057116370837529875
1295.0, 0.007296095711119747
1296.0, 0.006542132107834372
1297.0, 0.006431216520040243
1298.0, 0.00616627592452764
1299.0, 0.00442209962447083
1300.0, 0.003995196691637592
1301.0, 0.0037782034066582816
1302.0, 0.004363427160975451
1303.0, 0.003393363036396476
1304.0, 0.00351088353683461
1305.0, 0.0038670059984968466
1306.0, 0.00371209965075474
1307.0, 0.0036575840288143625
1308.0, 0.003041231898178548
1309.0, 0.0029733044247889496
1310.0, 0.001521049209546548
1311.0, 0.004018094140292954
1312.0, 0.0028993757786866035
1313.0, 0.004332363387725526
1314.0, 0.004775133730326964
1315.0, 0.004678069207299277
1316.0, 0.002368816762648314
1317.0, 0.0030063923432053965
1318.0, 0.0021943879745006077
1319.0, 0.002390018836014005
1320.0, 0.004351210227273324
1321.0, 0.004807812564912625
1322.0, 0.0044303762207578935
1323.0, 0.003712688143102734
1324.0, 0.0029812862600626226
1325.0, 0.005550487194922681
1326.0, 0.0035038656230964825
1327.0, 0.005956952322306892
1328.0, 0.005508299466333409
1329.0, 0.0026902846642283523
1330.0, 0.00539471964313986
1331.0, 0.003327543270972191
1332.0, 0.002571716555364382
1333.0, 0.0045611036419799115
1334.0, 0.004095615795942445
1335.0, 0.0024718411076552855
1336.0, 0.004270113482912525
1337.0, 0.005002998784704748
1338.0, 0.004563337139941235
1339.0, 0.004892165524450427
1340.0, 0.004954585766529428
1341.0, 0.005549235536642534
1342.0, 0.004987036659774514
1343.0, 0.0045586732520399905
1344.0, 0.004993014604253937
1345.0, 0.005373487689571074
1346.0, 0.006923189619864335
1347.0, 0.006298344821538935
1348.0, 0.009234159158626685
1349.0, 0.0060682750904718745
1350.0, 0.005254228727436198
1351.0, 0.004428497219883152
1352.0, 0.005765331371415145
1353.0, 0.005664568908517546
1354.0, 0.005397177745634755
1355.0, 0.005233527661438409
1356.0, 0.0053976315986428965
1357.0, 0.006328998634782542
1358.0, 0.005775258166662636
1359.0, 0.006149394428897637
1360.0, 0.010068561569098855
1361.0, 0.008263415505142032
1362.0, 0.007073717861542405
1363.0, 0.00834293198044905
1364.0, 0.006136749803320238
1365.0, 0.00707391479062081
1366.0, 0.007778601430050663
1367.0, 0.004803149545267554
1368.0, 0.0036566268705100634
1369.0, 0.00373441353914604
1370.0, 0.0028911169247222844
1371.0, 0.0036921530211695636
1372.0, 0.006628298245684753
1373.0, 0.006149831691927845
1374.0, 0.0030569632525318667
1375.0, 0.0036280145580616396
1376.0, 0.005756629869841732
1377.0, 0.004555491248000618
1378.0, 0.00511464342446716
1379.0, 0.009360757196919757
1380.0, 0.004983087032899796
1381.0, 0.002811043608916388
1382.0, 0.006642340132306133
1383.0, 0.002417603313828402
1384.0, 0.004867817322076069
1385.0, 0.0020699622372138057
1386.0, 0.0017723166649113616
1387.0, 0.004800091011884151
1388.0, 0.005257871785492839
1389.0, 0.0062704415867629645
1390.0, 0.005700641150307331
1391.0, 0.004214309980331845
1392.0, 0.0036375642300980563
1393.0, 0.005243788217680417
1394.0, 0.006401936464182603
1395.0, 0.005529309064914579
1396.0, 0.0066721248959490075
1397.0, 0.004836749377974285
1398.0, 0.003624863377297124
1399.0, 0.005007202318498361
1400.0, 0.0030511822737681114
1401.0, 0.004437337222697368
1402.0, 0.002631236697887846
1403.0, 0.00023870245563383484
1404.0, 0.0024270478864909313
1405.0, 0.0022962788841417773
1406.0, 0.004179375301817364
1407.0, 0.0030294529804897738
1408.0, 0.0017756013699794836
1409.0, 0.002062129489841204
1410.0, 0.001172287653941442
1411.0, 0.0017140674709322202
1412.0, 0.0033146064148754195
1413.0, 0.0023682735599957565
1414.0, 0.0013661761154754328
1415.0, 0.002061766986330087
1416.0, 0.00137976693698145
1417.0, 0.0013594124968815888
1418.0, 0.0003872486651486239
1419.0, 0.0009218613134516765
1420.0, 0.0005164538846014904
1421.0, 0.001031734199506725
1422.0, 0.0015919468049346713
1423.0, 0.0017083828406061498
1424.0, 0.003182161968741182
1425.0, 0.001982287487249525
1426.0, 0.002924712839382816
1427.0, 0.004302452489276118
1428.0, 0.0017206072251654883
1429.0, 0.003653446270533667
1430.0, 0.003580053197913293
1431.0, 0.0030650562308598794
1432.0, 0.002394233202928833
1433.0, 0.0021258036944760542
1434.0, 0.0023549229513210607
1435.0, 0.0019390122497897364
1436.0, 0.0020374542761289628
1437.0, 0.0021857299505811862
1438.0, 0.00230594003049034
1439.0, 0.003557598154508749
1440.0, 0.0037143177588574
1441.0, 0.004757629628393685
1442.0, 0.005052627355635862
1443.0, 0.004382768528960794
1444.0, 0.0043166019877194615
1445.0, 0.007283808126272782
1446.0, 0.004862794488813682
1447.0, 0.006597051328164113
1448.0, 0.005387293299850048
1449.0, 0.007138726358771862
1450.0, 0.006278668928407199
1451.0, 0.0039317097236410605
1452.0, 0.0020187351181311583
1453.0, 0.002834395025839859
1454.0, 0.004398994866011729
1455.0, 0.0038015250008828026
1456.0, 0.0031897202538145944
1457.0, 0.0032924424581382014
1458.0, 0.0028079560587854673
1459.0, 0.003233973955389458
1460.0, 0.003983341833955414
1461.0, 0.004029417913989404
1462.0, 0.006210229482328726
1463.0, 0.0071674583828000024
1464.0, 0.004844232889068288
1465.0, 0.004689649843524648
1466.0, 0.007712914738881794
1467.0, 0.005252288168711121
1468.0, 0.003813975733887788
1469.0, 0.0044374397350132756
1470.0, 0.0069807078137083525
1471.0, 0.00646406949436885
1472.0, 0.004678189036928511
1473.0, 0.005689965681100431
1474.0, 0.0036099283375736506
1475.0, 0.007038652718711025
1476.0, 0.005566278048753426
1477.0, 0.005073362588072793
1478.0, 0.003588980071174942
1479.0, 0.0042192363359292925
1480.0, 0.006229353793023542
1481.0, 0.004935817994835263
1482.0, 0.003572034136995499
1483.0, 0.005391840893058338
1484.0, 0.006353277568757292
1485.0, 0.0038661538465934284
1486.0, 0.0029184678898909132
1487.0, 0.0030306757710149013
1488.0, 0.0023885974845209894
1489.0, 0.005053569041105846
1490.0, 0.001059980160331843
1491.0, 0.0037183686538660894
1492.0, 0.0044226916431639365
1493.0, 0.0028729233039991777
1494.0, 0.0014204942134689994
1495.0, 0.0021214088212176837
1496.0, 0.003128310013066021
1497.0, 0.0009343309840776912
1498.0, 0.002111506545193834
1499.0, 0.004112049772502491
1500.0, 0.00309473228772939
1501.0, 0.004046794895740958
1502.0, 0.0030818862128456454
1503.0, 0.003923835346285445
1504.0, 0.005384810993535113
1505.0, 0.0027220464506628596
1506.0, 0.00039665682147446197
1507.0, 0.00013633763602640666
1508.0, 0.0010229217270855517
1509.0, 0.0030270438610015514
1510.0, 0.0040232904868994545
1511.0, 0.0038310189409210224
1512.0, 0.004623998552345763
1513.0, 0.005726126956071675
1514.0, 0.0054199949917865965
1515.0, 0.006275682505406245
1516.0, 0.005791832283730133
1517.0, 0.004631939215104996
1518.0, 0.0026394031492971
1519.0, 0.0006874967172537358
1520.0, 0.002697349465614538
1521.0, 0.0030011218588720514
1522.0, 0.0015028208483235071
1523.0, 0.0018002120686127167
1524.0, 0.001151021681058414
1525.0, 0.003815925229064236
1526.0, 0.0029741960746702237
1527.0, 0.004368873532442341
1528.0, 0.004730836724789673
1529.0, 0.0025766028756711848
1530.0, 0.003704374414724193
1531.0, 0.002818517121355191
1532.0, 0.002834507041487767
1533.0, 0.0018202431285014998
1534.0, 0.0010574344459151125
1535.0, 0.0017297463044246885
1536.0, 0.002153457567557468
1537.0, 0.0021999014146876087
1538.0, 0.002987079494234269
1539.0, 0.004320087447981501
1540.0, 0.005392460613878826
1541.0, 0.007018466343036521
1542.0, 0.009564324154839345
1543.0, 0.011606219625703327
1544.0, 0.01443030355214174
1545.0, 0.016713894239639822
1546.0, 0.012100766880579997
1547.0, 0.008348147318296618
1548.0, 0.010283790327763545
1549.0, 0.005793238362960218
1550.0, 0.007308269203315602
1551.0, 0.005707377348730031
1552.0, 0.008598768309570041
1553.0, 0.008189310082825587
1554.0, 0.00903534789489757
1555.0, 0.006060395071581045
1556.0, 0.0031023137890513457
1557.0, 0.0010415543825151314
1558.0, 9.577641251213084e-05
1559.0, 0.0012644586423994335
1560.0, 0.0008004226334348689
1561.0, 0.0016937252211270994
1562.0, 0.004499871180765134
1563.0, 0.004446235568655017
1564.0, 0.004460746689542712
1565.0, 0.003853817943796288
1566.0, 0.0019507392674153034
1567.0, 0.0021467688283555632
1568.0, 0.006123695623831908
1569.0, 0.003331701483940363
1570.0, 0.0003393869316700755
1571, 0.0
1572, 0.0
1573, 0.0
1574, 0.0
1575, 0.0
1576, 0.0
1577, 0.0
1578, 0.0
1579, 0.0
1580, 0.0
1581, 0.0
1582, 0.0
1583, 0.0
1584, 0.0
1585, 0.0
1586, 0.0
1587, 0.0
1588, 0.0
1589, 0.0
1590, 0.0
1591, 0.0
1592, 0.0
1593, 0.0
1594, 0.0
1595, 0.0
1596, 0.0
1597, 0.0
1598, 0.0
1599, 0.0
