30, 0.0
31, 0.0
32, 0.0
33, 0.0
34, 0.0
35, 0.0
36, 0.0
37, 0.0
38, 0.0
39, 0.0
40, 0.0
41, 0.0
42, 0.0
43, 0.0
44, 0.0
45, 0.0
46, 0.0
47, 0.0
48, 0.0
49, 0.0
50, 0.0
51, 0.0
52, 0.0
53, 0.0
54, 0.0
55, 0.0
56, 0.0
57, 0.0
58, 0.0
59, 0.0
60, 0.0
61, 0.0
62, 0.0
63, 0.0
64, 0.0
65, 0.0
66, 0.0
67, 0.0
68, 0.0
69, 0.0
70, 0.0
71, 0.0
72, 0.0
73, 0.0
74, 0.0
75, 0.0
76, 0.0
77, 0.0
78, 0.0
79, 0.0
80, 0.0
81, 0.0
82, 0.0
83, 0.0
84, 0.0
85, 0.0
86, 0.0
87, 0.0
88, 0.0
89, 0.0
90, 0.0
91, 0.0
92, 0.0
93, 0.0
94, 0.0
95, 0.0
96, 0.0
97, 0.0
98, 0.0
99, 0.0
100, 0.0
101, 0.0
102, 0.0
103, 0.0
104, 0.0
105, 0.0
106, 0.0
107, 0.0
108, 0.0
109, 0.0
110, 0.0
111, 0.0
112, 0.0
113, 0.0
114, 0.0
115, 0.0
116, 0.0
117, 0.0
118, 0.0
119, 0.0
120, 0.0
121, 0.0
122, 0.0
123, 0.0
124, 0.0
125, 0.0
126.0, 7.350125733080003e-05
127.0, 0.006281736848152332
128.0, 0.009035086457792182
129.0, 0.000999091439474418
130.0, 0.01710319799027651
131.0, 0.01212421881609431
132.0, 0.0018136816393729885
133.0, 0.001590012678117146
134.0, 0.005928694780708424
135.0, 0.005484878163670324
136.0, 0.00973154967448896
137.0, 0.02172010555766095
138.0, 0.03225906583891224
139.0, 0.024632198970823922
140.0, 0.0401578238033771
141.0, 0.06818583730030102
142.0, 0.07215139360440447
143.0, 0.06415220978878342
144.0, 0.08464690603588355
145.0, 0.10982007105554574
146.0, 0.11591508036693021
147.0, 0.13665039371986143
148.0, 0.1517960966926929
149.0, 0.15881089280279062
150.0, 0.1629938331090299
151.0, 0.17881122606145905
152.0, 0.18200364719007495
153.0, 0.183904262360417
154.0, 0.19233820234522617
155.0, 0.19815867915664043
156.0, 0.1959993099638435
157.0, 0.1878707579831081
158.0, 0.18230268622010237
159.0, 0.1833960126550597
160.0, 0.1740557592489897
161.0, 0.17248180269187516
162.0, 0.17041892347835014
163.0, 0.15764665951915618
164.0, 0.14552225585530615
165.0, 0.14129096808807518
166.0, 0.13213047989450788
167.0, 0.1122510390655617
168.0, 0.09395665162047927
169.0, 0.0747471801012111
170.0, 0.08043869942734724
171.0, 0.09969410821242274
172.0, 0.0885794733744401
173.0, 0.07136371729591695
174.0, 0.0776452212606106
175.0, 0.0860957594711528
176.0, 0.0652281606526437
177.0, 0.05469175022643207
178.0, 0.04803889128292939
179.0, 0.046340255771151834
180.0, 0.04655488931591132
181.0, 0.02966088968672589
182.0, 0.032395690239815624
183.0, 0.031129632886360722
184.0, 0.022148584214908784
185.0, 0.041516160598615126
186.0, 0.055045262637920166
187.0, 0.04734499305963677
188.0, 0.03432229934338363
189.0, 0.05983264437004323
190.0, 0.04173601192967182
191.0, 0.04510738003625764
192.0, 0.05785622416508169
193.0, 0.045594634963303945
194.0, 0.06412398672018761
195.0, 0.06665897275062074
196.0, 0.06016991538155888
197.0, 0.061946914492254986
198.0, 0.06520359727341725
199.0, 0.05579951837238568
200.0, 0.05165926733522882
201.0, 0.048461202975717065
202.0, 0.03197430796083916
203.0, 0.046853135727801115
204.0, 0.053004704275976276
205.0, 0.04664778530119968
206.0, 0.03792525433508276
207.0, 0.03175309876273443
208.0, 0.04207954623608571
209.0, 0.04055078594788605
210.0, 0.029186552558691944
211.0, 0.042693973759062864
212.0, 0.052354241080410854
213.0, 0.05030589375651368
214.0, 0.045059885920495125
215.0, 0.0470155797074541
216.0, 0.052233493216853055
217.0, 0.057623439531945014
218.0, 0.046587466301408656
219.0, 0.025002302748601796
220.0, 0.029605375029723487
221.0, 0.025402017569023338
222.0, 0.02102413316824014
223.0, 0.020087492426180804
224.0, 0.02158749548360535
225.0, 0.024515390022601207
226.0, 0.031358986764483066
227.0, 0.0345852755940149
228.0, 0.027290626043862766
229.0, 0.018071574083935435
230.0, 0.013886800134988747
231.0, 0.011131402105488332
232.0, 0.016484579471123667
233.0, 0.04833002040667447
234.0, 0.05197841340331208
235.0, 0.039262488602337456
236.0, 0.031056986535674957
237.0, 0.03528752018060381
238.0, 0.037238998483011314
239.0, 0.04498203133072172
240.0, 0.045403154689439645
241.0, 0.0323878419158645
242.0, 0.0024989943727698177
243.0, 0.030108024176409367
244.0, 0.0059670434705128075
245.0, 0.009045325774720862
246.0, 0.015212664043450922
247.0, 0.014465199892131327
248.0, 0.01823789036846633
249.0, 0.017554408093447674
250.0, 0.020338669728823016
251.0, 0.01242975846314732
252.0, 0.012155076246676907
253.0, 0.011463256674805439
254.0, 0.006611754710462608
255.0, 0.013915195333609125
256.0, 0.003255547321819645
257.0, 0.007586140525918717
258.0, 0.014820938186474009
259.0, 0.009969295293781395
260.0, 0.0013997480102329344
261.0, 0.010760130709468426
262.0, 0.014258123115755748
263.0, 0.005452212435540413
264.0, 0.002551756833881754
265.0, 0.014894193729073071
266.0, 0.006294089234931771
267.0, 0.017261659538838077
268.0, 0.01317182777187348
269.0, 0.009737839506374428
270.0, 0.006189079626411575
271.0, 0.001361019221924231
272.0, 0.005387348585689954
273.0, 0.007969226282168397
274.0, 0.0030698732552159676
275.0, 0.005654120996183443
276.0, 0.009223231968943695
277.0, 0.0028284010224020866
278.0, 0.014576482187486733
279.0, 0.008656944046104615
280.0, 0.014313735942043378
281.0, 0.04257169654769114
282.0, 0.03418451708242351
283.0, 0.0076146680788103166
284.0, 0.008699264315901411
285.0, 0.009507396108410207
286.0, 0.010494673186931536
287.0, 0.030462125509676075
288.0, 0.04253097428846484
289.0, 0.03507230165092367
290.0, 0.036115209992658076
291.0, 0.05774940135185346
292.0, 0.07570481005148595
293.0, 0.06117855968562187
294.0, 0.057288617497302255
295.0, 0.07162096534888819
296.0, 0.09155878960388493
297.0, 0.10739637997296445
298.0, 0.11826741889158235
299.0, 0.11511626350846108
300.0, 0.10693126528564977
301.0, 0.11357287704287546
302.0, 0.12991949338161904
303.0, 0.14232822071568932
304.0, 0.1387553024665359
305.0, 0.12918758318845272
306.0, 0.1405021356380429
307.0, 0.14357738340703732
308.0, 0.14888679183699374
309.0, 0.1540865173014988
310.0, 0.1501486517306611
311.0, 0.14281119301820944
312.0, 0.14218155132255703
313.0, 0.137246558811699
314.0, 0.13416468042913918
315.0, 0.1468859955986191
316.0, 0.1474239180843117
317.0, 0.1420893336439227
318.0, 0.14779781391092553
319.0, 0.153948328860452
320.0, 0.13223180048624641
321.0, 0.13283837412233374
322.0, 0.12279390934696821
323.0, 0.11088604588312705
324.0, 0.11426692984257018
325.0, 0.11941605188504094
326.0, 0.10836722785885057
327.0, 0.10049960407522142
328.0, 0.1032878728913158
329.0, 0.10996864498762006
330.0, 0.10551359228753483
331.0, 0.0950221905313875
332.0, 0.09259982110599056
333.0, 0.10044274997726703
334.0, 0.11119228743617393
335.0, 0.09850015994388761
336.0, 0.1049424092160845
337.0, 0.1030466571394987
338.0, 0.08654480480263853
339.0, 0.09168131350969931
340.0, 0.10013411871892544
341.0, 0.09546963434486834
342.0, 0.09530063580196345
343.0, 0.1013548331340951
344.0, 0.07307838277058476
345.0, 0.0644953896085853
346.0, 0.08042584127719898
347.0, 0.08591978864609495
348.0, 0.0705627759573985
349.0, 0.0692927084475124
350.0, 0.06853186142962088
351.0, 0.055181902112586445
352.0, 0.050908575663447295
353.0, 0.059753154727620245
354.0, 0.026829494858938346
355.0, 0.05059535805357295
356.0, 0.0650286025931766
357.0, 0.05167175966647212
358.0, 0.042366821905846175
359.0, 0.048690637986637024
360.0, 0.05029364732478902
361.0, 0.043103253215863765
362.0, 0.032086815740336616
363.0, 0.025762997641625512
364.0, 0.033823723034221265
365.0, 0.033974639659807036
366.0, 0.03138576163825078
367.0, 0.042669530108959956
368.0, 0.0719063223490803
369.0, 0.054541191437947716
370.0, 0.03842882453241445
371.0, 0.04494380840634509
372.0, 0.056011575407270996
373.0, 0.042011627102004824
374.0, 0.042975786377575445
375.0, 0.0431813087927329
376.0, 0.03704476017381113
377.0, 0.02793740911556632
378.0, 0.022320779768438014
379.0, 0.034373033023502184
380.0, 0.030368042847545657
381.0, 0.018721601449482168
382.0, 0.02009720367930892
383.0, 0.0288961422273962
384.0, 0.029500353682267822
385.0, 0.014996877164211674
386.0, 0.0061227347466167184
387.0, 0.01014305478049661
388.0, 0.006320970736811484
389.0, 0.009498708430120708
390.0, 0.019991911382025305
391.0, 0.01961307369160769
392.0, 0.004773809016318512
393.0, 0.014260399871493842
394.0, 0.004145621045355609
395.0, 0.005518274734226895
396.0, 0.008709841838852334
397.0, 0.012334876303989226
398.0, 0.0016808933002889711
399.0, 0.00426186807904102
400.0, 0.003996846784051234
401.0, 0.0038885602873571503
402.0, 0.00755212906957559
403.0, 0.003061548559595125
404.0, 0.02031720771642793
405.0, 0.021430421953592047
406.0, 0.014079992040175706
407.0, 0.013906476176957689
408.0, 0.01583689625158506
409.0, 0.018398844010692587
410.0, 0.029177332815744292
411.0, 0.042120914120737936
412.0, 0.04663097278403755
413.0, 0.03775598842429948
414.0, 0.027899218022427407
415.0, 0.030031438003041068
416.0, 0.05081315723322421
417.0, 0.07574152787896597
418.0, 0.05674735442233199
419.0, 0.09416264436619619
420.0, 0.08894490351333097
421.0, 0.08211517129090382
422.0, 0.11280471794870102
423.0, 0.12950562683437392
424.0, 0.13392666770901793
425.0, 0.1534046528109815
426.0, 0.17473465716570388
427.0, 0.18776878172298025
428.0, 0.20540068637933098
429.0, 0.2304792661334924
430.0, 0.24491730107071494
431.0, 0.26563342684738595
432.0, 0.28610994774921866
433.0, 0.2941647010559208
434.0, 0.3286270126741345
435.0, 0.33693148786184324
436.0, 0.35518236488086696
437.0, 0.38787469621500237
438.0, 0.41173172290128734
439.0, 0.44345153386833824
440.0, 0.4511285852642637
441.0, 0.452947868453266
442.0, 0.45623375099698105
443.0, 0.4513417171375201
444.0, 0.43477858809733594
445.0, 0.4090115043087642
446.0, 0.38920875282647477
447.0, 0.37331741007332414
448.0, 0.3514675458648503
449.0, 0.31926335530343003
450.0, 0.28565644380008387
451.0, 0.26341378815208466
452.0, 0.24046864278098196
453.0, 0.21704692413582946
454.0, 0.20463417315805696
455.0, 0.1823556584141492
456.0, 0.1596318538071805
457.0, 0.14442492700520382
458.0, 0.13087847067724162
459.0, 0.10861984054466513
460.0, 0.08486239877858047
461.0, 0.08770860174239492
462.0, 0.08744540101855151
463.0, 0.08363668799083755
464.0, 0.07128237257174307
465.0, 0.08439322200287673
466.0, 0.05737038516949936
467.0, 0.04568958117757652
468.0, 0.034790725069551734
469.0, 0.0398355159899724
470.0, 0.032692341852803244
471.0, 0.03441956550414571
472.0, 0.028791600200639388
473.0, 0.03163387175806801
474.0, 0.030228702629016696
475.0, 0.035137437215956024
476.0, 0.028128910513073414
477.0, 0.006782346323403923
478.0, 0.008611428253498539
479.0, 0.006492764589672069
480.0, 0.0009596549905893667
481.0, 0.004160103168894622
482.0, 0.005080051470266467
483.0, 0.005987337092936441
484.0, 0.00036227808421542294
485.0, 0.0013189771092704827
486.0, 0.005885482007508946
487.0, 0.005411912723041127
488.0, 0.0010213687696672166
489.0, 0.007595373794842014
490.0, 0.009903191690813903
491.0, 0.0059297607497178825
492.0, 0.007162716263670914
493.0, 0.002232595630057505
494.0, 0.008580337676274261
495.0, 0.010953760972894308
496.0, 0.00466696692863391
497.0, 0.007092234802871222
498.0, 0.004741489797588148
499.0, 0.008962027355428961
500.0, 0.009488834159516525
501.0, 0.003633897552955361
502.0, 0.004463029473294511
503.0, 0.005588282933314035
504.0, 0.0019460703049601947
505.0, 0.0037598219472974536
506.0, 0.011965478191937624
507.0, 0.01585960629501542
508.0, 0.01941525555848825
509.0, 0.028747474941175973
510.0, 0.03715196912951315
511.0, 0.03004893917462694
512.0, 0.01777486159818178
513.0, 0.02411063652978439
514.0, 0.029050839869873345
515.0, 0.04482172120588998
516.0, 0.045008467273060446
517.0, 0.039566216921212
518.0, 0.05304278906135607
519.0, 0.06602971445193546
520.0, 0.056673238815469665
521.0, 0.05987719161272439
522.0, 0.05700529044238005
523.0, 0.049436497321332394
524.0, 0.056095199622128396
525.0, 0.04845518201119923
526.0, 0.05853059720554086
527.0, 0.0637017615066386
528.0, 0.06122497036355461
529.0, 0.062176461273142
530.0, 0.0690642740785485
531.0, 0.06441866260216683
532.0, 0.07441265812086509
533.0, 0.07121873558919328
534.0, 0.06612579733706457
535.0, 0.07971478378710943
536.0, 0.06828352432697575
537.0, 0.04581428647087487
538.0, 0.04647985269057878
539.0, 0.05738346120076233
540.0, 0.057362900238089994
541.0, 0.04494899476678775
542.0, 0.05095113684004659
543.0, 0.054863290688463635
544.0, 0.05235691553802209
545.0, 0.049309355373838286
546.0, 0.05054786406804122
547.0, 0.054341849422256304
548.0, 0.05722297771404437
549.0, 0.05719660484991561
550.0, 0.04612806855983119
551.0, 0.03990352888897373
552.0, 0.051060703378997735
553.0, 0.062345122347117685
554.0, 0.05538628073987737
555.0, 0.06383251353477358
556.0, 0.06901685728360112
557.0, 0.0724867552134149
558.0, 0.0973637972270968
559.0, 0.10243886914597003
560.0, 0.1293205535901648
561.0, 0.13826668875162024
562.0, 0.13892823135438662
563.0, 0.16073353521284192
564.0, 0.19562881772858037
565.0, 0.22362448553663594
566.0, 0.2486464426429601
567.0, 0.280289914590836
568.0, 0.317809944719374
569.0, 0.35182464891720133
570.0, 0.37515341977783856
571.0, 0.40741337580391357
572.0, 0.4429543568162186
573.0, 0.4723068444654934
574.0, 0.49902526229098676
575.0, 0.53162087264273
576.0, 0.5625927841703573
577.0, 0.5689898367497209
578.0, 0.5697209350318814
579.0, 0.5540174226112229
580.0, 0.5323547254199903
581.0, 0.5180489579124429
582.0, 0.4860974644189423
583.0, 0.4551937883387257
584.0, 0.39108157107580355
585.0, 0.33740058452675487
586.0, 0.3076629317025983
587.0, 0.2665946910205464
588.0, 0.23142116697814563
589.0, 0.2006228952806539
590.0, 0.15551644539078818
591.0, 0.12248283432122142
592.0, 0.0989094412452602
593.0, 0.06539423582202797
594.0, 0.06645537656567774
595.0, 0.05686861554948974
596.0, 0.04857445011886941
597.0, 0.04937499521162617
598.0, 0.04840331773740004
599.0, 0.0269675091022261
600.0, 0.004265908342841829
601.0, 0.0013729973335430165
602.0, 0.0061372804803194216
603.0, 0.0024642341029979566
604.0, 0.009208839064107171
605.0, 0.0004331187702152175
606.0, 0.0009294060679507307
607.0, 0.0003324418383975588
608.0, 0.004290105453937451
609.0, 0.007366671243944444
610.0, 0.009773440480380032
611.0, 0.01863646715097513
612.0, 0.025149956431861298
613.0, 0.022823594026561533
614.0, 0.026848541014039315
615.0, 0.040221083109154815
616.0, 0.058648599057939815
617.0, 0.0763107324622927
618.0, 0.08140371770368364
619.0, 0.10711310724999275
620.0, 0.1192068577638074
621.0, 0.1555158768106081
622.0, 0.19489628455553856
623.0, 0.1985231143311915
624.0, 0.23630706743177973
625.0, 0.27537305486426505
626.0, 0.32636219757823726
627.0, 0.3688001829213394
628.0, 0.4054907650070288
629.0, 0.45811525077441717
630.0, 0.5363431209480725
631.0, 0.5633054302944486
632.0, 0.6099105101523601
633.0, 0.7007680794301722
634.0, 0.7270297907510004
635.0, 0.6677752498144148
636.0, 0.6698656447090369
637.0, 0.6387784606275018
638.0, 0.5912035361515894
639.0, 0.5253785727999567
640.0, 0.4544053805665883
641.0, 0.3825314958121596
642.0, 0.309388231801089
643.0, 0.26300750793712063
644.0, 0.21679034097763641
645.0, 0.1725087351067317
646.0, 0.14094685948672472
647.0, 0.12736744587524243
648.0, 0.11526981398418329
649.0, 0.08197062751932585
650.0, 0.06848579821589017
651.0, 0.04964144215765073
652.0, 0.04773216758943735
653.0, 0.040291088277517643
654.0, 0.019184471227218548
655.0, 0.02262049001461465
656.0, 0.01638048510957403
657.0, 0.006783969221220036
658.0, 0.00941298297358137
659.0, 0.01244721344829281
660.0, 0.0075859339775694295
661.0, 0.0015367718953747083
662.0, 0.0073871170290257145
663.0, 0.005037221231756417
664.0, 0.006525236937882266
665.0, 0.0027041714366336433
666.0, 0.006316990878151098
667.0, 0.0101553079150721
668.0, 0.0014304448072748337
669.0, 0.0015279630842705394
670.0, 0.004339632047199878
671.0, 0.010289211987722714
672.0, 0.012739744505614563
673.0, 0.014203223003193387
674.0, 0.018053665950972873
675.0, 0.02508643480780006
676.0, 0.015574275970109254
677.0, 0.017968802815896242
678.0, 0.0236157924213266
679.0, 0.02046209878974111
680.0, 0.015924512306382345
681.0, 0.013205637287316172
682.0, 0.014679375567399167
683.0, 0.01799733934600723
684.0, 0.002532682027292535
685.0, 0.005242768623259469
686.0, 0.00662187385791746
687.0, 0.004763883553569473
688.0, 0.013550664898916577
689.0, 0.009103397875472785
690.0, 0.008198717679216237
691.0, 0.013111021333381833
692.0, 0.0072668035320436145
693.0, 0.00796000104535565
694.0, 0.003134782686194256
695.0, 0.0073335002148093775
696.0, 0.012908679179074851
697.0, 0.00341691870314744
698.0, 0.0022602886872198397
699.0, 0.008579018249282226
700.0, 0.003674341084338926
701.0, 0.0028839978478922904
702.0, 0.01155918588930359
703.0, 0.004166479932720762
704.0, 0.010188111899220293
705.0, 0.011496692911350585
706.0, 0.0076423764605707215
707.0, 0.007088332575469713
708.0, 0.0012980282437014313
709.0, 0.0019261653567472998
710.0, 0.011230574737801839
711.0, 0.002305124522827387
712.0, 0.0007840030136573124
713.0, 0.015255352211659173
714.0, 0.012702050137176641
715.0, 0.022711486225939773
716.0, 0.02270144240887964
717.0, 0.015578768387379633
718.0, 0.018800242942145984
719.0, 0.02936943752500428
720.0, 0.0318212031354923
721.0, 0.03736074993650255
722.0, 0.03994332126099707
723.0, 0.023969424824834502
724.0, 0.02445786510767334
725.0, 0.02591220761225468
726.0, 0.019534817093540238
727.0, 0.02496305508553943
728.0, 0.044234800800192986
729.0, 0.053129475872044245
730.0, 0.04558406020075463
731.0, 0.0467194013488543
732.0, 0.04974090063577225
733.0, 0.04745441005315201
734.0, 0.05561976991946306
735.0, 0.050055999883115335
736.0, 0.049933894700616634
737.0, 0.050148409515254344
738.0, 0.055043959942064534
739.0, 0.05631313329905102
740.0, 0.05504657082500263
741.0, 0.06404017485111962
742.0, 0.07085892720388123
743.0, 0.07524390874555935
744.0, 0.06558905246489605
745.0, 0.05862094699396045
746.0, 0.05521830477781041
747.0, 0.05205744725745843
748.0, 0.05231366382268984
749.0, 0.05728729799781084
750.0, 0.06343525290836365
751.0, 0.04623627841654042
752.0, 0.04099417586545474
753.0, 0.05238850907465664
754.0, 0.05690214659836467
755.0, 0.04678396180726001
756.0, 0.03961807236645206
757.0, 0.05017507308672998
758.0, 0.03958854372179058
759.0, 0.04419804489231778
760.0, 0.048835213303123494
761.0, 0.0354181008568227
762.0, 0.024717419173679474
763.0, 0.02782943633050921
764.0, 0.03277963773291487
765.0, 0.024135011140275973
766.0, 0.037099958172234423
767.0, 0.03918103037965945
768.0, 0.030240909998789825
769.0, 0.027434511680634228
770.0, 0.012008894178093194
771.0, 0.013272888068963038
772.0, 0.015373087642274652
773.0, 0.013297793858671018
774.0, 0.02234742381471487
775.0, 0.017519984808877165
776.0, 0.0033696135306165026
777.0, 0.011511266305659408
778.0, 0.007630744393305616
779.0, 0.014858138925804246
780.0, 0.018511137936007244
781.0, 0.013836624577216643
782.0, 0.018260423331161593
783.0, 0.022822433386220073
784.0, 0.01574613818797533
785.0, 0.019797156171233066
786.0, 0.013775158249119636
787.0, 0.007853712713423135
788.0, 0.004574895166011067
789.0, 0.008304328348051643
790.0, 0.02084232668294159
791.0, 0.02738236213806119
792.0, 0.015101207931535151
793.0, 0.03020737487071554
794.0, 0.013005364884603262
795.0, 0.011239269356456883
796.0, 0.014754376493909224
797.0, 0.014706758217179601
798.0, 0.009892016756535244
799.0, 0.0036989204009401865
800.0, 0.007453292692282566
801.0, 0.01549854463920906
802.0, 0.01256681769759465
803.0, 0.00512544183726315
804.0, 0.002926570435465115
805.0, 0.00615948635812393
806.0, 0.011048331464749775
807.0, 0.011130754198532213
808.0, 0.00039690575531313357
809.0, 0.011362655717811334
810.0, 0.020601014363467052
811.0, 0.012846353715149236
812.0, 0.012034171557486699
813.0, 0.024125352946006623
814.0, 0.021445078154286347
815.0, 0.0015332395588378972
816.0, 0.0068467097170821
817.0, 0.010247169745225179
818.0, 0.014036534137982181
819.0, 0.021345743154176828
820.0, 0.015225443858011951
821.0, 0.008042948576881495
822.0, 0.020158089860088716
823.0, 0.0013717232845366996
824.0, 0.011541459069433636
825.0, 0.011042451685144748
826.0, 0.0016721299559734563
827.0, 0.013093569244032743
828.0, 0.023339914774255614
829.0, 0.01572690755365273
830.0, 0.011971201397265905
831.0, 0.02077382821302212
832.0, 0.021577441773108663
833.0, 0.028665704609113708
834.0, 0.020851425873052942
835.0, 0.011200715505826
836.0, 0.012339966378673083
837.0, 0.013605697454326496
838.0, 0.007505362936069998
839.0, 0.019136890217963592
840.0, 0.016548057888001268
841.0, 0.011062652885517388
842.0, 0.0044602967179774924
843.0, 0.009344092564993696
844.0, 0.013668249206428238
845.0, 0.010264229720213312
846.0, 0.012610717215375572
847.0, 0.01352909476915733
848.0, 0.006526845350492314
849.0, 0.004741228323823418
850.0, 0.018866219749361746
851.0, 0.015300355208375813
852.0, 0.008537826815730808
853.0, 0.01020058393822688
854.0, 0.012794877551449622
855.0, 0.015254537794662315
856.0, 0.0165208871164298
857.0, 0.003336313519030398
858.0, 0.009394082954491515
859.0, 0.017139090976958322
860.0, 0.018658952573267492
861.0, 0.015138486424800748
862.0, 0.003233209396928916
863.0, 0.01266588880760333
864.0, 0.004145380132638638
865.0, 0.000606181812850578
866.0, 0.004638640614918701
867.0, 0.007091434054031801
868.0, 0.004724756828950072
869.0, 0.012594711834323272
870.0, 0.0027867439881358634
871.0, 0.005915909348823165
872.0, 0.0039970958843160926
873.0, 0.0029198313140764193
874.0, 0.0025572281523674302
875.0, 0.0004742926113009908
876.0, 0.0037655886811469494
877.0, 0.0033511982719828665
878.0, 0.002129301378538797
879.0, 0.0014240136284446995
880.0, 0.003174928304806772
881.0, 0.006590908104254513
882.0, 0.0022264288690910816
883.0, 0.0018815849268767947
884.0, 0.0012911665142107673
885.0, 0.00873123364536717
886.0, 0.007902467921191158
887.0, 0.0034676762400346964
888.0, 0.00785224143098184
889.0, 0.012827738016712043
890.0, 0.0029146030352960057
891.0, 0.011022068800533795
892.0, 0.029283735096718264
893.0, 0.02002178200591443
894.0, 0.014847868297531342
895.0, 0.02835065751692601
896.0, 0.03787390336677556
897.0, 0.05366501042658884
898.0, 0.05302829072998849
899.0, 0.05966544206633207
900.0, 0.0647076226184073
901.0, 0.08305819533377552
902.0, 0.09915415989772296
903.0, 0.11431950080970894
904.0, 0.13730064013903281
905.0, 0.1537384471232314
906.0, 0.16080156550237215
907.0, 0.17576970440348658
908.0, 0.18612141298106627
909.0, 0.19701344236322496
910.0, 0.22230974838300605
911.0, 0.25383700925962965
912.0, 0.27615150961483065
913.0, 0.2850364160796427
914.0, 0.2917253265227849
915.0, 0.3107952042510808
916.0, 0.3362313544729612
917.0, 0.35547438298288264
918.0, 0.37466960876043287
919.0, 0.39865148350534807
920.0, 0.42343559915026424
921.0, 0.4519306318510695
922.0, 0.49132142008222585
923.0, 0.5358445926775084
924.0, 0.5773307358938925
925.0, 0.6162795031529688
926.0, 0.6708276221518095
927.0, 0.7102526813561804
928.0, 0.75004514624146
929.0, 0.7970658604602513
930.0, 0.8561545035405195
931.0, 0.9054158323175999
932.0, 0.9317445564900068
933.0, 0.9674808076465502
934.0, 0.9718764100648798
935.0, 0.9956386394079687
936.0, 0.9922410218295508
937.0, 0.9823595147018168
938.0, 0.971566355898007
939.0, 0.9543569145728646
940.0, 0.918439334423285
941.0, 0.8623885831388791
942.0, 0.8207579664394533
943.0, 0.7683431596718899
944.0, 0.712817634205563
945.0, 0.6326353841020369
946.0, 0.5639540286888018
947.0, 0.496315874593399
948.0, 0.4383186320496173
949.0, 0.38837158301001273
950.0, 0.3365541972837373
951.0, 0.29162216568915644
952.0, 0.25049973131410996
953.0, 0.20033521337839508
954.0, 0.1796786021807881
955.0, 0.18298025090181597
956.0, 0.14024790981711224
957.0, 0.10908783331775049
958.0, 0.10936932163510606
959.0, 0.0953794910449954
960.0, 0.06272015300432075
961.0, 0.05866090111537215
962.0, 0.040321426963020685
963.0, 0.01608507915590741
964.0, 0.036614637925086006
965.0, 0.026645584200496175
966.0, 0.017757443695418363
967.0, 0.014531006097339809
968.0, 0.0024980181781777966
969.0, 0.0004368717943362007
970.0, 0.012408448566614789
971.0, 0.004515801585624389
972.0, 0.0013659491541443873
973.0, 0.0008610189542143644
974.0, 0.005485396321902096
975.0, 0.010582643651109211
976.0, 0.006115861782894272
977.0, 0.017614747953000737
978.0, 0.029425384093773932
979.0, 0.01926588160622431
980.0, 0.015474407826124555
981.0, 0.04157274780119685
982.0, 0.052852556314753454
983.0, 0.05070741280190948
984.0, 0.062077378327912304
985.0, 0.06911420349928907
986.0, 0.08708475420506917
987.0, 0.1075257216430177
988.0, 0.12116223176812355
989.0, 0.14162978401080945
990.0, 0.1624683626724373
991.0, 0.16234876466722503
992.0, 0.18545603682485715
993.0, 0.1903155239416474
994.0, 0.1999683520896829
995.0, 0.231001980342156
996.0, 0.250352443046451
997.0, 0.25955208719203
998.0, 0.2688061818810581
999.0, 0.2750772784463969
1000.0, 0.2720921530521903
1001.0, 0.26486584932624685
1002.0, 0.2631823693681218
1003.0, 0.25450650756166576
1004.0, 0.25869048802864375
1005.0, 0.23569307693371938
1006.0, 0.22609760663991577
1007.0, 0.23540555632294963
1008.0, 0.26989935095325984
1009.0, 0.2484571117627394
1010.0, 0.17796556272286637
1011.0, 0.1636496527239778
1012.0, 0.155091461792654
1013.0, 0.13894768097636373
1014.0, 0.13954127870476962
1015.0, 0.13132110554854748
1016.0, 0.11018779358977857
1017.0, 0.09116971909751376
1018.0, 0.0871265595219349
1019.0, 0.08126992333141408
1020.0, 0.07580707320716384
1021.0, 0.07303085415833692
1022.0, 0.05876589948991834
1023.0, 0.050421557308827615
1024.0, 0.05716339331421146
1025.0, 0.04756372544341945
1026.0, 0.0426662424908285
1027.0, 0.0375848498289434
1028.0, 0.021964939490784485
1029.0, 0.029326072113842954
1030.0, 0.03810724374470361
1031.0, 0.028107331437991545
1032.0, 0.018291233019286667
1033.0, 0.012045295541898964
1034.0, 0.009303608483696359
1035.0, 0.006411786807635349
1036.0, 0.0072580469614478916
1037.0, 0.011720798490025134
1038.0, 0.008435191009907216
1039.0, 0.004074393285386514
1040.0, 0.0026944403632114186
1041.0, 0.0035916705573358146
1042.0, 0.004407836849531626
1043.0, 0.00785309813235317
1044.0, 0.0025100765480023652
1045.0, 0.002722592198381161
1046.0, 0.015498484362612237
1047.0, 0.017732808128681738
1048.0, 0.006463707993659519
1049.0, 0.0011979698622538847
1050.0, 0.0052365809003534
1051.0, 0.009984384619843203
1052.0, 0.008329482475747326
1053.0, 0.001383410781772419
1054.0, 0.0019985741264259447
1055.0, 0.005634549793252868
1056.0, 0.0043873852856450065
1057.0, 0.006297162841618461
1058.0, 0.00465375641493455
1059.0, 0.01183204392362212
1060.0, 0.003691865846954739
1061.0, 0.007042047579369555
1062.0, 0.004498892975372899
1063.0, 0.0014911797211159838
1064.0, 0.0007586915184082481
1065.0, 0.005196791467538895
1066.0, 0.005392878258070901
1067.0, 0.012064336007083606
1068.0, 0.011825045603707373
1069.0, 0.012813412992119284
1070.0, 0.016431181573040392
1071.0, 0.015362997539601225
1072.0, 0.021397134683735945
1073.0, 0.021272542375243966
1074.0, 0.01796668945512479
1075.0, 0.020452923649290473
1076.0, 0.02542880631077357
1077.0, 0.025628978444370763
1078.0, 0.031538603479737685
1079.0, 0.030931591525839925
1080.0, 0.03949399044462833
1081.0, 0.04923015853191166
1082.0, 0.04881178122538854
1083.0, 0.06059315863206054
1084.0, 0.06855019947419339
1085.0, 0.06936663670340686
1086.0, 0.06907064111832086
1087.0, 0.06593968315382831
1088.0, 0.06561588613734007
1089.0, 0.07113479764330628
1090.0, 0.0766106410431059
1091.0, 0.07804139514752743
1092.0, 0.0760162055891439
1093.0, 0.07273712386266531
1094.0, 0.070009474071055
1095.0, 0.0608556874007654
1096.0, 0.04930989322860053
1097.0, 0.05513196054440246
1098.0, 0.04679065273957686
1099.0, 0.03551421076687304
1100.0, 0.043805097169810236
1101.0, 0.04875497674721684
1102.0, 0.0459639881063471
1103.0, 0.032979680529228984
1104.0, 0.020092107194936284
1105.0, 0.017480623450398858
1106.0, 0.017435556136040427
1107.0, 0.01627152326001086
1108.0, 0.014500679461865812
1109.0, 0.019291593457930616
1110.0, 0.017499709604130907
1111.0, 0.012633589438075013
1112.0, 0.01032126667042407
1113.0, 0.011026076022206335
1114.0, 0.013587081746591314
1115.0, 0.015003821309071994
1116.0, 0.00890809232860893
1117.0, 0.000765603798481235
1118.0, 0.00017973783782708952
1119.0, 0.007030865838742196
1120.0, 0.006570635196142235
1121.0, 0.005646561233547228
1122.0, 0.008268715204331986
1123.0, 0.0044738400650837645
1124.0, 0.0031208536287810895
1125.0, 0.005020117481542871
1126.0, 0.005394672403499543
1127.0, 0.007285129310954036
1128.0, 0.00595947599226955
1129.0, 0.0040283583324378786
1130.0, 0.005576572216633543
1131.0, 0.01548750434335609
1132.0, 0.01890574638859635
1133.0, 0.006959619868651606
1134.0, 0.01673977018775265
1135.0, 0.016334954720229188
1136.0, 0.0168061892487325
1137.0, 0.01014776159027041
1138.0, 0.007669347072943145
1139.0, 0.017531789822262465
1140.0, 0.014513461654372626
1141.0, 0.014982740304480553
1142.0, 0.018430897892914185
1143.0, 0.017457746045371262
1144.0, 0.021677677918550218
1145.0, 0.019068259501452047
1146.0, 0.0251057195877396
1147.0, 0.02436102932708668
1148.0, 0.017558548328571164
1149.0, 0.0239596823322448
1150.0, 0.025090402656673085
1151.0, 0.01828929261326873
1152.0, 0.030254124739255133
1153.0, 0.026019084809560104
1154.0, 0.031127293971070103
1155.0, 0.021775021713568675
1156.0, 0.026822341029846323
1157.0, 0.0347826871972383
1158.0, 0.041962990408435416
1159.0, 0.036848631058523824
1160.0, 0.02848989453900665
1161.0, 0.025998592609764472
1162.0, 0.02912428865067021
1163.0, 0.029282942767841828
1164.0, 0.01923706740789077
1165.0, 0.027816340348529717
1166.0, 0.04094895085512868
1167.0, 0.031293843520949424
1168.0, 0.028015591335710216
1169.0, 0.034726879200633366
1170.0, 0.02963505459447412
1171.0, 0.03134645010235823
1172.0, 0.03639547675242401
1173.0, 0.038081601395041575
1174.0, 0.0323371547357939
1175.0, 0.0390397302698014
1176.0, 0.03435180655659064
1177.0, 0.021538996326400845
1178.0, 0.026210694390798726
1179.0, 0.023179737950418795
1180.0, 0.02095313139618052
1181.0, 0.03364989739227501
1182.0, 0.02435547806570467
1183.0, 0.026861926791702934
1184.0, 0.01647443203168575
1185.0, 0.015774262386226312
1186.0, 0.02105046988933084
1187.0, 0.017426752244249392
1188.0, 0.02953239868339658
1189.0, 0.02321748934081012
1190.0, 0.019558099210220056
1191.0, 0.021134472963362724
1192.0, 0.019759105486680157
1193.0, 0.015293539878724052
1194.0, 0.020032073075322454
1195.0, 0.02973873377132854
1196.0, 0.024346392811789554
1197.0, 0.012321345037290059
1198.0, 0.010118028581394257
1199.0, 0.005442577184079135
1200.0, 0.005533197274214349
1201.0, 0.017281715514247734
1202.0, 0.019157015199181303
1203.0, 0.006726367457046323
1204.0, 0.01064989200063406
1205.0, 0.011609087235899304
1206.0, 0.0053047676948999745
1207.0, 0.010468637386512077
1208.0, 0.007380275669044142
1209.0, 0.009951579215432103
1210.0, 0.017408768409424052
1211.0, 0.011804660231990616
1212.0, 0.004166930224512675
1213.0, 0.004228483532105314
1214.0, 0.007803243877269481
1215.0, 0.008359085789765755
1216.0, 0.002143762158164795
1217.0, 0.0017821911947852557
1218.0, 0.0013862997825614678
1219.0, 0.0026238187259468274
1220.0, 0.010171438908655982
1221.0, 0.0011908381603384002
1222.0, 0.007627242941159448
1223.0, 0.012668525650536057
1224.0, 0.018604154953251992
1225.0, 0.004208742008583309
1226.0, 0.002242469302141242
1227.0, 0.00923695302745812
1228.0, 0.011678753074222612
1229.0, 0.005077379396981776
1230.0, 0.005014586675234981
1231.0, 0.005254734545130648
1232.0, 0.004447767943631293
1233.0, 0.005616083655696559
1234.0, 0.005157202297195611
1235.0, 0.008451110704347098
1236.0, 0.0074651909812054
1237.0, 0.011458111295644474
1238.0, 0.011866882778878034
1239.0, 0.008566476386332428
1240.0, 0.011022052878669588
1241.0, 0.012911705392097374
1242.0, 0.013744474272806872
1243.0, 0.011495185599868313
1244.0, 0.011271346318610057
1245.0, 0.012542576573081235
1246.0, 0.015236813082531483
1247.0, 0.014623877728243579
1248.0, 0.014247630552677061
1249.0, 0.01574412520689815
1250.0, 0.016358685949920765
1251.0, 0.013896276858564833
1252.0, 0.006943426163968905
1253.0, 0.0009739162848824757
1254.0, 0.011076540909438834
1255.0, 0.013042249315504639
1256.0, 0.00902442509764711
1257.0, 0.0052476205995653155
1258.0, 0.002819336107356332
1259.0, 0.002411727101367671
1260.0, 0.0015812758713852721
1261.0, 0.00316395780398842
1262.0, 0.006241900544968131
1263.0, 0.005649994057815943
1264.0, 0.005664071646776279
1265.0, 0.004617232868565626
1266.0, 0.014154658198075367
1267.0, 0.006665391691548328
1268.0, 0.0069611335431153795
1269.0, 0.008376978993718283
1270.0, 0.004183161899164392
1271.0, 0.003946085087045309
1272.0, 0.006696067175365502
1273.0, 0.0019091847613568777
1274, 0.0
1275, 0.0
1276, 0.0
1277, 0.0
1278, 0.0
1279, 0.0
1280, 0.0
1281, 0.0
1282, 0.0
1283, 0.0
1284, 0.0
1285, 0.0
1286, 0.0
1287, 0.0
1288, 0.0
1289, 0.0
1290, 0.0
1291, 0.0
1292, 0.0
1293, 0.0
1294, 0.0
1295, 0.0
1296, 0.0
1297, 0.0
1298, 0.0
1299, 0.0
1300, 0.0
1301, 0.0
1302, 0.0
1303, 0.0
1304, 0.0
1305, 0.0
1306, 0.0
1307, 0.0
1308, 0.0
1309, 0.0
1310, 0.0
1311, 0.0
1312, 0.0
1313, 0.0
1314, 0.0
1315, 0.0
1316, 0.0
1317, 0.0
1318, 0.0
1319, 0.0
1320, 0.0
1321, 0.0
1322, 0.0
1323, 0.0
1324, 0.0
1325, 0.0
1326, 0.0
1327, 0.0
1328, 0.0
1329, 0.0
1330, 0.0
1331, 0.0
1332, 0.0
1333, 0.0
1334, 0.0
1335, 0.0
1336, 0.0
1337, 0.0
1338, 0.0
1339, 0.0
1340, 0.0
1341, 0.0
1342, 0.0
1343, 0.0
1344, 0.0
1345, 0.0
1346, 0.0
1347, 0.0
1348, 0.0
1349, 0.0
1350, 0.0
1351, 0.0
1352, 0.0
1353, 0.0
1354, 0.0
1355, 0.0
1356, 0.0
1357, 0.0
1358, 0.0
1359, 0.0
1360, 0.0
1361, 0.0
1362, 0.0
1363, 0.0
1364, 0.0
1365, 0.0
1366, 0.0
1367, 0.0
1368, 0.0
1369, 0.0
1370, 0.0
1371, 0.0
1372, 0.0
1373, 0.0
1374, 0.0
1375, 0.0
1376, 0.0
1377, 0.0
1378, 0.0
1379, 0.0
1380, 0.0
1381, 0.0
1382, 0.0
1383, 0.0
1384, 0.0
1385, 0.0
1386, 0.0
1387, 0.0
1388, 0.0
1389, 0.0
1390, 0.0
1391, 0.0
1392, 0.0
1393, 0.0
1394, 0.0
1395, 0.0
1396, 0.0
1397, 0.0
1398, 0.0
1399, 0.0
1400, 0.0
1401, 0.0
1402, 0.0
1403, 0.0
1404, 0.0
1405, 0.0
1406, 0.0
1407, 0.0
1408, 0.0
1409, 0.0
1410, 0.0
1411, 0.0
1412, 0.0
1413, 0.0
1414, 0.0
1415, 0.0
1416, 0.0
1417, 0.0
1418, 0.0
1419, 0.0
1420, 0.0
1421, 0.0
1422, 0.0
1423, 0.0
1424, 0.0
1425, 0.0
1426, 0.0
1427, 0.0
1428, 0.0
1429, 0.0
1430, 0.0
1431, 0.0
1432, 0.0
1433, 0.0
1434, 0.0
1435, 0.0
1436, 0.0
1437, 0.0
1438, 0.0
1439, 0.0
1440, 0.0
1441, 0.0
1442, 0.0
1443, 0.0
1444, 0.0
1445, 0.0
1446, 0.0
1447, 0.0
1448, 0.0
1449, 0.0
1450, 0.0
1451, 0.0
1452, 0.0
1453, 0.0
1454, 0.0
1455, 0.0
1456, 0.0
1457, 0.0
1458, 0.0
1459, 0.0
1460, 0.0
1461, 0.0
1462, 0.0
1463, 0.0
1464, 0.0
1465, 0.0
1466, 0.0
1467, 0.0
1468, 0.0
1469, 0.0
1470, 0.0
1471, 0.0
1472, 0.0
1473, 0.0
1474, 0.0
1475, 0.0
1476, 0.0
1477, 0.0
1478, 0.0
1479, 0.0
1480, 0.0
1481, 0.0
1482, 0.0
1483, 0.0
1484, 0.0
1485, 0.0
1486, 0.0
1487, 0.0
1488, 0.0
1489, 0.0
1490, 0.0
1491, 0.0
1492, 0.0
1493, 0.0
1494, 0.0
1495, 0.0
1496, 0.0
1497, 0.0
1498, 0.0
1499, 0.0
1500, 0.0
1501, 0.0
1502, 0.0
1503, 0.0
1504, 0.0
1505, 0.0
1506, 0.0
1507, 0.0
1508, 0.0
1509, 0.0
1510, 0.0
1511, 0.0
1512, 0.0
1513, 0.0
1514, 0.0
1515, 0.0
1516, 0.0
1517, 0.0
1518, 0.0
1519, 0.0
1520, 0.0
1521, 0.0
1522, 0.0
1523, 0.0
1524, 0.0
1525, 0.0
1526, 0.0
1527, 0.0
1528, 0.0
1529, 0.0
1530, 0.0
1531, 0.0
1532, 0.0
1533, 0.0
1534, 0.0
1535, 0.0
1536, 0.0
1537, 0.0
1538, 0.0
1539, 0.0
1540, 0.0
1541, 0.0
1542, 0.0
1543, 0.0
1544, 0.0
1545, 0.0
1546, 0.0
1547, 0.0
1548, 0.0
1549, 0.0
1550, 0.0
1551, 0.0
1552, 0.0
1553, 0.0
1554, 0.0
1555, 0.0
1556, 0.0
1557, 0.0
1558, 0.0
1559, 0.0
1560, 0.0
1561, 0.0
1562, 0.0
1563, 0.0
1564, 0.0
1565, 0.0
1566, 0.0
1567, 0.0
1568, 0.0
1569, 0.0
1570, 0.0
1571, 0.0
1572, 0.0
1573, 0.0
1574, 0.0
1575, 0.0
1576, 0.0
1577, 0.0
1578, 0.0
1579, 0.0
1580, 0.0
1581, 0.0
1582, 0.0
1583, 0.0
1584, 0.0
1585, 0.0
1586, 0.0
1587, 0.0
1588, 0.0
1589, 0.0
1590, 0.0
1591, 0.0
1592, 0.0
1593, 0.0
1594, 0.0
1595, 0.0
1596, 0.0
1597, 0.0
1598, 0.0
1599, 0.0
