30, 0.0
31, 0.0
32, 0.0
33, 0.0
34, 0.0
35, 0.0
36, 0.0
37, 0.0
38, 0.0
39, 0.0
40, 0.0
41, 0.0
42, 0.0
43, 0.0
44, 0.0
45, 0.0
46, 0.0
47, 0.0
48, 0.0
49, 0.0
50, 0.0
51, 0.0
52, 0.0
53, 0.0
54, 0.0
55, 0.0
56, 0.0
57, 0.0
58, 0.0
59, 0.0
60, 0.0
61, 0.0
62, 0.0
63, 0.0
64, 0.0
65, 0.0
66, 0.0
67, 0.0
68, 0.0
69, 0.0
70, 0.0
71, 0.0
72, 0.0
73, 0.0
74, 0.0
75, 0.0
76, 0.0
77, 0.0
78, 0.0
79, 0.0
80, 0.0
81, 0.0
82, 0.0
83, 0.0
84, 0.0
85, 0.0
86, 0.0
87, 0.0
88, 0.0
89, 0.0
90, 0.0
91, 0.0
92, 0.0
93, 0.0
94, 0.0
95, 0.0
96, 0.0
97, 0.0
98, 0.0
99, 0.0
100, 0.0
101, 0.0
102, 0.0
103, 0.0
104, 0.0
105, 0.0
106, 0.0
107, 0.0
108, 0.0
109, 0.0
110, 0.0
111, 0.0
112, 0.0
113, 0.0
114, 0.0
115, 0.0
116, 0.0
117, 0.0
118, 0.0
119, 0.0
120, 0.0
121, 0.0
122, 0.0
123, 0.0
124, 0.0
125, 0.0
126, 0.0
127, 0.0
128, 0.0
129, 0.0
130, 0.0
131, 0.0
132, 0.0
133, 0.0
134, 0.0
135, 0.0
136, 0.0
137, 0.0
138, 0.0
139, 0.0
140, 0.0
141, 0.0
142, 0.0
143, 0.0
144, 0.0
145, 0.0
146, 0.0
147.0, 0.001103177931724914
148.0, 0.00416071331937291
149.0, 0.007056885054401989
150.0, 0.010060565620376638
151.0, 0.010517720490422652
152.0, 0.006384457870607961
153.0, 0.0017997341407730606
154.0, 0.0018065820427596382
155.0, 0.0014454966440217995
156.0, 0.003130073079489358
157.0, 0.0039465356479224875
158.0, 0.007446102955681408
159.0, 0.014859770328051662
160.0, 0.018161449412336758
161.0, 0.019066891524924582
162.0, 0.020750714817886023
163.0, 0.02538567009311844
164.0, 0.030530537291018078
165.0, 0.03279443187608121
166.0, 0.03240127090369592
167.0, 0.031858057259538816
168.0, 0.030154285625665272
169.0, 0.028217432757042697
170.0, 0.027232430225950278
171.0, 0.027031470426963577
172.0, 0.02406120970218799
173.0, 0.02366949019051588
174.0, 0.024314257547238562
175.0, 0.024556580004920288
176.0, 0.026864157207813554
177.0, 0.02124586967173626
178.0, 0.022901535517612186
179.0, 0.02991657044995463
180.0, 0.025495812378623417
181.0, 0.02601458889701527
182.0, 0.031229783743923652
183.0, 0.034746650784903514
184.0, 0.03265540304801081
185.0, 0.03249386874111097
186.0, 0.036050562712498235
187.0, 0.033655709917406365
188.0, 0.02448113885753774
189.0, 0.02691968610641738
190.0, 0.031426150913622365
191.0, 0.03339920578796517
192.0, 0.031395514934165966
193.0, 0.026585447652160685
194.0, 0.026919395716025873
195.0, 0.025199773708871432
196.0, 0.023088341176052216
197.0, 0.024780715109306236
198.0, 0.02448375480640711
199.0, 0.030475331905089862
200.0, 0.0318899007416091
201.0, 0.02563620185722118
202.0, 0.026162708364286812
203.0, 0.02868581406417514
204.0, 0.03053222737889926
205.0, 0.032356816700059396
206.0, 0.035679543666375914
207.0, 0.03298997768274876
208.0, 0.032840698414742346
209.0, 0.03455590706793771
210.0, 0.034784374766956186
211.0, 0.033882743536253666
212.0, 0.03265825236600202
213.0, 0.03288831723651449
214.0, 0.03460883076216685
215.0, 0.036771624188556666
216.0, 0.04106324059350191
217.0, 0.04551761599197894
218.0, 0.04835476493986104
219.0, 0.049868460479928045
220.0, 0.05820023372598884
221.0, 0.05519915084939899
222.0, 0.05203684401167631
223.0, 0.05540161825603834
224.0, 0.05586316316661608
225.0, 0.05774105823522292
226.0, 0.05919360095114069
227.0, 0.060130892228496505
228.0, 0.06110843132729272
229.0, 0.05806927689707574
230.0, 0.05671276308714195
231.0, 0.05939571229482855
232.0, 0.06343576037410861
233.0, 0.05889287403703992
234.0, 0.05095626360533008
235.0, 0.047160081400883375
236.0, 0.04630596867552056
237.0, 0.042480751230796705
238.0, 0.03856561701919788
239.0, 0.03800992486894796
240.0, 0.035761745567221635
241.0, 0.029164624945170425
242.0, 0.023930836304807173
243.0, 0.028211529133129014
244.0, 0.02947631390104528
245.0, 0.02809883822590627
246.0, 0.0318206107596685
247.0, 0.027513218351216135
248.0, 0.022042843404240828
249.0, 0.022134558135911496
250.0, 0.025800556910016433
251.0, 0.018016892343491284
252.0, 0.01653783994260763
253.0, 0.01641524168421561
254.0, 0.013630001068883554
255.0, 0.0092671173942659
256.0, 0.01126102169105824
257.0, 0.008386726173607969
258.0, 0.007968671594542703
259.0, 0.013385174945000172
260.0, 0.011623561944901278
261.0, 0.011863394739712381
262.0, 0.014147064239937137
263.0, 0.016879590404153773
264.0, 0.018458223215893108
265.0, 0.017927741990891994
266.0, 0.012914390347183152
267.0, 0.007908002936924223
268.0, 0.007130703400253842
269.0, 0.011645490198549793
270.0, 0.011728497653528095
271.0, 0.011032601790235472
272.0, 0.009435821201137888
273.0, 0.005034193869346817
274.0, 0.0010730112526032717
275.0, 0.003532827621107223
276.0, 0.006370244243260611
277.0, 0.006005566743997412
278.0, 0.005923323385843746
279.0, 0.008193026919891159
280.0, 0.005910628692088055
281.0, 0.0033687264397145177
282.0, 0.005931920568781509
283.0, 0.008578701449309419
284.0, 0.010829910037212231
285.0, 0.004813220058764298
286.0, 0.002762876321394609
287.0, 0.004232883394381931
288.0, 0.005745105442221975
289.0, 0.008923164982732702
290.0, 0.01126250776532507
291.0, 0.008553684699737727
292.0, 0.003341045296606373
293.0, 0.0021346540501089445
294.0, 0.004866979637349122
295.0, 0.004655617701540101
296.0, 0.002351592961752628
297.0, 0.004728973740134828
298.0, 0.0027907413831525945
299.0, 0.0001415593168333427
300.0, 0.0014617470437494327
301.0, 0.0004723863794202299
302.0, 0.0007876489971663504
303.0, 0.0031891624651986484
304.0, 0.006518353150447555
305.0, 0.006029951168950304
306.0, 0.009487838257061424
307.0, 0.013200493544307216
308.0, 0.015058944582239346
309.0, 0.012385795698725381
310.0, 0.005748520257820769
311.0, 0.006778167019095438
312.0, 0.008109705286518125
313.0, 0.007542416313281274
314.0, 0.006158804046081963
315.0, 0.005929267307391932
316.0, 0.0016204822352107419
317.0, 0.00141693314416701
318.0, 0.001974208372671453
319.0, 0.0010446979451523817
320.0, 0.00036612003201007466
321.0, 0.0006138243546817944
322.0, 0.00048783307419461846
323.0, 0.0009549037999608739
324.0, 0.0009383296864016551
325.0, 0.0018172294411282835
326.0, 0.0011245339105772228
327.0, 0.0013189864485962065
328.0, 0.0036696076523795875
329.0, 0.003626239004735137
330.0, 0.0030507810298514597
331.0, 0.0038143078946214896
332.0, 0.0038969610796136147
333.0, 0.003850889299341396
334.0, 0.008226575014542485
335.0, 0.0018576669486743663
336.0, 0.002712113794063134
337.0, 0.006648141817565417
338.0, 0.004606392743729789
339.0, 0.003976586093370915
340.0, 0.007167441208767839
341.0, 0.006911569521281264
342.0, 0.004046814559781699
343.0, 0.0029287453855151853
344.0, 0.003508735252093128
345.0, 0.0016462993459480134
346.0, 0.0027569582306503472
347.0, 0.00421152989444005
348.0, 0.007468951422571609
349.0, 0.00846151624844953
350.0, 0.011953133881278544
351.0, 0.018270425053380012
352.0, 0.02467851616694068
353.0, 0.027774378571945674
354.0, 0.030243359885559436
355.0, 0.034706021324886184
356.0, 0.03564942452681156
357.0, 0.034171935717597524
358.0, 0.04462909685314341
359.0, 0.0561588509030932
360.0, 0.0579844380178735
361.0, 0.05610919920533277
362.0, 0.05829263538528701
363.0, 0.05958124803200617
364.0, 0.061257102464939144
365.0, 0.06106314389240424
366.0, 0.055798131549304374
367.0, 0.04401638558849788
368.0, 0.036090601324552884
369.0, 0.03471936104962669
370.0, 0.0349342491853604
371.0, 0.03648377157896516
372.0, 0.04335906465045329
373.0, 0.05111573146814135
374.0, 0.05498089593293157
375.0, 0.05849234663645129
376.0, 0.06080611794976528
377.0, 0.0558629875183575
378.0, 0.061269614708471545
379.0, 0.06222171641581947
380.0, 0.0656111160616505
381.0, 0.07443841226104286
382.0, 0.07463065136925376
383.0, 0.07148862820744195
384.0, 0.0750664468755533
385.0, 0.08225638937832089
386.0, 0.08659965351131332
387.0, 0.08745336192967623
388.0, 0.0828342943181066
389.0, 0.07272178376132063
390.0, 0.06103147296167104
391.0, 0.0503474734142216
392.0, 0.03885240591864204
393.0, 0.033547292774539036
394.0, 0.02836541893825528
395.0, 0.02328350469348259
396.0, 0.018538357925908102
397.0, 0.0063042327204946135
398.0, 0.0022034027690765647
399.0, 0.002571666205732162
400.0, 0.0033651557231328135
401.0, 0.003229382130449723
402.0, 0.0025233107696515504
403.0, 0.0025529258359741854
404.0, 0.002718779929156459
405.0, 0.002336379806363958
406.0, 0.001971221265918635
407.0, 0.004891857600143414
408.0, 0.004978381669193909
409.0, 0.0039016668334573177
410.0, 0.00499943743301084
411.0, 0.006969370897175955
412.0, 0.0010864209009913569
413.0, 0.003990234792903633
414.0, 0.008563507181535262
415.0, 0.008389557482733234
416.0, 0.005850739316570931
417.0, 0.008116726034105454
418.0, 0.00766016471449494
419.0, 0.005194693529299153
420.0, 0.004153377873742341
421.0, 0.006031123399729505
422.0, 0.006427280572628218
423.0, 0.007776292744139754
424.0, 0.009147895994260614
425.0, 0.008336598455846972
426.0, 0.004459220255899386
427.0, 0.0010772587215850296
428.0, 0.005254844195512638
429.0, 0.005803577982202074
430.0, 0.00373762730090222
431.0, 0.0050753850692179785
432.0, 0.0012412761382998572
433.0, 0.0010494957057796085
434.0, 0.0007108872974033421
435.0, 0.0021755247977703
436.0, 0.00507689626566454
437.0, 0.002798593440750423
438.0, 0.003247757019421168
439.0, 0.0049563230804558454
440.0, 0.006769490991228833
441.0, 0.008645554093997454
442.0, 0.009550148430137
443.0, 0.011488092833197504
444.0, 0.010556367205335588
445.0, 0.00825592149150393
446.0, 0.007892832074653931
447.0, 0.009844864297428339
448.0, 0.008503647354719921
449.0, 0.007020794624422485
450.0, 0.0033971591542533855
451.0, 0.0010059483700750832
452.0, 0.006728684140465494
453.0, 0.012167941202461275
454.0, 0.013142684904439993
455.0, 0.011527834965485555
456.0, 0.008188904541453972
457.0, 0.0031257344208320786
458.0, 0.00853287081020969
459.0, 0.00943263427278681
460.0, 0.008476857328534305
461.0, 0.009341208449828374
462.0, 0.008872227877747024
463.0, 0.010100019397314726
464.0, 0.005140237402893483
465.0, 0.001469593252655087
466.0, 0.0038516943787465633
467.0, 0.00832880118011004
468.0, 0.008516235156620876
469.0, 0.00913173820438459
470.0, 0.013432757385495554
471.0, 0.01620731169030679
472.0, 0.010647020674010133
473.0, 0.009468202617816193
474.0, 0.0106895406655125
475.0, 0.0077981855927713
476.0, 0.002524193194290203
477.0, 0.0014208053282834896
478.0, 0.004948025201202043
479.0, 0.0028033147513505437
480.0, 0.0032680502754425054
481.0, 0.0044454712734
482.0, 0.0037070274888952896
483.0, 0.008304459403425557
484.0, 0.00919063756233078
485.0, 0.010882005707724107
486.0, 0.015195825993819329
487.0, 0.018669588269345
488.0, 0.0147454631435376
489.0, 0.015279000244429134
490.0, 0.011263791729567216
491.0, 0.004773521983015663
492.0, 0.001877241581066135
493.0, 0.003972383047302312
494.0, 0.001141599338759901
495.0, 0.0006758365915102452
496.0, 0.0016341646213122356
497.0, 0.002864382451880563
498.0, 0.0003695042043617281
499.0, 0.0038490825665235652
500.0, 0.0039052643468370104
501.0, 0.002764961653320781
502.0, 0.0009013769266400603
503.0, 0.0031544414322801978
504.0, 0.0008548772394077215
505.0, 0.005341616640453522
506.0, 0.0022755512525837007
507.0, 0.0023570257023997243
508.0, 0.009425297287183493
509.0, 0.009007937703022153
510.0, 0.003903173006883001
511.0, 0.000939193195709492
512.0, 0.0006805548087722066
513.0, 0.0003339587863684239
514.0, 0.0005688767973744298
515.0, 0.010534310950585445
516.0, 0.008208990048082329
517.0, 0.010353817763641531
518.0, 0.012265433089801511
519.0, 0.005647975879735218
520.0, 0.006540548791888885
521.0, 0.013786073693234624
522.0, 0.012546879535344868
523.0, 0.00725414860916976
524.0, 0.006069616894163002
525.0, 0.009605137090044968
526.0, 0.013384490335285994
527.0, 0.009086740599420957
528.0, 0.00880153446728136
529.0, 0.01057102828705686
530.0, 0.006177418362016637
531.0, 0.005633616502467447
532.0, 0.005097789564422732
533.0, 0.003087653293187124
534.0, 0.0010696917814981537
535.0, 0.0020573456708021095
536.0, 0.0009456393084241061
537.0, 0.002311806457332174
538.0, 0.0007130392760818069
539.0, 0.0005648392562277445
540.0, 0.001405991216521579
541.0, 0.00026024785367208334
542.0, 0.003702247307069525
543.0, 0.007972863236907542
544.0, 0.014230630362163866
545.0, 0.01712325848614951
546.0, 0.014448999521689385
547.0, 0.01384189111858451
548.0, 0.013116055328983816
549.0, 0.0161489531090543
550.0, 0.015237598546215432
551.0, 0.011711371922573936
552.0, 0.013741498138400645
553.0, 0.013225920106112688
554.0, 0.015358943306047923
555.0, 0.015441435000619059
556.0, 0.014500574762069864
557.0, 0.014022716613812016
558.0, 0.01314370888579216
559.0, 0.01499585511926276
560.0, 0.013425354433064663
561.0, 0.011072837877542568
562.0, 0.011238191677736818
563.0, 0.01384958793128251
564.0, 0.01710639242867021
565.0, 0.01752857813269795
566.0, 0.015210631081773382
567.0, 0.016609607836342962
568.0, 0.022732032136771285
569.0, 0.020397088292192438
570.0, 0.019190279364209497
571.0, 0.019906006367349204
572.0, 0.014826785044298619
573.0, 0.007094024174921944
574.0, 0.005382014884991436
575.0, 0.0055119924111624
576.0, 0.011557523529721034
577.0, 0.003469186315140733
578.0, 0.002181624593632888
579.0, 0.003908853909578811
580.0, 0.0023823483915976617
581.0, 0.00012577467703136808
582.0, 0.0034362942353857017
583.0, 0.0034351718960018043
584.0, 0.0024393637750527346
585.0, 0.00652246463660812
586.0, 0.007173439424227402
587.0, 0.011086821610946705
588.0, 0.008366711537928371
589.0, 0.0065110785930926245
590.0, 0.006159759130601487
591.0, 0.0005123026446580302
592.0, 0.0031256307322505435
593.0, 0.006803525093121526
594.0, 0.0070411564978102624
595.0, 0.006600824965303171
596.0, 0.006929505095096751
597.0, 0.004448356764287687
598.0, 0.004570075495332916
599.0, 0.003613746520615078
600.0, 0.008370671355786546
601.0, 0.012259883287625672
602.0, 0.009703344643398575
603.0, 0.017154533290023873
604.0, 0.01908028052821514
605.0, 0.020368030682750827
606.0, 0.02088715852816186
607.0, 0.023690003832176613
608.0, 0.03050236532876873
609.0, 0.022909472461821085
610.0, 0.02645472116222371
611.0, 0.0274194568739247
612.0, 0.02681928164103557
613.0, 0.03153238553524429
614.0, 0.038928962280251535
615.0, 0.0324059458660748
616.0, 0.034773680537407134
617.0, 0.035882122498470885
618.0, 0.034620601635071316
619.0, 0.036009143113135335
620.0, 0.03685907219728061
621.0, 0.03646082616942519
622.0, 0.03834114816233803
623.0, 0.04153944263763181
624.0, 0.04610247392354342
625.0, 0.051018518703190976
626.0, 0.04837456816226851
627.0, 0.04477060797534737
628.0, 0.040735718408578876
629.0, 0.03916307929611106
630.0, 0.03818445383439918
631.0, 0.035426399389850975
632.0, 0.0361766210619727
633.0, 0.02819313370065142
634.0, 0.02913916943202223
635.0, 0.03171357971829318
636.0, 0.029979486471321534
637.0, 0.02890604910940369
638.0, 0.03276871873231163
639.0, 0.024382021665606497
640.0, 0.022775071856739673
641.0, 0.023539077307977673
642.0, 0.02191136652194369
643.0, 0.02430558293988655
644.0, 0.019985217413097812
645.0, 0.01622639912071403
646.0, 0.021280900043461205
647.0, 0.02256219394770143
648.0, 0.019405342365545353
649.0, 0.028081335289797858
650.0, 0.028203728234654647
651.0, 0.027339687181250103
652.0, 0.028809573142182094
653.0, 0.03167978316464573
654.0, 0.032924615036842554
655.0, 0.029173123444350576
656.0, 0.025576741043982127
657.0, 0.030528475830928305
658.0, 0.028366325909394186
659.0, 0.024718180017773133
660.0, 0.024741533610573806
661.0, 0.01929050528662864
662.0, 0.017954393564631296
663.0, 0.01564534378767807
664.0, 0.016677738811895923
665.0, 0.017087730209615157
666.0, 0.014866771494256397
667.0, 0.015868521029552062
668.0, 0.01660540068562823
669.0, 0.014559925425507585
670.0, 0.01450986140776828
671.0, 0.01960776596959214
672.0, 0.02220517539530836
673.0, 0.014088907683860714
674.0, 0.014254433560332286
675.0, 0.014663731227077214
676.0, 0.004656697855533236
677.0, 0.004070335934585516
678.0, 0.013416694943333658
679.0, 0.004698892704315305
680.0, 0.002281412716434071
681.0, 0.0034498669588549414
682.0, 0.009888579278775985
683.0, 0.01302854268811146
684.0, 0.012674291617800537
685.0, 0.016557624733275815
686.0, 0.013663935497332915
687.0, 0.01675395121759428
688.0, 0.011944857788200631
689.0, 0.0088954273222401
690.0, 0.011276889634694054
691.0, 0.010155655648379374
692.0, 0.008899222781339719
693.0, 0.012353445115121528
694.0, 0.012322846437141885
695.0, 0.010246732565229802
696.0, 0.00981097526270045
697.0, 0.009974698636962985
698.0, 0.0072117884701715885
699.0, 0.005855552561439912
700.0, 0.0004542153698070849
701.0, 0.0020356711306808682
702.0, 0.005555509491352914
703.0, 0.001634081391274543
704.0, 0.0004030809867487036
705.0, 0.0016485046342316796
706.0, 0.0004376806775264081
707.0, 0.0014197355115655825
708.0, 0.0011997685288612006
709.0, 0.003170536133830384
710.0, 0.0003014369497727126
711.0, 0.006216957431372484
712.0, 0.008506486234514197
713.0, 0.0017382970681356752
714.0, 0.0022226086687793002
715.0, 2.883785942092308e-05
716.0, 0.001711362012202373
717.0, 0.0035967152903611803
718.0, 0.0005925055012044901
719.0, 0.0025202534908483954
720.0, 0.0011995183229316548
721.0, 0.004728613135751571
722.0, 0.005059304003900563
723.0, 0.0017159592624440953
724.0, 0.002533896299115019
725.0, 0.0008123103576905758
726.0, 0.002713723530047312
727.0, 0.0055429650014178315
728.0, 0.0038942040876203854
729.0, 0.003708820976007591
730.0, 0.008509652237064992
731.0, 0.00714002745931701
732.0, 0.009416217134134666
733.0, 0.008912914727304988
734.0, 0.005083889860950718
735.0, 0.010249644648836759
736.0, 0.007868123768276574
737.0, 0.005175896408520608
738.0, 0.008620786715219243
739.0, 0.00787720767857401
740.0, 0.005625649275583822
741.0, 0.009572058888765023
742.0, 0.007672930751039786
743.0, 0.010026415636943216
744.0, 0.01757568398985334
745.0, 0.019402771006855696
746.0, 0.02142526028489883
747.0, 0.025730254165572914
748.0, 0.019456531514516998
749.0, 0.018080250393582218
750.0, 0.025623270403119125
751.0, 0.01718414763684992
752.0, 0.0031092636250476314
753.0, 0.0007822080422372354
754.0, 0.005523063366554984
755.0, 0.013694910505708976
756.0, 0.014373648035016477
757.0, 0.017986142752565253
758.0, 0.017946447493328983
759.0, 0.012545159479348304
760.0, 0.00871593807942494
761.0, 0.012271178980772238
762.0, 0.007063993787564732
763.0, 0.008509250615929685
764.0, 0.0023028297002506003
765.0, 0.0015671077666218004
766.0, 0.007843583131025955
767.0, 0.013368179939123469
768.0, 0.015113674511257674
769.0, 0.023290480032674324
770.0, 0.01957231336049857
771.0, 0.021049126306313892
772.0, 0.02298899028401748
773.0, 0.01735389474557164
774.0, 0.01323327683037871
775.0, 0.019006973632936273
776.0, 0.020383180827193117
777.0, 0.01936574500178887
778.0, 0.015183326875471664
779.0, 0.01296716569673191
780.0, 0.016269575830529803
781.0, 0.018799569343798353
782.0, 0.020604624800286932
783.0, 0.017517046304935
784.0, 0.016272182807033395
785.0, 0.02104057316295007
786.0, 0.02672826290661763
787.0, 0.02550077358737416
788.0, 0.02346426943426247
789.0, 0.030912691818848793
790.0, 0.03256040090811354
791.0, 0.02867058056373367
792.0, 0.02797125893589501
793.0, 0.03355836611940462
794.0, 0.03955152932016257
795.0, 0.040378542160336546
796.0, 0.03426291740679758
797.0, 0.048306118334502976
798.0, 0.04731948493652855
799.0, 0.03806175941464299
800.0, 0.038666956524178266
801.0, 0.03920381045149582
802.0, 0.04132270092626236
803.0, 0.04520304091397937
804.0, 0.03896692343956804
805.0, 0.03426912546896895
806.0, 0.0343606904720631
807.0, 0.035284011731470714
808.0, 0.04006390441147936
809.0, 0.043240832348632026
810.0, 0.041384048773374864
811.0, 0.040533809608776124
812.0, 0.04205627859929908
813.0, 0.042821093001172934
814.0, 0.042966513377183796
815.0, 0.046820809696628087
816.0, 0.04570192791271492
817.0, 0.047193367268709284
818.0, 0.048833726010390786
819.0, 0.05204380175357216
820.0, 0.05210452420725402
821.0, 0.04828789491446479
822.0, 0.05321058777255337
823.0, 0.05441467578337388
824.0, 0.046600193427959236
825.0, 0.0450747994654669
826.0, 0.05264521134173065
827.0, 0.0571613694960302
828.0, 0.05425335582036479
829.0, 0.06390295578858517
830.0, 0.05831335937330394
831.0, 0.05831003403215318
832.0, 0.0562568715831033
833.0, 0.05069507148047568
834.0, 0.049010264800599154
835.0, 0.052308088920030464
836.0, 0.05228474405020954
837.0, 0.054302059642905014
838.0, 0.04642219535478976
839.0, 0.045969422982130366
840.0, 0.04110965578470369
841.0, 0.03699928587907734
842.0, 0.045408932142612816
843.0, 0.04410894416079087
844.0, 0.0362571484981016
845.0, 0.03151216859916656
846.0, 0.023806583290890068
847.0, 0.0234287073032405
848.0, 0.025311146339807647
849.0, 0.01873319782043004
850.0, 0.010340452792708257
851.0, 0.013617289688449264
852.0, 0.0011140536639750143
853.0, 0.0021075792879792
854.0, 0.0008733543291339338
855.0, 0.0006614509139653842
856.0, 0.0008567043408071768
857.0, 0.0008066689376941252
858.0, 0.0032764407155803288
859.0, 0.0017005442776508583
860.0, 0.0010296627880844766
861.0, 0.0039119117638651245
862.0, 0.008037939414957023
863.0, 0.0049461491532681945
864.0, 0.0008604831622726031
865.0, 0.0029989368272978667
866.0, 0.0027125191022677303
867.0, 0.003957433979579044
868.0, 0.001707945391626446
869.0, 0.0031825750129227687
870.0, 0.002701655791539625
871.0, 0.0035407454020980832
872.0, 0.002078694415140544
873.0, 0.004823863338139677
874.0, 0.004136216758769258
875.0, 0.001190207285823458
876.0, 0.00170626257670522
877.0, 0.001147877110373441
878.0, 0.006781092432947117
879.0, 0.0066781767448275105
880.0, 0.00931932074106596
881.0, 0.011245837048581446
882.0, 0.016469708240569467
883.0, 0.012334414166388391
884.0, 0.00736269963084293
885.0, 0.01383352112674248
886.0, 0.023141752850557515
887.0, 0.020613420504640018
888.0, 0.019964542648784375
889.0, 0.01791202975821973
890.0, 0.021497596223466985
891.0, 0.029084310003995847
892.0, 0.037736787781240774
893.0, 0.04979184004450467
894.0, 0.06774602477258743
895.0, 0.08031638693539025
896.0, 0.10160028752644405
897.0, 0.12269189233849166
898.0, 0.1573863772220633
899.0, 0.1894039952895103
900.0, 0.22539245102962205
901.0, 0.2910685166907159
902.0, 0.36030219888005166
903.0, 0.4171665609240793
904.0, 0.5023622058334885
905.0, 0.5990598329314043
906.0, 0.7130843331865111
907.0, 0.85612725047882
908.0, 0.9794966900564547
909.0, 0.9775038408803087
910.0, 0.8358153803481052
911.0, 0.7104599789118311
912.0, 0.6578075006561486
913.0, 0.6129771450430419
914.0, 0.49068175630143473
915.0, 0.3267459619136558
916.0, 0.20802797823825644
917.0, 0.13753351438114747
918.0, 0.09795799872627245
919.0, 0.08495072235519481
920.0, 0.0820486925243307
921.0, 0.08477239851408537
922.0, 0.0895314135586036
923.0, 0.09574267506823743
924.0, 0.1046327019932387
925.0, 0.11008753818088778
926.0, 0.11254064623220113
927.0, 0.12626692576184767
928.0, 0.13434230688533955
929.0, 0.13578324566053007
930.0, 0.1254105710170707
931.0, 0.10249329325917318
932.0, 0.08262907910819481
933.0, 0.07146973668581384
934.0, 0.06646615620625188
935.0, 0.06784684528773521
936.0, 0.07951129911338632
937.0, 0.08923485803094408
938.0, 0.09426905168708878
939.0, 0.10049619512743188
940.0, 0.1101487583207968
941.0, 0.12493189148430607
942.0, 0.12762792569898443
943.0, 0.14013027363306516
944.0, 0.1383669972049209
945.0, 0.12526335222842122
946.0, 0.1012046672824608
947.0, 0.07108494101307741
948.0, 0.05387249429982896
949.0, 0.042106909441077846
950.0, 0.040139836280514395
951.0, 0.040155930451345655
952.0, 0.0361507667355244
953.0, 0.03826038405448856
954.0, 0.03645718726202899
955.0, 0.02546108315350624
956.0, 0.022124274215285282
957.0, 0.02695119878610813
958.0, 0.036027179551023955
959.0, 0.04159839580162706
960.0, 0.044779766779720905
961.0, 0.04484386634844248
962.0, 0.04394148752832968
963.0, 0.046178965185753026
964.0, 0.05160045502983646
965.0, 0.0553369182501933
966.0, 0.0497770889748035
967.0, 0.028024427269946757
968.0, 0.013300395214910377
969.0, 0.005359156254175056
970.0, 0.0019302981529447684
971.0, 0.0015593215896970976
972.0, 0.0004116734892349757
973.0, 0.00039878411920242436
974.0, 0.0036016804265581286
975.0, 0.004946769114871885
976.0, 0.0020484741977206565
977.0, 0.0019734700777179095
978.0, 0.004671630321435168
979.0, 0.005972071740144766
980.0, 0.00620831788776428
981.0, 0.007589016835458488
982.0, 0.00718170825978114
983.0, 0.0083824377048038
984.0, 0.003126356611364618
985.0, 0.002995397379389094
986.0, 0.00516456913074737
987.0, 0.002041516282067557
988.0, 0.0020241168811303586
989.0, 0.0029679944178607077
990.0, 0.0008547889576680154
991.0, 0.0002377669222256559
992.0, 0.0060905515717137905
993.0, 0.008383042460828214
994.0, 0.0037703715172037345
995.0, 0.0008677699734760952
996.0, 0.0007892442765548654
997.0, 0.0030754605647442916
998.0, 0.0006167983153329457
999.0, 0.006378518936325492
1000.0, 0.0014164124125409373
1001.0, 0.0073218595345118705
1002.0, 0.014634990255570086
1003.0, 0.01016427653415286
1004.0, 0.007112153619225888
1005.0, 0.010556675753171098
1006.0, 0.005288407514572491
1007.0, 0.0009165114431681309
1008.0, 0.003948816627612558
1009.0, 0.006604657344156289
1010.0, 0.002180459477311
1011.0, 0.006295491236794637
1012.0, 0.007686362901487895
1013.0, 0.0066091421576094335
1014.0, 0.010842126516026663
1015.0, 0.006259460015319128
1016.0, 0.003576921652272363
1017.0, 0.007036308397343503
1018.0, 0.0021780318859386
1019.0, 0.003126954981862958
1020.0, 0.004651987070804643
1021.0, 0.0027201508716755496
1022.0, 0.006334761572183896
1023.0, 0.012422836680291505
1024.0, 0.011324188328445218
1025.0, 0.01296117250641698
1026.0, 0.020590567986794067
1027.0, 0.019337313403221538
1028.0, 0.016352644649363833
1029.0, 0.019820565461848603
1030.0, 0.02080286655704027
1031.0, 0.018987921062908086
1032.0, 0.020854164607301044
1033.0, 0.015285422821103309
1034.0, 0.00781697855995694
1035.0, 0.012970474362998056
1036.0, 0.016226130044251073
1037.0, 0.019047043312457174
1038.0, 0.024481019967125376
1039.0, 0.02286851678385122
1040.0, 0.01613813015875684
1041.0, 0.01588174619697385
1042.0, 0.019589501857896492
1043.0, 0.02486647003930294
1044.0, 0.011309363044271986
1045.0, 0.005358442244197021
1046.0, 0.008907153694211982
1047.0, 0.006103389939759244
1048.0, 0.0028436379525456725
1049.0, 0.0022003096710178716
1050.0, 0.0028685006695260713
1051.0, 0.012197984198133617
1052.0, 0.01214264683239454
1053.0, 0.007596926053734848
1054.0, 0.014018253819507128
1055.0, 0.023368569438695978
1056.0, 0.018337872016020287
1057.0, 0.021026383406000618
1058.0, 0.02687971518620401
1059.0, 0.018742839152050557
1060.0, 0.015825672844497186
1061.0, 0.013491122561983761
1062.0, 0.020271154024758528
1063.0, 0.007580491059980517
1064.0, 0.005753696455282579
1065.0, 0.0030296973192055748
1066.0, 0.007343381038251644
1067.0, 0.007739376072819968
1068.0, 0.0010101012516195223
1069.0, 0.007670867258029188
1070.0, 0.016103300865750306
1071.0, 0.008906745405041109
1072.0, 0.01068156969000241
1073.0, 0.014797905400395394
1074.0, 0.009945435102589549
1075.0, 0.00750377281067612
1076.0, 0.0060695426014656575
1077.0, 0.005384378781921704
1078.0, 0.004509608160692003
1079.0, 0.004213379314252682
1080.0, 0.004757002873426048
1081.0, 0.0009612693891347794
1082.0, 0.004764585696760386
1083.0, 0.00632395196594587
1084.0, 0.006472135332835328
1085.0, 0.006194399489881498
1086.0, 0.008856340169581632
1087.0, 0.009644183441460195
1088.0, 0.01364184688676176
1089.0, 0.012247130305942037
1090.0, 0.011999295333493329
1091.0, 0.0051958535609099524
1092.0, 0.014072957526745611
1093.0, 0.01003776603662673
1094.0, 0.013033417829029644
1095.0, 0.01478534007706196
1096.0, 0.015009152983726648
1097.0, 0.022918194821208934
1098.0, 0.027608199909301703
1099.0, 0.023157465359606628
1100.0, 0.023750367131894337
1101.0, 0.017099129327026848
1102.0, 0.023217060708707247
1103.0, 0.014200848846945613
1104.0, 0.027375861951225596
1105.0, 0.03153277395427972
1106.0, 0.020666406308137146
1107.0, 0.020489807882752953
1108.0, 0.022431427969887143
1109.0, 0.017188760248848634
1110.0, 0.018545418578252752
1111.0, 0.012484702290474122
1112.0, 0.004766298250217352
1113.0, 0.005103511644940982
1114.0, 0.010385345946078234
1115.0, 0.017200356475867654
1116.0, 0.015534183741752108
1117.0, 0.007533363612637225
1118.0, 0.0042356771667042825
1119.0, 0.0009323651740689278
1120.0, 0.004631326717369431
1121.0, 0.0009938527896577094
1122.0, 0.005457575868610389
1123.0, 0.008479049418319274
1124.0, 0.005989114073327664
1125.0, 0.00495503509691265
1126.0, 0.006369775109051179
1127.0, 0.007557321283461145
1128.0, 0.011305301976598323
1129.0, 0.020467022308150538
1130.0, 0.03001070755891572
1131.0, 0.03234207715226539
1132.0, 0.02618543940287286
1133.0, 0.0260433131085825
1134.0, 0.019011180448716802
1135.0, 0.01964759419545271
1136.0, 0.021597592725451944
1137.0, 0.02094449882667877
1138.0, 0.019302689764909054
1139.0, 0.009964023483996028
1140.0, 0.008398435751513769
1141.0, 0.01984411126933812
1142.0, 0.024184257339427962
1143.0, 0.015420318981139148
1144.0, 0.009505422445726915
1145.0, 0.011043685702726885
1146.0, 0.0030749778502310995
1147.0, 0.0023088482243647547
1148.0, 0.00044954255326130183
1149.0, 0.001911995704006889
1150.0, 0.00250315134391884
1151.0, 0.007678172577278033
1152.0, 0.014349044843804589
1153.0, 0.011375553608128343
1154.0, 0.014490583762023291
1155.0, 0.017565195660205857
1156.0, 0.019248937275801445
1157.0, 0.019840946347826533
1158.0, 0.018564920759814214
1159.0, 0.016537794904775943
1160.0, 0.013199567299376847
1161.0, 0.008056279037729134
1162.0, 0.012355595716322847
1163.0, 0.017648621665351076
1164.0, 0.016556536254162726
1165.0, 0.007439875086037571
1166.0, 0.008666523898215591
1167.0, 0.0037434878926038487
1168.0, 0.001675461298469124
1169.0, 0.0010899012037495967
1170.0, 0.00015193251671937076
1171.0, 0.0001131759072902145
1172.0, 0.005804295169612426
1173.0, 0.026680072830258136
1174.0, 0.022818415362783107
1175.0, 0.014160085214701225
1176.0, 0.01036356883399076
1177.0, 0.01599738938157974
1178.0, 0.017673155197533014
1179.0, 0.019454146294511625
1180.0, 0.023546155026941067
1181.0, 0.020371476149956574
1182.0, 0.013747472401377534
1183.0, 0.018292880864166156
1184.0, 0.026996797980131566
1185.0, 0.022684391751987932
1186.0, 0.016895538195668188
1187.0, 0.01969478722725648
1188.0, 0.013791685316766247
1189.0, 0.017709334893974252
1190.0, 0.01501720988420086
1191.0, 0.0068409252654125985
1192.0, 0.004845434119010321
1193.0, 0.005966915327947653
1194.0, 0.008107619571857278
1195.0, 0.01232659260256298
1196.0, 0.004470049585947551
1197.0, 0.002902915969244398
1198.0, 0.008963404183685394
1199.0, 0.009519156175779215
1200.0, 0.006726909412087062
1201.0, 0.014757389211216755
1202.0, 0.009562813395332962
1203.0, 0.0058095436418768446
1204.0, 0.01106972891351984
1205.0, 0.009442036354311076
1206.0, 0.004851265297057807
1207.0, 0.00828759643968231
1208.0, 0.00968818150001035
1209.0, 0.006538264232565874
1210.0, 0.01870714908269841
1211.0, 0.017091371820300454
1212.0, 0.021169031976316283
1213.0, 0.01432911774286218
1214.0, 0.01398582882749047
1215.0, 0.018356582090122288
1216.0, 0.019051216471751925
1217.0, 0.014146323140401214
1218.0, 0.009181681179838808
1219.0, 0.013330552975056226
1220.0, 0.0039836058027022435
1221.0, 0.0017065727210207353
1222.0, 0.008369788677905568
1223.0, 0.009070216338525623
1224.0, 0.008467326176572601
1225.0, 0.007930329631816157
1226.0, 0.010015955564235046
1227.0, 0.010530887227937075
1228.0, 0.006431789567117329
1229.0, 0.005436809441393809
1230.0, 0.010569824307509235
1231.0, 0.013845454197341492
1232.0, 0.019618230048791582
1233.0, 0.020269766950258828
1234.0, 0.012552447704190353
1235.0, 0.01782299509535622
1236.0, 0.02728498813334577
1237.0, 0.02704135004196499
1238.0, 0.024120650576069887
1239.0, 0.022682250649718128
1240.0, 0.024592329018815917
1241.0, 0.021877259408371656
1242.0, 0.020293967079162895
1243.0, 0.022872738385503126
1244.0, 0.013971922774510826
1245.0, 0.02302351417513038
1246.0, 0.021474267422080622
1247.0, 0.03186585344300125
1248.0, 0.037991005432770404
1249.0, 0.033982561989749936
1250.0, 0.02604396585686698
1251.0, 0.027937334334315306
1252.0, 0.026154816191891143
1253.0, 0.020830760041165432
1254.0, 0.01714957036897401
1255.0, 0.016745064396698196
1256.0, 0.018479663271478323
1257.0, 0.018901747302358808
1258.0, 0.01975590296722077
1259.0, 0.01939135640913843
1260.0, 0.017481785898232693
1261.0, 0.009087600452907033
1262.0, 0.006223797085491033
1263.0, 0.008953469182717451
1264.0, 0.005176028231367567
1265.0, 0.0028895287613846673
1266.0, 0.004817306474766023
1267.0, 0.006492009460562726
1268.0, 0.0077277771044363675
1269.0, 0.012492431942844493
1270.0, 0.020102859381079818
1271.0, 0.026032662344585976
1272.0, 0.024538239580649084
1273.0, 0.02945247385956741
1274.0, 0.03091231437344231
1275.0, 0.029099537398955905
1276.0, 0.02074796573435349
1277.0, 0.02570463945431668
1278.0, 0.010983051502269704
1279.0, 0.0022763127413245984
1280.0, 0.006741840967305349
1281.0, 0.014282257441973922
1282.0, 0.016162491533886696
1283.0, 0.012430742123486303
1284.0, 0.006395623251957971
1285.0, 0.002726652804927793
1286.0, 0.005141784153908638
1287.0, 0.0021021030735212643
1288.0, 0.002530215668422856
1289.0, 0.00027091007903340484
1290.0, 0.0015040198604578505
1291, 0.0
1292, 0.0
1293, 0.0
1294, 0.0
1295, 0.0
1296, 0.0
1297, 0.0
1298, 0.0
1299, 0.0
1300, 0.0
1301, 0.0
1302, 0.0
1303, 0.0
1304, 0.0
1305, 0.0
1306, 0.0
1307, 0.0
1308, 0.0
1309, 0.0
1310, 0.0
1311, 0.0
1312, 0.0
1313, 0.0
1314, 0.0
1315, 0.0
1316, 0.0
1317, 0.0
1318, 0.0
1319, 0.0
1320, 0.0
1321, 0.0
1322, 0.0
1323, 0.0
1324, 0.0
1325, 0.0
1326, 0.0
1327, 0.0
1328, 0.0
1329, 0.0
1330, 0.0
1331, 0.0
1332, 0.0
1333, 0.0
1334, 0.0
1335, 0.0
1336, 0.0
1337, 0.0
1338, 0.0
1339, 0.0
1340, 0.0
1341, 0.0
1342, 0.0
1343, 0.0
1344, 0.0
1345, 0.0
1346, 0.0
1347, 0.0
1348, 0.0
1349, 0.0
1350, 0.0
1351, 0.0
1352, 0.0
1353, 0.0
1354, 0.0
1355, 0.0
1356, 0.0
1357, 0.0
1358, 0.0
1359, 0.0
1360, 0.0
1361, 0.0
1362, 0.0
1363, 0.0
1364, 0.0
1365, 0.0
1366, 0.0
1367, 0.0
1368, 0.0
1369, 0.0
1370, 0.0
1371, 0.0
1372, 0.0
1373, 0.0
1374, 0.0
1375, 0.0
1376, 0.0
1377, 0.0
1378, 0.0
1379, 0.0
1380, 0.0
1381, 0.0
1382, 0.0
1383, 0.0
1384, 0.0
1385, 0.0
1386, 0.0
1387, 0.0
1388, 0.0
1389, 0.0
1390, 0.0
1391, 0.0
1392, 0.0
1393, 0.0
1394, 0.0
1395, 0.0
1396, 0.0
1397, 0.0
1398, 0.0
1399, 0.0
1400, 0.0
1401, 0.0
1402, 0.0
1403, 0.0
1404, 0.0
1405, 0.0
1406, 0.0
1407, 0.0
1408, 0.0
1409, 0.0
1410, 0.0
1411, 0.0
1412, 0.0
1413, 0.0
1414, 0.0
1415, 0.0
1416, 0.0
1417, 0.0
1418, 0.0
1419, 0.0
1420, 0.0
1421, 0.0
1422, 0.0
1423, 0.0
1424, 0.0
1425, 0.0
1426, 0.0
1427, 0.0
1428, 0.0
1429, 0.0
1430, 0.0
1431, 0.0
1432, 0.0
1433, 0.0
1434, 0.0
1435, 0.0
1436, 0.0
1437, 0.0
1438, 0.0
1439, 0.0
1440, 0.0
1441, 0.0
1442, 0.0
1443, 0.0
1444, 0.0
1445, 0.0
1446, 0.0
1447, 0.0
1448, 0.0
1449, 0.0
1450, 0.0
1451, 0.0
1452, 0.0
1453, 0.0
1454, 0.0
1455, 0.0
1456, 0.0
1457, 0.0
1458, 0.0
1459, 0.0
1460, 0.0
1461, 0.0
1462, 0.0
1463, 0.0
1464, 0.0
1465, 0.0
1466, 0.0
1467, 0.0
1468, 0.0
1469, 0.0
1470, 0.0
1471, 0.0
1472, 0.0
1473, 0.0
1474, 0.0
1475, 0.0
1476, 0.0
1477, 0.0
1478, 0.0
1479, 0.0
1480, 0.0
1481, 0.0
1482, 0.0
1483, 0.0
1484, 0.0
1485, 0.0
1486, 0.0
1487, 0.0
1488, 0.0
1489, 0.0
1490, 0.0
1491, 0.0
1492, 0.0
1493, 0.0
1494, 0.0
1495, 0.0
1496, 0.0
1497, 0.0
1498, 0.0
1499, 0.0
1500, 0.0
1501, 0.0
1502, 0.0
1503, 0.0
1504, 0.0
1505, 0.0
1506, 0.0
1507, 0.0
1508, 0.0
1509, 0.0
1510, 0.0
1511, 0.0
1512, 0.0
1513, 0.0
1514, 0.0
1515, 0.0
1516, 0.0
1517, 0.0
1518, 0.0
1519, 0.0
1520, 0.0
1521, 0.0
1522, 0.0
1523, 0.0
1524, 0.0
1525, 0.0
1526, 0.0
1527, 0.0
1528, 0.0
1529, 0.0
1530, 0.0
1531, 0.0
1532, 0.0
1533, 0.0
1534, 0.0
1535, 0.0
1536, 0.0
1537, 0.0
1538, 0.0
1539, 0.0
1540, 0.0
1541, 0.0
1542, 0.0
1543, 0.0
1544, 0.0
1545, 0.0
1546, 0.0
1547, 0.0
1548, 0.0
1549, 0.0
1550, 0.0
1551, 0.0
1552, 0.0
1553, 0.0
1554, 0.0
1555, 0.0
1556, 0.0
1557, 0.0
1558, 0.0
1559, 0.0
1560, 0.0
1561, 0.0
1562, 0.0
1563, 0.0
1564, 0.0
1565, 0.0
1566, 0.0
1567, 0.0
1568, 0.0
1569, 0.0
1570, 0.0
1571, 0.0
1572, 0.0
1573, 0.0
1574, 0.0
1575, 0.0
1576, 0.0
1577, 0.0
1578, 0.0
1579, 0.0
1580, 0.0
1581, 0.0
1582, 0.0
1583, 0.0
1584, 0.0
1585, 0.0
1586, 0.0
1587, 0.0
1588, 0.0
1589, 0.0
1590, 0.0
1591, 0.0
1592, 0.0
1593, 0.0
1594, 0.0
1595, 0.0
1596, 0.0
1597, 0.0
1598, 0.0
1599, 0.0
