30, 0.0
31, 0.0
32, 0.0
33, 0.0
34, 0.0
35, 0.0
36, 0.0
37, 0.0
38, 0.0
39, 0.0
40, 0.0
41, 0.0
42, 0.0
43, 0.0
44, 0.0
45, 0.0
46, 0.0
47, 0.0
48, 0.0
49, 0.0
50, 0.0
51, 0.0
52, 0.0
53, 0.0
54, 0.0
55, 0.0
56, 0.0
57, 0.0
58, 0.0
59, 0.0
60, 0.0
61, 0.0
62, 0.0
63, 0.0
64, 0.0
65, 0.0
66, 0.0
67, 0.0
68, 0.0
69, 0.0
70, 0.0
71, 0.0
72, 0.0
73, 0.0
74, 0.0
75, 0.0
76, 0.0
77, 0.0
78, 0.0
79, 0.0
80, 0.0
81, 0.0
82, 0.0
83, 0.0
84, 0.0
85, 0.0
86, 0.0
87, 0.0
88, 0.0
89, 0.0
90, 0.0
91, 0.0
92, 0.0
93, 0.0
94, 0.0
95, 0.0
96, 0.0
97, 0.0
98, 0.0
99, 0.0
100, 0.0
101, 0.0
102, 0.0
103, 0.0
104, 0.0
105, 0.0
106, 0.0
107, 0.0
108, 0.0
109, 0.0
110, 0.0
111, 0.0
112, 0.0
113, 0.0
114, 0.0
115, 0.0
116, 0.0
117, 0.0
118, 0.0
119, 0.0
120, 0.0
121, 0.0
122, 0.0
123, 0.0
124, 0.0
125, 0.0
126, 0.0
127, 0.0
128, 0.0
129, 0.0
130, 0.0
131, 0.0
132, 0.0
133, 0.0
134, 0.0
135.0, 0.00035714947507802864
136.0, 0.003523776370224027
137.0, 0.001292848124080806
138.0, 0.010840039707859954
139.0, 0.026550403876342218
140.0, 0.03655224841383974
141.0, 0.04808038667115762
142.0, 0.05486889952123187
143.0, 0.06665739629335729
144.0, 0.08215645886893368
145.0, 0.09330520963577595
146.0, 0.10646318332159593
147.0, 0.11640497632811841
148.0, 0.13082134308149357
149.0, 0.15344986245296727
150.0, 0.16662704896545877
151.0, 0.2019432937330129
152.0, 0.22754664636500757
153.0, 0.227419277248154
154.0, 0.24299292013512902
155.0, 0.29152913951338866
156.0, 0.31931427582946337
157.0, 0.3252700423509938
158.0, 0.3574348031018537
159.0, 0.39598041510430154
160.0, 0.4007980554375986
161.0, 0.3983505429037033
162.0, 0.4148147497520462
163.0, 0.3954978426012754
164.0, 0.4004148448060993
165.0, 0.3957968739595919
166.0, 0.3643500946359662
167.0, 0.35893075888151554
168.0, 0.35521381767024984
169.0, 0.3379631034639193
170.0, 0.3133659061270535
171.0, 0.29529230556027847
172.0, 0.3084122585337138
173.0, 0.3157725510099919
174.0, 0.31464585359017916
175.0, 0.32246859801742805
176.0, 0.2830523862844567
177.0, 0.26925588874467943
178.0, 0.27419902169823573
179.0, 0.26677873695450105
180.0, 0.24237789942448432
181.0, 0.21074377083922002
182.0, 0.181557646838575
183.0, 0.15669381913126043
184.0, 0.1326603259468201
185.0, 0.10042156569433999
186.0, 0.08022027264327566
187.0, 0.06193868726664854
188.0, 0.02853988447609062
189.0, 0.047734381587913724
190.0, 0.02331123436299954
191.0, 0.006997468251135486
192.0, 0.016634236440125065
193.0, 0.010625797055181203
194.0, 0.012253318982812626
195.0, 0.01760364730941799
196.0, 0.022844696719097845
197.0, 0.03292762433415733
198.0, 0.028854386002198185
199.0, 0.004968055076803212
200.0, 0.011097264145707915
201.0, 0.0024428743250280455
202.0, 0.004242769110753282
203.0, 0.01113884178273215
204.0, 0.005869767869916169
205.0, 0.004781234874123966
206.0, 0.00745715983008627
207.0, 0.011417915462832058
208.0, 0.011807705834197654
209.0, 0.006708824583964073
210.0, 0.005277585210136985
211.0, 0.003492541216249325
212.0, 0.0006602107432012849
213.0, 0.017105464154998792
214.0, 0.03630549234789384
215.0, 0.023683157050385917
216.0, 0.04375754132667437
217.0, 0.05809174283069811
218.0, 0.06086577555198892
219.0, 0.0686423389334055
220.0, 0.07998330114729262
221.0, 0.0913235303008879
222.0, 0.09991936757595554
223.0, 0.10329193214777405
224.0, 0.0983460865225641
225.0, 0.0999148272919375
226.0, 0.10115968674521568
227.0, 0.10260425162457913
228.0, 0.11085035196793057
229.0, 0.11846864757236418
230.0, 0.10891206496861107
231.0, 0.09592605592071675
232.0, 0.09413118772002878
233.0, 0.08928614055324498
234.0, 0.0734854942695869
235.0, 0.05914306256994001
236.0, 0.04531255873382933
237.0, 0.0268479548887879
238.0, 0.02838809956390271
239.0, 0.038570935402015845
240.0, 0.0269347946985438
241.0, 0.0010982585051376697
242.0, 0.0016138976680310458
243.0, 0.002956623017725549
244.0, 0.0069560363973010155
245.0, 0.008615110943322565
246.0, 0.00518254579759805
247.0, 0.0022662347290351536
248.0, 0.0051163683030955335
249.0, 0.0067445592118884415
250.0, 0.0013900145423165228
251.0, 0.0006074748827235575
252.0, 0.010685948694576095
253.0, 0.0027726605319476198
254.0, 0.008699580034490312
255.0, 0.0018240452894713259
256.0, 0.001585095560413312
257.0, 0.006360392077895238
258.0, 0.016549878784685404
259.0, 0.02216624359236503
260.0, 0.020321539951763324
261.0, 0.01531239698861916
262.0, 0.011273048116814509
263.0, 0.009624622651880632
264.0, 0.010066716365740544
265.0, 0.008728593303388718
266.0, 0.000539743657780904
267.0, 0.005497631955331187
268.0, 0.014760610785485772
269.0, 0.006911364070606482
270.0, 0.018803674097717556
271.0, 0.022471402745243552
272.0, 0.02239057479716424
273.0, 0.021699493511661734
274.0, 0.010657233664619813
275.0, 0.00792939991120261
276.0, 0.007373149870176082
277.0, 0.01086283784197966
278.0, 0.017586536330984715
279.0, 0.013065931772248914
280.0, 0.012992952332294822
281.0, 0.013461759279534555
282.0, 0.019326470326126922
283.0, 0.03347285724937339
284.0, 0.028335275762370278
285.0, 0.019055194818857438
286.0, 0.016150566681237523
287.0, 0.02563074903243951
288.0, 0.04819627991370186
289.0, 0.03511893470578358
290.0, 0.039695414996585805
291.0, 0.04685657158674409
292.0, 0.038446174476238174
293.0, 0.05888374559780359
294.0, 0.06048217545893222
295.0, 0.05503213958464717
296.0, 0.04961064651208573
297.0, 0.0433709111852976
298.0, 0.04973556844443917
299.0, 0.05504986821137483
300.0, 0.05123517866365108
301.0, 0.04696468103796559
302.0, 0.060947530473697845
303.0, 0.06832204657424305
304.0, 0.0585636365335412
305.0, 0.04997790335618188
306.0, 0.04948832765687803
307.0, 0.03859555120720233
308.0, 0.03564700533131855
309.0, 0.03551277237336141
310.0, 0.03666559222129641
311.0, 0.040887508375898336
312.0, 0.042641420684857934
313.0, 0.031144571259464585
314.0, 0.0273027367200502
315.0, 0.03446864205406527
316.0, 0.04186936952310223
317.0, 0.039022690895148114
318.0, 0.039981390852770145
319.0, 0.046858906834097915
320.0, 0.05095776112545325
321.0, 0.03790087874197994
322.0, 0.025423724534440258
323.0, 0.040574194761224376
324.0, 0.05540684300433482
325.0, 0.05080863938754486
326.0, 0.04936819396702375
327.0, 0.05601828231801297
328.0, 0.06606380999355328
329.0, 0.0759704871542709
330.0, 0.0803856885234214
331.0, 0.07317144132573476
332.0, 0.06477082243011062
333.0, 0.0655640829278128
334.0, 0.07371435038500719
335.0, 0.08102214282425942
336.0, 0.08126207189350051
337.0, 0.0938207924857791
338.0, 0.10988881028126758
339.0, 0.11253215693113233
340.0, 0.10358578368931906
341.0, 0.1139436511134881
342.0, 0.11519597810034254
343.0, 0.1163150305814153
344.0, 0.11056566061794287
345.0, 0.09355485176668454
346.0, 0.10172930478984106
347.0, 0.10231825674698207
348.0, 0.10144933309093722
349.0, 0.09845325803665876
350.0, 0.08473836609113572
351.0, 0.08315514507786415
352.0, 0.07723821021461322
353.0, 0.0819614322488424
354.0, 0.09478922134474924
355.0, 0.09078977173731656
356.0, 0.0842241582687931
357.0, 0.07430037848485524
358.0, 0.06879113570888566
359.0, 0.06980313346587343
360.0, 0.06903902816417469
361.0, 0.05776368510531089
362.0, 0.05275494753946697
363.0, 0.04785582526331061
364.0, 0.043453535925444195
365.0, 0.04704318893115808
366.0, 0.03673874258323573
367.0, 0.027340575070783746
368.0, 0.024564414542494563
369.0, 0.023439995627251794
370.0, 0.020365463323321942
371.0, 0.034377401819467426
372.0, 0.023679973229119616
373.0, 0.01869383580542576
374.0, 0.023172496710770273
375.0, 0.0032636126966300973
376.0, 0.020028505451721742
377.0, 0.014221170729760417
378.0, 0.016758674431507557
379.0, 0.03252190324961685
380.0, 0.026168250106175673
381.0, 0.021229556591954836
382.0, 0.010075029372375928
383.0, 0.002320529246139673
384.0, 0.001246368313704355
385.0, 0.000724776988034175
386.0, 0.006507021021608489
387.0, 0.020046437186617267
388.0, 0.01659958033985582
389.0, 0.002256966590696849
390.0, 0.017920848273132613
391.0, 0.005665908000643384
392.0, 0.0032779983051006273
393.0, 0.002552559146313943
394.0, 0.002700739602575203
395.0, 0.002809683217417811
396.0, 0.013695790087920953
397.0, 0.006706517378938415
398.0, 0.013213649829978425
399.0, 0.01582109809121383
400.0, 0.019692262684487673
401.0, 0.004244324816902959
402.0, 0.0027871849393288953
403.0, 0.004529754640476523
404.0, 0.006590269940164784
405.0, 0.00783963194857471
406.0, 0.00995467854915901
407.0, 0.0059336841221770305
408.0, 0.01255694009063877
409.0, 0.016407413940531985
410.0, 0.002601908981711944
411.0, 0.004789710885157363
412.0, 0.017882706883709
413.0, 0.014198629611891979
414.0, 0.01026419317722749
415.0, 0.022936599363498265
416.0, 0.0375704906571032
417.0, 0.029101094011315193
418.0, 0.023798453521225827
419.0, 0.033802976433348925
420.0, 0.0517156876218043
421.0, 0.05852152493651897
422.0, 0.0548223639734813
423.0, 0.06797041456634982
424.0, 0.08523183937894781
425.0, 0.09831104412402403
426.0, 0.11170468149075738
427.0, 0.11202062812917901
428.0, 0.1349201250235443
429.0, 0.15165044013363999
430.0, 0.15534974333054904
431.0, 0.1644838964304798
432.0, 0.1940640222562285
433.0, 0.21569695833716157
434.0, 0.23492729238344684
435.0, 0.25737027353309144
436.0, 0.2758952075710631
437.0, 0.2792778350066139
438.0, 0.3021586685699146
439.0, 0.3177482038616947
440.0, 0.33510627537846494
441.0, 0.3512559425656999
442.0, 0.33995224863697904
443.0, 0.3507410805298445
444.0, 0.3433735584730181
445.0, 0.34959512780238383
446.0, 0.3612214610459749
447.0, 0.3350414480666002
448.0, 0.29954639482082285
449.0, 0.27116627890928596
450.0, 0.24438946531660075
451.0, 0.2199934044017802
452.0, 0.19815865418195677
453.0, 0.1669413890740234
454.0, 0.1411052339380098
455.0, 0.12556833140264798
456.0, 0.11472400268596035
457.0, 0.1006780065889691
458.0, 0.07960220686111605
459.0, 0.0731222610518641
460.0, 0.0714692313084257
461.0, 0.07541962770551335
462.0, 0.08833829409911205
463.0, 0.10175660474869593
464.0, 0.08811007573711689
465.0, 0.0912784254094394
466.0, 0.09996618665610353
467.0, 0.1087623098252331
468.0, 0.11853244134641404
469.0, 0.12488168083404834
470.0, 0.14830303493213795
471.0, 0.16251858130343916
472.0, 0.15817623220591862
473.0, 0.1470402621509551
474.0, 0.14684677470835877
475.0, 0.1429017072581666
476.0, 0.12225815569798679
477.0, 0.09891209763333716
478.0, 0.08399323287811271
479.0, 0.07636230225715071
480.0, 0.06565263759905283
481.0, 0.06479702017861337
482.0, 0.05258504975908002
483.0, 0.043763209602995984
484.0, 0.045647281443375404
485.0, 0.04124714350278607
486.0, 0.04930982654556629
487.0, 0.051302393842003344
488.0, 0.05741493140470502
489.0, 0.06090370009503419
490.0, 0.05021940801153239
491.0, 0.047233451842763924
492.0, 0.06473718081625406
493.0, 0.06124879917390262
494.0, 0.054521848480577687
495.0, 0.05373677727468418
496.0, 0.03839134782419928
497.0, 0.03426293616248162
498.0, 0.04081718852016306
499.0, 0.028340996348132176
500.0, 0.009356832308007585
501.0, 0.009763143662491666
502.0, 0.007008471778922856
503.0, 0.008746173066997215
504.0, 0.003976191692307763
505.0, 0.010856315006854004
506.0, 0.029355291326192898
507.0, 0.020805552311386043
508.0, 0.020064870726706163
509.0, 0.034386587124222656
510.0, 0.03397008059290695
511.0, 0.03610790900653421
512.0, 0.054945603982016165
513.0, 0.06814572793739568
514.0, 0.08544040164882134
515.0, 0.09932115651044755
516.0, 0.108539703750027
517.0, 0.12855324245658398
518.0, 0.1711470590233578
519.0, 0.21742729530972923
520.0, 0.25836025759628434
521.0, 0.29699984180663547
522.0, 0.3430768736879268
523.0, 0.403260891919784
524.0, 0.4721433328036367
525.0, 0.5324344531249531
526.0, 0.6059214032426101
527.0, 0.6869941463102472
528.0, 0.7688974530984437
529.0, 0.8393079349337801
530.0, 0.8865345991498202
531.0, 0.9443471562294529
532.0, 0.9830746915981962
533.0, 0.9987255538022907
534.0, 0.9858032643166377
535.0, 0.9586314366525651
536.0, 0.9448136260867943
537.0, 0.8840505489758608
538.0, 0.8185362245052983
539.0, 0.7408337662376854
540.0, 0.6683777834544662
541.0, 0.6107762630029834
542.0, 0.528965537430976
543.0, 0.4711343735631353
544.0, 0.40038598550478816
545.0, 0.3378738281082242
546.0, 0.29044668553288316
547.0, 0.2440646182987984
548.0, 0.22295091184678278
549.0, 0.1968182806536934
550.0, 0.16578742993767043
551.0, 0.1382908161782181
552.0, 0.11626921395678146
553.0, 0.10083705794238984
554.0, 0.10028021507525978
555.0, 0.09375316455653358
556.0, 0.07879808231102617
557.0, 0.059138857800700585
558.0, 0.04215366499012803
559.0, 0.034997875868992674
560.0, 0.03145615003862367
561.0, 0.02490789015063636
562.0, 0.020134400993920953
563.0, 0.02043477800354262
564.0, 0.0214008081156411
565.0, 0.01644755470138004
566.0, 0.013827577927627368
567.0, 0.004272635409452067
568.0, 0.001366464622923437
569.0, 0.005604694692093783
570.0, 0.00822767592278902
571.0, 0.004386703548334278
572.0, 0.001158118298300733
573.0, 0.004850915750748984
574.0, 0.005991525109498735
575.0, 0.0016190825314926906
576.0, 0.0037681409269902733
577.0, 0.005780063114956754
578.0, 0.005566809274797281
579.0, 0.004901271001890791
580.0, 0.004679885313729
581.0, 0.0021462498313598397
582.0, 0.003912784898521429
583.0, 0.0001413565407006772
584.0, 0.001929434663852736
585.0, 0.006286403741292033
586.0, 0.008697976101332126
587.0, 0.004744973175214622
588.0, 0.01456735006648956
589.0, 0.009044871383803624
590.0, 0.0033235491935459894
591.0, 0.003466667772889094
592.0, 0.00018644491142212266
593.0, 0.004151491259039955
594.0, 0.008886967460293488
595.0, 0.005418737024215759
596.0, 0.012482997529795386
597.0, 0.004103218047198345
598.0, 0.007122779676131534
599.0, 0.013265547844347855
600.0, 0.010963658306370217
601.0, 0.010445156499458132
602.0, 0.021720890832078142
603.0, 0.0261705084124616
604.0, 0.026079429507630602
605.0, 0.025207279533825264
606.0, 0.029156006278682266
607.0, 0.03199095023289843
608.0, 0.0145202402507195
609.0, 0.02229229270443451
610.0, 0.02681437138104146
611.0, 0.02375901514533951
612.0, 0.02295976987871619
613.0, 0.026278054766375673
614.0, 0.024230302359695886
615.0, 0.01873812144265848
616.0, 0.013946783541377723
617.0, 0.022696441091500565
618.0, 0.026584365566881256
619.0, 0.019135304489593774
620.0, 0.019503897814329516
621.0, 0.007635316875103156
622.0, 0.015057035648885274
623.0, 0.020392999882203902
624.0, 0.014302794752337636
625.0, 0.009581039997724892
626.0, 0.016811222720749947
627.0, 0.02022432798993563
628.0, 0.0033018760252475055
629.0, 0.008010606744101442
630.0, 0.012779145091058987
631.0, 0.007216590628552718
632.0, 0.011480560354309614
633.0, 0.026458824910449926
634.0, 0.014589206579196363
635.0, 0.007073388990479011
636.0, 0.015465341995631973
637.0, 0.020689792604046756
638.0, 0.010782913752351419
639.0, 0.011352315123077827
640.0, 0.02708185976967446
641.0, 0.022481514804374575
642.0, 0.015771184353982053
643.0, 0.012909069819632342
644.0, 0.010214214395917303
645.0, 0.00984975131938002
646.0, 0.006961369171741843
647.0, 0.0058904373602662475
648.0, 0.011808348830600687
649.0, 0.011213490515928922
650.0, 0.010109951198416223
651.0, 0.013154035997006128
652.0, 0.00351836066659869
653.0, 0.003156272318872833
654.0, 0.003251336509745157
655.0, 0.0006481524380394918
656.0, 0.003368381053998617
657.0, 0.0040313613600284305
658.0, 0.0048971065057115525
659.0, 0.0002535356039899819
660.0, 0.00017917399936071395
661.0, 0.0015976516324831837
662.0, 0.008834075939915179
663.0, 0.021535458211147336
664.0, 0.02026355246975686
665.0, 0.018742487431505188
666.0, 0.010364965626406038
667.0, 0.00725592207205079
668.0, 0.019737827086078536
669.0, 0.014533108720940987
670.0, 0.0028066960395103212
671.0, 0.0016019926395248257
672.0, 0.014969357781858329
673.0, 0.02037557568394862
674.0, 0.027242477682513273
675.0, 0.026668566528374318
676.0, 0.02258028058818831
677.0, 0.019512748685868952
678.0, 0.016131565461946728
679.0, 0.022307771821457937
680.0, 0.01857299770471668
681.0, 0.022237665993840923
682.0, 0.031082950486141025
683.0, 0.03164509490107379
684.0, 0.02144209604359992
685.0, 0.016572970991624334
686.0, 0.03354517290695311
687.0, 0.00614679060432036
688.0, 0.018945231376811745
689.0, 0.018940919726526482
690.0, 0.008921975260987994
691.0, 0.02451234802893563
692.0, 0.03437977813634595
693.0, 0.02612078226201011
694.0, 0.017425887879241264
695.0, 0.01753631389475487
696.0, 0.024493111562352652
697.0, 0.034344812875571507
698.0, 0.039296411752146626
699.0, 0.03172272327966052
700.0, 0.030378787467254312
701.0, 0.020544585025728115
702.0, 0.03426009596619071
703.0, 0.04441725162388206
704.0, 0.03445986407598172
705.0, 0.025519330164042363
706.0, 0.030530103329307643
707.0, 0.026928986610548232
708.0, 0.02837269064701891
709.0, 0.029422200364212645
710.0, 0.030206254189279132
711.0, 0.029990510631147552
712.0, 0.026146599410672666
713.0, 0.030145167751859284
714.0, 0.032786971905985424
715.0, 0.024620910110715283
716.0, 0.0226615077343475
717.0, 0.033572204204116114
718.0, 0.044003769762477496
719.0, 0.037214461920696135
720.0, 0.028922773233151386
721.0, 0.0185811835098905
722.0, 0.014647832525997058
723.0, 0.020950334640441697
724.0, 0.024676000681373905
725.0, 0.0267774169142473
726.0, 0.03656959050030052
727.0, 0.03784241663740409
728.0, 0.018529859897960223
729.0, 0.027527115844048003
730.0, 0.032045035382976025
731.0, 0.023123184896081398
732.0, 0.0187423147441585
733.0, 0.02011580720984796
734.0, 0.01096404458206883
735.0, 0.02633631434073465
736.0, 0.010867085708986486
737.0, 0.016867594248463673
738.0, 0.027320561313524793
739.0, 0.02293561357399832
740.0, 0.013869795335049614
741.0, 0.014289689704678372
742.0, 0.010391519491359453
743.0, 0.013405519610545516
744.0, 0.016475094492876468
745.0, 0.018181109926549976
746.0, 0.021218583431966878
747.0, 0.018761367879985988
748.0, 0.008691813091459062
749.0, 0.016970678932970787
750.0, 0.014951081901666245
751.0, 0.010599022608204679
752.0, 0.01754745064439757
753.0, 0.008636857253925989
754.0, 0.0030876928754920378
755.0, 0.022744394262601973
756.0, 0.013466661084642007
757.0, 0.005443415035873855
758.0, 0.017274900031044288
759.0, 0.022432881954869418
760.0, 0.01599924361973814
761.0, 0.016836831527595998
762.0, 0.031078976617495896
763.0, 0.033453442260229706
764.0, 0.004785535036575198
765.0, 0.01537494591738767
766.0, 0.02176975557533905
767.0, 0.011515017254568835
768.0, 0.013740369578703336
769.0, 0.024365000954612914
770.0, 0.00869380207014848
771.0, 0.014386150695432835
772.0, 0.015391080168533335
773.0, 0.02400922733680787
774.0, 0.017230064241454898
775.0, 0.014873930303993725
776.0, 0.013025884605674797
777.0, 0.007048938413019992
778.0, 0.016779695957635603
779.0, 0.019360804006528214
780.0, 0.00787059159175074
781.0, 0.004083066879803233
782.0, 0.011019825402236344
783.0, 0.01479068902440421
784.0, 0.010347429003886074
785.0, 0.005455427783810221
786.0, 0.005782908691415077
787.0, 0.003633878687167408
788.0, 0.0009801256554924245
789.0, 0.0016076071326162529
790.0, 0.003467516431511475
791.0, 0.006417641142014589
792.0, 0.013868114198022082
793.0, 0.018934463979559217
794.0, 0.013086304344111562
795.0, 0.013400136692687142
796.0, 0.021405408924526137
797.0, 0.02014648141394673
798.0, 0.015611715751414738
799.0, 0.013532199640341731
800.0, 0.008403473370237363
801.0, 0.0016639122709046978
802.0, 0.004936701248099145
803.0, 0.0006945247473783636
804.0, 0.0024833387117269897
805.0, 0.010318505821158664
806.0, 0.002288176884501278
807.0, 0.01127275127484226
808.0, 0.0031938071310847354
809.0, 0.012458659618231557
810.0, 0.009237229014520934
811.0, 0.011938756380113411
812.0, 0.006870942439281161
813.0, 0.0012260865447518163
814.0, 0.0017434092458657605
815.0, 0.01433144403848769
816.0, 0.020327944971732435
817.0, 0.0037901432606836536
818.0, 0.006513771393553659
819.0, 0.014301314957431241
820.0, 0.006651552912501478
821.0, 0.01114293857296369
822.0, 0.024981123901441585
823.0, 0.025540304966392736
824.0, 0.014997850448225734
825.0, 0.014926900853338422
826.0, 0.004205340267013069
827.0, 0.0057358868771469305
828.0, 0.023989112474476187
829.0, 0.01397605488901792
830.0, 0.010121675443949476
831.0, 0.008871882693249905
832.0, 0.001975947140567123
833.0, 0.006417788067177162
834.0, 0.0015859678716396743
835.0, 0.012792095771286548
836.0, 0.015501992857199722
837.0, 0.011127025493935004
838.0, 0.013293932038351872
839.0, 0.014357994167180302
840.0, 0.016465480975494516
841.0, 0.02150874254616679
842.0, 0.012020094047550204
843.0, 0.0064613071732540816
844.0, 0.018072551783562377
845.0, 0.013667084982895305
846.0, 0.008116652302409898
847.0, 0.011195115293696684
848.0, 0.0164945170935785
849.0, 0.0145547389395612
850.0, 0.006816505641983875
851.0, 0.02215116602091278
852.0, 0.01872965476348253
853.0, 0.026785276161731254
854.0, 0.02104962492365932
855.0, 0.009741332925311354
856.0, 0.017469582465512983
857.0, 0.02760185314212105
858.0, 0.017425883260068668
859.0, 0.007593028629419657
860.0, 0.01922049498106842
861.0, 0.012959570599705067
862.0, 0.01720327692627001
863.0, 0.014725795726019968
864.0, 0.0033503271762453006
865.0, 0.00330268385221719
866.0, 0.018585181617503676
867.0, 0.019501128045508753
868.0, 0.013024534108851158
869.0, 0.00992193546355013
870.0, 0.0028372168290330003
871.0, 0.006291120393869406
872.0, 0.0022465858195034865
873.0, 0.007293235260734968
874.0, 0.013639195664567269
875.0, 0.008545080816933216
876.0, 0.017772514806125413
877.0, 0.007950669050811408
878.0, 0.020064345859507515
879.0, 0.0056916517946619515
880.0, 0.0027921123374293052
881.0, 0.006312432268457796
882.0, 0.005693886278964389
883.0, 0.007950318920743861
884.0, 0.011220114322541632
885.0, 0.010372879858191922
886.0, 0.018275413560498697
887.0, 0.018467357356004504
888.0, 0.00166289246075471
889.0, 0.006122899024913439
890.0, 0.0036856780836074495
891.0, 0.0015729196551223239
892.0, 0.002180543475706808
893.0, 0.0005667150453584921
894.0, 0.002135240033996246
895.0, 0.007065290255415478
896.0, 0.007052389176880765
897.0, 0.003326364751024306
898.0, 0.0033752286607384584
899.0, 0.00730737914985784
900.0, 0.0039849399314234955
901.0, 0.006158183342346015
902.0, 0.007466115163595201
903.0, 0.008702218152857386
904.0, 0.0015772228087093314
905.0, 0.0015265168317694757
906.0, 0.01703023875396127
907.0, 0.016696775138997987
908.0, 0.00682734997319064
909.0, 0.006344656030070969
910.0, 0.007486914159393535
911.0, 0.008391952042304049
912.0, 0.018220761495241662
913.0, 0.019816724566585935
914.0, 0.018589652876407615
915.0, 0.022064360084624736
916.0, 0.023977330498151286
917.0, 0.018161424082983834
918.0, 0.01916386645322576
919.0, 0.018843237698980997
920.0, 0.010396032192548027
921.0, 0.01481465533360022
922.0, 0.03139841649986961
923.0, 0.03244466671398388
924.0, 0.018969062372462216
925.0, 0.021393473027370116
926.0, 0.02388477517190116
927.0, 0.021714244701882383
928.0, 0.016252826965142214
929.0, 0.01357365020832367
930.0, 0.016053018571005735
931.0, 0.023935872862290895
932.0, 0.03455663113328153
933.0, 0.019774580530990925
934.0, 0.013992064341812977
935.0, 0.019858849004957883
936.0, 0.0125728472461636
937.0, 0.005597455019023301
938.0, 0.0070891090509677375
939.0, 0.004518005978624767
940.0, 0.005731285863741815
941.0, 0.022621097510471116
942.0, 0.014992621309318757
943.0, 0.011539751284780495
944.0, 0.014728265003547743
945.0, 0.014699757629992313
946.0, 0.007069015746387404
947.0, 0.015429886056182009
948.0, 0.015223335888372857
949.0, 0.006690046634361611
950.0, 0.01212102398581787
951.0, 0.015557538475846473
952.0, 0.005501402777456588
953.0, 0.009145527033209557
954.0, 0.016831573659084123
955.0, 0.012835884164652298
956.0, 0.009251079321701307
957.0, 0.016591484125105457
958.0, 0.019415878620484283
959.0, 0.017351569991669744
960.0, 0.024024684897996255
961.0, 0.01743008799383756
962.0, 0.021333824279646692
963.0, 0.025977044849916142
964.0, 0.019519310441061567
965.0, 0.01894143922626043
966.0, 0.0257604150350454
967.0, 0.02781303501971055
968.0, 0.023694452020801164
969.0, 0.01981781889938918
970.0, 0.02483060621084431
971.0, 0.027436753332697066
972.0, 0.013319755155018004
973.0, 0.023016559542327564
974.0, 0.013085863233270451
975.0, 0.016843939677802428
976.0, 0.03381419906252074
977.0, 0.03044948055459983
978.0, 0.026659963400609738
979.0, 0.023144027469170558
980.0, 0.023392880465706235
981.0, 0.03121934181306399
982.0, 0.029314302856057475
983.0, 0.027429298213761045
984.0, 0.03779555317127805
985.0, 0.04332976306268734
986.0, 0.02609716659901759
987.0, 0.028587069096926418
988.0, 0.04050486449190092
989.0, 0.033865638136342344
990.0, 0.016991931695046474
991.0, 0.0217366257077772
992.0, 0.030892236619438993
993.0, 0.019104595241048707
994.0, 0.032663361467206796
995.0, 0.024664541057418696
996.0, 0.029770345246191095
997.0, 0.03271174407685901
998.0, 0.03524373638970435
999.0, 0.03537945798817591
1000.0, 0.02604598855809118
1001.0, 0.030779306370130564
1002.0, 0.03955703941228175
1003.0, 0.02390242976642942
1004.0, 0.0121306845270028
1005.0, 0.03156058986608027
1006.0, 0.02443267096726436
1007.0, 0.021726936450927884
1008.0, 0.02627066977289974
1009.0, 0.007348460765846586
1010.0, 0.019812854891375405
1011.0, 0.016909581535781763
1012.0, 0.005335135179067895
1013.0, 0.005042670111290148
1014.0, 0.007974288817502789
1015.0, 0.017461065792794588
1016.0, 0.023341734516207194
1017.0, 0.018754423553747398
1018.0, 0.022936654498313933
1019.0, 0.021071114798758624
1020.0, 0.014180438323201842
1021.0, 0.01404452845217005
1022.0, 0.004452270579128404
1023.0, 0.010390835866047408
1024.0, 0.01673465673022949
1025.0, 0.01870803542223063
1026.0, 0.013908143308028625
1027.0, 0.003740307513342332
1028.0, 0.006475188396526382
1029.0, 0.015566728915608626
1030.0, 0.008101582893987937
1031.0, 0.011014514177980744
1032.0, 0.00999890948781093
1033.0, 0.009289662349534503
1034.0, 0.0035754775570639202
1035.0, 0.006496625307399344
1036.0, 0.0067572481228722
1037.0, 0.01491043905790684
1038.0, 0.006494914275847692
1039.0, 0.001566842971566105
1040.0, 0.006277279350119975
1041.0, 0.0144162331537766
1042.0, 0.004933642984783979
1043.0, 0.0013295938277500018
1044.0, 0.0025953156418707453
1045.0, 0.0009466957603873158
1046.0, 0.0021526060087053572
1047.0, 0.005417578053978514
1048.0, 0.009549169918066694
1049.0, 0.0038593112040942504
1050.0, 0.0003801102277801254
1051.0, 0.016185441517254012
1052.0, 0.027512225334420763
1053.0, 0.0043947907627308975
1054.0, 0.009961662039655508
1055.0, 0.014774259806286676
1056.0, 0.007005251629592209
1057.0, 0.011987188094388548
1058.0, 0.024814306692975876
1059.0, 0.01781796623992167
1060.0, 0.008312035523631304
1061.0, 0.01656700583320278
1062.0, 0.020885898663384656
1063.0, 0.01802947630709661
1064.0, 0.027791587533148154
1065.0, 0.031091955605201546
1066.0, 0.031900871226096444
1067.0, 0.012824786843440624
1068.0, 0.026967875011281332
1069.0, 0.033474375672741426
1070.0, 0.016935625367716187
1071.0, 0.02192134792105757
1072.0, 0.03321649056844967
1073.0, 0.030338101464464317
1074.0, 0.02177403234136885
1075.0, 0.014434596892678283
1076.0, 0.017941154925269192
1077.0, 0.029234467635441824
1078.0, 0.02896503094568674
1079.0, 0.03658963902472541
1080.0, 0.023980324385770867
1081.0, 0.02896807104029624
1082.0, 0.029934936524720346
1083.0, 0.015066706097161167
1084.0, 0.03252629034602896
1085.0, 0.04676037494371202
1086.0, 0.03390112990505616
1087.0, 0.02806381963601791
1088.0, 0.03133265882107672
1089.0, 0.03134508486108368
1090.0, 0.029191668047599897
1091.0, 0.025993153159295516
1092.0, 0.03202107776773662
1093.0, 0.02872614517486935
1094.0, 0.03772234521786955
1095.0, 0.023672247806477573
1096.0, 0.018216056139276234
1097.0, 0.013022161502752578
1098.0, 0.01757876826757893
1099.0, 0.021341702876775795
1100.0, 0.009577255541529519
1101.0, 0.0008355572380537702
1102.0, 0.011208165334188364
1103.0, 0.020936409419275073
1104.0, 0.02168699926406837
1105.0, 0.022908546932822942
1106.0, 0.013530981082974416
1107.0, 0.015387844165898636
1108.0, 0.012344275023871596
1109.0, 0.008171352968529938
1110.0, 0.0056664410838630705
1111.0, 0.009336198212362172
1112.0, 0.018300114488943912
1113.0, 0.008591635931975363
1114.0, 0.0009152827613735351
1115.0, 0.0034506978607002437
1116.0, 0.010784853333335419
1117.0, 0.006622967388318062
1118.0, 0.0060067489390786336
1119.0, 0.014433845690009172
1120.0, 0.0033230157609519095
1121.0, 0.001051295977758495
1122.0, 0.0029903050299213453
1123.0, 0.002684331860030755
1124.0, 0.009471684144039209
1125.0, 0.0024502942892619525
1126.0, 0.0021467935129425818
1127.0, 0.0003407062346835837
1128.0, 0.002696791880463647
1129.0, 0.0073886712580502134
1130.0, 0.005788163814462412
1131.0, 0.0019105715984209916
1132.0, 0.001806056687024403
1133.0, 0.006366955190760211
1134.0, 0.010385337797213023
1135.0, 0.00499636856086751
1136.0, 0.006796773577842841
1137.0, 0.014524319466791686
1138.0, 0.019184516504011092
1139.0, 0.015477296563132221
1140.0, 0.0021392119827070804
1141.0, 0.011635824805790779
1142.0, 0.0060183232565524675
1143.0, 0.005013625242190074
1144.0, 0.008934574267744008
1145.0, 0.008895332696846536
1146.0, 0.008929862145537952
1147.0, 0.02224126227592315
1148.0, 0.023333969793343234
1149.0, 0.00521779176829096
1150.0, 0.004774590495681721
1151.0, 0.004593465783325454
1152.0, 0.010459281567524627
1153.0, 0.01856481935819747
1154.0, 0.017713174061063507
1155.0, 0.0034463684544358292
1156.0, 0.025036281558558443
1157.0, 0.02553324009322941
1158.0, 0.008322992937127906
1159.0, 0.005481178376276981
1160.0, 0.013895332567837586
1161.0, 0.007173101071308537
1162.0, 0.002843967418287379
1163.0, 0.008995358308337214
1164.0, 0.009498368166487222
1165.0, 0.010955132528579919
1166.0, 0.018358034790086415
1167.0, 0.01905466493906548
1168.0, 0.014694672648636721
1169.0, 0.009947650931860692
1170.0, 0.011144334345386434
1171.0, 0.02701372298255391
1172.0, 0.023073345797958195
1173.0, 0.019274219210753403
1174.0, 0.01708401426915789
1175.0, 0.019037837294251583
1176.0, 0.015540205880136493
1177.0, 0.02590224973451569
1178.0, 0.02947351953746144
1179.0, 0.0221365296606132
1180.0, 0.014257134707927626
1181.0, 0.010772515696673481
1182.0, 0.014676270835985317
1183.0, 0.019602127004360703
1184.0, 0.018728816594310926
1185.0, 0.015617267343907374
1186.0, 0.01512786665021374
1187.0, 0.011504751763127315
1188.0, 0.004754586072702966
1189.0, 0.012727243298585093
1190.0, 0.02629678533377853
1191.0, 0.023237944409035087
1192.0, 0.021104220609854764
1193.0, 0.02405666506072084
1194.0, 0.022080942793134193
1195.0, 0.025215073050964463
1196.0, 0.033631217478872835
1197.0, 0.017583359936043638
1198.0, 0.009493253721729369
1199.0, 0.022971218484129384
1200.0, 0.0175658719740249
1201.0, 0.006651794833026071
1202.0, 0.004293315591170036
1203.0, 0.008319260634542042
1204.0, 0.00961291785201672
1205.0, 0.010249205095567737
1206.0, 0.010055430719739043
1207.0, 0.008095207629172365
1208.0, 0.012447715832482577
1209.0, 0.0037687134981423173
1210.0, 0.008062649718853577
1211.0, 0.01706416683120649
1212.0, 0.015582125788574645
1213.0, 0.011766664578873256
1214.0, 0.02005708661341093
1215.0, 0.022620271509540185
1216.0, 0.01974264788594234
1217.0, 0.017216001979511265
1218.0, 0.017594995570802303
1219.0, 0.011748896216020663
1220.0, 0.018153388028375506
1221.0, 0.010649831414402096
1222.0, 0.008301914533929332
1223.0, 0.017752643472889212
1224.0, 0.009720333146766378
1225.0, 0.008038166572027744
1226.0, 0.02029420749416549
1227.0, 0.018107938388189335
1228.0, 0.007438010551742603
1229.0, 0.0011053411488642028
1230.0, 0.003973653432570155
1231.0, 0.008367946124209777
1232.0, 0.0022991207818043643
1233.0, 0.007502966114419097
1234.0, 0.0026706460642900902
1235.0, 0.019195984636846172
1236.0, 0.022682582580044998
1237.0, 0.015737672224738795
1238.0, 0.008671669927259328
1239.0, 0.011520440572471827
1240.0, 0.0006642951260052068
1241.0, 0.004226985764577412
1242.0, 0.00820770867495157
1243.0, 0.0075732911788168895
1244.0, 0.018395483217975822
1245.0, 0.009676098451555969
1246.0, 0.00851269745859587
1247.0, 0.012372337216092382
1248.0, 0.009398637840231247
1249.0, 0.019371908326020433
1250.0, 0.013443568090603049
1251.0, 0.00405342842222137
1252.0, 0.016485850272147582
1253.0, 0.012116039727915721
1254.0, 0.010982073262605098
1255.0, 0.020505665361119047
1256.0, 0.014715369610161403
1257.0, 0.02259536651517936
1258.0, 0.017787345575546343
1259.0, 0.010288111952887707
1260.0, 0.0010853549844876036
1261.0, 0.015443792082299405
1262.0, 0.01515204969330334
1263.0, 0.024455678929628657
1264.0, 0.01567981814519073
1265.0, 0.0062708576904823825
1266.0, 0.00032480279945425937
1267.0, 0.007977877296673153
1268.0, 0.016705805309967313
1269.0, 0.006992748216501208
1270.0, 0.0030415747128891375
1271.0, 0.008589604740612931
1272.0, 0.012697567511483408
1273.0, 0.012239636779971641
1274.0, 0.002280209372089995
1275.0, 0.007026601859907399
1276.0, 0.017662370820974285
1277.0, 0.008596300205504647
1278.0, 0.00034119106423760305
1279.0, 0.001003614216444606
1280.0, 0.01044368735932799
1281.0, 0.010455939833992803
1282.0, 0.010806167720113283
1283.0, 0.012822273637284814
1284.0, 0.002562518032557187
1285.0, 0.01231892446961337
1286, 0.0
1287, 0.0
1288, 0.0
1289, 0.0
1290, 0.0
1291, 0.0
1292, 0.0
1293, 0.0
1294, 0.0
1295, 0.0
1296, 0.0
1297, 0.0
1298, 0.0
1299, 0.0
1300, 0.0
1301, 0.0
1302, 0.0
1303, 0.0
1304, 0.0
1305, 0.0
1306, 0.0
1307, 0.0
1308, 0.0
1309, 0.0
1310, 0.0
1311, 0.0
1312, 0.0
1313, 0.0
1314, 0.0
1315, 0.0
1316, 0.0
1317, 0.0
1318, 0.0
1319, 0.0
1320, 0.0
1321, 0.0
1322, 0.0
1323, 0.0
1324, 0.0
1325, 0.0
1326, 0.0
1327, 0.0
1328, 0.0
1329, 0.0
1330, 0.0
1331, 0.0
1332, 0.0
1333, 0.0
1334, 0.0
1335, 0.0
1336, 0.0
1337, 0.0
1338, 0.0
1339, 0.0
1340, 0.0
1341, 0.0
1342, 0.0
1343, 0.0
1344, 0.0
1345, 0.0
1346, 0.0
1347, 0.0
1348, 0.0
1349, 0.0
1350, 0.0
1351, 0.0
1352, 0.0
1353, 0.0
1354, 0.0
1355, 0.0
1356, 0.0
1357, 0.0
1358, 0.0
1359, 0.0
1360, 0.0
1361, 0.0
1362, 0.0
1363, 0.0
1364, 0.0
1365, 0.0
1366, 0.0
1367, 0.0
1368, 0.0
1369, 0.0
1370, 0.0
1371, 0.0
1372, 0.0
1373, 0.0
1374, 0.0
1375, 0.0
1376, 0.0
1377, 0.0
1378, 0.0
1379, 0.0
1380, 0.0
1381, 0.0
1382, 0.0
1383, 0.0
1384, 0.0
1385, 0.0
1386, 0.0
1387, 0.0
1388, 0.0
1389, 0.0
1390, 0.0
1391, 0.0
1392, 0.0
1393, 0.0
1394, 0.0
1395, 0.0
1396, 0.0
1397, 0.0
1398, 0.0
1399, 0.0
1400, 0.0
1401, 0.0
1402, 0.0
1403, 0.0
1404, 0.0
1405, 0.0
1406, 0.0
1407, 0.0
1408, 0.0
1409, 0.0
1410, 0.0
1411, 0.0
1412, 0.0
1413, 0.0
1414, 0.0
1415, 0.0
1416, 0.0
1417, 0.0
1418, 0.0
1419, 0.0
1420, 0.0
1421, 0.0
1422, 0.0
1423, 0.0
1424, 0.0
1425, 0.0
1426, 0.0
1427, 0.0
1428, 0.0
1429, 0.0
1430, 0.0
1431, 0.0
1432, 0.0
1433, 0.0
1434, 0.0
1435, 0.0
1436, 0.0
1437, 0.0
1438, 0.0
1439, 0.0
1440, 0.0
1441, 0.0
1442, 0.0
1443, 0.0
1444, 0.0
1445, 0.0
1446, 0.0
1447, 0.0
1448, 0.0
1449, 0.0
1450, 0.0
1451, 0.0
1452, 0.0
1453, 0.0
1454, 0.0
1455, 0.0
1456, 0.0
1457, 0.0
1458, 0.0
1459, 0.0
1460, 0.0
1461, 0.0
1462, 0.0
1463, 0.0
1464, 0.0
1465, 0.0
1466, 0.0
1467, 0.0
1468, 0.0
1469, 0.0
1470, 0.0
1471, 0.0
1472, 0.0
1473, 0.0
1474, 0.0
1475, 0.0
1476, 0.0
1477, 0.0
1478, 0.0
1479, 0.0
1480, 0.0
1481, 0.0
1482, 0.0
1483, 0.0
1484, 0.0
1485, 0.0
1486, 0.0
1487, 0.0
1488, 0.0
1489, 0.0
1490, 0.0
1491, 0.0
1492, 0.0
1493, 0.0
1494, 0.0
1495, 0.0
1496, 0.0
1497, 0.0
1498, 0.0
1499, 0.0
1500, 0.0
1501, 0.0
1502, 0.0
1503, 0.0
1504, 0.0
1505, 0.0
1506, 0.0
1507, 0.0
1508, 0.0
1509, 0.0
1510, 0.0
1511, 0.0
1512, 0.0
1513, 0.0
1514, 0.0
1515, 0.0
1516, 0.0
1517, 0.0
1518, 0.0
1519, 0.0
1520, 0.0
1521, 0.0
1522, 0.0
1523, 0.0
1524, 0.0
1525, 0.0
1526, 0.0
1527, 0.0
1528, 0.0
1529, 0.0
1530, 0.0
1531, 0.0
1532, 0.0
1533, 0.0
1534, 0.0
1535, 0.0
1536, 0.0
1537, 0.0
1538, 0.0
1539, 0.0
1540, 0.0
1541, 0.0
1542, 0.0
1543, 0.0
1544, 0.0
1545, 0.0
1546, 0.0
1547, 0.0
1548, 0.0
1549, 0.0
1550, 0.0
1551, 0.0
1552, 0.0
1553, 0.0
1554, 0.0
1555, 0.0
1556, 0.0
1557, 0.0
1558, 0.0
1559, 0.0
1560, 0.0
1561, 0.0
1562, 0.0
1563, 0.0
1564, 0.0
1565, 0.0
1566, 0.0
1567, 0.0
1568, 0.0
1569, 0.0
1570, 0.0
1571, 0.0
1572, 0.0
1573, 0.0
1574, 0.0
1575, 0.0
1576, 0.0
1577, 0.0
1578, 0.0
1579, 0.0
1580, 0.0
1581, 0.0
1582, 0.0
1583, 0.0
1584, 0.0
1585, 0.0
1586, 0.0
1587, 0.0
1588, 0.0
1589, 0.0
1590, 0.0
1591, 0.0
1592, 0.0
1593, 0.0
1594, 0.0
1595, 0.0
1596, 0.0
1597, 0.0
1598, 0.0
1599, 0.0
