30, 0.0
31, 0.0
32, 0.0
33, 0.0
34, 0.0
35, 0.0
36, 0.0
37, 0.0
38, 0.0
39, 0.0
40, 0.0
41, 0.0
42, 0.0
43, 0.0
44, 0.0
45, 0.0
46, 0.0
47, 0.0
48, 0.0
49, 0.0
50, 0.0
51, 0.0
52, 0.0
53, 0.0
54, 0.0
55, 0.0
56, 0.0
57, 0.0
58, 0.0
59, 0.0
60, 0.0
61, 0.0
62, 0.0
63, 0.0
64, 0.0
65, 0.0
66, 0.0
67, 0.0
68, 0.0
69, 0.0
70, 0.0
71, 0.0
72, 0.0
73, 0.0
74, 0.0
75, 0.0
76, 0.0
77, 0.0
78, 0.0
79, 0.0
80, 0.0
81, 0.0
82, 0.0
83, 0.0
84, 0.0
85, 0.0
86, 0.0
87, 0.0
88, 0.0
89, 0.0
90, 0.0
91, 0.0
92, 0.0
93, 0.0
94, 0.0
95, 0.0
96, 0.0
97, 0.0
98, 0.0
99, 0.0
100, 0.0
101, 0.0
102, 0.0
103, 0.0
104, 0.0
105, 0.0
106, 0.0
107, 0.0
108, 0.0
109, 0.0
110, 0.0
111, 0.0
112, 0.0
113.0, 0.003041074320926689
114.0, 0.01523707394178445
115.0, 0.03191131064658974
116.0, 0.07316526385956067
117.0, 0.0773317044954853
118.0, 0.09543621897736104
119.0, 0.14248323960696743
120.0, 0.15022557818461912
121.0, 0.20704606216032423
122.0, 0.23295210833687915
123.0, 0.20679602621307058
124.0, 0.1891713383919706
125.0, 0.19638919936482013
126.0, 0.1840026766316886
127.0, 0.14976487453663576
128.0, 0.12050311352594761
129.0, 0.11583667898814996
130.0, 0.10798271497373574
131.0, 0.07850169282095308
132.0, 0.026649583560147024
133.0, 0.025899803118922277
134.0, 0.03654319506972469
135.0, 0.03607401190748604
136.0, 0.017550526231096205
137.0, 0.0023192701788583322
138.0, 0.0028944124613993092
139.0, 0.011080945363255141
140.0, 0.015308332740596316
141.0, 0.0023694219304524543
142.0, 0.014307760580758801
143.0, 0.02527409337302675
144.0, 0.008717984830468418
145.0, 0.01418118159574644
146.0, 0.0003728822932655869
147.0, 0.026706587868776728
148.0, 0.05539325098502171
149.0, 0.07697007824027176
150.0, 0.06251398820116036
151.0, 0.08510164682205526
152.0, 0.12547790074446344
153.0, 0.15787026157916878
154.0, 0.19049381172390992
155.0, 0.23251729188152923
156.0, 0.26202953388868305
157.0, 0.28683411089617195
158.0, 0.33283118372291537
159.0, 0.35230283460588874
160.0, 0.33917224022014936
161.0, 0.3476257669571206
162.0, 0.3949066197492306
163.0, 0.39077789309559074
164.0, 0.39196756861776966
165.0, 0.3895961346532209
166.0, 0.3751895912026728
167.0, 0.37000269768833616
168.0, 0.34732188817549564
169.0, 0.3100544023102253
170.0, 0.2698255240237917
171.0, 0.23881868978598528
172.0, 0.22458471328523577
173.0, 0.19367690731653966
174.0, 0.1650079968416545
175.0, 0.17373977104704016
176.0, 0.14472681541611127
177.0, 0.11221409147158899
178.0, 0.10012041657631576
179.0, 0.10479556584044793
180.0, 0.09390484611940599
181.0, 0.07039628592877453
182.0, 0.05834151357079093
183.0, 0.05716295265276188
184.0, 0.045631295205411274
185.0, 0.028226778534332617
186.0, 0.027039680187681273
187.0, 0.03645416921772536
188.0, 0.03959540829582216
189.0, 0.03820500812357656
190.0, 0.015970682929759998
191.0, 0.006018452387684893
192.0, 0.012473916710392646
193.0, 0.0273446641888463
194.0, 0.010718550168671678
195.0, 0.025890463606517488
196.0, 0.02496346687424412
197.0, 0.012805101179695594
198.0, 0.004095949128103753
199.0, 0.0005175941215914544
200.0, 0.0020422410214029235
201.0, 0.0013915904773615885
202.0, 0.02037585469728311
203.0, 0.029159711572124207
204.0, 0.013734665726588744
205.0, 0.005485198664732384
206.0, 0.03209935236712786
207.0, 0.028629967915996164
208.0, 0.013063684095799418
209.0, 0.0017055478939629152
210.0, 0.0024800399281078222
211.0, 0.0058893819741795556
212.0, 0.018317879786680324
213.0, 0.02957569427802225
214.0, 0.027311908127494323
215.0, 0.0022120909215778296
216.0, 0.006213489743524174
217.0, 0.02319467130067576
218.0, 0.03414829012703906
219.0, 0.044640651126900466
220.0, 0.06524369756026008
221.0, 0.06402850105321437
222.0, 0.05820003143766636
223.0, 0.05706132259378083
224.0, 0.041395400189767076
225.0, 0.0667219312328626
226.0, 0.07600549781410193
227.0, 0.057943457060573286
228.0, 0.03477355178823888
229.0, 0.05927617622590156
230.0, 0.06076151157756519
231.0, 0.061278624713563205
232.0, 0.08839381920319324
233.0, 0.09628135705295722
234.0, 0.08443298106820778
235.0, 0.08324811967913044
236.0, 0.0953163332996274
237.0, 0.09799178097562379
238.0, 0.09450292324036987
239.0, 0.10670915158651142
240.0, 0.1104668362819521
241.0, 0.09628560039232184
242.0, 0.0898025261116222
243.0, 0.09407365982800775
244.0, 0.08825996913201721
245.0, 0.07976068850247378
246.0, 0.0823494430263764
247.0, 0.07934866470723909
248.0, 0.10334043907487216
249.0, 0.1032001485098237
250.0, 0.07481313054466714
251.0, 0.07862758137027288
252.0, 0.06761089006384023
253.0, 0.0547608423533395
254.0, 0.05481406457015849
255.0, 0.06869651148523809
256.0, 0.07011452644988522
257.0, 0.06202938650126895
258.0, 0.05371801765098875
259.0, 0.04639374514767078
260.0, 0.03510637088335867
261.0, 0.02784141478325995
262.0, 0.014445419498828114
263.0, 0.015714067614788434
264.0, 0.03352750537574292
265.0, 0.014100481992799436
266.0, 0.0170823463581311
267.0, 0.025089908846957974
268.0, 0.03207203080165442
269.0, 0.045496569663720635
270.0, 0.04452773356788084
271.0, 0.04035887771983127
272.0, 0.03967914865629191
273.0, 0.03860559128044064
274.0, 0.023631884033186983
275.0, 0.004375185344221763
276.0, 0.0077821742232927205
277.0, 0.029694168743136996
278.0, 0.0383191218320755
279.0, 0.02622695843823729
280.0, 0.020933463898617447
281.0, 0.016135365001897866
282.0, 0.01732137293980875
283.0, 0.028878248479608855
284.0, 0.010782787236261119
285.0, 0.015935768389240986
286.0, 0.018040627029062544
287.0, 0.007088154799426887
288.0, 0.008395319247923676
289.0, 0.012674801961737248
290.0, 0.011583905410801067
291.0, 0.00420928172934493
292.0, 0.002412395349522056
293.0, 0.04472932995774302
294.0, 0.039757401451881225
295.0, 0.015336351387298683
296.0, 0.0006927601687713565
297.0, 0.006711091556658352
298.0, 0.01777309102960122
299.0, 0.02579784185615502
300.0, 0.018071684784904913
301.0, 0.007596694264329758
302.0, 0.027520957824827663
303.0, 0.0326678385432132
304.0, 0.008842618731188563
305.0, 0.0045326183524849175
306.0, 0.024306692874476617
307.0, 0.015598598844553193
308.0, 0.014500344696409482
309.0, 0.008581076488523439
310.0, 0.013172799441702895
311.0, 0.03287379069850953
312.0, 0.03264652110978633
313.0, 0.03563841281161407
314.0, 0.04142330303996663
315.0, 0.04168048851424952
316.0, 0.03678775729890014
317.0, 0.05294205621963602
318.0, 0.07194772413355524
319.0, 0.07328623013269828
320.0, 0.06614121220990488
321.0, 0.07762299108029859
322.0, 0.06616641721199497
323.0, 0.07106968412839357
324.0, 0.08550833063913078
325.0, 0.09805120003488435
326.0, 0.10937606714332511
327.0, 0.12209556905560708
328.0, 0.12611263341459514
329.0, 0.12762853700342197
330.0, 0.1313540797902668
331.0, 0.12903635363845892
332.0, 0.1435091674111221
333.0, 0.15147082538305717
334.0, 0.15797865867733385
335.0, 0.1698756377336859
336.0, 0.1688181826410873
337.0, 0.19276872155105945
338.0, 0.19363614282808322
339.0, 0.18029054340594042
340.0, 0.17943862095984822
341.0, 0.1820446906550537
342.0, 0.18284575286289542
343.0, 0.19686855741708667
344.0, 0.20502813246998308
345.0, 0.18553217585994894
346.0, 0.16834370721694875
347.0, 0.1492430839808835
348.0, 0.15527964431041522
349.0, 0.16625769878669755
350.0, 0.13209221661077009
351.0, 0.12166249874743545
352.0, 0.12257676814138589
353.0, 0.12979775044446373
354.0, 0.12667793965081847
355.0, 0.09716848760775555
356.0, 0.08541635726446652
357.0, 0.09534679405586542
358.0, 0.0974541652482107
359.0, 0.08001319210457311
360.0, 0.061072389205899746
361.0, 0.05102885586794704
362.0, 0.04920739786425934
363.0, 0.04894540490828571
364.0, 0.05226322146419451
365.0, 0.060471794527409806
366.0, 0.044074674917067104
367.0, 0.0345301597972396
368.0, 0.025462433036232277
369.0, 0.01201750046557421
370.0, 0.009992709700502563
371.0, 0.040608094891091774
372.0, 0.029404035842565627
373.0, 0.016707579531909267
374.0, 0.022292141910528553
375.0, 0.011132901937930002
376.0, 0.011286596168351017
377.0, 0.004831538618916258
378.0, 0.005545889887252684
379.0, 0.02874229763359863
380.0, 0.006992851629517718
381.0, 0.01454630680996391
382.0, 0.00739615302745801
383.0, 0.01807350332274131
384.0, 0.0051370597812242565
385.0, 0.013449755909638768
386.0, 0.01272244524032207
387.0, 0.007167643580675261
388.0, 0.015036107873698152
389.0, 0.027765619062888956
390.0, 0.011736474880713384
391.0, 0.001713000794397163
392.0, 0.0075034240734522225
393.0, 0.004519269915669933
394.0, 0.0015610059147240884
395.0, 0.003814552380862546
396.0, 0.01923733554620262
397.0, 0.007846101455309963
398.0, 0.002604177122981122
399.0, 0.0035339563230251192
400.0, 0.0008984821491568296
401.0, 0.010424820052251794
402.0, 0.0034208059738495104
403.0, 0.0005782896519217338
404.0, 0.004004611595912412
405.0, 0.011055906713912007
406.0, 0.029730808582031233
407.0, 0.01586985964765903
408.0, 0.026363518084974488
409.0, 0.03405153450274137
410.0, 0.012543561080605782
411.0, 0.021394300328801387
412.0, 0.04913156243069497
413.0, 0.04468710745103578
414.0, 0.034458225111333125
415.0, 0.04566033659460665
416.0, 0.05397747342670289
417.0, 0.046851061016975774
418.0, 0.04407006128048195
419.0, 0.05787080786111163
420.0, 0.07945996671418226
421.0, 0.08462637220072568
422.0, 0.07684702828230046
423.0, 0.0927040959548192
424.0, 0.11695287832763233
425.0, 0.13621792285258713
426.0, 0.14942282995408593
427.0, 0.12473815676622942
428.0, 0.13383244481074782
429.0, 0.15490673571211058
430.0, 0.17439567832040798
431.0, 0.19942151903259372
432.0, 0.19940872184985703
433.0, 0.2252851238774858
434.0, 0.2319304562808867
435.0, 0.22953256172655334
436.0, 0.24946485376174674
437.0, 0.25287361804112996
438.0, 0.28815090127147536
439.0, 0.29631331479751405
440.0, 0.29940798033599575
441.0, 0.3229451159671578
442.0, 0.33660826684786416
443.0, 0.3252177447565153
444.0, 0.3296346585909813
445.0, 0.34408677215321465
446.0, 0.34869385329590036
447.0, 0.3401086014043864
448.0, 0.35144431498247397
449.0, 0.30784124814109176
450.0, 0.28130079416978676
451.0, 0.27029932358913855
452.0, 0.2296245995262312
453.0, 0.19897181600169886
454.0, 0.17364906843183317
455.0, 0.15141684166920288
456.0, 0.12290139114082069
457.0, 0.09390290916054869
458.0, 0.08231441217826364
459.0, 0.08929662515309157
460.0, 0.07778407004469781
461.0, 0.06579710765687148
462.0, 0.06497869399519807
463.0, 0.06772046540950019
464.0, 0.06577361020773043
465.0, 0.03748542007129365
466.0, 0.04206006392851683
467.0, 0.05455449539684246
468.0, 0.040831539690087966
469.0, 0.03333578027750736
470.0, 0.03313837458511769
471.0, 0.05205069417724455
472.0, 0.04573855055529994
473.0, 0.011555746525468539
474.0, 0.0039479677733177745
475.0, 0.04059176041502304
476.0, 0.019724144911941365
477.0, 0.0006884621950894147
478.0, 0.0035515075625453326
479.0, 0.012961575853991112
480.0, 0.0192267848497062
481.0, 0.003171359884877488
482.0, 0.010135323257327543
483.0, 0.02557642561170035
484.0, 0.026324534031072586
485.0, 0.008879810360772764
486.0, 0.00900674554764909
487.0, 0.005200912916758796
488.0, 0.010523187945447677
489.0, 0.003736418757832999
490.0, 0.004585242641558994
491.0, 0.008290049396664256
492.0, 0.006181352006085767
493.0, 0.003272065423469233
494.0, 0.015166792191222273
495.0, 0.036858168539503744
496.0, 0.007100912319708656
497.0, 0.005186792649960132
498.0, 0.024354575969558652
499.0, 0.025315064858473645
500.0, 0.019589037195235807
501.0, 0.04290053162801881
502.0, 0.030214436882518687
503.0, 0.05346559026581779
504.0, 0.05521739005841233
505.0, 0.06614205214867114
506.0, 0.08587453986017088
507.0, 0.07922750400635686
508.0, 0.10978429680702485
509.0, 0.136747090850588
510.0, 0.130253429714898
511.0, 0.143321895323624
512.0, 0.19538208229553786
513.0, 0.2231513084822725
514.0, 0.2505878392647295
515.0, 0.2868393397651255
516.0, 0.3077943898098417
517.0, 0.33801706979063606
518.0, 0.4021763544464366
519.0, 0.43290492107523004
520.0, 0.4612055426010345
521.0, 0.528510042948765
522.0, 0.5629562227327463
523.0, 0.5825901262085152
524.0, 0.6575394430645161
525.0, 0.7143112399677451
526.0, 0.7763028925851692
527.0, 0.8405049437626887
528.0, 0.9014751486482084
529.0, 0.9453774165892128
530.0, 0.9578369004126688
531.0, 0.9772616724286882
532.0, 0.9974733622092844
533.0, 0.9638151914066123
534.0, 0.890111760575187
535.0, 0.822776485160117
536.0, 0.7566322628900717
537.0, 0.6715247694335366
538.0, 0.5820596429907988
539.0, 0.5144637548707013
540.0, 0.45400798571792955
541.0, 0.3845188689520916
542.0, 0.3273432421834728
543.0, 0.27179761590118456
544.0, 0.21429574264850362
545.0, 0.18541088828433405
546.0, 0.1689956890660537
547.0, 0.13260407313970363
548.0, 0.11402335672367525
549.0, 0.10035166242791303
550.0, 0.08439204787003299
551.0, 0.07187081246948877
552.0, 0.06725220371558459
553.0, 0.06874306288599687
554.0, 0.061209420437109065
555.0, 0.061876790321128944
556.0, 0.06807186153699418
557.0, 0.04777951686622991
558.0, 0.016266104176731935
559.0, 0.024804829785421936
560.0, 0.04168606450219359
561.0, 0.019112756935332507
562.0, 0.025032578167984265
563.0, 0.03647074210134089
564.0, 0.023525663618288728
565.0, 0.013018899193746816
566.0, 0.0008898001762332314
567.0, 0.0021174144145531845
568.0, 0.010078397519953774
569.0, 0.018842277968718183
570.0, 0.025357631136559703
571.0, 0.025132006076665037
572.0, 0.013298427390285137
573.0, 0.0065196425407966115
574.0, 0.007302597132810139
575.0, 0.022508386269058853
576.0, 0.018255543497766088
577.0, 0.0007347028088668674
578.0, 0.0003233183278350759
579.0, 0.017857288675272177
580.0, 0.025930495971244662
581.0, 0.027781064508670194
582.0, 0.028034660577961074
583.0, 0.020062795721407338
584.0, 0.014254122169425005
585.0, 0.014305788977072775
586.0, 0.009202292736272417
587.0, 0.002460111912651089
588.0, 0.010539563303891844
589.0, 0.0371031625387495
590.0, 0.036978162996608215
591.0, 0.029408344950871277
592.0, 0.0067269978310811355
593.0, 0.0015846664340408126
594.0, 0.01897385979603582
595.0, 0.029695157960863493
596.0, 0.027018890762412987
597.0, 0.012722781026699655
598.0, 0.025524207204008057
599.0, 0.033427698873412987
600.0, 0.02490204681382482
601.0, 0.02536882203130812
602.0, 0.017861340793165523
603.0, 0.012146198520613433
604.0, 0.01734254201313896
605.0, 0.018823562521115503
606.0, 0.013795412312628465
607.0, 0.006984568241176423
608.0, 0.006476767227944721
609.0, 0.005017074380457133
610.0, 0.015907439229810073
611.0, 0.02292924882182191
612.0, 0.021275781527747735
613.0, 0.016315395486956596
614.0, 0.0314691756733356
615.0, 0.010386087988697706
616.0, 0.003337329193418321
617.0, 0.012895713074043545
618.0, 0.02136109831860701
619.0, 0.010619494850813089
620.0, 0.014134842184436312
621.0, 0.021275843770267595
622.0, 0.011837379118786294
623.0, 0.013566809557318512
624.0, 0.014211292137415198
625.0, 0.010039414577100109
626.0, 0.01850457576942098
627.0, 0.005409368075808015
628.0, 0.018642126508177335
629.0, 0.007573654112152131
630.0, 0.008319831912950193
631.0, 0.0050701210379423736
632.0, 0.003159465057396854
633.0, 0.018496271038865808
634.0, 0.01547810696758824
635.0, 0.005180288417131691
636.0, 0.013116513532757744
637.0, 0.022953667775376874
638.0, 0.014011006556236716
639.0, 0.013254806411282002
640.0, 0.02872405765144907
641.0, 0.03345218650720845
642.0, 0.024334621242360004
643.0, 0.019463280668387845
644.0, 0.017711158087686824
645.0, 0.008449931326676128
646.0, 0.008940147073487505
647.0, 0.003550435852069548
648.0, 0.014697658906836077
649.0, 0.028635899851922053
650.0, 0.042575600736373995
651.0, 0.04869821882658437
652.0, 0.01769880117938097
653.0, 0.022774581021276632
654.0, 0.030220681631900406
655.0, 0.01960229401858445
656.0, 0.011681790646129283
657.0, 0.012548180670519821
658.0, 0.006759325743202607
659.0, 0.0020044928526782935
660.0, 0.012004820364452145
661.0, 0.017490292978230845
662.0, 0.029817419536604148
663.0, 0.038779240815682015
664.0, 0.030919288207981274
665.0, 0.03154237971734711
666.0, 0.013127054670482176
667.0, 0.016858330569887177
668.0, 0.03402808927230193
669.0, 0.025364181809545965
670.0, 0.010184832063302469
671.0, 0.025535628402526156
672.0, 0.03598710107178541
673.0, 0.0442480800990486
674.0, 0.037120685330976295
675.0, 0.039077123998812066
676.0, 0.03922971377420661
677.0, 0.030001044822202345
678.0, 0.029279413330992734
679.0, 0.027655043011390625
680.0, 0.025661931306634293
681.0, 0.03240315834641395
682.0, 0.044987093655955844
683.0, 0.03771183447978449
684.0, 0.015103215370853466
685.0, 0.02396703324682384
686.0, 0.039997776359039255
687.0, 0.011818772651508085
688.0, 0.027933119591442113
689.0, 0.021560168872199904
690.0, 0.008222934067395202
691.0, 0.02764694536913084
692.0, 0.029246577321365663
693.0, 0.03195034646335709
694.0, 0.01996342377021651
695.0, 0.009683056050741549
696.0, 0.012332071832024
697.0, 0.01910369707104689
698.0, 0.02475648603215149
699.0, 0.036395759005370384
700.0, 0.015474729936054456
701.0, 0.015426701184386287
702.0, 0.033467806152017665
703.0, 0.04967062570282252
704.0, 0.03610167685662587
705.0, 0.005072328499229304
706.0, 0.025145449088253575
707.0, 0.017004986981986693
708.0, 0.03745867425603769
709.0, 0.045033588675174416
710.0, 0.03781576004880459
711.0, 0.03369974714707427
712.0, 0.028724853673155797
713.0, 0.028561151958822244
714.0, 0.026784892610172882
715.0, 0.0022226463450043627
716.0, 0.006925425686801653
717.0, 0.015273995267156282
718.0, 0.027815730415231874
719.0, 0.02322459984146827
720.0, 0.03924624462409204
721.0, 0.006603755749171285
722.0, 0.0029830211147995594
723.0, 0.01436233002141365
724.0, 0.018854658951780966
725.0, 0.019108689369617113
726.0, 0.026577692645148244
727.0, 0.029834696656715048
728.0, 0.023883046368378187
729.0, 0.025138309223125474
730.0, 0.02269324261316353
731.0, 0.010625582429874294
732.0, 0.009156758558898193
733.0, 0.023653977190149066
734.0, 0.021089414613539085
735.0, 0.009960504694732947
736.0, 0.02398041932539008
737.0, 0.026645461142002547
738.0, 0.021089418284447704
739.0, 0.01898798270577043
740.0, 0.019272803588390622
741.0, 0.017856785886661498
742.0, 0.02570284713619487
743.0, 0.019568294560060966
744.0, 0.012514816303401064
745.0, 0.03002124011351204
746.0, 0.053111906912194806
747.0, 0.046987187434042
748.0, 0.018045676795371713
749.0, 0.021243100544263836
750.0, 0.01736056663745807
751.0, 0.007967598743738513
752.0, 0.022124900693488127
753.0, 0.011005969385451057
754.0, 0.0058071586662921644
755.0, 0.0197674020050748
756.0, 0.01678742801027676
757.0, 0.014942211261341959
758.0, 0.033400324805668936
759.0, 0.04002534682552557
760.0, 0.03076250122027933
761.0, 0.03337119661953585
762.0, 0.04683828877176605
763.0, 0.03218310404730758
764.0, 0.002762415837578594
765.0, 0.009827167343270424
766.0, 0.012676222678542105
767.0, 0.00882653374186857
768.0, 0.007844902616858544
769.0, 0.023706454320078257
770.0, 0.007778271207296104
771.0, 0.009129720545698548
772.0, 0.023280890313391724
773.0, 0.018407815738694794
774.0, 0.018849335429811518
775.0, 0.01980185914190356
776.0, 0.009866106181789895
777.0, 0.0068243483461600035
778.0, 0.03563664745480342
779.0, 0.05901010950997624
780.0, 0.012332815348807872
781.0, 0.0029828743147724372
782.0, 0.027649145838819465
783.0, 0.0383301792171178
784.0, 0.016917919924747782
785.0, 0.002942654437108441
786.0, 0.0107383649781544
787.0, 0.017030544423366562
788.0, 0.019801784900270764
789.0, 0.01757671662508759
790.0, 0.008607590814593462
791.0, 0.006550443423896363
792.0, 0.0130488267584023
793.0, 0.01404090714739024
794.0, 0.011372763786555308
795.0, 0.020165832922701687
796.0, 0.026583920128131888
797.0, 0.016642673793680222
798.0, 0.01912779463698346
799.0, 0.024661209752042897
800.0, 0.01355005044802527
801.0, 0.010332962100904146
802.0, 0.00444435358577491
803.0, 0.007053422474138202
804.0, 0.02256198180411019
805.0, 0.018489547446969037
806.0, 0.002058360295769559
807.0, 0.00028040208307257455
808.0, 0.006305528933736419
809.0, 0.009377543766303462
810.0, 0.01060031898365046
811.0, 0.031113640923141245
812.0, 0.010151803946718918
813.0, 0.0050842088360182405
814.0, 0.004427409616123499
815.0, 0.027189898029473195
816.0, 0.040550113770669145
817.0, 0.022873371954797342
818.0, 0.010000844187313344
819.0, 0.0054373497028790685
820.0, 0.0201514487414839
821.0, 0.04206952862702833
822.0, 0.044388796802965536
823.0, 0.03717002361667289
824.0, 0.029473963723018283
825.0, 0.018606546205384242
826.0, 0.008397823217812342
827.0, 0.023389099500661228
828.0, 0.032848889270290116
829.0, 0.038898522748339326
830.0, 0.039243996664437945
831.0, 0.037032651041553344
832.0, 0.03449735528183018
833.0, 0.028669144121462646
834.0, 0.028119785631654147
835.0, 0.027443998351579728
836.0, 0.03094325416469546
837.0, 0.022374924977751787
838.0, 0.0225144603169819
839.0, 0.025913610547692062
840.0, 0.03108443146809111
841.0, 0.04253824575311861
842.0, 0.0442575079106775
843.0, 0.04490199024302667
844.0, 0.02143034358248865
845.0, 0.01850923023241469
846.0, 0.01081311099265101
847.0, 0.018872724785640865
848.0, 0.03483604006674894
849.0, 0.03659227718283082
850.0, 0.03928837849575607
851.0, 0.040067438336546024
852.0, 0.03477737034019743
853.0, 0.04461648639171749
854.0, 0.040141014046168516
855.0, 0.036236562861951684
856.0, 0.03763052392896114
857.0, 0.045701482947574396
858.0, 0.056533431589620264
859.0, 0.036175798498254995
860.0, 0.050701446201788
861.0, 0.015984875380016604
862.0, 0.021168282854929256
863.0, 0.04225019699864656
864.0, 0.03527586179131389
865.0, 0.03578694721711194
866.0, 0.051021749524610444
867.0, 0.03889863637155739
868.0, 0.03870857127908576
869.0, 0.038293048510449894
870.0, 0.010666926026891144
871.0, 0.026541501427182347
872.0, 0.03363960241369569
873.0, 0.028913529352213255
874.0, 0.03341250524775697
875.0, 0.03661121281884049
876.0, 0.03563466893072753
877.0, 0.030878355587483922
878.0, 0.02596465906156816
879.0, 0.015168076389248124
880.0, 0.03200107858339885
881.0, 0.035450413327400204
882.0, 0.025413378484409523
883.0, 0.01786104313136748
884.0, 0.013207671704457314
885.0, 0.024232248453616614
886.0, 0.026763524925279617
887.0, 0.03265309520199229
888.0, 0.011329161170071931
889.0, 0.01312377839238567
890.0, 0.0145583756382649
891.0, 0.009527732742999315
892.0, 0.015496301016066048
893.0, 0.02597003811281662
894.0, 0.017757317413060355
895.0, 0.01174876107897469
896.0, 0.0036188958456624012
897.0, 0.015144245112335444
898.0, 0.01756449282589631
899.0, 0.007208642449536039
900.0, 0.001273051650428679
901.0, 0.006349428900243452
902.0, 0.01814912875466823
903.0, 0.014629839306042773
904.0, 0.0037618662561914157
905.0, 0.016566504168792254
906.0, 0.01019729622231229
907.0, 0.007006349006070658
908.0, 0.0025357073804573257
909.0, 0.001842414136507479
910.0, 0.005749964918100307
911.0, 0.009726683197874474
912.0, 0.01669195091769371
913.0, 0.02495750345791385
914.0, 0.020102207923562418
915.0, 0.010731535512274243
916.0, 0.013363498279670297
917.0, 0.010329244365041316
918.0, 0.00568635833016955
919.0, 0.002941246424560036
920.0, 0.0009300363878735575
921.0, 0.001390740267542826
922.0, 0.008719133264358789
923.0, 0.021639956931397378
924.0, 0.007370070856148914
925.0, 0.007843799149712423
926.0, 0.0045461430404917505
927.0, 0.008590877077356599
928.0, 0.003246062824917482
929.0, 0.003720502649755303
930.0, 0.0014769244017938713
931.0, 0.01252888653540214
932.0, 0.030092031835575916
933.0, 0.01790856717394895
934.0, 0.0014668584673794456
935.0, 0.006976758558469179
936.0, 0.0035049735858059695
937.0, 0.00924933644495248
938.0, 0.011979010097827468
939.0, 0.004863816757281515
940.0, 0.012669391202940278
941.0, 0.0003630356841843442
942.0, 0.008123394229922523
943.0, 0.008701220674732784
944.0, 0.011351433429678278
945.0, 0.01558623265374121
946.0, 0.02685531501188407
947.0, 0.039348951766904706
948.0, 0.030881597640943254
949.0, 0.01875262980488624
950.0, 0.030330779444787508
951.0, 0.041921792492765855
952.0, 0.017723345604065483
953.0, 0.03253057102249116
954.0, 0.023879507569399758
955.0, 0.02908228986137246
956.0, 0.03044921706995476
957.0, 0.025488886186703037
958.0, 0.024368198135043144
959.0, 0.025771327702971296
960.0, 0.021726498323539453
961.0, 0.011154786940907433
962.0, 0.0012836298852664017
963.0, 0.017578435539934892
964.0, 0.022561846360557223
965.0, 0.011247431036509284
966.0, 0.01863871739528924
967.0, 0.02350363399308309
968.0, 0.01926446983158547
969.0, 0.008064311523928624
970.0, 0.008567582116698514
971.0, 0.020302438111735578
972.0, 0.011465402840320344
973.0, 0.004460645586090217
974.0, 0.004706938758344035
975.0, 0.020100428162274548
976.0, 0.026807433247478998
977.0, 0.034037749027765886
978.0, 0.03545187028951445
979.0, 0.020645543386389797
980.0, 0.0166438080551723
981.0, 0.023424052888653228
982.0, 0.016837203921662883
983.0, 0.029412156986455974
984.0, 0.03678036925267753
985.0, 0.027360393386568625
986.0, 0.020511282319742894
987.0, 0.021065005784354555
988.0, 0.029777093842836253
989.0, 0.03289324517413697
990.0, 0.021438915093011632
991.0, 0.02599737157150114
992.0, 0.03432168614175232
993.0, 0.014644385725522758
994.0, 0.0401784946471499
995.0, 0.018541133270916207
996.0, 0.03598132813561567
997.0, 0.03286628323671122
998.0, 0.040571424377567084
999.0, 0.038945704581379983
1000.0, 0.032692231427005565
1001.0, 0.036038522512644805
1002.0, 0.042988221156879405
1003.0, 0.034944646008371605
1004.0, 0.02423673523901141
1005.0, 0.043922385441116395
1006.0, 0.04475130331851014
1007.0, 0.0260090612133854
1008.0, 0.028248734967798454
1009.0, 0.01254749761890881
1010.0, 0.007245872213546955
1011.0, 0.017120985539229458
1012.0, 0.03350157648506306
1013.0, 0.02458659428709948
1014.0, 0.009745339392605998
1015.0, 0.028385019885231528
1016.0, 0.0345539694465417
1017.0, 0.031777707923888565
1018.0, 0.04092465863606719
1019.0, 0.029285392705011966
1020.0, 0.02664853476633578
1021.0, 0.02009865619164833
1022.0, 0.01690992294878325
1023.0, 0.019879317745773565
1024.0, 0.02652169086372201
1025.0, 0.020965075253626026
1026.0, 0.007788133844905301
1027.0, 0.018101164316514286
1028.0, 0.014082525435837167
1029.0, 0.01576843011059564
1030.0, 0.020890123359348426
1031.0, 0.015384562777084434
1032.0, 0.026913424082350656
1033.0, 0.017955843196555247
1034.0, 0.0012877127888097158
1035.0, 0.007038428233500398
1036.0, 0.014637982246564932
1037.0, 0.028971226311494156
1038.0, 0.011794987716599559
1039.0, 0.010768679956690983
1040.0, 0.01270829836492842
1041.0, 0.03396885352657058
1042.0, 0.023433091234612614
1043.0, 0.014524332139134509
1044.0, 0.00948559869948131
1045.0, 0.002038883372915913
1046.0, 0.009050929863924424
1047.0, 0.017950146271580023
1048.0, 0.015753023203377823
1049.0, 0.006894250412856953
1050.0, 0.011105376526134123
1051.0, 0.035599577937160065
1052.0, 0.041168541631181076
1053.0, 0.011790156588128676
1054.0, 0.00036105543945270794
1055.0, 0.00736558527004075
1056.0, 0.014407474803835692
1057.0, 0.003947200321030065
1058.0, 0.02349289504363906
1059.0, 0.02089299554632675
1060.0, 0.01556803881433487
1061.0, 0.031263917443214086
1062.0, 0.0347503469759475
1063.0, 0.023800605394897315
1064.0, 0.022343225411594177
1065.0, 0.016779172906883855
1066.0, 0.03020272794282681
1067.0, 0.010899280185805821
1068.0, 0.017294913624899034
1069.0, 0.0305121023535399
1070.0, 0.021839302817769864
1071.0, 0.030933549715621393
1072.0, 0.041065882476878666
1073.0, 0.022751792051756124
1074.0, 0.019715584344229962
1075.0, 0.017929118538931307
1076.0, 0.009600069828796461
1077.0, 0.026035987540295836
1078.0, 0.02502819402493224
1079.0, 0.03313976732279035
1080.0, 0.023092769453639108
1081.0, 0.02418443754335829
1082.0, 0.01679521862540013
1083.0, 0.018126134971744413
1084.0, 0.030342994529188084
1085.0, 0.04844167774548361
1086.0, 0.04470839607068125
1087.0, 0.0372220039188391
1088.0, 0.037418070677667774
1089.0, 0.04164857822724237
1090.0, 0.050211508620828266
1091.0, 0.05488873353696446
1092.0, 0.05108361487633059
1093.0, 0.04166342369342531
1094.0, 0.05899052206022047
1095.0, 0.04256651386754113
1096.0, 0.038964246425729245
1097.0, 0.03237135202768075
1098.0, 0.04118049648889541
1099.0, 0.05289778391667094
1100.0, 0.02963086435232889
1101.0, 0.02106142619814404
1102.0, 0.040254269703328134
1103.0, 0.05332301896784429
1104.0, 0.054839126023944695
1105.0, 0.05013204327671643
1106.0, 0.04225693437956187
1107.0, 0.04191839450954349
1108.0, 0.027485388852894043
1109.0, 0.03149360250447101
1110.0, 0.042584733736638715
1111.0, 0.028531723307922
1112.0, 0.04683517476858034
1113.0, 0.04261367162128598
1114.0, 0.013737491252913712
1115.0, 0.011433413750730658
1116.0, 0.027502372179319244
1117.0, 0.03001574061237969
1118.0, 0.032348014621960366
1119.0, 0.026728355276820104
1120.0, 0.022001352633076062
1121.0, 0.025605438104171232
1122.0, 0.0171971561073302
1123.0, 0.027579548791170243
1124.0, 0.03306432956165469
1125.0, 0.03643105123023843
1126.0, 0.034790727623995016
1127.0, 0.030008052282987398
1128.0, 0.024689171696028356
1129.0, 0.026305008106234967
1130.0, 0.02623027091445259
1131.0, 0.015706634293496887
1132.0, 0.016808194310114957
1133.0, 0.023598784867155095
1134.0, 0.03083813734613373
1135.0, 0.005841084761881438
1136.0, 0.006765698331312383
1137.0, 0.025037675106497816
1138.0, 0.023314168803969342
1139.0, 0.016405128051242716
1140.0, 0.011557923880535025
1141.0, 0.019442423547888995
1142.0, 0.004301842933901652
1143.0, 0.007984389656873233
1144.0, 0.007381496950749751
1145.0, 0.012372060674858906
1146.0, 0.0012146594793253122
1147.0, 0.004502781465089055
1148.0, 0.02261444384578289
1149.0, 0.013814247900792215
1150.0, 0.0013682281359516414
1151.0, 0.01247802201981919
1152.0, 0.02289709981613127
1153.0, 0.020154881441573454
1154.0, 0.012077254579641575
1155.0, 0.005342387527930082
1156.0, 0.010319923383474655
1157.0, 0.029982522719680518
1158.0, 0.0025207228260892946
1159.0, 0.0024402309290275414
1160.0, 0.018091044469702763
1161.0, 0.023130926120971913
1162.0, 0.004899885954474419
1163.0, 0.004866297482014516
1164.0, 0.009420539975553891
1165.0, 0.010069525650284147
1166.0, 0.0206848511505327
1167.0, 0.016257985506229134
1168.0, 0.015259687625411258
1169.0, 0.01183328728865963
1170.0, 0.011695182834375371
1171.0, 0.022714304591183697
1172.0, 0.024100632003545
1173.0, 0.03117184102177307
1174.0, 0.033754606735121796
1175.0, 0.031588749954970435
1176.0, 0.022623983784016935
1177.0, 0.03824297690667616
1178.0, 0.04818075757025853
1179.0, 0.026703960615601288
1180.0, 0.020663433909065776
1181.0, 0.02510385049523578
1182.0, 0.020833101241718364
1183.0, 0.02991837695394644
1184.0, 0.039038874166959274
1185.0, 0.033075836086301456
1186.0, 0.030059887599182964
1187.0, 0.02807008812009071
1188.0, 0.024975412258514587
1189.0, 0.027479533443395463
1190.0, 0.03136984539921846
1191.0, 0.037222578991775904
1192.0, 0.03125522535416207
1193.0, 0.029204919244732577
1194.0, 0.01922996050954296
1195.0, 0.04242944083261347
1196.0, 0.03831999205414841
1197.0, 0.010810787481485794
1198.0, 0.007926442181630723
1199.0, 0.03375099487774446
1200.0, 0.02406333870550572
1201.0, 0.014994770170564841
1202.0, 0.01584053487112427
1203.0, 0.015363854440695802
1204.0, 0.010893244423223382
1205.0, 0.01789389733640329
1206.0, 0.027478493043560745
1207.0, 0.01869496449639987
1208.0, 0.02468852827182206
1209.0, 0.014588812796631859
1210.0, 0.011603667807914402
1211.0, 0.02583659505734858
1212.0, 0.03367635177516308
1213.0, 0.027336709310667694
1214.0, 0.021278785715205823
1215.0, 0.023285849996453556
1216.0, 0.02581480932396342
1217.0, 0.03125666711225896
1218.0, 0.03338460166669723
1219.0, 0.012754042292306407
1220.0, 0.015378915392289508
1221.0, 0.022973602938222783
1222.0, 0.004491060786400906
1223.0, 0.01750534002910743
1224.0, 0.01875197440979295
1225.0, 0.004383839992332314
1226.0, 0.01903259135120742
1227.0, 0.0289186372799413
1228.0, 0.011032593912565372
1229.0, 0.008768267814484648
1230.0, 0.0010440307965680722
1231.0, 0.002422765747234052
1232.0, 0.005045499862041202
1233.0, 0.006023788638252877
1234.0, 0.0068875128441432025
1235.0, 0.027600907406237173
1236.0, 0.02272736252786097
1237.0, 0.016562492320784727
1238.0, 0.011630767895551355
1239.0, 0.01694596984865375
1240.0, 0.010474139682941575
1241.0, 0.0014090201403656525
1242.0, 0.009015223669555057
1243.0, 0.0030909990261097087
1244.0, 0.012014443138953015
1245.0, 0.01827870972651008
1246.0, 0.03091822280373331
1247.0, 0.02200178282097277
1248.0, 0.02010803273124423
1249.0, 0.029966676413815996
1250.0, 0.01650097291131317
1251.0, 0.010888970091032539
1252.0, 0.023595296849688502
1253.0, 0.0237578474240864
1254.0, 0.0217213874440582
1255.0, 0.029622400966107406
1256.0, 0.017476829131478015
1257.0, 0.03437104330075444
1258.0, 0.028132555635524505
1259.0, 0.008693915355569338
1260.0, 0.01678521156417561
1261.0, 0.018378516002360252
1262.0, 0.019354892649991778
1263.0, 0.030507464512576948
1264.0, 0.02152799322928305
1265.0, 0.021691496684549103
1266.0, 0.005352611721029601
1267.0, 0.008843192905490193
1268.0, 0.019328969214868853
1269.0, 0.014104894746082699
1270.0, 0.002243785024984802
1271.0, 0.012148348368006536
1272.0, 0.01980744468156356
1273.0, 0.017283535636212353
1274.0, 0.007940992157066833
1275.0, 0.010958837008671415
1276.0, 0.01406194558935785
1277.0, 0.004906894411232458
1278.0, 0.0006814664732185949
1279.0, 0.0036945153021253683
1280.0, 0.006454066000537707
1281.0, 0.0009975169937603715
1282.0, 0.013245144236297579
1283.0, 0.019915841209650613
1284.0, 0.018829411777866564
1285.0, 0.018875221423918804
1286, 0.0
1287, 0.0
1288, 0.0
1289, 0.0
1290, 0.0
1291, 0.0
1292, 0.0
1293, 0.0
1294, 0.0
1295, 0.0
1296, 0.0
1297, 0.0
1298, 0.0
1299, 0.0
1300, 0.0
1301, 0.0
1302, 0.0
1303, 0.0
1304, 0.0
1305, 0.0
1306, 0.0
1307, 0.0
1308, 0.0
1309, 0.0
1310, 0.0
1311, 0.0
1312, 0.0
1313, 0.0
1314, 0.0
1315, 0.0
1316, 0.0
1317, 0.0
1318, 0.0
1319, 0.0
1320, 0.0
1321, 0.0
1322, 0.0
1323, 0.0
1324, 0.0
1325, 0.0
1326, 0.0
1327, 0.0
1328, 0.0
1329, 0.0
1330, 0.0
1331, 0.0
1332, 0.0
1333, 0.0
1334, 0.0
1335, 0.0
1336, 0.0
1337, 0.0
1338, 0.0
1339, 0.0
1340, 0.0
1341, 0.0
1342, 0.0
1343, 0.0
1344, 0.0
1345, 0.0
1346, 0.0
1347, 0.0
1348, 0.0
1349, 0.0
1350, 0.0
1351, 0.0
1352, 0.0
1353, 0.0
1354, 0.0
1355, 0.0
1356, 0.0
1357, 0.0
1358, 0.0
1359, 0.0
1360, 0.0
1361, 0.0
1362, 0.0
1363, 0.0
1364, 0.0
1365, 0.0
1366, 0.0
1367, 0.0
1368, 0.0
1369, 0.0
1370, 0.0
1371, 0.0
1372, 0.0
1373, 0.0
1374, 0.0
1375, 0.0
1376, 0.0
1377, 0.0
1378, 0.0
1379, 0.0
1380, 0.0
1381, 0.0
1382, 0.0
1383, 0.0
1384, 0.0
1385, 0.0
1386, 0.0
1387, 0.0
1388, 0.0
1389, 0.0
1390, 0.0
1391, 0.0
1392, 0.0
1393, 0.0
1394, 0.0
1395, 0.0
1396, 0.0
1397, 0.0
1398, 0.0
1399, 0.0
1400, 0.0
1401, 0.0
1402, 0.0
1403, 0.0
1404, 0.0
1405, 0.0
1406, 0.0
1407, 0.0
1408, 0.0
1409, 0.0
1410, 0.0
1411, 0.0
1412, 0.0
1413, 0.0
1414, 0.0
1415, 0.0
1416, 0.0
1417, 0.0
1418, 0.0
1419, 0.0
1420, 0.0
1421, 0.0
1422, 0.0
1423, 0.0
1424, 0.0
1425, 0.0
1426, 0.0
1427, 0.0
1428, 0.0
1429, 0.0
1430, 0.0
1431, 0.0
1432, 0.0
1433, 0.0
1434, 0.0
1435, 0.0
1436, 0.0
1437, 0.0
1438, 0.0
1439, 0.0
1440, 0.0
1441, 0.0
1442, 0.0
1443, 0.0
1444, 0.0
1445, 0.0
1446, 0.0
1447, 0.0
1448, 0.0
1449, 0.0
1450, 0.0
1451, 0.0
1452, 0.0
1453, 0.0
1454, 0.0
1455, 0.0
1456, 0.0
1457, 0.0
1458, 0.0
1459, 0.0
1460, 0.0
1461, 0.0
1462, 0.0
1463, 0.0
1464, 0.0
1465, 0.0
1466, 0.0
1467, 0.0
1468, 0.0
1469, 0.0
1470, 0.0
1471, 0.0
1472, 0.0
1473, 0.0
1474, 0.0
1475, 0.0
1476, 0.0
1477, 0.0
1478, 0.0
1479, 0.0
1480, 0.0
1481, 0.0
1482, 0.0
1483, 0.0
1484, 0.0
1485, 0.0
1486, 0.0
1487, 0.0
1488, 0.0
1489, 0.0
1490, 0.0
1491, 0.0
1492, 0.0
1493, 0.0
1494, 0.0
1495, 0.0
1496, 0.0
1497, 0.0
1498, 0.0
1499, 0.0
1500, 0.0
1501, 0.0
1502, 0.0
1503, 0.0
1504, 0.0
1505, 0.0
1506, 0.0
1507, 0.0
1508, 0.0
1509, 0.0
1510, 0.0
1511, 0.0
1512, 0.0
1513, 0.0
1514, 0.0
1515, 0.0
1516, 0.0
1517, 0.0
1518, 0.0
1519, 0.0
1520, 0.0
1521, 0.0
1522, 0.0
1523, 0.0
1524, 0.0
1525, 0.0
1526, 0.0
1527, 0.0
1528, 0.0
1529, 0.0
1530, 0.0
1531, 0.0
1532, 0.0
1533, 0.0
1534, 0.0
1535, 0.0
1536, 0.0
1537, 0.0
1538, 0.0
1539, 0.0
1540, 0.0
1541, 0.0
1542, 0.0
1543, 0.0
1544, 0.0
1545, 0.0
1546, 0.0
1547, 0.0
1548, 0.0
1549, 0.0
1550, 0.0
1551, 0.0
1552, 0.0
1553, 0.0
1554, 0.0
1555, 0.0
1556, 0.0
1557, 0.0
1558, 0.0
1559, 0.0
1560, 0.0
1561, 0.0
1562, 0.0
1563, 0.0
1564, 0.0
1565, 0.0
1566, 0.0
1567, 0.0
1568, 0.0
1569, 0.0
1570, 0.0
1571, 0.0
1572, 0.0
1573, 0.0
1574, 0.0
1575, 0.0
1576, 0.0
1577, 0.0
1578, 0.0
1579, 0.0
1580, 0.0
1581, 0.0
1582, 0.0
1583, 0.0
1584, 0.0
1585, 0.0
1586, 0.0
1587, 0.0
1588, 0.0
1589, 0.0
1590, 0.0
1591, 0.0
1592, 0.0
1593, 0.0
1594, 0.0
1595, 0.0
1596, 0.0
1597, 0.0
1598, 0.0
1599, 0.0
