30, 0.0
31, 0.0
32, 0.0
33, 0.0
34, 0.0
35, 0.0
36, 0.0
37, 0.0
38, 0.0
39, 0.0
40, 0.0
41, 0.0
42, 0.0
43, 0.0
44, 0.0
45, 0.0
46, 0.0
47, 0.0
48, 0.0
49, 0.0
50, 0.0
51, 0.0
52, 0.0
53, 0.0
54, 0.0
55, 0.0
56, 0.0
57, 0.0
58, 0.0
59, 0.0
60, 0.0
61, 0.0
62, 0.0
63, 0.0
64, 0.0
65, 0.0
66, 0.0
67, 0.0
68, 0.0
69, 0.0
70, 0.0
71, 0.0
72, 0.0
73, 0.0
74, 0.0
75, 0.0
76, 0.0
77, 0.0
78, 0.0
79, 0.0
80, 0.0
81, 0.0
82, 0.0
83, 0.0
84, 0.0
85, 0.0
86, 0.0
87, 0.0
88, 0.0
89, 0.0
90, 0.0
91, 0.0
92, 0.0
93, 0.0
94, 0.0
95, 0.0
96, 0.0
97, 0.0
98, 0.0
99, 0.0
100, 0.0
101, 0.0
102, 0.0
103, 0.0
104, 0.0
105, 0.0
106, 0.0
107, 0.0
108, 0.0
109, 0.0
110, 0.0
111, 0.0
112, 0.0
113, 0.0
114, 0.0
115, 0.0
116, 0.0
117, 0.0
118, 0.0
119, 0.0
120, 0.0
121, 0.0
122, 0.0
123, 0.0
124, 0.0
125, 0.0
126, 0.0
127, 0.0
128, 0.0
129, 0.0
130, 0.0
131, 0.0
132, 0.0
133, 0.0
134, 0.0
135, 0.0
136, 0.0
137, 0.0
138, 0.0
139, 0.0
140, 0.0
141, 0.0
142, 0.0
143, 0.0
144, 0.0
145, 0.0
146, 0.0
147, 0.0
148, 0.0
149, 0.0
150, 0.0
151.0, 3.0840329231053088e-06
152.0, 0.002528846139294727
153.0, 0.004550857693250142
154.0, 0.007234521127158184
155.0, 0.015371373919469578
156.0, 0.01827716410000215
157.0, 0.019027362774368024
158.0, 0.022156170119962973
159.0, 0.028366852444672526
160.0, 0.027565747141713556
161.0, 0.03078105275063625
162.0, 0.031804393308524116
163.0, 0.02342108556212792
164.0, 0.02587734478717175
165.0, 0.02184876253606958
166.0, 0.016861481001210984
167.0, 0.013888038010928716
168.0, 0.011433952508904817
169.0, 0.009382563486001668
170.0, 0.004686902669053003
171.0, 0.0012629116336134766
172.0, 0.003929423882753902
173.0, 0.000919804142841152
174.0, 0.0007552441859969656
175.0, 0.0015829893746348862
176.0, 0.005657851105910045
177.0, 0.007681274046668743
178.0, 0.010125848232146864
179.0, 0.012069691382240863
180.0, 0.014869090436104362
181.0, 0.02405459949891397
182.0, 0.029490140598615877
183.0, 0.03223575879260643
184.0, 0.03617106572009273
185.0, 0.044239679996517955
186.0, 0.05342572354857296
187.0, 0.06179280910920755
188.0, 0.07178873073559973
189.0, 0.08471419895379115
190.0, 0.08907481240199115
191.0, 0.09065799156734909
192.0, 0.09308282518106996
193.0, 0.09608494424308436
194.0, 0.09416588979057791
195.0, 0.08635584673414834
196.0, 0.07749494196044068
197.0, 0.06859635413587745
198.0, 0.055728867882986075
199.0, 0.04226299699812244
200.0, 0.03610748257191222
201.0, 0.03600520170124074
202.0, 0.035061819807401806
203.0, 0.031536307978598944
204.0, 0.029222195209846483
205.0, 0.029607403426521857
206.0, 0.03237218657546399
207.0, 0.03370877614255104
208.0, 0.03299957238324399
209.0, 0.0315344197543122
210.0, 0.03179395942503991
211.0, 0.036054801660017885
212.0, 0.033826332191008605
213.0, 0.035679778831478125
214.0, 0.03994560491846522
215.0, 0.03900201190671205
216.0, 0.04315807757036805
217.0, 0.047365414425876655
218.0, 0.049627268411254956
219.0, 0.05081991701140932
220.0, 0.05587867849430475
221.0, 0.05553502167712467
222.0, 0.053702750290536665
223.0, 0.054329925133673365
224.0, 0.05778041104624031
225.0, 0.05567385729745758
226.0, 0.05477075558862658
227.0, 0.05585283845379115
228.0, 0.05539834785032692
229.0, 0.05091258014461119
230.0, 0.05103778241182102
231.0, 0.0517056035255656
232.0, 0.048236336120926544
233.0, 0.04185173856461668
234.0, 0.03656214575897218
235.0, 0.03388508293580629
236.0, 0.03136888031368673
237.0, 0.02555056074848946
238.0, 0.023692398110881818
239.0, 0.024165155984034944
240.0, 0.02274506421728188
241.0, 0.01760924665908186
242.0, 0.01279452698354642
243.0, 0.009639879513859763
244.0, 0.004779492771219876
245.0, 0.0008223459758970118
246.0, 0.0017238138454451146
247.0, 0.0019527805423193326
248.0, 0.0022943137325451175
249.0, 0.002683733125330033
250.0, 0.002927231894892401
251.0, 0.003394207693987479
252.0, 0.0027058872595888527
253.0, 0.0007448315329407266
254.0, 0.0024750116437039
255.0, 0.003098111603104494
256.0, 0.009208600832766483
257.0, 0.01584182126048937
258.0, 0.01832574238063207
259.0, 0.014704355651090075
260.0, 0.02106254292852582
261.0, 0.026941153221569918
262.0, 0.030476018086321038
263.0, 0.033915296713784376
264.0, 0.04177881368596546
265.0, 0.04605795143798474
266.0, 0.053609385790218664
267.0, 0.06276002321177875
268.0, 0.06753983972727913
269.0, 0.07134178197709447
270.0, 0.07796748907655122
271.0, 0.07786346500444843
272.0, 0.06907959156868257
273.0, 0.06738242911364187
274.0, 0.06618529428314389
275.0, 0.06494972658819372
276.0, 0.06459230008688976
277.0, 0.0646413960442094
278.0, 0.05916453202995019
279.0, 0.05615586679766205
280.0, 0.05512126148980266
281.0, 0.05385064818152514
282.0, 0.05341644978716125
283.0, 0.05880970483613451
284.0, 0.06249945464620824
285.0, 0.06193576174348655
286.0, 0.059533973628065055
287.0, 0.06024826856350411
288.0, 0.062134502405899045
289.0, 0.06511586838187976
290.0, 0.06927582202588761
291.0, 0.07327981165759023
292.0, 0.07074775999275153
293.0, 0.07115593081504178
294.0, 0.07475336339902976
295.0, 0.07725782978009389
296.0, 0.08159324038145065
297.0, 0.07939420622136992
298.0, 0.07657737909403999
299.0, 0.07620076669237255
300.0, 0.07512310497653467
301.0, 0.08162265524076509
302.0, 0.08088798146667982
303.0, 0.07726741708873788
304.0, 0.07837824862091232
305.0, 0.07558760276938416
306.0, 0.07305556987312219
307.0, 0.06824563713007611
308.0, 0.06355226462837277
309.0, 0.06264251224856973
310.0, 0.05369833297384578
311.0, 0.04843351580112985
312.0, 0.04195691902427679
313.0, 0.03176307953344928
314.0, 0.02816304159311853
315.0, 0.02243177690831829
316.0, 0.01866604640988705
317.0, 0.01487963554052609
318.0, 0.007858579216409659
319.0, 0.006541845122386584
320.0, 0.0019184937740689158
321.0, 0.0007447556918068646
322.0, 0.0006854783236622907
323.0, 0.0036964509175489734
324.0, 0.002616847278092557
325.0, 0.003769799092877622
326.0, 0.0017413394043634674
327.0, 0.0012025202857719798
328.0, 0.0013165209409812194
329.0, 0.004529231467142569
330.0, 0.010875729826167595
331.0, 0.016978902051362054
332.0, 0.018819497135595234
333.0, 0.019080638744753665
334.0, 0.024456975111742597
335.0, 0.031131042904144122
336.0, 0.03780145246040189
337.0, 0.04907643951922923
338.0, 0.055211345003006985
339.0, 0.060888700570170734
340.0, 0.06884756760237364
341.0, 0.07934699217928635
342.0, 0.09034243868647285
343.0, 0.09839677639217487
344.0, 0.10843232949162739
345.0, 0.11872181437850925
346.0, 0.12638186709533414
347.0, 0.14435029648100284
348.0, 0.1567171128705657
349.0, 0.16287605916436992
350.0, 0.17036799767970023
351.0, 0.18393526006926156
352.0, 0.19121715216090607
353.0, 0.19734344766269374
354.0, 0.19769060546678086
355.0, 0.19089811141711957
356.0, 0.186918506042554
357.0, 0.17264156506761463
358.0, 0.1604386707353283
359.0, 0.14539391643945698
360.0, 0.12087355563017176
361.0, 0.10888271607221157
362.0, 0.0953937107246207
363.0, 0.08141659934274624
364.0, 0.0687369862062622
365.0, 0.05692141482073803
366.0, 0.051643031135741674
367.0, 0.03949757862941952
368.0, 0.03060027326417881
369.0, 0.02804904542154762
370.0, 0.021004697774238294
371.0, 0.015390027887930096
372.0, 0.012734595919036012
373.0, 0.012069169265409827
374.0, 0.00979591973687752
375.0, 0.000937785264554601
376.0, 0.006210674386904506
377.0, 0.008193551409877651
378.0, 0.004103652922798544
379.0, 0.0010307056588091286
380.0, 0.003762341964762179
381.0, 0.005116400292962927
382.0, 0.0018562810429303168
383.0, 0.0034739469076317756
384.0, 0.004231321409291375
385.0, 0.0007963196103329339
386.0, 0.0005235132579059499
387.0, 0.0010750120409207865
388.0, 0.0015315473116053542
389.0, 0.005334334258864217
390.0, 0.00938277284473485
391.0, 0.007980273316881855
392.0, 0.007995727766666282
393.0, 0.010578998749449363
394.0, 0.008906015914958076
395.0, 0.014027758665435222
396.0, 0.015896639021870045
397.0, 0.016845630686915428
398.0, 0.02080848282707429
399.0, 0.024788949509074912
400.0, 0.028219281886097937
401.0, 0.03371114856907835
402.0, 0.036885948965571305
403.0, 0.036300200474455126
404.0, 0.04157977620757983
405.0, 0.044363797815258205
406.0, 0.04663831181014117
407.0, 0.048578159505992605
408.0, 0.04912327301911333
409.0, 0.049615148068055524
410.0, 0.04885538260808856
411.0, 0.04815608833948265
412.0, 0.04838145481043348
413.0, 0.048776607376003964
414.0, 0.047104522869305325
415.0, 0.043826744219410095
416.0, 0.042101736359148614
417.0, 0.04172377351317654
418.0, 0.04009524552096298
419.0, 0.0356914256814998
420.0, 0.030995466354862455
421.0, 0.02738676648259304
422.0, 0.024513066482504023
423.0, 0.02140303987266875
424.0, 0.018896850541507217
425.0, 0.015480351923335875
426.0, 0.013415428946481246
427.0, 0.012884622442661885
428.0, 0.011758381260738117
429.0, 0.011412066360402023
430.0, 0.009547956599497408
431.0, 0.009768504654119764
432.0, 0.011803849988596442
433.0, 0.011213494400497544
434.0, 0.010605102804247571
435.0, 0.005652806851736563
436.0, 0.010064910507331059
437.0, 0.0046711391216304726
438.0, 0.0040232032590665715
439.0, 0.003538959069472048
440.0, 0.0032116788285749672
441.0, 0.003414411184162559
442.0, 0.0031964440934154265
443.0, 0.003151598586762841
444.0, 0.0016297406510223642
445.0, 0.0024546168293581544
446.0, 0.0022571116417512116
447.0, 0.00302700843901094
448.0, 0.002058609177179922
449.0, 0.0020611556998015278
450.0, 0.0019971839914726345
451.0, 0.0015201760305437726
452.0, 0.0005296687021523323
453.0, 0.0005455139120618346
454.0, 0.001015296316172275
455.0, 0.0010784702269642083
456.0, 0.0008617625606662763
457.0, 0.0022306744976422206
458.0, 0.002650156448635305
459.0, 0.001558760604277223
460.0, 0.0009234132924855927
461.0, 0.0013140214416556832
462.0, 0.0036376033303746093
463.0, 0.007535988904528811
464.0, 0.004173323164324436
465.0, 0.005565665099370734
466.0, 0.007225508259696559
467.0, 0.008141968630174941
468.0, 0.012245972352527827
469.0, 0.015352361639499146
470.0, 0.012898794752644419
471.0, 0.013713778463877939
472.0, 0.017646383236061335
473.0, 0.018604528049683797
474.0, 0.02215036052357057
475.0, 0.02345775727252152
476.0, 0.02348228315878744
477.0, 0.024734354233133086
478.0, 0.028138679821176602
479.0, 0.03038827156768469
480.0, 0.030752226572145522
481.0, 0.035733645513683646
482.0, 0.03977061894826448
483.0, 0.038256099027710155
484.0, 0.04155094888399835
485.0, 0.04810077740871966
486.0, 0.04830599034137727
487.0, 0.04810738883855247
488.0, 0.05381191424526883
489.0, 0.05857420479651639
490.0, 0.060451462246261585
491.0, 0.06305702753730134
492.0, 0.06771095992579707
493.0, 0.07208177057270027
494.0, 0.07238479322944344
495.0, 0.08119853855098412
496.0, 0.08541164739624181
497.0, 0.08591770370557099
498.0, 0.08586018716856243
499.0, 0.08471447497321674
500.0, 0.09324608712849443
501.0, 0.09279453407418715
502.0, 0.08982364935082536
503.0, 0.08757197788341986
504.0, 0.08198934797487173
505.0, 0.07856781302383678
506.0, 0.07836866760495718
507.0, 0.07389146497312647
508.0, 0.06681737954375871
509.0, 0.06321438599725276
510.0, 0.057454209778098016
511.0, 0.055021237982080674
512.0, 0.053448876035851474
513.0, 0.05034380480159014
514.0, 0.047209979170529104
515.0, 0.048035114193352484
516.0, 0.04227930563271321
517.0, 0.0394790284159674
518.0, 0.03753283356697843
519.0, 0.035273567636916074
520.0, 0.037584176700400054
521.0, 0.03286296673928024
522.0, 0.03394971792845844
523.0, 0.032838377775288786
524.0, 0.02773164585958167
525.0, 0.02675340266661039
526.0, 0.0259257164670592
527.0, 0.0222833430170611
528.0, 0.021178237296316033
529.0, 0.02156972660215652
530.0, 0.01920676115797628
531.0, 0.015674757286220815
532.0, 0.016886125379954004
533.0, 0.017130533618527528
534.0, 0.014107270418987392
535.0, 0.008320253677376209
536.0, 0.0018755106422145803
537.0, 0.0036835389816894295
538.0, 0.0018228407143127466
539.0, 0.0006047517780119734
540.0, 0.0024514708782500854
541.0, 0.001198239002141092
542.0, 0.0026472647141554027
543.0, 0.0006998088361325103
544.0, 0.0032235389421121836
545.0, 0.0027785452759067687
546.0, 0.0013605630103015562
547.0, 0.0012436973625715776
548.0, 0.0028516628050344254
549.0, 0.001711460228320827
550.0, 0.0020969212086232145
551.0, 0.0025903200814944793
552.0, 0.002246907747969195
553.0, 0.0005569726134730047
554.0, 0.0013884857857549952
555.0, 0.003084250815420894
556.0, 0.0024233398783283506
557.0, 0.003184570783353798
558.0, 0.004938972818785555
559.0, 0.006425116551406716
560.0, 0.004522299492374265
561.0, 0.004936863478911611
562.0, 0.010855189135189455
563.0, 0.012607085496302713
564.0, 0.012153548194911145
565.0, 0.013873377288870885
566.0, 0.013676504958289355
567.0, 0.013485096937765378
568.0, 0.019683289645517025
569.0, 0.02033122393937033
570.0, 0.020632501220515322
571.0, 0.022973335994177883
572.0, 0.026943391648398783
573.0, 0.03181206946682344
574.0, 0.03687066454187948
575.0, 0.0389739112915019
576.0, 0.04215704667621473
577.0, 0.04763421009669152
578.0, 0.05251600293653633
579.0, 0.053733294368817346
580.0, 0.058001765781500514
581.0, 0.06095357725892433
582.0, 0.06536424596365208
583.0, 0.06878717552781859
584.0, 0.06942113371738565
585.0, 0.07400157118359522
586.0, 0.07297515390565501
587.0, 0.07422844805180732
588.0, 0.07637915512659396
589.0, 0.0755710700680135
590.0, 0.07203317859346905
591.0, 0.07088130437965177
592.0, 0.06666951132740802
593.0, 0.06498858535210543
594.0, 0.06365438623614054
595.0, 0.05896817172920936
596.0, 0.05486253344971424
597.0, 0.04941040896296648
598.0, 0.04707010036813421
599.0, 0.04611237232081818
600.0, 0.043125806665262036
601.0, 0.035975055141585756
602.0, 0.026636712512451033
603.0, 0.028518574006635412
604.0, 0.025927264032983698
605.0, 0.020682895368879375
606.0, 0.019162441149621463
607.0, 0.01732531977193867
608.0, 0.01355451747044372
609.0, 0.012663361269188999
610.0, 0.010728004013874219
611.0, 0.009699088702207958
612.0, 0.011551464762109269
613.0, 0.007345638780116182
614.0, 0.010915014305592701
615.0, 0.0077520528423952635
616.0, 0.004641280001249588
617.0, 0.006589016219943511
618.0, 0.006662121859718263
619.0, 0.0034678523852169677
620.0, 0.004989671127669369
621.0, 0.004443636416890526
622.0, 0.002459661771098906
623.0, 0.002020282103406193
624.0, 0.0010153013858445348
625.0, 0.00014286938699885582
626.0, 0.0027489188382149696
627.0, 0.0018726662234509455
628.0, 0.0021234615252101164
629.0, 0.00044588186348030974
630.0, 0.0012655832156282792
631.0, 0.0016514319821336343
632.0, 0.0004771320256532445
633.0, 0.0010385678332365202
634.0, 0.0003172075906413092
635.0, 0.0024886894957862797
636.0, 0.00014786674262515765
637.0, 0.00016810682117074694
638.0, 0.0009616164092980667
639.0, 0.0008859526680386375
640.0, 0.0009737365040036379
641.0, 0.004157152389859752
642.0, 0.005489901313962266
643.0, 0.002319334212047588
644.0, 0.0013217423349812236
645.0, 0.002915816544009743
646.0, 0.004103933785897052
647.0, 0.003834470828417654
648.0, 0.00038082484969885575
649.0, 0.0003347465855234441
650.0, 0.002924502217423966
651.0, 0.004530560685901656
652.0, 0.004491414743176318
653.0, 0.004887230271708426
654.0, 0.0056348089090415615
655.0, 0.0066734263505053
656.0, 0.006772649027962807
657.0, 0.005540549204485599
658.0, 0.004290094701494436
659.0, 0.004105985061458758
660.0, 0.0014785272231480216
661.0, 0.0020123622625393615
662.0, 0.0025879387064233995
663.0, 0.0014028497908716792
664.0, 0.0007641578015002538
665.0, 0.0015877962664634059
666.0, 0.005380068836465353
667.0, 0.006814333937621856
668.0, 0.006485739609779948
669.0, 0.005428543669073201
670.0, 0.0035230353035274656
671.0, 0.0031258143528841106
672.0, 0.006718943828006257
673.0, 0.004192697720645162
674.0, 0.0023759704702594068
675.0, 0.004053233608990483
676.0, 0.0033727853365502383
677.0, 0.007637873592180331
678.0, 0.0018517665365956138
679.0, 0.0038501442994629785
680.0, 0.005202385065875031
681.0, 0.0019672871406651933
682.0, 0.004552978933996484
683.0, 0.004337391803009222
684.0, 0.0038270166696779233
685.0, 0.0023701220972560336
686.0, 0.0013052955953084312
687.0, 0.002990521385466527
688.0, 0.005698558084993074
689.0, 0.00024692022004873105
690.0, 0.003911720687307008
691.0, 0.0038731765445846424
692.0, 0.0017297052548646344
693.0, 0.0023638674807229063
694.0, 0.004350165539718698
695.0, 0.004389028828153782
696.0, 0.004977814377865822
697.0, 0.004242446404616356
698.0, 0.00590340495779523
699.0, 0.009519680287922556
700.0, 0.010034707503005549
701.0, 0.010409653939354863
702.0, 0.011726513576343273
703.0, 0.011541665561840653
704.0, 0.011669886283918839
705.0, 0.012146414510149509
706.0, 0.011468303850286292
707.0, 0.012265121981765135
708.0, 0.01358531631551713
709.0, 0.015012923912971711
710.0, 0.015552146029757056
711.0, 0.016454545143526494
712.0, 0.016945779270855877
713.0, 0.011145054792202142
714.0, 0.01834331272343978
715.0, 0.01594533225834164
716.0, 0.015444279853921937
717.0, 0.017953960325710745
718.0, 0.015596136273176553
719.0, 0.01539407798522815
720.0, 0.015706003028449284
721.0, 0.01840410017573056
722.0, 0.018964776934505975
723.0, 0.01939819308657172
724.0, 0.02143874203098263
725.0, 0.02003608354454217
726.0, 0.025313583840363526
727.0, 0.02474008712118166
728.0, 0.02312982100683112
729.0, 0.024539004179734588
730.0, 0.02663508932166388
731.0, 0.025913033019565684
732.0, 0.02655026848266798
733.0, 0.025508428178182316
734.0, 0.02777624876194533
735.0, 0.02794288354675119
736.0, 0.023972830138098082
737.0, 0.02198789074524007
738.0, 0.020529216914545616
739.0, 0.01450452931314616
740.0, 0.01301154354933215
741.0, 0.012412166406123208
742.0, 0.010092230554824349
743.0, 0.007592295320696273
744.0, 0.004978928057587546
745.0, 0.00772980805454007
746.0, 0.00446859329497754
747.0, 0.0024359195213132724
748.0, 0.0017035593660079036
749.0, 0.0003946052790456299
750.0, 0.0005755502083005488
751.0, 0.0013705010415726085
752.0, 0.001568140358927671
753.0, 0.0028314125584677553
754.0, 0.003725012281523777
755.0, 0.004175614338685358
756.0, 0.006204052159150027
757.0, 0.005998751509129906
758.0, 0.007129763016963382
759.0, 0.00533738421974559
760.0, 0.006093935460534308
761.0, 0.006990266946862626
762.0, 0.005264222384244853
763.0, 0.010037375800153896
764.0, 0.008491173737827056
765.0, 0.005369495334957832
766.0, 0.0028423390112132093
767.0, 0.0025944407460833986
768.0, 0.0026881993713943025
769.0, 0.00016200208565888714
770.0, 0.0027212062903706207
771.0, 0.0010231657617583328
772.0, 0.0063870775166456634
773.0, 0.008794616157489906
774.0, 0.009631945809744918
775.0, 0.012099802269871014
776.0, 0.014546672548307334
777.0, 0.015052485280442856
778.0, 0.025502917444142514
779.0, 0.03320570615806626
780.0, 0.038094415559415826
781.0, 0.04655204025144311
782.0, 0.05563095196287273
783.0, 0.05913561823182267
784.0, 0.07184687525222681
785.0, 0.08564299055975338
786.0, 0.09779461838512148
787.0, 0.11161722085305859
788.0, 0.13018584668706312
789.0, 0.15118509353417112
790.0, 0.17251313649442387
791.0, 0.193979559727715
792.0, 0.21640251053931026
793.0, 0.24617069860947208
794.0, 0.28034560076853604
795.0, 0.3078639407905442
796.0, 0.33040879313267013
797.0, 0.36227489687711795
798.0, 0.38970908614589417
799.0, 0.4127769215359482
800.0, 0.4354650523667473
801.0, 0.4567131301764203
802.0, 0.46964953303064005
803.0, 0.47704062630315874
804.0, 0.4784671832276597
805.0, 0.4730257634097142
806.0, 0.4546849478236107
807.0, 0.4317105480059931
808.0, 0.41230259749923537
809.0, 0.3818106016706092
810.0, 0.34452965600800284
811.0, 0.31202109104533426
812.0, 0.27755994106370785
813.0, 0.2522363078188686
814.0, 0.23145533708393456
815.0, 0.19993517726873045
816.0, 0.18073978955501263
817.0, 0.1648922432139126
818.0, 0.150092272969079
819.0, 0.1395903577992076
820.0, 0.13481181512930177
821.0, 0.13184009546331169
822.0, 0.12762883991905463
823.0, 0.1248495591967094
824.0, 0.12704252563081173
825.0, 0.12843059575261748
826.0, 0.13316666428158427
827.0, 0.14016660741823966
828.0, 0.1467352232582138
829.0, 0.15792298660144702
830.0, 0.17525080676116572
831.0, 0.1895480953641196
832.0, 0.20959043447440964
833.0, 0.22927422699116468
834.0, 0.24994417083805967
835.0, 0.2782461987327935
836.0, 0.31114351018141995
837.0, 0.3468697656693149
838.0, 0.38395114722616813
839.0, 0.42097168075563285
840.0, 0.466248366475016
841.0, 0.5193861644831107
842.0, 0.5717272984186756
843.0, 0.6201012542291272
844.0, 0.6778795404937512
845.0, 0.7389234207239356
846.0, 0.7889270794633184
847.0, 0.8401023941705114
848.0, 0.89135196633571
849.0, 0.9302184159558157
850.0, 0.9605557476251159
851.0, 0.984975013329792
852.0, 0.9988327220572745
853.0, 0.9962280777656098
854.0, 0.9788558320303523
855.0, 0.9612683188290864
856.0, 0.9464058257418081
857.0, 0.9094819490593321
858.0, 0.8733523977389137
859.0, 0.823904348994232
860.0, 0.7797241556649798
861.0, 0.7331764182083915
862.0, 0.6779278416602594
863.0, 0.6204097852101118
864.0, 0.5660409308883735
865.0, 0.5226744403449012
866.0, 0.48067835681169835
867.0, 0.4427119256039286
868.0, 0.4116079548709438
869.0, 0.38935997722865373
870.0, 0.372564547557867
871.0, 0.35293337494239324
872.0, 0.3373565212723871
873.0, 0.32393783123980563
874.0, 0.31434718060877437
875.0, 0.3070969590633486
876.0, 0.300292858455976
877.0, 0.29410467291645126
878.0, 0.28949395810033157
879.0, 0.2852350646976885
880.0, 0.2810987519971256
881.0, 0.2747579704328418
882.0, 0.26405619909275574
883.0, 0.25188278415914633
884.0, 0.23828792261442064
885.0, 0.22194989307068716
886.0, 0.20853318529985676
887.0, 0.18727663228787714
888.0, 0.16977466700097008
889.0, 0.15813285686524906
890.0, 0.1430325671051966
891.0, 0.12739441125817857
892.0, 0.11735981589973185
893.0, 0.10322876647966306
894.0, 0.09566635275153142
895.0, 0.08410053174156477
896.0, 0.07198091823161124
897.0, 0.0656168227057588
898.0, 0.06103218236604005
899.0, 0.0531729779461431
900.0, 0.047121535185308865
901.0, 0.04629053353674217
902.0, 0.03984656582988457
903.0, 0.03340907571531467
904.0, 0.02999812023364406
905.0, 0.02733292674720223
906.0, 0.02349678615967362
907.0, 0.019722394533865588
908.0, 0.01670006803143122
909.0, 0.01436425873197529
910.0, 0.010347373320392629
911.0, 0.008347772907532802
912.0, 0.005439706899853186
913.0, 0.0038870342550476177
914.0, 0.004477310940859431
915.0, 0.0011202738667122074
916.0, 0.0024194682654358453
917.0, 0.0031320241655536487
918.0, 0.0009283118223780979
919.0, 0.0012823949318881696
920.0, 0.0007564068634961947
921.0, 0.002824484544566713
922.0, 0.004635036418591585
923.0, 0.002765960318345578
924.0, 0.002413609310739392
925.0, 0.004416804598187811
926.0, 0.00695256313565781
927.0, 0.00639886146379214
928.0, 0.005785259052780048
929.0, 0.006542683995800031
930.0, 0.005056025786157825
931.0, 0.0059956025845639225
932.0, 0.00437758614443982
933.0, 0.0037688597276461576
934.0, 0.004852072024562913
935.0, 0.004687449753705017
936.0, 0.002636521331388051
937.0, 0.0006385804335321682
938.0, 0.00037120458841446286
939.0, 0.000785944559473663
940.0, 0.002840021388634184
941.0, 0.002597926437777756
942.0, 0.0004492698111135506
943.0, 0.0012385895477801379
944.0, 0.0009636470959708942
945.0, 0.000737510242242755
946.0, 0.0020530524927028374
947.0, 0.0020918079141789107
948.0, 0.00491724834727769
949.0, 0.004005676377451263
950.0, 0.0036453613990019736
951.0, 0.0042546299528168656
952.0, 0.004607353748484545
953.0, 0.005758376430706464
954.0, 0.004529105962417774
955.0, 0.0042401265001780755
956.0, 0.0035393956427986384
957.0, 0.005970506322357963
958.0, 0.007458000754921172
959.0, 0.006202744662489162
960.0, 0.005231715466343551
961.0, 0.006429568638056991
962.0, 0.0052573711961709175
963.0, 0.00858320733319212
964.0, 0.013397458636885039
965.0, 0.012381996840550987
966.0, 0.009656228533301866
967.0, 0.010437429699717558
968.0, 0.012237054282596091
969.0, 0.010876514425671472
970.0, 0.009424470302882598
971.0, 0.01499807914782491
972.0, 0.01239443639642901
973.0, 0.010504116272951187
974.0, 0.013101001851423015
975.0, 0.015733705609923713
976.0, 0.01545693395394638
977.0, 0.014654414637928362
978.0, 0.015650830418463754
979.0, 0.013905248227958225
980.0, 0.01674370486240712
981.0, 0.017243270048680398
982.0, 0.015771530518209464
983.0, 0.014161638213366945
984.0, 0.01246587944219814
985.0, 0.011190878785044482
986.0, 0.011264710616985592
987.0, 0.014094451617075036
988.0, 0.015329406573670287
989.0, 0.011503992914573493
990.0, 0.010611161607686662
991.0, 0.010763575737623701
992.0, 0.010479436336844575
993.0, 0.012024724435765907
994.0, 0.011339959025942585
995.0, 0.012430130893928788
996.0, 0.013377821263427006
997.0, 0.010942923662450983
998.0, 0.011318166002671718
999.0, 0.010918880983301587
1000.0, 0.010287129058861186
1001.0, 0.012693937057484856
1002.0, 0.014116122551758491
1003.0, 0.012439101089469697
1004.0, 0.012150581351011719
1005.0, 0.009000037421004945
1006.0, 0.009535053055894605
1007.0, 0.010307513096656853
1008.0, 0.009648728870388519
1009.0, 0.009292572270985315
1010.0, 0.009203581429984606
1011.0, 0.009266712179179652
1012.0, 0.004564289246007642
1013.0, 0.009722058802194372
1014.0, 0.009718597317806967
1015.0, 0.009948846812702406
1016.0, 0.010285227554443463
1017.0, 0.008072105828956287
1018.0, 0.005850722655816685
1019.0, 0.0070976701435946
1020.0, 0.008989493410200278
1021.0, 0.009584933281777494
1022.0, 0.010503334703962154
1023.0, 0.01283064190388293
1024.0, 0.010388905820059503
1025.0, 0.008808194478702748
1026.0, 0.0081719413029242
1027.0, 0.003974661030348255
1028.0, 0.00870234779604743
1029.0, 0.007004951271568853
1030.0, 0.009735031980320703
1031.0, 0.004733426009222252
1032.0, 0.005182675565326109
1033.0, 0.005416480799404421
1034.0, 0.005343650904411191
1035.0, 0.008053845786968343
1036.0, 0.006749082030277391
1037.0, 0.007266182619914757
1038.0, 0.003739696660106327
1039.0, 0.007697927528508543
1040.0, 0.0069522504458898035
1041.0, 0.005340694851992641
1042.0, 0.004037887745568262
1043.0, 0.003610147287805416
1044.0, 0.004484587630908603
1045.0, 0.004956863206809328
1046.0, 0.008133395396367253
1047.0, 0.006488489290739972
1048.0, 0.0047377476045900235
1049.0, 0.0029903966804074116
1050.0, 0.0039105695772559046
1051.0, 0.004651141624877283
1052.0, 0.004289588270205991
1053.0, 0.005030429280272307
1054.0, 0.005159954500804661
1055.0, 0.0010081179945171106
1056.0, 0.0020605925188017524
1057.0, 0.004401048799935271
1058.0, 0.006220962830364725
1059.0, 0.005103854854442478
1060.0, 0.005154025375830394
1061.0, 0.00436950207430667
1062.0, 0.0006100460926161243
1063.0, 0.0014237965491231412
1064.0, 0.0037487785220564856
1065.0, 0.002030505819238091
1066.0, 0.001434158046416716
1067.0, 0.0027931523413967977
1068.0, 0.0039063219513036955
1069.0, 0.004778562862127639
1070.0, 0.005013237113654929
1071.0, 0.0039367198805996765
1072.0, 0.0026361233941250757
1073.0, 0.0022955765742440058
1074.0, 0.0009223596586925952
1075.0, 0.0015604411692746716
1076.0, 0.004061138253582699
1077.0, 0.0032957006407263486
1078.0, 0.0011507043777768
1079.0, 0.0011237242865034514
1080.0, 0.0024340581040766265
1081.0, 0.002790465771032486
1082.0, 0.0026601033913811177
1083.0, 0.0005039051523393141
1084.0, 0.0011209979321538928
1085.0, 0.0010769283701181959
1086.0, 0.0018034118317840529
1087.0, 0.0022280426993652493
1088.0, 0.000912561366795295
1089.0, 0.0007852955000488971
1090.0, 0.0024346269392192753
1091.0, 0.0010198925324224192
1092.0, 0.00067791793756577
1093.0, 0.007288699397359685
1094.0, 0.006634265041515148
1095.0, 0.0013740884403984975
1096.0, 0.00048608040274392215
1097.0, 0.0007687729902007552
1098.0, 0.0013810177307906968
1099.0, 0.003480118129119265
1100.0, 0.002914192409738795
1101.0, 0.0003493144508710335
1102.0, 0.0005397874020377067
1103.0, 0.0012482889005085167
1104.0, 0.0036650816973767806
1105.0, 0.004615144286666331
1106.0, 0.0013386127179235755
1107.0, 6.429891521482266e-05
1108.0, 0.0018970585116547362
1109.0, 0.0022622066671518
1110.0, 0.0005524232962094689
1111.0, 0.002932612929457713
1112.0, 0.0023179128700206715
1113.0, 0.001909930184779523
1114.0, 0.0035053556346784994
1115.0, 0.0015134591271859876
1116.0, 0.0007493767634545886
1117.0, 0.002217019318658665
1118.0, 0.004394683705823531
1119.0, 0.004722031048696607
1120.0, 0.0007497724213198096
1121.0, 0.0034343221254515255
1122.0, 0.002832299092149709
1123.0, 0.0033771137798774176
1124.0, 0.004083892143770751
1125.0, 0.0014459404305657837
1126.0, 0.0026081143267887887
1127.0, 0.004888252225934855
1128.0, 0.002626209167362092
1129.0, 0.0014219916791035699
1130.0, 0.004478025268485796
1131.0, 0.0021715326514248597
1132.0, 0.00027696680376287474
1133.0, 0.002535047210681781
1134.0, 0.0017166492475168243
1135.0, 0.0038790643533160394
1136.0, 0.0027373857943783202
1137.0, 0.0007155263912795871
1138.0, 0.0007018033003035584
1139.0, 0.0012750595628394125
1140.0, 0.0031968163541965734
1141.0, 0.0016241631232520174
1142.0, 0.0003069747956738268
1143.0, 0.004563012599310757
1144.0, 0.001728826386230231
1145.0, 0.00263772431684212
1146.0, 0.0015436073927240913
1147.0, 0.001328753649749363
1148.0, 5.59113314115087e-05
1149.0, 0.0011722065992476045
1150.0, 0.0014606414533532676
1151.0, 0.00516556955308306
1152.0, 0.0036264667969968154
1153.0, 0.0046247919578823555
1154.0, 0.0018940450589427105
1155.0, 0.0008387429853316322
1156.0, 0.0042317032686154015
1157.0, 0.004323440790040049
1158.0, 0.002891039974990475
1159.0, 0.0034681521664524906
1160.0, 0.0028386929346899663
1161.0, 0.001122816934762087
1162.0, 0.003590253535682311
1163.0, 0.00011505170290255817
1164.0, 0.0026850508639609423
1165.0, 0.0023676747297120076
1166.0, 0.0003500149120917466
1167.0, 0.0003901834091110438
1168.0, 0.0022429897480721064
1169.0, 0.0029096722848559776
1170.0, 0.0025436531620897226
1171.0, 0.002823970476622681
1172.0, 0.0020121682747147847
1173.0, 0.0008455016196564915
1174.0, 9.71955118094298e-05
1175.0, 0.0002964581907307994
1176.0, 0.0033085697699075725
1177.0, 0.0035068658115709386
1178.0, 0.004798021799538641
1179.0, 0.00284023961261047
1180.0, 0.0018593834845556274
1181.0, 0.002768091644916409
1182.0, 0.0003832790469310874
1183.0, 0.0007220183094139329
1184.0, 0.00019212008204423214
1185.0, 0.0018510676215283141
1186.0, 0.0031910464953306145
1187.0, 0.0024572571254323997
1188.0, 0.004430243471359863
1189.0, 0.004756548478024244
1190.0, 0.0062445723807941925
1191.0, 0.007748152542885108
1192.0, 0.005302743502658362
1193.0, 0.0021475700529621803
1194.0, 0.0025568609816846335
1195.0, 0.0015828516585376148
1196.0, 0.0008179631582278808
1197.0, 0.003287526671028185
1198.0, 0.005314124404341282
1199.0, 0.0029042463645187182
1200.0, 0.0023731856508465267
1201.0, 0.004307699631394246
1202.0, 0.004552569167727498
1203.0, 0.0037635981205525982
1204.0, 0.004105397642921091
1205.0, 0.0041856457220713445
1206.0, 0.006027344125322883
1207.0, 0.004771756914474907
1208.0, 0.007248273071814093
1209.0, 0.004137270542400286
1210.0, 0.00393367033197873
1211.0, 0.006013710694017273
1212.0, 0.005327661753425206
1213.0, 0.003166778449025914
1214.0, 0.0032240565746402706
1215.0, 0.005197273985806782
1216.0, 0.00461434827700251
1217.0, 0.0005563774425023292
1218.0, 0.003843825103560168
1219.0, 0.004524962684412032
1220.0, 0.004657011698922271
1221.0, 0.0013366216978153147
1222.0, 0.0031302603220956693
1223.0, 0.001164657393762776
1224.0, 0.0010447337584685752
1225.0, 0.0013218006303663751
1226.0, 0.000798532689112412
1227.0, 0.002259320117684266
1228.0, 0.004090172817011418
1229.0, 0.0055937261053187705
1230.0, 0.003106199873482791
1231.0, 0.0033491043491807254
1232.0, 0.001319378507558113
1233.0, 0.0007859435436835368
1234.0, 0.003748491231298303
1235.0, 0.005511174560240308
1236.0, 0.0055217833596630985
1237.0, 0.005618366729738959
1238.0, 0.0035837417892312763
1239.0, 0.0028580159264985777
1240.0, 0.004685547088253331
1241.0, 0.002990586753936303
1242.0, 0.0012156851355059942
1243.0, 0.0013517050739584664
1244.0, 0.0039842320623025675
1245.0, 0.001758126432124347
1246.0, 0.0033802902920908
1247.0, 0.006051403154493308
1248.0, 0.00411975075911666
1249.0, 0.0029115935170614905
1250.0, 0.004665138665037161
1251.0, 0.005404226855686047
1252.0, 0.00600438298805371
1253.0, 0.007068328407303273
1254.0, 0.005142170554226481
1255.0, 0.005828208210431348
1256.0, 0.0035911834361576672
1257.0, 0.0028692093640466897
1258.0, 0.004973398320367393
1259.0, 0.0051916123098597056
1260.0, 0.007196218132772427
1261.0, 0.00607489593029143
1262.0, 0.004404283515659379
1263.0, 0.0030490181637854792
1264.0, 0.003378666314059963
1265.0, 0.003106362255136549
1266.0, 0.0009315831865131475
1267.0, 0.005240846577799247
1268.0, 0.002487263207895937
1269.0, 0.0028413802365258463
1270.0, 0.0026648031160929303
1271.0, 0.0006625402056874938
1272.0, 0.0026601458259072628
1273.0, 0.004587016876512415
1274.0, 0.002942212150516984
1275.0, 0.0004923986737822684
1276.0, 0.0010111007054656018
1277.0, 0.003397362981186328
1278.0, 0.00230938756758713
1279.0, 0.0005571597487981102
1280.0, 0.001461385670372267
1281.0, 0.003413676141135567
1282.0, 0.005269585393361683
1283.0, 0.0035464514745162062
1284.0, 0.003246026541672834
1285.0, 0.004422327804536502
1286.0, 0.005948846584061737
1287.0, 0.0041723733582235195
1288.0, 0.006755085939084601
1289.0, 0.004682809489710542
1290.0, 0.0007615474879037766
1291.0, 0.0009070719391626577
1292.0, 0.0009787703000059362
1293.0, 0.0015464072321134028
1294.0, 0.0003685005208916355
1295.0, 0.004614840853242431
1296.0, 0.0013955885296882047
1297, 0.0
1298, 0.0
1299, 0.0
1300, 0.0
1301, 0.0
1302, 0.0
1303, 0.0
1304, 0.0
1305, 0.0
1306, 0.0
1307, 0.0
1308, 0.0
1309, 0.0
1310, 0.0
1311, 0.0
1312, 0.0
1313, 0.0
1314, 0.0
1315, 0.0
1316, 0.0
1317, 0.0
1318, 0.0
1319, 0.0
1320, 0.0
1321, 0.0
1322, 0.0
1323, 0.0
1324, 0.0
1325, 0.0
1326, 0.0
1327, 0.0
1328, 0.0
1329, 0.0
1330, 0.0
1331, 0.0
1332, 0.0
1333, 0.0
1334, 0.0
1335, 0.0
1336, 0.0
1337, 0.0
1338, 0.0
1339, 0.0
1340, 0.0
1341, 0.0
1342, 0.0
1343, 0.0
1344, 0.0
1345, 0.0
1346, 0.0
1347, 0.0
1348, 0.0
1349, 0.0
1350, 0.0
1351, 0.0
1352, 0.0
1353, 0.0
1354, 0.0
1355, 0.0
1356, 0.0
1357, 0.0
1358, 0.0
1359, 0.0
1360, 0.0
1361, 0.0
1362, 0.0
1363, 0.0
1364, 0.0
1365, 0.0
1366, 0.0
1367, 0.0
1368, 0.0
1369, 0.0
1370, 0.0
1371, 0.0
1372, 0.0
1373, 0.0
1374, 0.0
1375, 0.0
1376, 0.0
1377, 0.0
1378, 0.0
1379, 0.0
1380, 0.0
1381, 0.0
1382, 0.0
1383, 0.0
1384, 0.0
1385, 0.0
1386, 0.0
1387, 0.0
1388, 0.0
1389, 0.0
1390, 0.0
1391, 0.0
1392, 0.0
1393, 0.0
1394, 0.0
1395, 0.0
1396, 0.0
1397, 0.0
1398, 0.0
1399, 0.0
1400, 0.0
1401, 0.0
1402, 0.0
1403, 0.0
1404, 0.0
1405, 0.0
1406, 0.0
1407, 0.0
1408, 0.0
1409, 0.0
1410, 0.0
1411, 0.0
1412, 0.0
1413, 0.0
1414, 0.0
1415, 0.0
1416, 0.0
1417, 0.0
1418, 0.0
1419, 0.0
1420, 0.0
1421, 0.0
1422, 0.0
1423, 0.0
1424, 0.0
1425, 0.0
1426, 0.0
1427, 0.0
1428, 0.0
1429, 0.0
1430, 0.0
1431, 0.0
1432, 0.0
1433, 0.0
1434, 0.0
1435, 0.0
1436, 0.0
1437, 0.0
1438, 0.0
1439, 0.0
1440, 0.0
1441, 0.0
1442, 0.0
1443, 0.0
1444, 0.0
1445, 0.0
1446, 0.0
1447, 0.0
1448, 0.0
1449, 0.0
1450, 0.0
1451, 0.0
1452, 0.0
1453, 0.0
1454, 0.0
1455, 0.0
1456, 0.0
1457, 0.0
1458, 0.0
1459, 0.0
1460, 0.0
1461, 0.0
1462, 0.0
1463, 0.0
1464, 0.0
1465, 0.0
1466, 0.0
1467, 0.0
1468, 0.0
1469, 0.0
1470, 0.0
1471, 0.0
1472, 0.0
1473, 0.0
1474, 0.0
1475, 0.0
1476, 0.0
1477, 0.0
1478, 0.0
1479, 0.0
1480, 0.0
1481, 0.0
1482, 0.0
1483, 0.0
1484, 0.0
1485, 0.0
1486, 0.0
1487, 0.0
1488, 0.0
1489, 0.0
1490, 0.0
1491, 0.0
1492, 0.0
1493, 0.0
1494, 0.0
1495, 0.0
1496, 0.0
1497, 0.0
1498, 0.0
1499, 0.0
1500, 0.0
1501, 0.0
1502, 0.0
1503, 0.0
1504, 0.0
1505, 0.0
1506, 0.0
1507, 0.0
1508, 0.0
1509, 0.0
1510, 0.0
1511, 0.0
1512, 0.0
1513, 0.0
1514, 0.0
1515, 0.0
1516, 0.0
1517, 0.0
1518, 0.0
1519, 0.0
1520, 0.0
1521, 0.0
1522, 0.0
1523, 0.0
1524, 0.0
1525, 0.0
1526, 0.0
1527, 0.0
1528, 0.0
1529, 0.0
1530, 0.0
1531, 0.0
1532, 0.0
1533, 0.0
1534, 0.0
1535, 0.0
1536, 0.0
1537, 0.0
1538, 0.0
1539, 0.0
1540, 0.0
1541, 0.0
1542, 0.0
1543, 0.0
1544, 0.0
1545, 0.0
1546, 0.0
1547, 0.0
1548, 0.0
1549, 0.0
1550, 0.0
1551, 0.0
1552, 0.0
1553, 0.0
1554, 0.0
1555, 0.0
1556, 0.0
1557, 0.0
1558, 0.0
1559, 0.0
1560, 0.0
1561, 0.0
1562, 0.0
1563, 0.0
1564, 0.0
1565, 0.0
1566, 0.0
1567, 0.0
1568, 0.0
1569, 0.0
1570, 0.0
1571, 0.0
1572, 0.0
1573, 0.0
1574, 0.0
1575, 0.0
1576, 0.0
1577, 0.0
1578, 0.0
1579, 0.0
1580, 0.0
1581, 0.0
1582, 0.0
1583, 0.0
1584, 0.0
1585, 0.0
1586, 0.0
1587, 0.0
1588, 0.0
1589, 0.0
1590, 0.0
1591, 0.0
1592, 0.0
1593, 0.0
1594, 0.0
1595, 0.0
1596, 0.0
1597, 0.0
1598, 0.0
1599, 0.0
