30, 0.0
31, 0.0
32, 0.0
33, 0.0
34, 0.0
35, 0.0
36, 0.0
37, 0.0
38, 0.0
39, 0.0
40, 0.0
41, 0.0
42, 0.0
43, 0.0
44, 0.0
45, 0.0
46, 0.0
47, 0.0
48, 0.0
49, 0.0
50, 0.0
51, 0.0
52, 0.0
53, 0.0
54, 0.0
55, 0.0
56, 0.0
57, 0.0
58, 0.0
59, 0.0
60, 0.0
61, 0.0
62, 0.0
63, 0.0
64, 0.0
65, 0.0
66, 0.0
67, 0.0
68, 0.0
69, 0.0
70, 0.0
71, 0.0
72, 0.0
73, 0.0
74, 0.0
75, 0.0
76, 0.0
77, 0.0
78, 0.0
79, 0.0
80, 0.0
81, 0.0
82, 0.0
83, 0.0
84, 0.0
85, 0.0
86, 0.0
87, 0.0
88, 0.0
89, 0.0
90, 0.0
91, 0.0
92, 0.0
93, 0.0
94, 0.0
95, 0.0
96, 0.0
97, 0.0
98, 0.0
99, 0.0
100, 0.0
101, 0.0
102, 0.0
103, 0.0
104, 0.0
105, 0.0
106, 0.0
107, 0.0
108, 0.0
109, 0.0
110, 0.0
111, 0.0
112, 0.0
113, 0.0
114, 0.0
115, 0.0
116, 0.0
117, 0.0
118, 0.0
119, 0.0
120, 0.0
121, 0.0
122, 0.0
123, 0.0
124, 0.0
125, 0.0
126.0, 7.344468461427007e-05
127.0, 0.0018515889638507084
128.0, 0.005064957358548742
129.0, 0.0082993470081902
130.0, 0.008461975390109778
131.0, 0.010572549615406398
132.0, 0.008995987162756732
133.0, 0.0071516337145792214
134.0, 0.003030900940653174
135.0, 0.0005100051769082608
136.0, 0.0015127690525898378
137.0, 0.000969722445969221
138.0, 0.0004342947680219046
139.0, 0.0036890690933260796
140.0, 0.008500234281888243
141.0, 0.011983391918710338
142.0, 0.015109913333564083
143.0, 0.020808647562213886
144.0, 0.02822992768936235
145.0, 0.03534434735663369
146.0, 0.040721306431033354
147.0, 0.043542591312681414
148.0, 0.04417165590805467
149.0, 0.04659038556565075
150.0, 0.047649196393445524
151.0, 0.0441838631719606
152.0, 0.04235293245874635
153.0, 0.03948914460769746
154.0, 0.037656971646140465
155.0, 0.03748519947214621
156.0, 0.03542854009660482
157.0, 0.03365622977293926
158.0, 0.03332324268109726
159.0, 0.03376315267591721
160.0, 0.033533041156014166
161.0, 0.03464385715433378
162.0, 0.036789748771352354
163.0, 0.03882970076263936
164.0, 0.04022898622450496
165.0, 0.04180582346070844
166.0, 0.04319839516133277
167.0, 0.044407725878258884
168.0, 0.04543815510435009
169.0, 0.04627579750699661
170.0, 0.04723642832344571
171.0, 0.04524443783471856
172.0, 0.04476241121466009
173.0, 0.04641145787853262
174.0, 0.043142248581516135
175.0, 0.04626415402984647
176.0, 0.047406290978020724
177.0, 0.04396623031533428
178.0, 0.04078340425197716
179.0, 0.04180711798506859
180.0, 0.0434511172643776
181.0, 0.04106527432434893
182.0, 0.03685973839335128
183.0, 0.0395489448629974
184.0, 0.041427446283180534
185.0, 0.0396307420245899
186.0, 0.03841220214151766
187.0, 0.041391507141527666
188.0, 0.04151386255214085
189.0, 0.03970752453082205
190.0, 0.037794310450225445
191.0, 0.036577211123918714
192.0, 0.03589607041300112
193.0, 0.036121581344086294
194.0, 0.03573880252280709
195.0, 0.034918100462444104
196.0, 0.03477790925085244
197.0, 0.03878465798016706
198.0, 0.04108286693956228
199.0, 0.040224734287997645
200.0, 0.03958810945029915
201.0, 0.03952785586333906
202.0, 0.03820657415560882
203.0, 0.037920494144516224
204.0, 0.03711371660278315
205.0, 0.03829720077349889
206.0, 0.037405255518387234
207.0, 0.037609297442009255
208.0, 0.036965648238757386
209.0, 0.03708165521304945
210.0, 0.03826625642508216
211.0, 0.038715307506034226
212.0, 0.04005758600169745
213.0, 0.042339158307569076
214.0, 0.044739844274369556
215.0, 0.046479299832607575
216.0, 0.04804233891600729
217.0, 0.04702718425229623
218.0, 0.04696113898345271
219.0, 0.05024402090259954
220.0, 0.05374739909137714
221.0, 0.05428888318522393
222.0, 0.05547222703101317
223.0, 0.05711917800068851
224.0, 0.056637377615041014
225.0, 0.054189496039203436
226.0, 0.056179913939775075
227.0, 0.057762974069324347
228.0, 0.055635340117755616
229.0, 0.05396224469712009
230.0, 0.058577729926499816
231.0, 0.060799330617804424
232.0, 0.05923898112432521
233.0, 0.05809332026914344
234.0, 0.059768489311428356
235.0, 0.06318342467629025
236.0, 0.06174127814316484
237.0, 0.05800706393143497
238.0, 0.058413610345056335
239.0, 0.06392178070439429
240.0, 0.06524992400718116
241.0, 0.06707720353653257
242.0, 0.06898226137754303
243.0, 0.06641864296818972
244.0, 0.0646903942918258
245.0, 0.06829436701144541
246.0, 0.06870908431623844
247.0, 0.06464105227479047
248.0, 0.06578735786083872
249.0, 0.06160486502548059
250.0, 0.061897548906533546
251.0, 0.06469094437137489
252.0, 0.063898183909109
253.0, 0.058043575597942335
254.0, 0.05526918997135595
255.0, 0.057387204285738576
256.0, 0.06041976670783858
257.0, 0.058858462288050466
258.0, 0.05420737889629379
259.0, 0.05201678890318013
260.0, 0.05186625247459217
261.0, 0.05084455364144652
262.0, 0.04748494797936972
263.0, 0.046759255279809356
264.0, 0.045016520382248654
265.0, 0.043631102083272685
266.0, 0.04202772167933287
267.0, 0.03669095115222316
268.0, 0.03328365152086998
269.0, 0.031419705008518733
270.0, 0.03009936664006253
271.0, 0.028591448492200303
272.0, 0.02692350057460541
273.0, 0.026346658728937575
274.0, 0.022087965995992977
275.0, 0.019627508359537416
276.0, 0.0215705092993991
277.0, 0.019419831172474273
278.0, 0.014190591146181474
279.0, 0.013203402257031949
280.0, 0.01431882439884722
281.0, 0.013264138167277128
282.0, 0.009920163052422768
283.0, 0.010793797862991335
284.0, 0.00803102025183547
285.0, 0.007511373131253869
286.0, 0.013318191358950461
287.0, 0.007300289598711805
288.0, 0.004368734738516713
289.0, 0.0017811019197895841
290.0, 5.4238299253829065e-05
291.0, 0.0018864279507137904
292.0, 0.0007769322545609118
293.0, 8.306059485108657e-05
294.0, 0.0018381190812444717
295.0, 0.006364485933384072
296.0, 0.007331822593703556
297.0, 0.007441506755694396
298.0, 0.009256147480824534
299.0, 0.008014053392164447
300.0, 0.0053535487775950765
301.0, 0.006387931189017655
302.0, 0.0033122037821147208
303.0, 0.0006836461535879984
304.0, 9.242079386162765e-05
305.0, 0.00016545284447233268
306.0, 0.0007385885787624333
307.0, 0.0011347876544246746
308.0, 0.006039733604573429
309.0, 0.008191486531800065
310.0, 0.00686974632969723
311.0, 0.007402820041333154
312.0, 0.0073414741799512654
313.0, 0.009138756520247746
314.0, 0.009586097855495773
315.0, 0.007607086575300105
316.0, 0.007175578864397294
317.0, 0.015889539818041358
318.0, 0.014435502324887517
319.0, 0.012585321742618146
320.0, 0.014498904977726457
321.0, 0.015549882459795663
322.0, 0.017420338140606756
323.0, 0.017087091340491325
324.0, 0.016299616229986977
325.0, 0.016948240527986488
326.0, 0.018312737721152307
327.0, 0.014283743323438538
328.0, 0.01309445678489201
329.0, 0.012670400785418135
330.0, 0.012900446407468121
331.0, 0.015469334636142163
332.0, 0.01338696581088033
333.0, 0.011106792879336523
334.0, 0.012241907003412813
335.0, 0.015388111853802297
336.0, 0.016028322131467727
337.0, 0.015114732785724462
338.0, 0.015815315790682242
339.0, 0.017649141425866294
340.0, 0.018343397951255346
341.0, 0.01806194191717616
342.0, 0.021283983155115888
343.0, 0.024878960994378037
344.0, 0.028016357778542045
345.0, 0.03181759708067205
346.0, 0.036557477529591396
347.0, 0.03980178845978998
348.0, 0.04450727624976236
349.0, 0.047506157974849625
350.0, 0.0518366998002838
351.0, 0.05880612582514881
352.0, 0.06205916683788622
353.0, 0.06992097767203916
354.0, 0.07651545083602568
355.0, 0.08115333766112642
356.0, 0.08647500285836565
357.0, 0.09395224210321722
358.0, 0.10498649231480765
359.0, 0.11294596228352344
360.0, 0.11655749333824478
361.0, 0.12013942967646739
362.0, 0.12759427822921585
363.0, 0.13653221380274994
364.0, 0.14153020914280415
365.0, 0.14249017899207597
366.0, 0.14023730863925532
367.0, 0.13752220769238363
368.0, 0.14286488405924794
369.0, 0.1403015640896075
370.0, 0.13474122999706484
371.0, 0.1273681083925117
372.0, 0.11845196627007815
373.0, 0.11630114580197291
374.0, 0.11580494087631636
375.0, 0.1095295853645372
376.0, 0.10095823661276093
377.0, 0.09702261327259022
378.0, 0.099470616286789
379.0, 0.09651315643618018
380.0, 0.09371873882541601
381.0, 0.09130946112495465
382.0, 0.08946569559548001
383.0, 0.08927426238974662
384.0, 0.0870680764582897
385.0, 0.09254945485441235
386.0, 0.0928167083607379
387.0, 0.09584893963213101
388.0, 0.09894867279630419
389.0, 0.10088482190655651
390.0, 0.10354265480330348
391.0, 0.10505154033144576
392.0, 0.107745806405231
393.0, 0.10861720450444506
394.0, 0.11080359038634273
395.0, 0.11296988512093373
396.0, 0.11299675651505214
397.0, 0.11679689125129268
398.0, 0.11849853408052066
399.0, 0.11817327866867952
400.0, 0.12032684679682137
401.0, 0.12351741015671591
402.0, 0.12749893295639034
403.0, 0.12992420612574632
404.0, 0.12904714976469006
405.0, 0.13150667990809042
406.0, 0.13285286516138506
407.0, 0.1348893196856136
408.0, 0.13478414929473928
409.0, 0.13188509066354856
410.0, 0.1309036979045161
411.0, 0.12952498737223278
412.0, 0.11913556778449577
413.0, 0.11057482197900685
414.0, 0.10698102550816009
415.0, 0.10112901629371907
416.0, 0.08965242541010411
417.0, 0.0836500034541371
418.0, 0.07766273517094427
419.0, 0.07301016273275637
420.0, 0.06919274335152759
421.0, 0.05697366603359464
422.0, 0.05117488085739183
423.0, 0.0468708141404402
424.0, 0.03884658336110045
425.0, 0.03214652765633252
426.0, 0.030765520903058906
427.0, 0.02466846534817067
428.0, 0.021133835196537762
429.0, 0.01791957654680084
430.0, 0.017610387889098005
431.0, 0.01691214240498365
432.0, 0.0060438053360684285
433.0, 0.008950447964206885
434.0, 0.006023050412287283
435.0, 0.0018158554257849092
436.0, 0.0012274762972151714
437.0, 0.0007835567844614882
438.0, 0.0032118602682607443
439.0, 0.006248083353560603
440.0, 0.004446059416229069
441.0, 0.0038446905304638348
442.0, 0.006509376426978564
443.0, 0.006601832760557246
444.0, 0.0025241401963601593
445.0, 0.0006896934232492166
446.0, 0.0007040028392919213
447.0, 0.001300031419084894
448.0, 0.004695090929259992
449.0, 0.0035937637617444707
450.0, 0.004321388102996577
451.0, 0.0071718259161655095
452.0, 0.011194247505824154
453.0, 0.014214417631002287
454.0, 0.01472224465219502
455.0, 0.015613292211492739
456.0, 0.018068392281968607
457.0, 0.015846582252521654
458.0, 0.014984406558081928
459.0, 0.018454226276227694
460.0, 0.019533300742086798
461.0, 0.021324208517442256
462.0, 0.021147991486973983
463.0, 0.019259892925549357
464.0, 0.019614823408329023
465.0, 0.022521292942448867
466.0, 0.021336036719726947
467.0, 0.02037477805307435
468.0, 0.019646446031106095
469.0, 0.017741310670537077
470.0, 0.01525239302748795
471.0, 0.01418035378064269
472.0, 0.01568940785620037
473.0, 0.011229022573586968
474.0, 0.013190374131741466
475.0, 0.014737286095354334
476.0, 0.011975437605191305
477.0, 0.012645314106814179
478.0, 0.010403010927383608
479.0, 0.011427167146971146
480.0, 0.013054452280828093
481.0, 0.013487670301093957
482.0, 0.013999035740464388
483.0, 0.014996333157657488
484.0, 0.009469476458366249
485.0, 0.009987993108784609
486.0, 0.012956815624189107
487.0, 0.013219814825790644
488.0, 0.012463277915321013
489.0, 0.015743555131627195
490.0, 0.012309256182159061
491.0, 0.009991520537802367
492.0, 0.008887840219257814
493.0, 0.006830292462606347
494.0, 0.005126564326587751
495.0, 0.006414792853359859
496.0, 0.007079715674200646
497.0, 0.005463803163150668
498.0, 0.0015549495547734717
499.0, 0.0008202880176885809
500.0, 0.0011526670608329322
501.0, 0.003130169458497441
502.0, 0.002107757347528843
503.0, 0.0039554550256515695
504.0, 0.001142945612220923
505.0, 0.0025631471581159864
506.0, 0.00011098440582766233
507.0, 0.0029749288062370155
508.0, 0.006608453593607987
509.0, 0.005676198476716537
510.0, 0.007504442688965004
511.0, 0.009446925542445073
512.0, 0.005139870097636504
513.0, 0.006814437949320778
514.0, 0.005192333675532705
515.0, 0.008040567630288499
516.0, 0.0071190981672562825
517.0, 0.0038241611074348297
518.0, 0.008950851697585194
519.0, 0.008803257616536879
520.0, 0.010336371105037316
521.0, 0.008271594221104269
522.0, 0.0063634995250168155
523.0, 0.006606469600163893
524.0, 0.007138358259310916
525.0, 0.010159603803973977
526.0, 0.011863300641354317
527.0, 0.01118680024421316
528.0, 0.009115517748162839
529.0, 0.009821716631523683
530.0, 0.014676335726167907
531.0, 0.016130122998192862
532.0, 0.018485468682590156
533.0, 0.01974764376994832
534.0, 0.02018899908744373
535.0, 0.02079127642389867
536.0, 0.023084311244158592
537.0, 0.030726235065174728
538.0, 0.03272098972458787
539.0, 0.03270711500666389
540.0, 0.035011911289900374
541.0, 0.03938626906959011
542.0, 0.04140734488487853
543.0, 0.040052011189178574
544.0, 0.04455638157060825
545.0, 0.04977044721220341
546.0, 0.0522898499514672
547.0, 0.053407001517387385
548.0, 0.05487414468391092
549.0, 0.05668047882645399
550.0, 0.06217745633588
551.0, 0.06478656067463144
552.0, 0.06563856941725439
553.0, 0.0652488046420515
554.0, 0.06384496361709362
555.0, 0.06456727000147958
556.0, 0.06685128906502007
557.0, 0.06901945123559733
558.0, 0.06816588923828695
559.0, 0.06559327809254992
560.0, 0.062328771237848
561.0, 0.057561094107678616
562.0, 0.05460101949062577
563.0, 0.054124937347155753
564.0, 0.05591163061228631
565.0, 0.053234801971901335
566.0, 0.04752382773574664
567.0, 0.04634326156117068
568.0, 0.04268063885548276
569.0, 0.036551069237821796
570.0, 0.034426618989967496
571.0, 0.035208697954832655
572.0, 0.03419602183761954
573.0, 0.030729054213639334
574.0, 0.029281657907741006
575.0, 0.02471855199036953
576.0, 0.021804629752180622
577.0, 0.022379742196341975
578.0, 0.022025688040449073
579.0, 0.02091927321223749
580.0, 0.023842223638168854
581.0, 0.02269291723944891
582.0, 0.01734718937245539
583.0, 0.01563649142336276
584.0, 0.017033758671893506
585.0, 0.01774716321496008
586.0, 0.01544041532659923
587.0, 0.011463121204160645
588.0, 0.014135531639754508
589.0, 0.011435324966429372
590.0, 0.01284755515384911
591.0, 0.013485317030610327
592.0, 0.010560560375229306
593.0, 0.010113760313889856
594.0, 0.009388636249099181
595.0, 0.010050675409002667
596.0, 0.012012991908720466
597.0, 0.009985076790346072
598.0, 0.00719289166655644
599.0, 0.008025277563066336
600.0, 0.007662019084109966
601.0, 0.005001627076121005
602.0, 0.006499661031302189
603.0, 0.007067429394307149
604.0, 0.007229872394546356
605.0, 0.006208218819502863
606.0, 0.003519609588955797
607.0, 0.006566807228288996
608.0, 0.00516644072009782
609.0, 0.0032751668196271287
610.0, 0.0007903224825987159
611.0, 0.0015050587084879808
612.0, 0.0032404991830563877
613.0, 0.00037293362407216795
614.0, 0.0036958947113645744
615.0, 0.0013913932638805677
616.0, 0.0007164336410919779
617.0, 0.000567564159207027
618.0, 0.0025264698382309932
619.0, 0.000462941175749547
620.0, 0.0002992935658433559
621.0, 0.0012795725850905345
622.0, 0.0006592173186567547
623.0, 0.0009164232773906331
624.0, 0.0010804943499539744
625.0, 0.0010940031387664255
626.0, 0.0010302262130662998
627.0, 0.001147059318382292
628.0, 0.0009421102010438757
629.0, 6.021755617056457e-05
630.0, 0.0007243224415107316
631.0, 0.0005988495245713731
632.0, 0.0013755361670396557
633.0, 0.0019315843414062163
634.0, 0.002211800615080179
635.0, 0.0016259203482510887
636.0, 0.0009258269131734796
637.0, 5.08630773687337e-05
638.0, 0.00025882989520000123
639.0, 0.0002515643497773592
640.0, 0.0017700029376823846
641.0, 0.00432929493017549
642.0, 0.003573133581877105
643.0, 0.004798380100008645
644.0, 0.003544269711230612
645.0, 0.000612171668598087
646.0, 0.00024390138138893607
647.0, 0.0016987432463962567
648.0, 0.0008185246763007162
649.0, 0.003667079462799262
650.0, 0.004515106110531492
651.0, 0.0028109569548167603
652.0, 0.0022771088875553317
653.0, 0.0036123785483579904
654.0, 0.005041628128992866
655.0, 0.009421406301744378
656.0, 0.005126939368569738
657.0, 0.004057845383178138
658.0, 0.004604687517232734
659.0, 0.005233760308821919
660.0, 0.006749364286428843
661.0, 0.006248389794040159
662.0, 0.0055966246883435555
663.0, 0.007899257431356256
664.0, 0.008046302523395377
665.0, 0.006650669908768564
666.0, 0.006492613677553596
667.0, 0.0073676571512254355
668.0, 0.00732398666006483
669.0, 0.003837993024016018
670.0, 0.009187991260120857
671.0, 0.009668522087048992
672.0, 0.008818391882805707
673.0, 0.008468415311277816
674.0, 0.008557539121625731
675.0, 0.011773780415715676
676.0, 0.015341685070666775
677.0, 0.015502333421037367
678.0, 0.016484447256247144
679.0, 0.018251550741771382
680.0, 0.018374161177610118
681.0, 0.01722595057488535
682.0, 0.017307635649082755
683.0, 0.017037281199759866
684.0, 0.018129128484011804
685.0, 0.0184159286169526
686.0, 0.0163127756766781
687.0, 0.017747744620627257
688.0, 0.020669570820241293
689.0, 0.020462407982365594
690.0, 0.02144151595355219
691.0, 0.021481828836288436
692.0, 0.01936937665529339
693.0, 0.01671910771382574
694.0, 0.01583303652007765
695.0, 0.01729380697182949
696.0, 0.01849210301035124
697.0, 0.01651941149540693
698.0, 0.015229712182592926
699.0, 0.016129154788725494
700.0, 0.015598987036344854
701.0, 0.013292261110860567
702.0, 0.012559496599166548
703.0, 0.012878146320799918
704.0, 0.011909305167333508
705.0, 0.014703219494218671
706.0, 0.01369040582121158
707.0, 0.013297329443162857
708.0, 0.01561309139305664
709.0, 0.013748788322416414
710.0, 0.008865889364419913
711.0, 0.008100252869124858
712.0, 0.010277322703363772
713.0, 0.010970726147181918
714.0, 0.00944055177085679
715.0, 0.009710749189859738
716.0, 0.00885662070921837
717.0, 0.00904135873533123
718.0, 0.009990501765427493
719.0, 0.008719653477027522
720.0, 0.007942839515717252
721.0, 0.005258623113023249
722.0, 0.005968551085160873
723.0, 0.004381813493720301
724.0, 0.001819457347830316
725.0, 0.0017944653511378678
726.0, 0.002463236559088793
727.0, 0.0009324444665441041
728.0, 0.0014096510454575716
729.0, 0.0028954154847596783
730.0, 0.0016716437535889092
731.0, 0.0012846308502990522
732.0, 0.001590479933167256
733.0, 0.0031092169645316747
734.0, 0.006280158880702494
735.0, 0.006854752273074606
736.0, 0.005783289002795754
737.0, 0.006043390592596951
738.0, 0.005786822153930972
739.0, 0.00473207713856958
740.0, 0.0033004871347570826
741.0, 0.00334791882858735
742.0, 0.0051059274042530725
743.0, 0.0058221633009813084
744.0, 0.005590136656429559
745.0, 0.002428783248225956
746.0, 0.002427328272952861
747.0, 0.00430639227866935
748.0, 0.0012304440488062147
749.0, 0.004508381726761259
750.0, 0.0015709382356146287
751.0, 0.0038108341808788383
752.0, 0.007161352454023732
753.0, 0.00897038506662693
754.0, 0.009466757124105083
755.0, 0.011049300882602002
756.0, 0.014216170299577443
757.0, 0.017738786479238256
758.0, 0.0213617350388287
759.0, 0.025352031783377346
760.0, 0.028057490810680916
761.0, 0.027025947408392103
762.0, 0.025262042996032803
763.0, 0.027883490712305524
764.0, 0.03138873422276821
765.0, 0.03318796784255939
766.0, 0.03592555370437974
767.0, 0.03878494505243986
768.0, 0.03816143715617099
769.0, 0.04107358074823928
770.0, 0.04215864206506687
771.0, 0.041682899859923246
772.0, 0.04422073219017103
773.0, 0.04687683811838114
774.0, 0.0458376486978741
775.0, 0.04540132994430484
776.0, 0.04489185757789207
777.0, 0.04477856309138887
778.0, 0.04053235159160485
779.0, 0.037680704407894484
780.0, 0.03404335720048727
781.0, 0.030586954316131364
782.0, 0.028819527526033794
783.0, 0.023545274637149873
784.0, 0.02055175127417753
785.0, 0.0178205289878861
786.0, 0.0162458047402055
787.0, 0.01317212887238769
788.0, 0.012197795150024497
789.0, 0.012549123086700384
790.0, 0.013460210007593936
791.0, 0.014346762953717585
792.0, 0.01173233327953619
793.0, 0.014671230827769216
794.0, 0.01356420232693727
795.0, 0.016939941392256092
796.0, 0.020691820797980556
797.0, 0.024615196283631492
798.0, 0.028661797853807087
799.0, 0.03407289670581865
800.0, 0.04300614086736773
801.0, 0.04467595567611634
802.0, 0.04691686498396968
803.0, 0.05084586644759404
804.0, 0.05185290221518072
805.0, 0.05749267987208699
806.0, 0.06219226929475719
807.0, 0.06331006047161433
808.0, 0.06799149756796076
809.0, 0.07131474399210916
810.0, 0.07650139486705682
811.0, 0.08446514953375628
812.0, 0.09164172163079096
813.0, 0.09639472737244775
814.0, 0.10485491149923845
815.0, 0.11345131427717416
816.0, 0.1194289376953287
817.0, 0.1272730137066192
818.0, 0.13645870178843364
819.0, 0.1479549127633082
820.0, 0.1606188402332683
821.0, 0.18099375852544597
822.0, 0.2032748977400925
823.0, 0.22296969331567693
824.0, 0.24575344071552144
825.0, 0.27414763012898663
826.0, 0.30472687245303337
827.0, 0.3434200880579934
828.0, 0.3831774498815607
829.0, 0.4269240660582459
830.0, 0.47907692513055833
831.0, 0.5327381519438944
832.0, 0.5917636268264892
833.0, 0.6469431717085228
834.0, 0.7031432626963225
835.0, 0.7713591645129447
836.0, 0.829514953601602
837.0, 0.8917192632295438
838.0, 0.9378231720894616
839.0, 0.9704665629911454
840.0, 0.9913675897806188
841.0, 0.9996137197237546
842.0, 0.9875671295625893
843.0, 0.9535239803909117
844.0, 0.9090652405317553
845.0, 0.8675751198556618
846.0, 0.8071218733844526
847.0, 0.7523114957215484
848.0, 0.6918908932631284
849.0, 0.6367578821061273
850.0, 0.589037674026482
851.0, 0.5465449845121616
852.0, 0.5089857425322405
853.0, 0.4740403063141438
854.0, 0.4421954200333173
855.0, 0.42498257258482
856.0, 0.4146213213999743
857.0, 0.40180094189064547
858.0, 0.3964611905251911
859.0, 0.3903048414266911
860.0, 0.3886920175301433
861.0, 0.39388985735589993
862.0, 0.4006705621638034
863.0, 0.4098123670708211
864.0, 0.4126113664514787
865.0, 0.4155515309606659
866.0, 0.41604552365471703
867.0, 0.4047273923104383
868.0, 0.39544436956092366
869.0, 0.38415574831168525
870.0, 0.36795624439720204
871.0, 0.34598650167747846
872.0, 0.3176048756151304
873.0, 0.29033844261595737
874.0, 0.2719209965939215
875.0, 0.2479869642213329
876.0, 0.22216843787628143
877.0, 0.21015343516731946
878.0, 0.19579889967974784
879.0, 0.18084442116658972
880.0, 0.1703521840263048
881.0, 0.15886054287217918
882.0, 0.14779659999645514
883.0, 0.14316329013098894
884.0, 0.13993724919276937
885.0, 0.12730670224521212
886.0, 0.12486471864252265
887.0, 0.12121760684403463
888.0, 0.11695117981058865
889.0, 0.11465220165228239
890.0, 0.10784043254367033
891.0, 0.10014527276663075
892.0, 0.09928474790110295
893.0, 0.09188767247356076
894.0, 0.08715025566448335
895.0, 0.08383326261389885
896.0, 0.08195616168520256
897.0, 0.07770159935841073
898.0, 0.07411008938138337
899.0, 0.06671417015322145
900.0, 0.06135671093975629
901.0, 0.05775668513021972
902.0, 0.049960803892269576
903.0, 0.046354040377015855
904.0, 0.041698663366022924
905.0, 0.03385084154539142
906.0, 0.03137624545082844
907.0, 0.02384780200229917
908.0, 0.018914976070244584
909.0, 0.013994704959255711
910.0, 0.010626134104001431
911.0, 0.007442939859167811
912.0, 0.001550559312547882
913.0, 0.0006455354731249529
914.0, 0.0026009210450270008
915.0, 0.0025478288016992662
916.0, 0.003513982364919788
917.0, 0.0044881290463707185
918.0, 0.007526129204719274
919.0, 0.008655717963664338
920.0, 0.008045876922284485
921.0, 0.006889704552381639
922.0, 0.007496805012155617
923.0, 0.009261817137172558
924.0, 0.0072804312521852635
925.0, 0.005584509162614962
926.0, 0.005244098094412631
927.0, 0.006379808191226391
928.0, 0.005310688649000984
929.0, 0.0030228495473751636
930.0, 0.0022318050497080544
931.0, 0.0017553637296650257
932.0, 0.0008272745541723882
933.0, 0.0007688364656769522
934.0, 0.001523223154200263
935.0, 0.001202319161310784
936.0, 0.001092241611321385
937.0, 0.0036252485423981812
938.0, 0.002938916694307757
939.0, 0.0020761898179325437
940.0, 0.0026841262248065672
941.0, 0.004840865052192594
942.0, 0.005356353874711002
943.0, 0.004534368474593924
944.0, 0.005541740619034175
945.0, 0.006805258441620925
946.0, 0.006619929718184886
947.0, 0.007035576414308311
948.0, 0.009726065027720266
949.0, 0.008061437777751743
950.0, 0.00834418346194821
951.0, 0.00908241861494662
952.0, 0.008988967873222212
953.0, 0.01041451716425928
954.0, 0.011048461055855465
955.0, 0.009074719187943189
956.0, 0.007979202193692029
957.0, 0.00999253034837999
958.0, 0.011749648901253847
959.0, 0.011739617059028588
960.0, 0.016025858325466668
961.0, 0.010346830095537888
962.0, 0.011477234374021896
963.0, 0.014734263904021615
964.0, 0.013428567625179086
965.0, 0.013811212959384542
966.0, 0.015355086470872832
967.0, 0.014516698862728916
968.0, 0.014896771308760937
969.0, 0.017521369565255653
970.0, 0.01601254224490537
971.0, 0.016028998802882197
972.0, 0.017903829083255215
973.0, 0.017751923885889684
974.0, 0.014203366624589125
975.0, 0.015112689868928827
976.0, 0.01634450768362189
977.0, 0.01603873733723539
978.0, 0.01638988708674649
979.0, 0.01768614880242658
980.0, 0.018171840854519783
981.0, 0.016312405317182945
982.0, 0.01514487326834308
983.0, 0.015958784316589463
984.0, 0.015416472304370127
985.0, 0.013252360926056313
986.0, 0.014690458311805172
987.0, 0.014345223105362565
988.0, 0.01285910040921003
989.0, 0.01429707267910831
990.0, 0.014274395766867558
991.0, 0.012286480686553167
992.0, 0.012518204581448814
993.0, 0.01205155175032015
994.0, 0.011862940457088833
995.0, 0.014683811543609399
996.0, 0.015419874282899324
997.0, 0.01586715934944507
998.0, 0.014030575357074207
999.0, 0.014518013493751451
1000.0, 0.014580731456115974
1001.0, 0.0134113933802386
1002.0, 0.01422904888202354
1003.0, 0.016465065690213453
1004.0, 0.018181985221880678
1005.0, 0.018036943453047058
1006.0, 0.015878160253746505
1007.0, 0.017586290842165453
1008.0, 0.016018483154271013
1009.0, 0.016627188212937776
1010.0, 0.016550538765526736
1011.0, 0.01591583705119829
1012.0, 0.018405730213767874
1013.0, 0.021515851501840204
1014.0, 0.018154688890658223
1015.0, 0.01765530306717948
1016.0, 0.019806149592854812
1017.0, 0.019432059315915146
1018.0, 0.02165382030837778
1019.0, 0.023256558297866412
1020.0, 0.019885457005659354
1021.0, 0.01940904245270671
1022.0, 0.017614426099586963
1023.0, 0.02354028644373833
1024.0, 0.0257901542723662
1025.0, 0.019078210410801818
1026.0, 0.017899563175621983
1027.0, 0.01781447902281104
1028.0, 0.018100043530763252
1029.0, 0.02084849773894802
1030.0, 0.02167779960728364
1031.0, 0.021235231058657097
1032.0, 0.02298153299693413
1033.0, 0.021771177780497607
1034.0, 0.019423064400810732
1035.0, 0.0206569278604848
1036.0, 0.019130633642639512
1037.0, 0.015317866258431253
1038.0, 0.018282910712330645
1039.0, 0.02018118041609152
1040.0, 0.019327485211368723
1041.0, 0.022097533429433044
1042.0, 0.02337867960145066
1043.0, 0.025380722532639906
1044.0, 0.028767019425500907
1045.0, 0.028024310481516736
1046.0, 0.02605349289641203
1047.0, 0.02521978924941086
1048.0, 0.027501393324844636
1049.0, 0.027074506194667388
1050.0, 0.026470575013324976
1051.0, 0.030908078096245177
1052.0, 0.031670939304214274
1053.0, 0.032027387147362266
1054.0, 0.030417437985691423
1055.0, 0.033859099178696644
1056.0, 0.03979464309428548
1057.0, 0.036952545967461524
1058.0, 0.035476772951173324
1059.0, 0.03836471054321398
1060.0, 0.03664895339158439
1061.0, 0.03771334209132718
1062.0, 0.040223185782210305
1063.0, 0.03857465690118038
1064.0, 0.039519741537200934
1065.0, 0.042224951659151945
1066.0, 0.04178272524079725
1067.0, 0.04128932170024255
1068.0, 0.04211117693207534
1069.0, 0.040997855238896964
1070.0, 0.045689672944287746
1071.0, 0.04572070502917279
1072.0, 0.043848276593369366
1073.0, 0.04453987546273682
1074.0, 0.044519069788511535
1075.0, 0.04265269727681082
1076.0, 0.04177363012088144
1077.0, 0.04610360451027463
1078.0, 0.05207001520876418
1079.0, 0.0553933272869353
1080.0, 0.056256765048506255
1081.0, 0.05713301687088971
1082.0, 0.05241392916005583
1083.0, 0.05679494233486754
1084.0, 0.05956566030513906
1085.0, 0.0584954919577064
1086.0, 0.0618419689644893
1087.0, 0.0618308274922939
1088.0, 0.06015082364408839
1089.0, 0.05760723510273188
1090.0, 0.05365982193446902
1091.0, 0.05040880339761257
1092.0, 0.046051917925496746
1093.0, 0.04189403609913819
1094.0, 0.039275047754592916
1095.0, 0.033632067244826834
1096.0, 0.03104098621508995
1097.0, 0.02832351851557232
1098.0, 0.02666539139654027
1099.0, 0.02543998172907166
1100.0, 0.015561198647226375
1101.0, 0.014214340346966258
1102.0, 0.013071850054870824
1103.0, 0.011341877228656027
1104.0, 0.01139130366410072
1105.0, 0.007539046452134747
1106.0, 0.0015677701946297882
1107.0, 0.0024798414821979994
1108.0, 0.0054617677185108205
1109.0, 0.0013537739781588332
1110.0, 0.0053498747417019665
1111.0, 0.007046417618703798
1112.0, 0.004434207139842376
1113.0, 0.004035012376905615
1114.0, 0.0016188629485240462
1115.0, 0.0025818380812885405
1116.0, 0.002718246535223622
1117.0, 0.0022860052032827156
1118.0, 0.0009371961140003571
1119.0, 0.0015068371464102997
1120.0, 0.010897529864865873
1121.0, 0.009000112500521532
1122.0, 0.00511522201411772
1123.0, 0.0063593110046458665
1124.0, 0.006903783193260248
1125.0, 0.009943504003047143
1126.0, 0.014870242133164171
1127.0, 0.015456357513142742
1128.0, 0.012452508079976235
1129.0, 0.012854570092124111
1130.0, 0.015833045501464568
1131.0, 0.02215914200358522
1132.0, 0.02072127043132954
1133.0, 0.021609529697310517
1134.0, 0.027667731048175298
1135.0, 0.028084316053631642
1136.0, 0.031857064326494176
1137.0, 0.030605041145254117
1138.0, 0.02838238689925577
1139.0, 0.026840079048458015
1140.0, 0.022961686564880145
1141.0, 0.017688069405907902
1142.0, 0.016967444125656688
1143.0, 0.02023667425495837
1144.0, 0.017628350257126172
1145.0, 0.01528933929382153
1146.0, 0.016239281147543177
1147.0, 0.016611594204046454
1148.0, 0.018423673261992787
1149.0, 0.01659361905136735
1150.0, 0.020523581524297806
1151.0, 0.02101590144435809
1152.0, 0.01663657607979198
1153.0, 0.012234987016586535
1154.0, 0.012883524418197687
1155.0, 0.007975984564760352
1156.0, 0.011905445349551475
1157.0, 0.010079091137068142
1158.0, 0.007207522810920879
1159.0, 0.006083289122666063
1160.0, 0.013554891745422432
1161.0, 0.012747852962398607
1162.0, 0.011384335178749561
1163.0, 0.004865163310763941
1164.0, 0.00022661101317681884
1165.0, 0.001875148968473445
1166.0, 0.003510690929539624
1167.0, 0.0023585437984556708
1168, 0.0
1169, 0.0
1170, 0.0
1171, 0.0
1172, 0.0
1173, 0.0
1174, 0.0
1175, 0.0
1176, 0.0
1177, 0.0
1178, 0.0
1179, 0.0
1180, 0.0
1181, 0.0
1182, 0.0
1183, 0.0
1184, 0.0
1185, 0.0
1186, 0.0
1187, 0.0
1188, 0.0
1189, 0.0
1190, 0.0
1191, 0.0
1192, 0.0
1193, 0.0
1194, 0.0
1195, 0.0
1196, 0.0
1197, 0.0
1198, 0.0
1199, 0.0
1200, 0.0
1201, 0.0
1202, 0.0
1203, 0.0
1204, 0.0
1205, 0.0
1206, 0.0
1207, 0.0
1208, 0.0
1209, 0.0
1210, 0.0
1211, 0.0
1212, 0.0
1213, 0.0
1214, 0.0
1215, 0.0
1216, 0.0
1217, 0.0
1218, 0.0
1219, 0.0
1220, 0.0
1221, 0.0
1222, 0.0
1223, 0.0
1224, 0.0
1225, 0.0
1226, 0.0
1227, 0.0
1228, 0.0
1229, 0.0
1230, 0.0
1231, 0.0
1232, 0.0
1233, 0.0
1234, 0.0
1235, 0.0
1236, 0.0
1237, 0.0
1238, 0.0
1239, 0.0
1240, 0.0
1241, 0.0
1242, 0.0
1243, 0.0
1244, 0.0
1245, 0.0
1246, 0.0
1247, 0.0
1248, 0.0
1249, 0.0
1250, 0.0
1251, 0.0
1252, 0.0
1253, 0.0
1254, 0.0
1255, 0.0
1256, 0.0
1257, 0.0
1258, 0.0
1259, 0.0
1260, 0.0
1261, 0.0
1262, 0.0
1263, 0.0
1264, 0.0
1265, 0.0
1266, 0.0
1267, 0.0
1268, 0.0
1269, 0.0
1270, 0.0
1271, 0.0
1272, 0.0
1273, 0.0
1274, 0.0
1275, 0.0
1276, 0.0
1277, 0.0
1278, 0.0
1279, 0.0
1280, 0.0
1281, 0.0
1282, 0.0
1283, 0.0
1284, 0.0
1285, 0.0
1286, 0.0
1287, 0.0
1288, 0.0
1289, 0.0
1290, 0.0
1291, 0.0
1292, 0.0
1293, 0.0
1294, 0.0
1295, 0.0
1296, 0.0
1297, 0.0
1298, 0.0
1299, 0.0
1300, 0.0
1301, 0.0
1302, 0.0
1303, 0.0
1304, 0.0
1305, 0.0
1306, 0.0
1307, 0.0
1308, 0.0
1309, 0.0
1310, 0.0
1311, 0.0
1312, 0.0
1313, 0.0
1314, 0.0
1315, 0.0
1316, 0.0
1317, 0.0
1318, 0.0
1319, 0.0
1320, 0.0
1321, 0.0
1322, 0.0
1323, 0.0
1324, 0.0
1325, 0.0
1326, 0.0
1327, 0.0
1328, 0.0
1329, 0.0
1330, 0.0
1331, 0.0
1332, 0.0
1333, 0.0
1334, 0.0
1335, 0.0
1336, 0.0
1337, 0.0
1338, 0.0
1339, 0.0
1340, 0.0
1341, 0.0
1342, 0.0
1343, 0.0
1344, 0.0
1345, 0.0
1346, 0.0
1347, 0.0
1348, 0.0
1349, 0.0
1350, 0.0
1351, 0.0
1352, 0.0
1353, 0.0
1354, 0.0
1355, 0.0
1356, 0.0
1357, 0.0
1358, 0.0
1359, 0.0
1360, 0.0
1361, 0.0
1362, 0.0
1363, 0.0
1364, 0.0
1365, 0.0
1366, 0.0
1367, 0.0
1368, 0.0
1369, 0.0
1370, 0.0
1371, 0.0
1372, 0.0
1373, 0.0
1374, 0.0
1375, 0.0
1376, 0.0
1377, 0.0
1378, 0.0
1379, 0.0
1380, 0.0
1381, 0.0
1382, 0.0
1383, 0.0
1384, 0.0
1385, 0.0
1386, 0.0
1387, 0.0
1388, 0.0
1389, 0.0
1390, 0.0
1391, 0.0
1392, 0.0
1393, 0.0
1394, 0.0
1395, 0.0
1396, 0.0
1397, 0.0
1398, 0.0
1399, 0.0
1400, 0.0
1401, 0.0
1402, 0.0
1403, 0.0
1404, 0.0
1405, 0.0
1406, 0.0
1407, 0.0
1408, 0.0
1409, 0.0
1410, 0.0
1411, 0.0
1412, 0.0
1413, 0.0
1414, 0.0
1415, 0.0
1416, 0.0
1417, 0.0
1418, 0.0
1419, 0.0
1420, 0.0
1421, 0.0
1422, 0.0
1423, 0.0
1424, 0.0
1425, 0.0
1426, 0.0
1427, 0.0
1428, 0.0
1429, 0.0
1430, 0.0
1431, 0.0
1432, 0.0
1433, 0.0
1434, 0.0
1435, 0.0
1436, 0.0
1437, 0.0
1438, 0.0
1439, 0.0
1440, 0.0
1441, 0.0
1442, 0.0
1443, 0.0
1444, 0.0
1445, 0.0
1446, 0.0
1447, 0.0
1448, 0.0
1449, 0.0
1450, 0.0
1451, 0.0
1452, 0.0
1453, 0.0
1454, 0.0
1455, 0.0
1456, 0.0
1457, 0.0
1458, 0.0
1459, 0.0
1460, 0.0
1461, 0.0
1462, 0.0
1463, 0.0
1464, 0.0
1465, 0.0
1466, 0.0
1467, 0.0
1468, 0.0
1469, 0.0
1470, 0.0
1471, 0.0
1472, 0.0
1473, 0.0
1474, 0.0
1475, 0.0
1476, 0.0
1477, 0.0
1478, 0.0
1479, 0.0
1480, 0.0
1481, 0.0
1482, 0.0
1483, 0.0
1484, 0.0
1485, 0.0
1486, 0.0
1487, 0.0
1488, 0.0
1489, 0.0
1490, 0.0
1491, 0.0
1492, 0.0
1493, 0.0
1494, 0.0
1495, 0.0
1496, 0.0
1497, 0.0
1498, 0.0
1499, 0.0
1500, 0.0
1501, 0.0
1502, 0.0
1503, 0.0
1504, 0.0
1505, 0.0
1506, 0.0
1507, 0.0
1508, 0.0
1509, 0.0
1510, 0.0
1511, 0.0
1512, 0.0
1513, 0.0
1514, 0.0
1515, 0.0
1516, 0.0
1517, 0.0
1518, 0.0
1519, 0.0
1520, 0.0
1521, 0.0
1522, 0.0
1523, 0.0
1524, 0.0
1525, 0.0
1526, 0.0
1527, 0.0
1528, 0.0
1529, 0.0
1530, 0.0
1531, 0.0
1532, 0.0
1533, 0.0
1534, 0.0
1535, 0.0
1536, 0.0
1537, 0.0
1538, 0.0
1539, 0.0
1540, 0.0
1541, 0.0
1542, 0.0
1543, 0.0
1544, 0.0
1545, 0.0
1546, 0.0
1547, 0.0
1548, 0.0
1549, 0.0
1550, 0.0
1551, 0.0
1552, 0.0
1553, 0.0
1554, 0.0
1555, 0.0
1556, 0.0
1557, 0.0
1558, 0.0
1559, 0.0
1560, 0.0
1561, 0.0
1562, 0.0
1563, 0.0
1564, 0.0
1565, 0.0
1566, 0.0
1567, 0.0
1568, 0.0
1569, 0.0
1570, 0.0
1571, 0.0
1572, 0.0
1573, 0.0
1574, 0.0
1575, 0.0
1576, 0.0
1577, 0.0
1578, 0.0
1579, 0.0
1580, 0.0
1581, 0.0
1582, 0.0
1583, 0.0
1584, 0.0
1585, 0.0
1586, 0.0
1587, 0.0
1588, 0.0
1589, 0.0
1590, 0.0
1591, 0.0
1592, 0.0
1593, 0.0
1594, 0.0
1595, 0.0
1596, 0.0
1597, 0.0
1598, 0.0
1599, 0.0
