30, 0.0
31, 0.0
32, 0.0
33, 0.0
34, 0.0
35, 0.0
36, 0.0
37, 0.0
38, 0.0
39, 0.0
40, 0.0
41, 0.0
42, 0.0
43, 0.0
44, 0.0
45, 0.0
46, 0.0
47, 0.0
48, 0.0
49, 0.0
50, 0.0
51, 0.0
52, 0.0
53, 0.0
54, 0.0
55, 0.0
56, 0.0
57, 0.0
58, 0.0
59, 0.0
60, 0.0
61, 0.0
62, 0.0
63, 0.0
64, 0.0
65, 0.0
66, 0.0
67, 0.0
68, 0.0
69, 0.0
70, 0.0
71, 0.0
72, 0.0
73, 0.0
74, 0.0
75, 0.0
76, 0.0
77, 0.0
78, 0.0
79, 0.0
80, 0.0
81, 0.0
82, 0.0
83, 0.0
84, 0.0
85, 0.0
86, 0.0
87, 0.0
88, 0.0
89, 0.0
90, 0.0
91, 0.0
92, 0.0
93, 0.0
94, 0.0
95, 0.0
96, 0.0
97, 0.0
98, 0.0
99, 0.0
100, 0.0
101, 0.0
102, 0.0
103, 0.0
104, 0.0
105, 0.0
106, 0.0
107, 0.0
108, 0.0
109, 0.0
110, 0.0
111, 0.0
112, 0.0
113, 0.0
114, 0.0
115, 0.0
116, 0.0
117, 0.0
118, 0.0
119, 0.0
120, 0.0
121, 0.0
122, 0.0
123, 0.0
124, 0.0
125, 0.0
126, 0.0
127, 0.0
128, 0.0
129, 0.0
130, 0.0
131, 0.0
132, 0.0
133, 0.0
134, 0.0
135, 0.0
136, 0.0
137, 0.0
138, 0.0
139, 0.0
140, 0.0
141, 0.0
142, 0.0
143, 0.0
144, 0.0
145, 0.0
146, 0.0
147, 0.0
148, 0.0
149, 0.0
150, 0.0
151, 0.0
152, 0.0
153, 0.0
154, 0.0
155, 0.0
156, 0.0
157, 0.0
158, 0.0
159, 0.0
160, 0.0
161, 0.0
162, 0.0
163.0, 0.018543340363039937
164.0, 0.03234769940477514
165.0, 0.03095854215577381
166.0, 0.014920232703049135
167.0, 0.00855089967604808
168.0, 0.009289249588387566
169.0, 0.009377833538349655
170.0, 0.023299442205939803
171.0, 0.04536907205214173
172.0, 0.03625689975737412
173.0, 0.03747171823975003
174.0, 0.04698956319843206
175.0, 0.04328880437223231
176.0, 0.04408815843109675
177.0, 0.08300210948411836
178.0, 0.08072559100234794
179.0, 0.08610169047973423
180.0, 0.08761338165278772
181.0, 0.08650789722063834
182.0, 0.08922856645850967
183.0, 0.10671012846083067
184.0, 0.10990386011040501
185.0, 0.11327756859856819
186.0, 0.12207404730188688
187.0, 0.132542877033067
188.0, 0.1311337743240165
189.0, 0.12382131863188782
190.0, 0.13950444393704
191.0, 0.13942864807751468
192.0, 0.12124083611570874
193.0, 0.1051450328530367
194.0, 0.1216328565132686
195.0, 0.12229719022652272
196.0, 0.1293432629979606
197.0, 0.1391240874319346
198.0, 0.14978832527360134
199.0, 0.1745985665947462
200.0, 0.19093177232277714
201.0, 0.22374510910037074
202.0, 0.21984276460408106
203.0, 0.17989696368082866
204.0, 0.14947039858878042
205.0, 0.12826541054598622
206.0, 0.06528448223852153
207.0, 0.039366313283877054
208.0, 0.049028526832898156
209.0, 0.06943109607518919
210.0, 0.08631161052359586
211.0, 0.12988127716547704
212.0, 0.16455935758446064
213.0, 0.20233344184947177
214.0, 0.24096701250757047
215.0, 0.26195882574753626
216.0, 0.3109815669468065
217.0, 0.3421150661789589
218.0, 0.3566488224220983
219.0, 0.37840296585512745
220.0, 0.4205664210144606
221.0, 0.42343803260678237
222.0, 0.42349640638911823
223.0, 0.4261766900778394
224.0, 0.4221073540668307
225.0, 0.4084381318640343
226.0, 0.39269862089721674
227.0, 0.3873644970402421
228.0, 0.36319463842933825
229.0, 0.3229513556745294
230.0, 0.2899949720750433
231.0, 0.27957904720679766
232.0, 0.24192606625645652
233.0, 0.21374558877809943
234.0, 0.1919342062098163
235.0, 0.17966834055302952
236.0, 0.17064108581413934
237.0, 0.14861554682529815
238.0, 0.13654469238677028
239.0, 0.12050357434321739
240.0, 0.09143624650204736
241.0, 0.06576790423071839
242.0, 0.058278703774848506
243.0, 0.04185903743382772
244.0, 0.03581047157585106
245.0, 0.026372268363310393
246.0, 0.019648771436719822
247.0, 0.014381148546238037
248.0, 0.001834626019713991
249.0, 0.006467766005499665
250.0, 0.008373300305728934
251.0, 0.013538950330474041
252.0, 0.014840158809912126
253.0, 0.008753709231593
254.0, 0.012679037958135983
255.0, 0.017076187563192336
256.0, 0.008942291870721132
257.0, 0.012675143876516609
258.0, 0.021980210241578806
259.0, 0.010730617182242426
260.0, 0.010795748118785387
261.0, 0.005943494329352679
262.0, 0.008314263897531518
263.0, 0.013334430594546177
264.0, 0.01355206300922308
265.0, 0.004145306719275318
266.0, 0.0015251994909761437
267.0, 0.00726207061874006
268.0, 0.007387928832141452
269.0, 0.004998103012919941
270.0, 0.008225328241759231
271.0, 0.004274412704321542
272.0, 0.0045805493447604595
273.0, 0.009048023314383204
274.0, 0.01529614833042143
275.0, 0.021552629803922235
276.0, 0.027411057631172152
277.0, 0.034268301246746506
278.0, 0.040045404121311905
279.0, 0.044225881739505084
280.0, 0.049856483503427335
281.0, 0.057725548712107395
282.0, 0.06106120956734559
283.0, 0.06186326631814874
284.0, 0.06995146615402568
285.0, 0.08115082057618521
286.0, 0.08940729885997664
287.0, 0.09017872353062195
288.0, 0.0887533591176651
289.0, 0.09746949403186544
290.0, 0.09372016026015861
291.0, 0.08664036280630036
292.0, 0.08337004123180662
293.0, 0.0835513029803407
294.0, 0.09493305340938284
295.0, 0.0885209731778863
296.0, 0.07990945343752343
297.0, 0.06866812284050457
298.0, 0.05917201387923303
299.0, 0.0742511135782477
300.0, 0.06383114345028419
301.0, 0.05834997214830938
302.0, 0.054556007674830646
303.0, 0.050402115506885496
304.0, 0.04428203460869492
305.0, 0.03243817501291752
306.0, 0.031204038363223604
307.0, 0.04793527409751011
308.0, 0.06726370428079459
309.0, 0.06504062796310095
310.0, 0.0272200917303169
311.0, 0.04370496523328996
312.0, 0.02659062723519717
313.0, 0.029533187410884724
314.0, 0.042097580500442315
315.0, 0.042281570043464646
316.0, 0.015136048094332945
317.0, 0.013306777801541677
318.0, 0.020814736865627063
319.0, 0.022217612817361652
320.0, 0.013353343385545063
321.0, 0.002823797652381
322.0, 0.01565263182635012
323.0, 0.009668153914297938
324.0, 0.01845217023810572
325.0, 0.013317641837941957
326.0, 0.011349120561702244
327.0, 0.03124067388551516
328.0, 0.022068252038915603
329.0, 0.00513513660816718
330.0, 0.006366896660410161
331.0, 0.007767622416481145
332.0, 0.008475023215592013
333.0, 0.01728029486526196
334.0, 0.018867738266581807
335.0, 0.019158576667628026
336.0, 0.02715334620568188
337.0, 0.03207890056435471
338.0, 0.03255102819984116
339.0, 0.03699146532737062
340.0, 0.040977593750736535
341.0, 0.04626700277160989
342.0, 0.05699475085998461
343.0, 0.06108070580322309
344.0, 0.059257461254918174
345.0, 0.06920164479492957
346.0, 0.07998467892346574
347.0, 0.07337883467508632
348.0, 0.08982980725583506
349.0, 0.10479150392098664
350.0, 0.10173628468585912
351.0, 0.10275887043563484
352.0, 0.11689218303907363
353.0, 0.13569466080301198
354.0, 0.153885566642922
355.0, 0.1587688219113567
356.0, 0.16200928873056963
357.0, 0.21776306575287968
358.0, 0.19213074794532498
359.0, 0.19474842113907795
360.0, 0.211312042632307
361.0, 0.2188370923797446
362.0, 0.21052105388243111
363.0, 0.21939778002738175
364.0, 0.22241960954274906
365.0, 0.21847386987013676
366.0, 0.220044891272579
367.0, 0.21989943564360917
368.0, 0.21302362946643755
369.0, 0.2216221353392314
370.0, 0.22303833572449497
371.0, 0.2132791848781294
372.0, 0.20593457724195832
373.0, 0.20693820272834393
374.0, 0.21281613630534985
375.0, 0.20806478479188176
376.0, 0.19267875808973814
377.0, 0.1959723487071081
378.0, 0.1922529652845854
379.0, 0.18143948054959716
380.0, 0.17369398338308775
381.0, 0.16584358532845736
382.0, 0.14976477878316272
383.0, 0.14701365586410806
384.0, 0.13496764197081904
385.0, 0.12630629467929008
386.0, 0.13634347944362438
387.0, 0.1336124404090315
388.0, 0.12301720214310814
389.0, 0.12005220758569578
390.0, 0.10827518132539449
391.0, 0.09396381292828429
392.0, 0.08956084764328953
393.0, 0.08989006645373263
394.0, 0.0649443942053992
395.0, 0.06372678267165205
396.0, 0.06207845499413955
397.0, 0.05716175657011714
398.0, 0.054918744839014856
399.0, 0.052782042066729755
400.0, 0.05306292695936731
401.0, 0.0479226386150419
402.0, 0.05024428589620765
403.0, 0.05039692239334646
404.0, 0.03963637835459553
405.0, 0.03337747924979512
406.0, 0.04115820596769895
407.0, 0.04600373001639275
408.0, 0.049236819222996296
409.0, 0.055882209254145096
410.0, 0.06581274980754877
411.0, 0.06774675435597936
412.0, 0.06926111305162777
413.0, 0.07073018585778647
414.0, 0.07579095842261857
415.0, 0.07732927055678133
416.0, 0.07738237002418442
417.0, 0.09425722534341134
418.0, 0.09718210441683194
419.0, 0.09477168282221128
420.0, 0.10359843704666696
421.0, 0.1184753808987796
422.0, 0.13233314949009767
423.0, 0.14328266525317057
424.0, 0.14339620867604866
425.0, 0.16426414057649819
426.0, 0.17053871326871203
427.0, 0.1762798984016443
428.0, 0.18577884453851462
429.0, 0.18439057905971576
430.0, 0.16544493150005535
431.0, 0.1744481029551938
432.0, 0.17945202466431565
433.0, 0.1728121166227621
434.0, 0.1652448846547861
435.0, 0.17122573482820025
436.0, 0.17284704195851266
437.0, 0.15001661996941018
438.0, 0.14291519701724986
439.0, 0.1445504780072546
440.0, 0.14228321556833132
441.0, 0.1300455416932157
442.0, 0.12141412588060038
443.0, 0.11345828791583275
444.0, 0.10616239826349919
445.0, 0.09753845325587311
446.0, 0.08937139336283166
447.0, 0.082177337760472
448.0, 0.07187301859429517
449.0, 0.07101034880605117
450.0, 0.06721084362159895
451.0, 0.06540177280168347
452.0, 0.06038780952161121
453.0, 0.05125918368257068
454.0, 0.04648623363418403
455.0, 0.05723083035307425
456.0, 0.04812411218181517
457.0, 0.04200440523487491
458.0, 0.0405804717616877
459.0, 0.04855007256023572
460.0, 0.06344045440358115
461.0, 0.03141720530257367
462.0, 0.049794192992963886
463.0, 0.04308882198336667
464.0, 0.04427002466230807
465.0, 0.0438634139920286
466.0, 0.024647469305055285
467.0, 0.01989997859407702
468.0, 0.0346717998764208
469.0, 0.04754090146985382
470.0, 0.046322216483560934
471.0, 0.0415197204453155
472.0, 0.042025852348519556
473.0, 0.04349791923238158
474.0, 0.06061416695438126
475.0, 0.052894718192520354
476.0, 0.044359708580837556
477.0, 0.044783768515035065
478.0, 0.060395453712507284
479.0, 0.08892108881336643
480.0, 0.0995005361896481
481.0, 0.08732441679820208
482.0, 0.09801922390127164
483.0, 0.10617080891790784
484.0, 0.10609889345500287
485.0, 0.10847075057284235
486.0, 0.12682671922106759
487.0, 0.15648160007921022
488.0, 0.20605003194235524
489.0, 0.21770834872587158
490.0, 0.222417754090764
491.0, 0.23519119023923654
492.0, 0.22952451430189216
493.0, 0.25497327634408057
494.0, 0.2672937445588757
495.0, 0.2837267875000497
496.0, 0.3046090806553732
497.0, 0.32381803259865294
498.0, 0.34135972057315317
499.0, 0.38043185817274267
500.0, 0.4223219038517954
501.0, 0.42367038834964105
502.0, 0.43644444961816214
503.0, 0.45860517863521316
504.0, 0.47252670282801523
505.0, 0.47299447307182313
506.0, 0.47967446727996976
507.0, 0.4922808814794374
508.0, 0.5176004526030731
509.0, 0.5343739042509162
510.0, 0.5437733562764872
511.0, 0.5593587583223278
512.0, 0.5707174009300229
513.0, 0.5886050733555968
514.0, 0.6011272380754971
515.0, 0.6179894976018722
516.0, 0.6324137186154316
517.0, 0.645458481717003
518.0, 0.6719252668729815
519.0, 0.6822988251761171
520.0, 0.6995412855027862
521.0, 0.7213266660282179
522.0, 0.7405606228670135
523.0, 0.7568272853411832
524.0, 0.7734339537700082
525.0, 0.7892402895559625
526.0, 0.8035281532202037
527.0, 0.8181408897452617
528.0, 0.8306025223834816
529.0, 0.8448735439375542
530.0, 0.8600818126728824
531.0, 0.867552395292054
532.0, 0.8602084448674342
533.0, 0.8653870074238468
534.0, 0.9363200845140207
535.0, 0.9335122538499634
536.0, 0.9278680149480718
537.0, 0.9613836479235114
538.0, 0.7961925699372213
539.0, 0.8002788521607169
540.0, 0.788326983926545
541.0, 0.7560992804868879
542.0, 0.7312537716639157
543.0, 0.7179936867303383
544.0, 0.699551546136545
545.0, 0.685372928208642
546.0, 0.6587675366186264
547.0, 0.6367591808460429
548.0, 0.6215529993490739
549.0, 0.6073214350560036
550.0, 0.5908914928249828
551.0, 0.5776085993381821
552.0, 0.5776173212810948
553.0, 0.5513587449187853
554.0, 0.5421137001798723
555.0, 0.5219550876025069
556.0, 0.4944266908330938
557.0, 0.4838365676740768
558.0, 0.5012347213562715
559.0, 0.47255169516219503
560.0, 0.45375123419665486
561.0, 0.4406763982276323
562.0, 0.4257690138824431
563.0, 0.4061922935500857
564.0, 0.3879791889595134
565.0, 0.3876603455857756
566.0, 0.37220608345913864
567.0, 0.36399411043859414
568.0, 0.3429152198497681
569.0, 0.321123458688653
570.0, 0.30506274088483093
571.0, 0.2834547271282552
572.0, 0.24781947653187936
573.0, 0.24578836269359755
574.0, 0.23581370195105608
575.0, 0.2115488708991941
576.0, 0.182649938225861
577.0, 0.16393635841259555
578.0, 0.1602140211810563
579.0, 0.12948980921133774
580.0, 0.1282003346014892
581.0, 0.11499044348233929
582.0, 0.10276884589182719
583.0, 0.0893777428447963
584.0, 0.07233155554008189
585.0, 0.06573253493356325
586.0, 0.0640612339378868
587.0, 0.040330356278261134
588.0, 0.029711937458570693
589.0, 0.026139266585654988
590.0, 0.022016212173864094
591.0, 0.01614297603089294
592.0, 0.013734453523284978
593.0, 0.020699847928754192
594.0, 0.006689765880839813
595.0, 0.011052899465458106
596.0, 0.00905887286179067
597.0, 0.007483680911464564
598.0, 0.02272383723391032
599.0, 0.0205690145378197
600.0, 0.027248736838997895
601.0, 0.024540196310153795
602.0, 0.026882560018098838
603.0, 0.03400263151890234
604.0, 0.0402944202229528
605.0, 0.036675806140102095
606.0, 0.011766863487329313
607.0, 0.016311025147011642
608.0, 0.021220703765848198
609.0, 0.011454018649681087
610.0, 0.002954280011280315
611.0, 0.0050068480726179615
612.0, 0.011471743636830766
613.0, 0.010795728387189635
614.0, 0.021706107634259928
615.0, 0.025342858181948823
616.0, 0.018792819042514678
617.0, 0.021076047686038758
618.0, 0.03324722922606739
619.0, 0.037906622986058534
620.0, 0.026048479122695485
621.0, 0.05796521240685998
622.0, 0.0668157922014804
623.0, 0.081802108403048
624.0, 0.08962120663987076
625.0, 0.09577354229806856
626.0, 0.11390990567708846
627.0, 0.11913701737361321
628.0, 0.12939501750724744
629.0, 0.14290643806682074
630.0, 0.15304047845058127
631.0, 0.1651616665185507
632.0, 0.18272107879784236
633.0, 0.20152375101962813
634.0, 0.21160865842314971
635.0, 0.24629941815519416
636.0, 0.2674553844425199
637.0, 0.28445650369054576
638.0, 0.2903844247122287
639.0, 0.29727748782686764
640.0, 0.3180740523694549
641.0, 0.33814878145045163
642.0, 0.35314013661943955
643.0, 0.3726352060002414
644.0, 0.38553642995608167
645.0, 0.39285480254375255
646.0, 0.4010939539726753
647.0, 0.4165027408262878
648.0, 0.43821554473611113
649.0, 0.44391319849019184
650.0, 0.4588977206828986
651.0, 0.47871392131764423
652.0, 0.49558305975462585
653.0, 0.511238563010327
654.0, 0.5285660099145202
655.0, 0.5456126004126227
656.0, 0.5636646677779642
657.0, 0.5721603886118446
658.0, 0.5930827325860436
659.0, 0.6030490633140152
660.0, 0.6055611962589458
661.0, 0.6065061989523708
662.0, 0.6052035791718523
663.0, 0.6134649939342196
664.0, 0.6141336983668604
665.0, 0.6070155475331145
666.0, 0.5879703624465836
667.0, 0.5675174918833088
668.0, 0.5497747801139915
669.0, 0.5345483088364503
670.0, 0.5296016308518454
671.0, 0.48531077799353006
672.0, 0.48583257599636115
673.0, 0.4683566140078033
674.0, 0.46148330801277243
675.0, 0.45804793153752416
676.0, 0.44068474907997973
677.0, 0.43082113620486884
678.0, 0.45017111413771255
679.0, 0.4250669062103153
680.0, 0.415122808948948
681.0, 0.4114749194106654
682.0, 0.4067092900831722
683.0, 0.39947573434359734
684.0, 0.3904463039782403
685.0, 0.3752731368395029
686.0, 0.36301790193775646
687.0, 0.3386492786850443
688.0, 0.3069862028702247
689.0, 0.2766316218228889
690.0, 0.2647934476549337
691.0, 0.26813553529382467
692.0, 0.2357160715103786
693.0, 0.2217289378061595
694.0, 0.23226898488490513
695.0, 0.22384332161548254
696.0, 0.2114060785292744
697.0, 0.20824803974505404
698.0, 0.2178347315621364
699.0, 0.23235884308126564
700.0, 0.2204994082416927
701.0, 0.23023650484494165
702.0, 0.2554397264394753
703.0, 0.26176460913488325
704.0, 0.27197264710078134
705.0, 0.28961655024735583
706.0, 0.296384757483526
707.0, 0.3049093795612068
708.0, 0.33188693843435074
709.0, 0.3373766730420446
710.0, 0.3578435390531743
711.0, 0.3791115070563984
712.0, 0.39663016967849196
713.0, 0.41422909782209677
714.0, 0.4328314843875635
715.0, 0.4492591689777673
716.0, 0.4656447284755259
717.0, 0.48339097184749463
718.0, 0.5026958700574599
719.0, 0.520848473796697
720.0, 0.5353670480185152
721.0, 0.5470821162915134
722.0, 0.5601655197668153
723.0, 0.5644487966446478
724.0, 0.5808630207395801
725.0, 0.5899811212295334
726.0, 0.5999412473332272
727.0, 0.6114784089892601
728.0, 0.6201726958530484
729.0, 0.6248591920311024
730.0, 0.6347713339787434
731.0, 0.6522081646922089
732.0, 0.6439291118034861
733.0, 0.6311653807278054
734.0, 0.61988364169883
735.0, 0.6210382701787767
736.0, 0.6249205392353702
737.0, 0.5998772963826859
738.0, 0.6034357904761443
739.0, 0.599907969913428
740.0, 0.5851790449720508
741.0, 0.5762424967585396
742.0, 0.5537183596463148
743.0, 0.5340956144288536
744.0, 0.5332448109476766
745.0, 0.49764232829566357
746.0, 0.4798272891149464
747.0, 0.44158704049577685
748.0, 0.4243580483124661
749.0, 0.40254496240178367
750.0, 0.38460877893473344
751.0, 0.3704440935517077
752.0, 0.3505683748114633
753.0, 0.3534602613806459
754.0, 0.34702433200201166
755.0, 0.3215537011175097
756.0, 0.301658398549775
757.0, 0.29771156983222086
758.0, 0.28806715323892945
759.0, 0.2688406878408635
760.0, 0.26102054398035957
761.0, 0.24247673193504127
762.0, 0.2540392303857701
763.0, 0.2622320691459616
764.0, 0.2524152435296167
765.0, 0.24733579445624368
766.0, 0.24214770626520316
767.0, 0.23657446066547624
768.0, 0.2502219113810746
769.0, 0.2582094587672614
770.0, 0.2600213529073619
771.0, 0.23999705668556093
772.0, 0.24027354939240556
773.0, 0.241823552244346
774.0, 0.2377291359220302
775.0, 0.23866753129991006
776.0, 0.24728712574991205
777.0, 0.22793564298890462
778.0, 0.24132815677057673
779.0, 0.24331704147652397
780.0, 0.24788212084583916
781.0, 0.24655896823262916
782.0, 0.2414935570537636
783.0, 0.2388722964502184
784.0, 0.23506240703686346
785.0, 0.22233506670962108
786.0, 0.2150255156370826
787.0, 0.21022116353360712
788.0, 0.20812266765507134
789.0, 0.20859024044130534
790.0, 0.205257203983898
791.0, 0.1968913886681114
792.0, 0.19108170338915823
793.0, 0.18296177181103723
794.0, 0.17791225961129312
795.0, 0.1699144192613256
796.0, 0.1682936104023398
797.0, 0.1610478432350063
798.0, 0.14950789339505954
799.0, 0.14370664684428117
800.0, 0.14726942648164615
801.0, 0.14883429570014137
802.0, 0.1042049800223128
803.0, 0.11022983475581787
804.0, 0.1171791293047554
805.0, 0.11861749771421727
806.0, 0.10563465464054411
807.0, 0.09044440207094155
808.0, 0.09421782125714
809.0, 0.08750656041703811
810.0, 0.08029622702240692
811.0, 0.08980558501321431
812.0, 0.07456518679363679
813.0, 0.07341892491305768
814.0, 0.07737566610672315
815.0, 0.07040269590485396
816.0, 0.06272056678598432
817.0, 0.0755783086817363
818.0, 0.06580203576975814
819.0, 0.07320968488277542
820.0, 0.06735943829125456
821.0, 0.06035642460037126
822.0, 0.05902103788926461
823.0, 0.05766320003749319
824.0, 0.04709537556634603
825.0, 0.030554230921861155
826.0, 0.03476067855174842
827.0, 0.011805291734374423
828.0, 0.021419959838612876
829.0, 0.015568208956732617
830.0, 0.007844141917062427
831.0, 0.008006141513387275
832.0, 0.011344577232074687
833.0, 0.01051236365457326
834.0, 0.0037972726653531653
835.0, 0.0046205496579797
836.0, 0.011823626349238005
837.0, 0.010731652451026157
838.0, 0.014377605251511329
839.0, 0.025007343634358168
840.0, 0.029243348797177528
841.0, 0.025675081791572258
842.0, 0.042540159642600064
843.0, 0.024858517866808132
844.0, 0.031471980967101396
845.0, 0.012603255414879035
846.0, 0.007915490137242166
847.0, 0.008781547905272507
848.0, 0.015564925817026046
849.0, 0.020372191953428435
850.0, 0.0018787364590188698
851.0, 0.004340754879629403
852.0, 0.002030118312006281
853.0, 0.015055050224824324
854.0, 0.016468884889600778
855.0, 0.007594373969798681
856.0, 0.0018014166690211943
857.0, 0.0029816468381643354
858.0, 0.0063234507900376815
859.0, 0.011838123914515386
860.0, 0.003580244114350208
861.0, 0.013823575978602187
862.0, 0.008110921655073839
863.0, 0.004426060788823654
864.0, 0.014055068767296813
865.0, 0.02594288545293475
866.0, 0.02646099285654197
867.0, 0.019982308541204186
868.0, 0.02254875059696018
869.0, 0.013918824792715653
870.0, 0.023541444602248655
871.0, 0.0167971517177558
872.0, 0.015954395027922015
873.0, 0.027269805431289974
874.0, 0.03474370491619131
875.0, 0.03462300579080592
876.0, 0.04561118335140561
877.0, 0.033540139836784465
878.0, 0.041962315170832085
879.0, 0.056725604200568984
880.0, 0.05234192560701584
881.0, 0.053400898501302294
882.0, 0.05698586902276047
883.0, 0.05709941080892218
884.0, 0.056873073170398414
885.0, 0.05761008720288552
886.0, 0.07414264686258414
887.0, 0.07513870131677411
888.0, 0.06319948150729754
889.0, 0.0565649298224164
890.0, 0.07114767527206677
891.0, 0.07805564571351523
892.0, 0.07113445055374393
893.0, 0.0720683948132437
894.0, 0.06681752848544655
895.0, 0.07267788314651952
896.0, 0.08088404989484341
897.0, 0.08381247350796392
898.0, 0.09377841700267109
899.0, 0.09734523542303711
900.0, 0.09723684558532653
901.0, 0.1019483196980016
902.0, 0.10457595308138727
903.0, 0.08841835403315843
904.0, 0.09106897022148694
905.0, 0.10608172127406895
906.0, 0.11341844209474808
907.0, 0.10344315344925208
908.0, 0.11180003325472394
909.0, 0.12762131185605702
910.0, 0.13380348038917955
911.0, 0.13235268124820418
912.0, 0.11283370509884193
913.0, 0.12219927260806657
914.0, 0.13398866479554244
915.0, 0.13175899333801408
916.0, 0.13745574486462991
917.0, 0.13782111854200677
918.0, 0.14102956398881655
919.0, 0.142764174294966
920.0, 0.13057543322204762
921.0, 0.13221013883507512
922.0, 0.14656938919436693
923.0, 0.13687970649899675
924.0, 0.14491924379379076
925.0, 0.1622474793249564
926.0, 0.15295122647521667
927.0, 0.14146204077098626
928.0, 0.1547631192700475
929.0, 0.17233432423911713
930.0, 0.16166238030373042
931.0, 0.1901367525130198
932.0, 0.17265803082979117
933.0, 0.15796738021030327
934.0, 0.1646566543274679
935.0, 0.1730433991845402
936.0, 0.17909951071783398
937.0, 0.18237830191143425
938.0, 0.1843177080977459
939.0, 0.1900788447522679
940.0, 0.1895162606177515
941.0, 0.2048433953648526
942.0, 0.19527362312451346
943.0, 0.197133453667325
944.0, 0.2091806102173041
945.0, 0.2110606585924903
946.0, 0.21138620174716763
947.0, 0.2170774743177045
948.0, 0.21440706786345207
949.0, 0.21057736902369312
950.0, 0.2116784318143095
951.0, 0.21726303508595296
952.0, 0.2211206125246845
953.0, 0.23265267909145723
954.0, 0.24317608047956998
955.0, 0.24968154030232667
956.0, 0.2559424936159778
957.0, 0.26272054583634935
958.0, 0.2644094588683614
959.0, 0.2646997580323407
960.0, 0.2712659020056428
961.0, 0.2615117183475892
962.0, 0.26437325015131696
963.0, 0.2786158582725852
964.0, 0.28244886915413453
965.0, 0.2837222515610601
966.0, 0.28603410964810144
967.0, 0.2802734024866772
968.0, 0.300816369035303
969.0, 0.32104010728664106
970.0, 0.3238342434447119
971.0, 0.3187299922670465
972.0, 0.32403372104838407
973.0, 0.3220946070212265
974.0, 0.31268788830107663
975.0, 0.3183932181299778
976.0, 0.34208020865815625
977.0, 0.35134886861276715
978.0, 0.3512851083941876
979.0, 0.3832650900769742
980.0, 0.3786271543022865
981.0, 0.37900481655269813
982.0, 0.3887083721507181
983.0, 0.3980829635067834
984.0, 0.4015235251103946
985.0, 0.40723271060773136
986.0, 0.42792241471539216
987.0, 0.4540690811661739
988.0, 0.43528622146233015
989.0, 0.4373187103439335
990.0, 0.47002801958576235
991.0, 0.4693527365942614
992.0, 0.4802624278917633
993.0, 0.4864002157324712
994.0, 0.49465271793143584
995.0, 0.5105895618597008
996.0, 0.5222589197201843
997.0, 0.5345819189312898
998.0, 0.5193317315471958
999.0, 0.5317775771565655
1000.0, 0.5336083731649162
1001.0, 0.5368672286093471
1002.0, 0.546911049618499
1003.0, 0.5515485731156722
1004.0, 0.5454828422321442
1005.0, 0.548630539912586
1006.0, 0.568743335310087
1007.0, 0.5650095271223452
1008.0, 0.5615105046313815
1009.0, 0.5864619043871174
1010.0, 0.579725831907176
1011.0, 0.5897272929578568
1012.0, 0.5785159962872303
1013.0, 0.5912686059613284
1014.0, 0.5956304091387857
1015.0, 0.5763556468837057
1016.0, 0.5752890470577363
1017.0, 0.5802345593281759
1018.0, 0.5761286022658241
1019.0, 0.5779355320116517
1020.0, 0.5736735276540403
1021.0, 0.5747972291887086
1022.0, 0.5720877170112825
1023.0, 0.5645769513557316
1024.0, 0.5510248092170529
1025.0, 0.5459363860590457
1026.0, 0.5484930458485933
1027.0, 0.5268245789262851
1028.0, 0.5167238624506837
1029.0, 0.5321431689989213
1030.0, 0.5309222417875163
1031.0, 0.5328136816657466
1032.0, 0.5105342044000329
1033.0, 0.49840562878128836
1034.0, 0.49980545560887446
1035.0, 0.4943056250845272
1036.0, 0.4839706715325665
1037.0, 0.4868644384512419
1038.0, 0.47807572943703497
1039.0, 0.4645275857030463
1040.0, 0.4708712294282524
1041.0, 0.47458641541114827
1042.0, 0.44871927292021724
1043.0, 0.44588385159794897
1044.0, 0.44098929299817696
1045.0, 0.4465299815742335
1046.0, 0.4591336140654505
1047.0, 0.44908074026476935
1048.0, 0.44347455878236486
1049.0, 0.43775091120967147
1050.0, 0.4326887170948758
1051.0, 0.41752397065915037
1052.0, 0.4211002734199515
1053.0, 0.4086694892173141
1054.0, 0.40790721468681834
1055.0, 0.4105426608351038
1056.0, 0.41036839984388507
1057.0, 0.4121575562631933
1058.0, 0.40280946750052943
1059.0, 0.37105932639242145
1060.0, 0.38798573121202695
1061.0, 0.399741765256293
1062.0, 0.42150913586033945
1063.0, 0.39640921951364055
1064.0, 0.3804765529263594
1065.0, 0.3749948085699157
1066.0, 0.368065343458273
1067.0, 0.35879934914921496
1068.0, 0.3516869041859207
1069.0, 0.34740649252327627
1070.0, 0.3465472328107249
1071.0, 0.35932598617322115
1072.0, 0.35184920993665686
1073.0, 0.3448098922292696
1074.0, 0.3547681934738697
1075.0, 0.34250077217145114
1076.0, 0.32878481573786733
1077.0, 0.326452690193452
1078.0, 0.3329498887337946
1079.0, 0.33414044020794464
1080.0, 0.31186045502992404
1081.0, 0.2950026909029283
1082.0, 0.312009914214683
1083.0, 0.30526139989275913
1084.0, 0.30764842068477055
1085.0, 0.2888972855449551
1086.0, 0.28864579070021756
1087.0, 0.2868165711337942
1088.0, 0.2824620021429215
1089.0, 0.2769628752716765
1090.0, 0.26484943545062944
1091.0, 0.256613173222357
1092.0, 0.24967055202205976
1093.0, 0.2336922597011897
1094.0, 0.23515481907872443
1095.0, 0.2303458370097344
1096.0, 0.22397364913958445
1097.0, 0.21514087696035109
1098.0, 0.2198436944008672
1099.0, 0.2123792144989653
1100.0, 0.19858982057859745
1101.0, 0.19437382091041822
1102.0, 0.17450341780711792
1103.0, 0.15218903493953967
1104.0, 0.17805181658686506
1105.0, 0.1604331514739108
1106.0, 0.1459705476013394
1107.0, 0.13391435300027413
1108.0, 0.1401962346343092
1109.0, 0.1476666513457203
1110.0, 0.14911307742404578
1111.0, 0.13543317229407958
1112.0, 0.120479347825061
1113.0, 0.12292807110904319
1114.0, 0.11549920989295766
1115.0, 0.10927882846066508
1116.0, 0.12027453316424379
1117.0, 0.0967247562135149
1118.0, 0.10393883566968899
1119.0, 0.10357561619134037
1120.0, 0.10499303055151843
1121.0, 0.09991535806424601
1122.0, 0.09176731892744201
1123.0, 0.09142235959575502
1124.0, 0.09662292260492641
1125.0, 0.09423914454710738
1126.0, 0.08456312668793486
1127.0, 0.08674177709335106
1128.0, 0.06252883982813459
1129.0, 0.06179686464345304
1130.0, 0.07125157809419783
1131.0, 0.0651279621879659
1132.0, 0.06874068763696639
1133.0, 0.06497384201575956
1134.0, 0.0454822154433616
1135.0, 0.02919245422911645
1136.0, 0.028441987718351307
1137.0, 0.03534625401473984
1138.0, 0.04889686532601702
1139.0, 0.03814043030377402
1140.0, 0.02020642129707688
1141.0, 0.012386161907025815
1142.0, 0.009389250973646093
1143.0, 0.029149526307905196
1144.0, 0.019050560680228392
1145.0, 0.018559887649178156
1146.0, 0.024814514237826574
1147.0, 0.015651824231021832
1148.0, 0.00814658938222834
1149.0, 0.00921388642169335
1150.0, 0.008280565847906488
1151.0, 0.022498541005496815
1152.0, 0.016101663979129287
1153.0, 0.017368802004559706
1154.0, 0.02248950942427266
1155.0, 0.009984794413515984
1156.0, 0.011112391196129914
1157.0, 0.021933440691376392
1158.0, 0.02284386579326534
1159.0, 0.011978798938433146
1160.0, 0.004450876746019101
1161.0, 0.008592358614992537
1162.0, 0.013223756407571972
1163.0, 0.011952276932113986
1164.0, 0.013516248835265875
1165.0, 0.010274702726041725
1166.0, 0.010508323782426625
1167.0, 0.008882383785970614
1168.0, 0.018177490820051
1169.0, 0.01887198570736118
1170.0, 0.01860713627841693
1171.0, 0.014230870094119295
1172.0, 0.004469860440856004
1173.0, 0.005896673059793304
1174.0, 0.008233307274843582
1175.0, 0.027359774214814694
1176.0, 0.010601329528223504
1177.0, 0.0007323988378219494
1178.0, 0.003009679988839993
1179.0, 0.01758382431820229
1180.0, 0.013328754647096746
1181.0, 0.011575024323736844
1182.0, 0.014642032013980249
1183.0, 0.00912888505946151
1184.0, 0.008238080360538868
1185.0, 0.015118282088349796
1186.0, 0.0030975097295119023
1187.0, 0.0025492779514533887
1188.0, 0.006267875367171626
1189.0, 0.0003668684149697758
1190.0, 0.0013695823615191868
1191.0, 0.014598999851807619
1192.0, 0.011733002261313397
1193.0, 0.005319506853474799
1194.0, 0.005608114279851871
1195.0, 0.0059084219620230685
1196.0, 0.004132949701009459
1197.0, 0.007672224375482994
1198.0, 0.013856711441505272
1199.0, 0.012363170412408853
1200.0, 0.013344443043709655
1201.0, 0.003425881371042042
1202.0, 0.013990532909805635
1203.0, 0.01897595414882831
1204.0, 0.005051351119895824
1205.0, 0.018507359785534683
1206.0, 0.01443004712377818
1207.0, 0.013394768063631896
1208.0, 0.013453446572491567
1209.0, 0.011516477142136983
1210.0, 0.012706897632577135
1211.0, 0.01663431349439042
1212.0, 0.018763743562469473
1213.0, 0.015663312757126263
1214.0, 0.018881291315619303
1215.0, 0.007824673673016537
1216.0, 0.013650039400752004
1217.0, 0.0050812294292123805
1218.0, 0.01949630078889764
1219.0, 0.021520855084047056
1220.0, 0.031121192954081146
1221.0, 0.036629089443890345
1222.0, 0.038127305801413935
1223.0, 0.0401868070967903
1224.0, 0.03662075996871458
1225.0, 0.02375566615989888
1226.0, 0.011638736630116555
1227.0, 0.024875699372473706
1228.0, 0.03168677829171844
1229.0, 0.04866330546445606
1230.0, 0.01520127019719718
1231.0, 0.025590804870240673
1232.0, 0.02313137294614495
1233.0, 0.015892670211280793
1234.0, 0.021489890313921848
1235.0, 0.03393748450269388
1236.0, 0.03510486775177823
1237.0, 0.02467371851382324
1238.0, 0.02181984185282128
1239.0, 0.02647780575407673
1240.0, 0.015647823040259648
1241.0, 0.02477530007888096
1242.0, 0.034889936872030666
1243.0, 0.02322067771436192
1244.0, 0.0301711180581266
1245.0, 0.039315688386454085
1246.0, 0.030594382142114105
1247.0, 0.03336608628022786
1248.0, 0.034697677633063154
1249.0, 0.02813751831012945
1250.0, 0.017068099057569057
1251.0, 0.017125711307205794
1252.0, 0.028035525975372122
1253.0, 0.022335185129157623
1254.0, 0.009106579211303964
1255.0, 0.028976878993581267
1256.0, 0.025463870964736065
1257.0, 0.014270672534062685
1258.0, 0.023962635380277247
1259.0, 0.017071986344189983
1260.0, 0.008871550315483074
1261.0, 0.016183778819610903
1262.0, 0.03463464491367884
1263.0, 0.040118408519982794
1264.0, 0.03991670152727882
1265.0, 0.03881715233306494
1266.0, 0.03433684727151007
1267.0, 0.02933317363953849
1268.0, 0.019835979000400263
1269.0, 0.02392702725603247
1270.0, 0.0444132756190774
1271.0, 0.08209284702813738
1272.0, 0.034314779902625964
1273.0, 0.047000575350748156
1274.0, 0.02956161867384552
1275.0, 0.029152539101253774
1276.0, 0.02932191972525867
1277.0, 0.02184953499691998
1278.0, 0.02910963367050613
1279.0, 0.024380952122788162
1280.0, 0.015186649624574581
1281.0, 0.027240387722195527
1282.0, 0.03408545550339278
1283.0, 0.0354842127881168
1284.0, 0.04452399161656304
1285.0, 0.03356749888166985
1286.0, 0.03604155106716461
1287.0, 0.046367443964256
1288.0, 0.03733626187146147
1289.0, 0.03460833468127589
1290.0, 0.031258374519382834
1291.0, 0.039758366938118246
1292.0, 0.03056266621109486
1293.0, 0.03347549403297555
1294.0, 0.03383337099236602
1295.0, 0.026329511614842975
1296.0, 0.024809800283428957
1297.0, 0.02039264076608634
1298.0, 0.029478782548799362
1299.0, 0.05757318703371786
1300.0, 0.036028082814133104
1301.0, 0.01941384779837297
1302.0, 0.04792912304412188
1303.0, 0.025756263316172343
1304.0, 0.02872633009025738
1305.0, 0.03202202069984043
1306.0, 0.03547214573451833
1307.0, 0.037330615469230305
1308.0, 0.033669255357036146
1309.0, 0.03188501360475239
1310.0, 0.030827509172529497
1311.0, 0.025713326958060508
1312.0, 0.02673136977817453
1313.0, 0.02969826281545978
1314.0, 0.01761161633118998
1315.0, 0.03418146948294068
1316.0, 0.024768023071542154
1317.0, 0.029400672571362647
1318.0, 0.027236217801286076
1319.0, 0.03344476657265013
1320.0, 0.03492798879763387
1321.0, 0.03363840247745919
1322.0, 0.027308244532652046
1323.0, 0.02371000096079608
1324.0, 0.03252170499267046
1325.0, 0.038036404314926525
1326.0, 0.02369009794110081
1327.0, 0.025538704199278207
1328.0, 0.041861412894359754
1329.0, 0.026539687282395977
1330.0, 0.01714478129391981
1331.0, 0.024477528659342256
1332.0, 0.03214941421571069
1333.0, 0.0157113464872336
1334.0, 0.02293008511637536
1335.0, 0.019180326662300948
1336.0, 0.02142338658611899
1337.0, 0.015527152981031939
1338.0, 0.004625267624068579
1339.0, 0.017810504407228263
1340.0, 0.04099594369418256
1341.0, 0.0311410546282141
1342.0, 0.02175441025093675
1343.0, 0.03306602918537368
1344.0, 0.042932636330787755
1345.0, 0.0386943630909343
1346.0, 0.02717931808545969
1347.0, 0.026164054783743836
1348.0, 0.030841840141559013
1349.0, 0.030062022150746763
1350.0, 0.012178652848100806
1351.0, 0.027577032290088135
1352.0, 0.023110016933452108
1353.0, 0.0047831192758512105
1354.0, 0.023098441729239083
1355.0, 0.027360283548117682
1356.0, 0.019695680614537935
1357.0, 0.03196933462797186
1358.0, 0.03127556396908625
1359.0, 0.023360973686785722
1360.0, 0.020193370154774612
1361.0, 0.017925726158500917
1362.0, 0.021204696378771662
1363.0, 0.04268457240642905
1364.0, 0.06486156977948083
1365.0, 0.03640077636392764
1366.0, 0.014235104599784608
1367.0, 0.025321301656490974
1368.0, 0.01730072235768458
1369.0, 0.017056941099049563
1370.0, 0.01359513309629302
1371.0, 0.024786636060474754
1372.0, 0.025790052691431926
1373.0, 0.02857278541195101
1374.0, 0.0202453864363886
1375.0, 0.019832631375797743
1376.0, 0.009717468227247361
1377.0, 0.018010745808885693
1378.0, 0.020360590117263072
1379.0, 0.012471005470716261
1380.0, 0.0209112295951536
1381.0, 0.026180587348138322
1382.0, 0.025803315124220863
1383.0, 0.026722166934228946
1384.0, 0.023869831175646002
1385.0, 0.02276464793726383
1386.0, 0.013757827528868932
1387.0, 0.017034111551482146
1388.0, 0.017376907005588388
1389.0, 0.006330483091246563
1390.0, 0.00507400056112844
1391.0, 0.006948192139380789
1392.0, 0.00739804903388879
1393.0, 0.010860758447281899
1394.0, 0.005311516276353838
1395.0, 0.010596684515011048
1396.0, 0.011597686711251661
1397.0, 0.014605818631256607
1398.0, 0.01575578015903732
1399.0, 0.0058393857556812085
1400.0, 0.005559957037188366
1401.0, 0.007843240592752168
1402.0, 0.017269646858711168
1403.0, 0.024883228209540635
1404.0, 0.006310017279615946
1405.0, 0.014048015103699985
1406.0, 0.01657608648114975
1407.0, 0.00840911184387716
1408.0, 0.014340545021214554
1409.0, 0.020066471763547554
1410.0, 0.0066876988947955395
1411.0, 0.012323216057343234
1412.0, 0.009071525353840895
1413.0, 0.02206673872146251
1414.0, 0.022160646879680775
1415.0, 0.015842346528695653
1416.0, 0.0174729474591241
1417.0, 0.010940663031854422
1418.0, 0.003288053411037357
1419.0, 0.013947532248395109
1420.0, 0.026001248016919252
1421.0, 0.023786495348289343
1422.0, 0.018233053976164048
1423.0, 0.025269403782198448
1424.0, 0.011768225429854878
1425.0, 0.03054892530855803
1426.0, 0.05470391909680046
1427.0, 0.0010394732281857125
1428.0, 0.012571444327887099
1429.0, 0.014148316273364726
1430.0, 0.025607611589524872
1431.0, 0.03597558204255368
1432.0, 0.03913790396512868
1433.0, 0.03538821545316529
1434.0, 0.03900744513500404
1435.0, 0.035302070009144294
1436.0, 0.02699558946239986
1437.0, 0.03040315757263152
1438.0, 0.031925173179049846
1439.0, 0.026797060867095483
1440.0, 0.024377453255710665
1441.0, 0.020900338576479275
1442.0, 0.0236645972004744
1443.0, 0.022744150341274156
1444.0, 0.023193840855812744
1445.0, 0.01729423358879939
1446.0, 0.03588035019143951
1447.0, 0.036948167992491315
1448.0, 0.0072712727642595155
1449.0, 0.027718378772294126
1450.0, 0.029239661182093184
1451.0, 0.012897790128491918
1452.0, 0.03434299856170812
1453.0, 0.03850165827115842
1454.0, 0.04097810772815645
1455.0, 0.02634046669453147
1456.0, 0.018193072081760523
1457.0, 0.02331549633735235
1458.0, 0.03934406933950285
1459.0, 0.04259865941313055
1460.0, 0.02756071671505849
1461.0, 0.025240150199249523
1462.0, 0.027476947564002995
1463.0, 0.0154345388966344
1464.0, 0.020553390131962824
1465.0, 0.026061533656301414
1466.0, 0.02633983862893339
1467.0, 0.033717554135146766
1468.0, 0.029550945032461393
1469.0, 0.0277860798860235
1470.0, 0.023546707193027774
1471.0, 0.015459837145143478
1472.0, 0.02242602943857791
1473.0, 0.017666893181932014
1474.0, 0.020407133175341683
1475.0, 0.01823144846900761
1476.0, 0.02060324468113975
1477.0, 0.02727807611599754
1478.0, 0.022441374110961202
1479.0, 0.027643540130083365
1480.0, 0.03867769029524308
1481.0, 0.04447432611480165
1482.0, 0.03977329552362104
1483.0, 0.03597864982353233
1484.0, 0.03563584229418891
1485.0, 0.03333808605658753
1486.0, 0.03255021715482224
1487.0, 0.025399949756683894
1488.0, 0.018622943556335165
1489.0, 0.030129668950123076
1490.0, 0.01936621344651574
1491.0, 0.027625531133505445
1492.0, 0.026600927263570672
1493.0, 0.03422730884213317
1494.0, 0.016087020321323697
1495.0, 0.003045423404152984
1496.0, 0.010858399448775702
1497.0, 0.007659757776884759
1498.0, 0.022022238841856546
1499.0, 0.02076177593349904
1500.0, 0.038146802069993956
1501.0, 0.02365077654788929
1502.0, 0.009907964736656607
1503.0, 0.02856740449185481
1504.0, 0.04201822383323116
1505.0, 0.032783456754686524
1506.0, 0.03721900411096856
1507.0, 0.03585731939236345
1508.0, 0.029038069317583123
1509.0, 0.022057989277749965
1510.0, 0.01540991562176687
1511.0, 0.02721744672447421
1512.0, 0.030206119552340004
1513.0, 0.016523431813641756
1514.0, 0.030511837844151315
1515.0, 0.028010997095412903
1516.0, 0.02249419941238682
1517.0, 0.028118961270015595
1518.0, 0.024421858272121073
1519.0, 0.01808183037106894
1520.0, 0.02945372007452484
1521.0, 0.04017852197630649
1522.0, 0.02913043470258296
1523.0, 0.032310248125724854
1524.0, 0.0141573780967383
1525.0, 0.024302045050496265
1526.0, 0.03766611705799531
1527.0, 0.02338066501722351
1528.0, 0.011181144621622997
1529.0, 0.013481357192406786
1530.0, 0.03319691884188538
1531.0, 0.0374126186694741
1532.0, 0.028201015182802377
1533.0, 0.025552743173706746
1534.0, 0.013370294604834155
1535.0, 0.0021486096195799114
1536.0, 0.021733295317137316
1537.0, 0.02281513756052411
1538.0, 0.01146363696485908
1539.0, 0.024583403674929685
1540.0, 0.03078354475549745
1541.0, 0.02261323578968681
1542.0, 0.008942469448570724
1543.0, 0.014785258894569345
1544.0, 0.010435196528776176
1545.0, 0.010321692255885034
1546.0, 0.01821364548833874
1547.0, 0.0026687159586749575
1548.0, 0.015677779950191963
1549.0, 0.01671371861039271
1550.0, 0.022828352259246218
1551.0, 0.015605311697310567
1552.0, 0.012725689444684343
1553.0, 0.024295697996995873
1554.0, 0.02801969600754272
1555.0, 0.01980040162094945
1556.0, 0.02577889353674971
1557.0, 0.007614535821440786
1558.0, 0.007442079638158321
1559.0, 0.020345905000134782
1560.0, 0.017379253671010775
1561.0, 0.02122007800851619
1562.0, 0.0248355047410759
1563.0, 0.009518123876961012
1564.0, 0.014168287479815975
1565.0, 0.022661041786850838
1566.0, 0.01162871904525592
1567.0, 0.011419552043821987
1568.0, 0.009512720885710625
1569.0, 0.002338401511559785
1570.0, 0.0021846112497737997
1571, 0.0
1572, 0.0
1573, 0.0
1574, 0.0
1575, 0.0
1576, 0.0
1577, 0.0
1578, 0.0
1579, 0.0
1580, 0.0
1581, 0.0
1582, 0.0
1583, 0.0
1584, 0.0
1585, 0.0
1586, 0.0
1587, 0.0
1588, 0.0
1589, 0.0
1590, 0.0
1591, 0.0
1592, 0.0
1593, 0.0
1594, 0.0
1595, 0.0
1596, 0.0
1597, 0.0
1598, 0.0
1599, 0.0
