30, 0.0
31, 0.0
32, 0.0
33, 0.0
34, 0.0
35, 0.0
36, 0.0
37, 0.0
38, 0.0
39, 0.0
40, 0.0
41, 0.0
42, 0.0
43, 0.0
44, 0.0
45, 0.0
46, 0.0
47, 0.0
48, 0.0
49, 0.0
50, 0.0
51, 0.0
52, 0.0
53, 0.0
54, 0.0
55, 0.0
56, 0.0
57, 0.0
58, 0.0
59, 0.0
60, 0.0
61, 0.0
62, 0.0
63, 0.0
64, 0.0
65, 0.0
66, 0.0
67, 0.0
68, 0.0
69, 0.0
70, 0.0
71, 0.0
72, 0.0
73, 0.0
74, 0.0
75, 0.0
76, 0.0
77, 0.0
78, 0.0
79, 0.0
80, 0.0
81, 0.0
82, 0.0
83, 0.0
84, 0.0
85, 0.0
86, 0.0
87, 0.0
88, 0.0
89, 0.0
90, 0.0
91, 0.0
92, 0.0
93, 0.0
94, 0.0
95, 0.0
96, 0.0
97, 0.0
98, 0.0
99, 0.0
100, 0.0
101, 0.0
102, 0.0
103, 0.0
104, 0.0
105, 0.0
106, 0.0
107, 0.0
108, 0.0
109, 0.0
110, 0.0
111, 0.0
112, 0.0
113, 0.0
114, 0.0
115, 0.0
116, 0.0
117, 0.0
118, 0.0
119, 0.0
120, 0.0
121, 0.0
122, 0.0
123, 0.0
124, 0.0
125, 0.0
126, 0.0
127, 0.0
128, 0.0
129, 0.0
130, 0.0
131.0, 0.0017009139464921191
132.0, 0.0007219243417277597
133.0, 0.0012030589056324982
134.0, 0.006488006782485477
135.0, 0.016494070632758137
136.0, 0.02183072702667663
137.0, 0.03100543465836163
138.0, 0.04203075781221374
139.0, 0.04464157209999
140.0, 0.040332633199630874
141.0, 0.051599428875628295
142.0, 0.06215796950207122
143.0, 0.05548699787212332
144.0, 0.05832311426196677
145.0, 0.060690203206693945
146.0, 0.05973860059732863
147.0, 0.058497847439338176
148.0, 0.06342754205039006
149.0, 0.06380805605603508
150.0, 0.06822557706814772
151.0, 0.07367639502234796
152.0, 0.06485325807774944
153.0, 0.06293553572165834
154.0, 0.059567451057897305
155.0, 0.05356855370713284
156.0, 0.04443679666387181
157.0, 0.0369142982841108
158.0, 0.03474174543476635
159.0, 0.03004444140042508
160.0, 0.019961627277483282
161.0, 0.012387246986851638
162.0, 0.011139549375887528
163.0, 0.011125231150256907
164.0, 0.008018122908740568
165.0, 0.0013713200534344792
166.0, 0.0003502989313346248
167.0, 0.002171662953606179
168.0, 0.002519978141721602
169.0, 0.0006185467658930393
170.0, 0.007741261819375949
171.0, 0.0027748111426052924
172.0, 0.0027706614384035615
173.0, 0.0028226668336181434
174.0, 0.006157659117849456
175.0, 0.004590968506918558
176.0, 0.00044285295372727454
177.0, 0.005868362757184097
178.0, 0.009404054238716873
179.0, 0.0022653655525762574
180.0, 0.002765002388294774
181.0, 0.0068283109024196
182.0, 0.006330496069440888
183.0, 0.015349667676373817
184.0, 0.01538724197691356
185.0, 0.019282694264928874
186.0, 0.03278138430178084
187.0, 0.03860224810506109
188.0, 0.04921838899293182
189.0, 0.06081872667511025
190.0, 0.07234885557730052
191.0, 0.08635425083436499
192.0, 0.09778671643327455
193.0, 0.1112875990006025
194.0, 0.12606638315466448
195.0, 0.1395791338046776
196.0, 0.15304041719073377
197.0, 0.16437931400619113
198.0, 0.17637330208208582
199.0, 0.19059941437390518
200.0, 0.20550588189047958
201.0, 0.21532319401918645
202.0, 0.23386245079655818
203.0, 0.25765962359584665
204.0, 0.2793696504610749
205.0, 0.3081785627748946
206.0, 0.33727101849263147
207.0, 0.3719318192140233
208.0, 0.41332586955476613
209.0, 0.4527290890756687
210.0, 0.4931860207068733
211.0, 0.5526606607805863
212.0, 0.6101004002888227
213.0, 0.6386514692053789
214.0, 0.6585568825885141
215.0, 0.6539696306014128
216.0, 0.623635814079846
217.0, 0.579259470470239
218.0, 0.5304994632269069
219.0, 0.4696967733694375
220.0, 0.42237486839936383
221.0, 0.38713053010445764
222.0, 0.3526311289525207
223.0, 0.3259468563463837
224.0, 0.3103148313143576
225.0, 0.2980683784921386
226.0, 0.2857791475605397
227.0, 0.2797831616037136
228.0, 0.2793331854625709
229.0, 0.2813388696560749
230.0, 0.28592506878216495
231.0, 0.2935645446170928
232.0, 0.2941198208959747
233.0, 0.3049029566108693
234.0, 0.32952391853289426
235.0, 0.35959879546721396
236.0, 0.38108696994613783
237.0, 0.4088752233561125
238.0, 0.4342398276240332
239.0, 0.45697210518476544
240.0, 0.4793007719580304
241.0, 0.4890380785421875
242.0, 0.5017778901802918
243.0, 0.5036695553971149
244.0, 0.488761295840198
245.0, 0.4677806442766792
246.0, 0.4404328056877688
247.0, 0.40616180266718804
248.0, 0.3675485234689862
249.0, 0.3271945123987593
250.0, 0.2853517062397849
251.0, 0.24817193201095286
252.0, 0.21684636135452034
253.0, 0.19005645235610474
254.0, 0.16602205530372505
255.0, 0.1452867953559324
256.0, 0.12995058636748977
257.0, 0.12160486665994079
258.0, 0.11550042322767366
259.0, 0.10204466243214162
260.0, 0.09810533962703948
261.0, 0.09522704549490384
262.0, 0.09066629682414667
263.0, 0.0873792040465934
264.0, 0.08338878102978822
265.0, 0.08074272612638826
266.0, 0.08396756324857312
267.0, 0.09024995750561832
268.0, 0.08685464595775726
269.0, 0.0932330120017645
270.0, 0.09570072086208158
271.0, 0.09444700080419789
272.0, 0.09511346484081191
273.0, 0.09482111025120687
274.0, 0.09478911697179883
275.0, 0.08820896369963184
276.0, 0.08104443155854739
277.0, 0.08327680464075345
278.0, 0.07101398490207356
279.0, 0.061796947562556576
280.0, 0.05134475995844699
281.0, 0.03967838175854152
282.0, 0.03872528027654675
283.0, 0.03276649110676852
284.0, 0.02775694612961037
285.0, 0.019641479177328135
286.0, 0.007745443691920692
287.0, 0.004232432353629895
288.0, 0.0016568633223424814
289.0, 0.005189451657874899
290.0, 0.00793775079923849
291.0, 0.001746306190679317
292.0, 0.0010321408083976177
293.0, 0.0037003194793521622
294.0, 0.007350275257476059
295.0, 0.007856730473096268
296.0, 0.007902478461641601
297.0, 0.0015593744211953807
298.0, 0.001166251527883842
299.0, 0.008370398538704204
300.0, 0.006843602927270665
301.0, 0.004676642051538861
302.0, 0.006985146899528834
303.0, 0.004006948611869643
304.0, 0.0006552096671229218
305.0, 0.0008581345705196931
306.0, 0.007212780016195349
307.0, 0.009382072564875728
308.0, 0.016088981873873046
309.0, 0.027023112256547455
310.0, 0.03329926895824594
311.0, 0.03166856807761877
312.0, 0.04723852921435666
313.0, 0.06427543241943018
314.0, 0.07167857397416155
315.0, 0.07437798771035947
316.0, 0.08812856170582535
317.0, 0.08785362424794388
318.0, 0.08553599664340346
319.0, 0.09016713529569473
320.0, 0.09096165156525915
321.0, 0.09503624151222159
322.0, 0.10102433624364715
323.0, 0.1060179233379691
324.0, 0.10788811649169282
325.0, 0.10737183044633097
326.0, 0.12490795970083353
327.0, 0.13897538200965623
328.0, 0.14397147511979597
329.0, 0.1489950948135687
330.0, 0.15435340862730298
331.0, 0.15548058425686095
332.0, 0.15794865530971877
333.0, 0.16418531558474012
334.0, 0.16924036304976586
335.0, 0.16718570481428788
336.0, 0.17274024993213252
337.0, 0.1825427832235982
338.0, 0.18371749541897298
339.0, 0.17323265944547836
340.0, 0.17781316232855465
341.0, 0.17280395405082435
342.0, 0.175441007143777
343.0, 0.18398404593874892
344.0, 0.18143916235178723
345.0, 0.182239685165641
346.0, 0.19770539193505346
347.0, 0.20780813542243537
348.0, 0.20700501122916304
349.0, 0.21045612860527216
350.0, 0.21651313845322245
351.0, 0.22774749028664096
352.0, 0.24387130247684835
353.0, 0.2618852587182841
354.0, 0.27545143501924507
355.0, 0.29094981477709175
356.0, 0.3144772759719903
357.0, 0.34213470940476964
358.0, 0.3721962259907982
359.0, 0.4097230897922841
360.0, 0.4558238993266437
361.0, 0.5073683272305692
362.0, 0.5644151403578139
363.0, 0.623818780289519
364.0, 0.6829551654933792
365.0, 0.7516941748793549
366.0, 0.8274312031796355
367.0, 0.8850089677221618
368.0, 0.9258143375961114
369.0, 0.9743462661295806
370.0, 0.9977843419898433
371.0, 0.9954807428836192
372.0, 0.9669645340083857
373.0, 0.9143130398909117
374.0, 0.8478348161586047
375.0, 0.7807922892926035
376.0, 0.7099446732913116
377.0, 0.6332960252259258
378.0, 0.5577068121411028
379.0, 0.49976280264070727
380.0, 0.43605723122047635
381.0, 0.386386580100951
382.0, 0.3452433938042559
383.0, 0.3054001968876985
384.0, 0.2722930737083833
385.0, 0.2396840835097606
386.0, 0.21406094138419307
387.0, 0.19029155369742737
388.0, 0.1666297910647503
389.0, 0.14870529460866766
390.0, 0.13503056064396088
391.0, 0.1261107560702574
392.0, 0.12256836247322754
393.0, 0.11885995619647312
394.0, 0.1057593777710485
395.0, 0.09564396158991861
396.0, 0.09159667315449899
397.0, 0.08731538579685226
398.0, 0.07837162469887059
399.0, 0.0694497326819692
400.0, 0.06937633631546447
401.0, 0.06170489623652908
402.0, 0.05913991912977209
403.0, 0.05828957564045448
404.0, 0.05225418588566384
405.0, 0.05995998800655245
406.0, 0.05236295439034164
407.0, 0.05764955486957184
408.0, 0.06250852793224829
409.0, 0.05142763925131401
410.0, 0.0485485904303532
411.0, 0.04709084654577591
412.0, 0.042096848863762186
413.0, 0.035816016061091194
414.0, 0.03150174505913066
415.0, 0.03004707745849633
416.0, 0.027719926958129724
417.0, 0.016628173086085007
418.0, 0.008161301377483299
419.0, 0.008539371080563702
420.0, 0.0052824810360866245
421.0, 0.004290152705903495
422.0, 0.0072081177735360945
423.0, 0.004608716009314768
424.0, 0.003538603820148957
425.0, 0.006263082253182889
426.0, 0.007847307555737005
427.0, 0.010372938649384555
428.0, 0.012454216393573537
429.0, 0.01133769236714023
430.0, 0.005419497688862263
431.0, 0.0021051247281129734
432.0, 0.005091947809745887
433.0, 0.004522585861787416
434.0, 0.002790251898436652
435.0, 0.0022974803186759933
436.0, 0.002982195962715683
437.0, 0.003266842727965048
438.0, 0.004336114443528496
439.0, 0.009908833400925033
440.0, 0.003469176551877399
441.0, 0.0044174447497089715
442.0, 0.0009996830613921753
443.0, 0.0008697500745200918
444.0, 0.0014891661269409457
445.0, 0.004757875764884531
446.0, 0.007086488273926356
447.0, 0.009110562719443462
448.0, 0.004830333927110636
449.0, 0.0072650299813045395
450.0, 0.010970012301537314
451.0, 0.008883859245563756
452.0, 0.012155682469634294
453.0, 0.015512785077227182
454.0, 0.016164484426649025
455.0, 0.019448464198561853
456.0, 0.02344083344945432
457.0, 0.019096309441614032
458.0, 0.020714565272212958
459.0, 0.030050973152873042
460.0, 0.02889019593936533
461.0, 0.024905983142562715
462.0, 0.03160597319489729
463.0, 0.028865148464707866
464.0, 0.03678198812244795
465.0, 0.03683469759250774
466.0, 0.031727036543759246
467.0, 0.032805109580212745
468.0, 0.04292330025591745
469.0, 0.046563216582110246
470.0, 0.04866448700074693
471.0, 0.05008973269794076
472.0, 0.055385488666906034
473.0, 0.06996993224811045
474.0, 0.0703462879143241
475.0, 0.07245787541404503
476.0, 0.07825095169328394
477.0, 0.07923280146415854
478.0, 0.07316033421255774
479.0, 0.07397447472999163
480.0, 0.07790971321344049
481.0, 0.08197786099526712
482.0, 0.08581027717614237
483.0, 0.09043898886520366
484.0, 0.09583948029212609
485.0, 0.08751989351267181
486.0, 0.08953813722067944
487.0, 0.09413181514309134
488.0, 0.09558142018556669
489.0, 0.09555687791405133
490.0, 0.09962046658396824
491.0, 0.09887846663434618
492.0, 0.09504136015929913
493.0, 0.09388021277490917
494.0, 0.09797176557950853
495.0, 0.10399090991521646
496.0, 0.10846948974610598
497.0, 0.11348011467334357
498.0, 0.11372767144233682
499.0, 0.10921590977993562
500.0, 0.10384594802139706
501.0, 0.09941807877966265
502.0, 0.10847075678041677
503.0, 0.10811897068313538
504.0, 0.10258730874797484
505.0, 0.09951890997885997
506.0, 0.09565969931466638
507.0, 0.08844565663650486
508.0, 0.08323406460124481
509.0, 0.08312026981255294
510.0, 0.07730259735227585
511.0, 0.06737580813112885
512.0, 0.06498530675452177
513.0, 0.058799450607275074
514.0, 0.06267581937594402
515.0, 0.06185624067448024
516.0, 0.055977284167234735
517.0, 0.05136670554326322
518.0, 0.043783017519081924
519.0, 0.04220425853467211
520.0, 0.042148654837241936
521.0, 0.0403221040350499
522.0, 0.03989435716368042
523.0, 0.041291843693663705
524.0, 0.03534139504598892
525.0, 0.031951364275522975
526.0, 0.04528109973481279
527.0, 0.05142849884382754
528.0, 0.04841347033916289
529.0, 0.05116031865563191
530.0, 0.048159805886435376
531.0, 0.043218237642284656
532.0, 0.04495499026838176
533.0, 0.05246924762854976
534.0, 0.05967357734102061
535.0, 0.06089650071300966
536.0, 0.0531315065455895
537.0, 0.0526675703804824
538.0, 0.05759618507964
539.0, 0.05479863455761224
540.0, 0.046635695412836145
541.0, 0.050656535564693614
542.0, 0.041099219543937575
543.0, 0.03202033283001876
544.0, 0.029245758988237242
545.0, 0.030174251422641785
546.0, 0.03179915564351405
547.0, 0.03279824182775297
548.0, 0.031924663421785605
549.0, 0.02424248004736645
550.0, 0.019388315251353337
551.0, 0.022102672283017016
552.0, 0.026874836224150343
553.0, 0.024800901081538276
554.0, 0.014576940138433232
555.0, 0.008164733079961614
556.0, 0.013000452485954621
557.0, 0.01792651768686915
558.0, 0.011775925090668733
559.0, 0.011360850572963726
560.0, 0.003363837629686957
561.0, 0.007519558249293279
562.0, 0.00974983126452141
563.0, 0.003229894879620829
564.0, 0.00176139177036073
565.0, 0.008366637441527493
566.0, 0.0012538307446814843
567.0, 0.0035191604471472163
568.0, 0.0016943592132038906
569.0, 0.004188854660451756
570.0, 0.007455241161953821
571.0, 0.003961028686684077
572.0, 0.005756556710107686
573.0, 0.006390673079925846
574.0, 0.0028580984163320377
575.0, 0.000765190715947376
576.0, 0.0009301897275843833
577.0, 0.007111365014036802
578.0, 0.004210663395167313
579.0, 0.005289600181218295
580.0, 0.00774883067881233
581.0, 0.007833952000907855
582.0, 0.005123207850205057
583.0, 0.008276357031761902
584.0, 0.0029678764505444146
585.0, 0.003834748218076485
586.0, 0.0026245647785988727
587.0, 0.0016448860815314638
588.0, 0.002158223202816573
589.0, 0.002930723585319605
590.0, 0.004185164004975453
591.0, 0.0024292578643483856
592.0, 0.004322738700617393
593.0, 0.00793747905505002
594.0, 0.003273296179523612
595.0, 0.007577544154530577
596.0, 0.005904914979743672
597.0, 0.013090008222676022
598.0, 0.01744439857412212
599.0, 0.015538197246381759
600.0, 0.0106511629368466
601.0, 0.002398908212571517
602.0, 0.006412896934249006
603.0, 0.012166299493588034
604.0, 0.013258637497140768
605.0, 0.014466454915485665
606.0, 0.013854102252946357
607.0, 0.006358357873959369
608.0, 0.0009826432226192005
609.0, 0.006832163051833381
610.0, 0.009305865497132703
611.0, 0.009658140109862476
612.0, 0.012641469060442712
613.0, 0.013954156892593831
614.0, 0.012637797736661288
615.0, 0.012513730022683113
616.0, 0.008040792913847326
617.0, 0.00669818753037051
618.0, 0.0075448928516608045
619.0, 0.004533776102077339
620.0, 0.013540164322549184
621.0, 0.006029065000688138
622.0, 0.010466314030116717
623.0, 0.01859069841243467
624.0, 0.020927176313903544
625.0, 0.019624644042591042
626.0, 0.015346832599943178
627.0, 0.021226096467493707
628.0, 0.027803148842144798
629.0, 0.033176083633843396
630.0, 0.0300814955384425
631.0, 0.023118604151454464
632.0, 0.029900487178899596
633.0, 0.03793137106181874
634.0, 0.04229518603775479
635.0, 0.03483182289219821
636.0, 0.032703364308095964
637.0, 0.033662357439747784
638.0, 0.023503961535350917
639.0, 0.027307760998343124
640.0, 0.02446401940531291
641.0, 0.02603689474378308
642.0, 0.031546080289660876
643.0, 0.031252382294619636
644.0, 0.029281249302021334
645.0, 0.038341637066888284
646.0, 0.04338437373369207
647.0, 0.043781044348099235
648.0, 0.05601515616984468
649.0, 0.06901729232520747
650.0, 0.07472802675870759
651.0, 0.08309715862009276
652.0, 0.0875823623360077
653.0, 0.09008583079393478
654.0, 0.09009235827062964
655.0, 0.09448652102201319
656.0, 0.10235384736887243
657.0, 0.11055679189008276
658.0, 0.12358094374926629
659.0, 0.13027617294766303
660.0, 0.1413406905506568
661.0, 0.14342632196124247
662.0, 0.1485203271700828
663.0, 0.16048919026658526
664.0, 0.16165857808596645
665.0, 0.16839363683881456
666.0, 0.17964230852555763
667.0, 0.18833498683610228
668.0, 0.19721675768687666
669.0, 0.19734327169807983
670.0, 0.19271612046509282
671.0, 0.20368688813795593
672.0, 0.19087897196188508
673.0, 0.17402528897223468
674.0, 0.17081000384724623
675.0, 0.16551539438146284
676.0, 0.15113866294210224
677.0, 0.13920143218130004
678.0, 0.13352957545656427
679.0, 0.12424927782611425
680.0, 0.11772105724576325
681.0, 0.1043236729342646
682.0, 0.09754113864234397
683.0, 0.09959972820172892
684.0, 0.09512191021333043
685.0, 0.08433648819642897
686.0, 0.07743640626580993
687.0, 0.0849041023261855
688.0, 0.08460610445028766
689.0, 0.07901895063330848
690.0, 0.08185671094231388
691.0, 0.09225895477797096
692.0, 0.10091719357177067
693.0, 0.10903109003154875
694.0, 0.11438165428837688
695.0, 0.11416868312002086
696.0, 0.11897178077594206
697.0, 0.13210809841537638
698.0, 0.1459509130861836
699.0, 0.17313967341909878
700.0, 0.1864349645090298
701.0, 0.1958433487678839
702.0, 0.20799967534216793
703.0, 0.2268750218137078
704.0, 0.24939796384425417
705.0, 0.2687051639174944
706.0, 0.29209062557212995
707.0, 0.30924378743510966
708.0, 0.32204568028945485
709.0, 0.33597491894326537
710.0, 0.34528785820346536
711.0, 0.3517678501889042
712.0, 0.3620457362838242
713.0, 0.3502276054178566
714.0, 0.3455558069783142
715.0, 0.3331932645917228
716.0, 0.30879968189952056
717.0, 0.28375409314187733
718.0, 0.2604987104622699
719.0, 0.22582317549202907
720.0, 0.19812569100900065
721.0, 0.1665783408595586
722.0, 0.14112114831509448
723.0, 0.12418309304682673
724.0, 0.10608415370849605
725.0, 0.08608858811137886
726.0, 0.07336404868550314
727.0, 0.06272078256252184
728.0, 0.04531335304146277
729.0, 0.03662622158545736
730.0, 0.03642991218351318
731.0, 0.032545707206105653
732.0, 0.0241189914928508
733.0, 0.022896702236097525
734.0, 0.010776944159383932
735.0, 0.007661330183135558
736.0, 0.0025667967156541996
737.0, 0.0016761770764047042
738.0, 0.0029538256064125796
739.0, 0.00503758586475701
740.0, 0.008594844985153385
741.0, 0.00060685808754905
742.0, 0.004222577585659853
743.0, 0.0015021967004600718
744.0, 0.0024805578373411066
745.0, 0.0013783999684088156
746.0, 0.0014091967576209613
747.0, 0.0025717478608727512
748.0, 0.014974533152841597
749.0, 0.019403979932473968
750.0, 0.0181509146116508
751.0, 0.015577665567048397
752.0, 0.013947073572334576
753.0, 0.015166018500600514
754.0, 0.015935831446820748
755.0, 0.013915914506194851
756.0, 0.020646844536260516
757.0, 0.023146928944416802
758.0, 0.02804603125179879
759.0, 0.02944078671946174
760.0, 0.027842117028128964
761.0, 0.027583662632589476
762.0, 0.02756699881712324
763.0, 0.02702325018272268
764.0, 0.025151205993630424
765.0, 0.02254796441859741
766.0, 0.018152172690439235
767.0, 0.014488227331673747
768.0, 0.007988038894196402
769.0, 0.0008721658667141296
770.0, 0.011625731795674952
771.0, 0.012303904731195206
772.0, 0.008450147523029581
773.0, 0.0033392665058598328
774.0, 0.00045466904911374133
775.0, 0.0018437041637142492
776.0, 0.0023772077222581167
777.0, 0.010035928289830607
778.0, 0.0045176631440975315
779.0, 0.0009627444340065057
780.0, 0.0046168627569073
781.0, 0.0007441382848732411
782.0, 0.0024849195284164815
783.0, 0.0013849584368094568
784.0, 0.004377771645696293
785.0, 0.0003731818563190082
786.0, 0.0013892385594768142
787.0, 0.004634720079263019
788.0, 0.01085275214703811
789.0, 0.013332129585287912
790.0, 0.011831186600285022
791.0, 0.014179503733775583
792.0, 0.023688624888266858
793.0, 0.029636381457060875
794.0, 0.026570839463320534
795.0, 0.027473842381280405
796.0, 0.028184191181558287
797.0, 0.024305059113253088
798.0, 0.01926296335774007
799.0, 0.017390054163951545
800.0, 0.01975192383976707
801.0, 0.02698676536742375
802.0, 0.024942258530808687
803.0, 0.027093352446102118
804.0, 0.031639367332404696
805.0, 0.039122575375586534
806.0, 0.03868099985501469
807.0, 0.03509989999175495
808.0, 0.04120380830686943
809.0, 0.040259861497479885
810.0, 0.03917816534432068
811.0, 0.03319258445964834
812.0, 0.03167062069354846
813.0, 0.03790852311282363
814.0, 0.044081454450879555
815.0, 0.05051420440175783
816.0, 0.05608809645783336
817.0, 0.05083150777987951
818.0, 0.057391154061725576
819.0, 0.06087730923309014
820.0, 0.0642691424254619
821.0, 0.06506290921379504
822.0, 0.06122517032311972
823.0, 0.056757920606152396
824.0, 0.055202481670783614
825.0, 0.052890566008692894
826.0, 0.04324774631057151
827.0, 0.051039890477952925
828.0, 0.0409768502180362
829.0, 0.03880497908962414
830.0, 0.03430374775327509
831.0, 0.026123633729338052
832.0, 0.028174007299707315
833.0, 0.022784655595166143
834.0, 0.017491802310733558
835.0, 0.016571368054558125
836.0, 0.017021762686623636
837.0, 0.008166831662273229
838.0, 0.004580793471721054
839.0, 0.004807784543468702
840.0, 0.0029052833334481266
841.0, 0.0027839041251966974
842.0, 0.0035054381308740837
843.0, 0.006996076070818747
844.0, 0.006597358871957866
845.0, 0.00615393538934423
846.0, 0.005496260912330721
847.0, 0.008801208665399287
848.0, 0.011203136698613418
849.0, 0.003530459095036477
850.0, 0.004017799519416182
851.0, 0.005732250829747088
852.0, 0.002616896497357689
853.0, 0.0009281396492574705
854.0, 0.00047102669192068013
855.0, 0.0019413389954051783
856.0, 0.0027534156052787945
857.0, 0.0051175213881118975
858.0, 0.01393268015410604
859.0, 0.009201101586460009
860.0, 0.0020983873648157706
861.0, 0.008059128933982529
862.0, 0.014524972156316356
863.0, 0.015555746704672082
864.0, 0.0099352079347833
865.0, 0.008402692815113102
866.0, 0.015131478710660643
867.0, 0.014787532534249373
868.0, 0.010247304973498008
869.0, 0.012556959516703327
870.0, 0.01707123049224005
871.0, 0.01683731956640639
872.0, 0.023312236193303276
873.0, 0.026999730203663252
874.0, 0.026070995154851163
875.0, 0.029629422938689556
876.0, 0.02342277288644511
877.0, 0.03362640919010143
878.0, 0.02103290975179595
879.0, 0.021691183737058483
880.0, 0.02612735691473014
881.0, 0.02207803170422343
882.0, 0.02311838429635541
883.0, 0.028498506045860666
884.0, 0.025642901180503642
885.0, 0.03285636628992346
886.0, 0.033849436007572904
887.0, 0.02351981194892619
888.0, 0.015673107307352836
889.0, 0.016612391867666665
890.0, 0.013197960805638018
891.0, 0.013673127360580559
892.0, 0.017815488585411862
893.0, 0.0154267573163986
894.0, 0.019486644694105253
895.0, 0.010179838407848025
896.0, 0.00514286245137979
897.0, 0.008885979502935869
898.0, 0.01717273872212466
899.0, 0.012091243687702345
900.0, 0.0030818725813352814
901.0, 0.0010399985516718565
902.0, 0.0072220374719333255
903.0, 0.0030276979708307172
904.0, 0.0017251897930189667
905.0, 0.010195556663828566
906.0, 0.014457171539589373
907.0, 0.016705693833430353
908.0, 0.013640843941052274
909.0, 0.009199894801835883
910.0, 0.00812554503397704
911.0, 0.009275533447546315
912.0, 0.009208135526646344
913.0, 0.010699441643703513
914.0, 0.01169556057445318
915.0, 0.0105667952935931
916.0, 0.009305173675447188
917.0, 0.012128955743529039
918.0, 0.010467575631866743
919.0, 0.00629344589344713
920.0, 0.008925266713316326
921.0, 0.012835480621080884
922.0, 0.007064564401728572
923.0, 0.0019988574969940927
924.0, 0.0021752133008998207
925.0, 0.0025773139138492297
926.0, 0.001654933309204053
927.0, 0.006724592700586624
928.0, 0.007809281772108805
929.0, 0.008112161803010179
930.0, 0.013803811541932644
931.0, 0.02074901655497874
932.0, 0.02338286855861622
933.0, 0.025075952092969176
934.0, 0.014541713744144117
935.0, 0.013313068690541932
936.0, 0.01688084809362845
937.0, 0.019318567592031013
938.0, 0.01775394607371137
939.0, 0.013953537710263777
940.0, 0.015944374284175004
941.0, 0.02303331347211577
942.0, 0.02507939218801504
943.0, 0.03076683713504101
944.0, 0.02650266020331231
945.0, 0.02292697737288759
946.0, 0.030435888667061515
947.0, 0.03157195565075674
948.0, 0.02363860665541687
949.0, 0.020564526913968293
950.0, 0.023332538340207317
951.0, 0.025636270875033815
952.0, 0.03250831468749474
953.0, 0.03284522554456494
954.0, 0.03134117688602872
955.0, 0.03370380746967938
956.0, 0.02510608468977718
957.0, 0.020881655123602055
958.0, 0.029953133431873207
959.0, 0.04227019277106767
960.0, 0.041965288974259975
961.0, 0.03068138590791981
962.0, 0.04098568953731262
963.0, 0.0345045323649798
964.0, 0.02921446049066169
965.0, 0.029346694605794338
966.0, 0.03199256025198231
967.0, 0.03133135916220372
968.0, 0.03593839517882125
969.0, 0.03618370444523058
970.0, 0.02867115188911719
971.0, 0.027986908136532145
972.0, 0.02122678768328489
973.0, 0.027820995849781253
974.0, 0.02014083892000259
975.0, 0.022490717800866346
976.0, 0.01804337618993449
977.0, 0.015810622240546447
978.0, 0.01304919856283612
979.0, 0.010599633899288693
980.0, 0.01366751328721656
981.0, 0.01894964402803535
982.0, 0.02289402663085817
983.0, 0.01207418579522861
984.0, 0.011972162838083032
985.0, 0.01500881956974986
986.0, 0.011595387727036745
987.0, 0.0030220295776270936
988.0, 0.008433073052028528
989.0, 0.009819700173752659
990.0, 0.002009148506005355
991.0, 0.0025474312811539675
992.0, 0.0005962371539357821
993.0, 0.0011952746569189494
994.0, 0.0119944469485896
995.0, 0.013946007629830856
996.0, 0.002361174859230114
997.0, 0.0044239714573764315
998.0, 0.0008512234670834073
999.0, 0.0031541318443277806
1000.0, 0.0010327673822957655
1001.0, 0.006922100698728901
1002.0, 0.00627692085688271
1003.0, 0.00026156574401153435
1004.0, 0.0019873829614373926
1005.0, 0.0012426451639639957
1006.0, 0.00506921523964913
1007.0, 0.008018146299078866
1008.0, 0.007502215867131949
1009.0, 0.00960760246388993
1010.0, 0.00040346588737120125
1011.0, 0.0011380229379351955
1012.0, 0.005024652793806957
1013.0, 0.006446624415329212
1014.0, 0.009414755037751134
1015.0, 0.016058102864369136
1016.0, 0.019912094338996867
1017.0, 0.026049778674242532
1018.0, 0.022628834827781878
1019.0, 0.019941245244968864
1020.0, 0.018591144478576033
1021.0, 0.02100016881165183
1022.0, 0.026233121692422253
1023.0, 0.025071828899424425
1024.0, 0.028212006754296456
1025.0, 0.038704255559075244
1026.0, 0.040035038920816446
1027.0, 0.04559900243329125
1028.0, 0.042793594675713156
1029.0, 0.0534893367335067
1030.0, 0.060790616424220935
1031.0, 0.06567974142646638
1032.0, 0.06941710769480704
1033.0, 0.06483876331225412
1034.0, 0.05775288293881875
1035.0, 0.06959278503904195
1036.0, 0.08991007046978872
1037.0, 0.09429656324394811
1038.0, 0.0855017329425725
1039.0, 0.08040081249806937
1040.0, 0.09512360825592783
1041.0, 0.09151443402434496
1042.0, 0.09156551154748521
1043.0, 0.10332818491517962
1044.0, 0.10749184868604124
1045.0, 0.10717404200972794
1046.0, 0.1124796328529968
1047.0, 0.11972478739630743
1048.0, 0.12621449188702408
1049.0, 0.1226076666348501
1050.0, 0.11232114390334857
1051.0, 0.11436317986974032
1052.0, 0.11057659891562818
1053.0, 0.11843025566965971
1054.0, 0.1309734012950966
1055.0, 0.12553255678136466
1056.0, 0.12774877352637476
1057.0, 0.1455352111183881
1058.0, 0.1450867944045203
1059.0, 0.1417879260107949
1060.0, 0.1487179801321107
1061.0, 0.1579839343539598
1062.0, 0.1613198880588642
1063.0, 0.1607656031038553
1064.0, 0.162812908243679
1065.0, 0.15926090687569794
1066.0, 0.16243745535528115
1067.0, 0.1675303945102626
1068.0, 0.16908851797489652
1069.0, 0.16211616263832285
1070.0, 0.15862061181006387
1071.0, 0.15991821176591686
1072.0, 0.15523414506602295
1073.0, 0.14835072366440705
1074.0, 0.14505547929820556
1075.0, 0.13590105869511895
1076.0, 0.12304525918716851
1077.0, 0.11862143011847534
1078.0, 0.10719924461814258
1079.0, 0.11506260391810659
1080.0, 0.10884151184061953
1081.0, 0.10702910230206418
1082.0, 0.10553070169858127
1083.0, 0.1020375986078257
1084.0, 0.09599586209136335
1085.0, 0.08476024871742864
1086.0, 0.07748488888879422
1087.0, 0.07972660017167157
1088.0, 0.07994773050126174
1089.0, 0.07671459259655754
1090.0, 0.0740888520165307
1091.0, 0.062011138534597346
1092.0, 0.06710752992878621
1093.0, 0.07576363380430326
1094.0, 0.06499212156740015
1095.0, 0.04670321037327868
1096.0, 0.05107596108577795
1097.0, 0.046888099443530055
1098.0, 0.03856077485213807
1099.0, 0.04263682885060266
1100.0, 0.04826428309889501
1101.0, 0.05009990096106104
1102.0, 0.053254468162316354
1103.0, 0.05159734183904917
1104.0, 0.048057242342242464
1105.0, 0.05609098048277353
1106.0, 0.05531328546237169
1107.0, 0.06937777131486789
1108.0, 0.07969845769393868
1109.0, 0.08530613694613752
1110.0, 0.07952964191313038
1111.0, 0.07835343821505455
1112.0, 0.06610816309260525
1113.0, 0.05608577450519368
1114.0, 0.05804387037809961
1115.0, 0.07014051792770844
1116.0, 0.07917813541770323
1117.0, 0.07627618701270218
1118.0, 0.06783980777668233
1119.0, 0.05983384928282333
1120.0, 0.052420784387965574
1121.0, 0.04053213526674436
1122.0, 0.044075087519290866
1123.0, 0.04670450556734209
1124.0, 0.030211662285985937
1125.0, 0.025658444437221015
1126.0, 0.024986155519573845
1127.0, 0.025632533873659366
1128.0, 0.02486750404547669
1129.0, 0.01396984897325782
1130.0, 0.003483766355039967
1131.0, 0.002524981844946407
1132.0, 0.0029999959562355427
1133.0, 0.0010476195411117876
1134.0, 0.0020121642648860604
1135.0, 0.003922985222871601
1136.0, 0.009059118109366257
1137.0, 0.00498377803343647
1138.0, 0.001285313184717181
1139.0, 0.00174641630539881
1140.0, 0.004603846336925156
1141.0, 0.007987537946590106
1142.0, 0.007807085439072154
1143.0, 0.004945612693597118
1144.0, 0.0008541579963393907
1145.0, 0.0017993211042926158
1146.0, 0.010073775629028687
1147.0, 0.007948632333719705
1148.0, 0.0029842829451883638
1149.0, 0.0023524690388488246
1150.0, 0.006913750143481331
1151.0, 0.0018901320095324765
1152.0, 0.005410893796017564
1153.0, 0.013771306347215384
1154.0, 0.015986710655982783
1155.0, 0.001871820823190566
1156.0, 0.004429548169180658
1157.0, 0.003076559339556749
1158.0, 0.0036379648369014245
1159.0, 0.005707503036876129
1160.0, 0.003273373402877897
1161.0, 0.004779449294463229
1162.0, 0.014802634710113045
1163.0, 0.013642715427826404
1164.0, 0.002645175304977767
1165.0, 0.0021330184117876834
1166.0, 0.001990653295427975
1167.0, 0.0008480451219169245
1168.0, 0.0023176058555559806
1169.0, 0.008107786491537046
1170.0, 0.004831240742468584
1171.0, 0.0016752199485308146
1172.0, 0.007374513054835798
1173.0, 0.016467059823050436
1174.0, 0.01620835848985731
1175.0, 0.008661760490436645
1176.0, 0.014821047358528324
1177.0, 0.0184810934593154
1178.0, 0.022568558928050462
1179.0, 0.03760985305087484
1180.0, 0.04108679798490584
1181.0, 0.02721529750264331
1182.0, 0.018308377720008102
1183.0, 0.011006964622721594
1184.0, 0.001606473451384206
1185.0, 0.005889427089128019
1186.0, 0.009518873284347949
1187.0, 0.0013241397876369938
1188.0, 0.01083788107248921
1189.0, 0.020926737864703678
1190.0, 0.024638683461021958
1191.0, 0.03209187310086196
1192.0, 0.03248323311682801
1193.0, 0.02873245656028896
1194.0, 0.03743431619653848
1195.0, 0.03684611723254893
1196.0, 0.03249739069911259
1197.0, 0.03580935445797767
1198.0, 0.0349253348305244
1199.0, 0.03347732380535791
1200.0, 0.029886675285858703
1201.0, 0.02544508163514996
1202.0, 0.028578825835679507
1203.0, 0.03083771338313086
1204.0, 0.02756390627358256
1205.0, 0.02936468948685844
1206.0, 0.031591165820118824
1207.0, 0.029342442300701994
1208.0, 0.03607892371972139
1209.0, 0.03508310513594331
1210.0, 0.03154171542971467
1211.0, 0.03370005538177234
1212.0, 0.033551488737093516
1213.0, 0.02322968102742666
1214.0, 0.03453781912904588
1215.0, 0.03687329955692085
1216.0, 0.02677469993836163
1217.0, 0.026613226664086883
1218.0, 0.031020364938815114
1219.0, 0.03494964330534754
1220.0, 0.029676563326329047
1221.0, 0.02217861305297829
1222.0, 0.03092360235302526
1223.0, 0.03488077383942726
1224.0, 0.034177407174293385
1225.0, 0.037046309625453064
1226.0, 0.029317588125204543
1227.0, 0.02806362137517238
1228.0, 0.022908968582739244
1229.0, 0.02429842060725854
1230.0, 0.029422756976098176
1231.0, 0.02455574975184911
1232.0, 0.024529944814656767
1233.0, 0.024571098385541203
1234.0, 0.02512927412131672
1235.0, 0.02539757352240172
1236.0, 0.02616694690703872
1237.0, 0.028873555928414747
1238.0, 0.025385647733501427
1239.0, 0.012701455277714675
1240.0, 0.01156839241831928
1241.0, 0.013586306160086383
1242.0, 0.01133797743289974
1243.0, 0.01111601317050665
1244.0, 0.016351278411885568
1245.0, 0.01701203926374751
1246.0, 0.01548028023566866
1247.0, 0.012948743255766764
1248.0, 0.008942711523502298
1249.0, 0.00564425715245834
1250.0, 0.0007994170177957742
1251.0, 0.001887464543431522
1252.0, 0.004080684369846372
1253.0, 0.004115124624421066
1254.0, 0.00442129053496764
1255.0, 0.003811085242850047
1256.0, 0.007692314126100532
1257.0, 0.005903694353639655
1258.0, 0.016515835511093674
1259.0, 0.023018365693940192
1260.0, 0.025273615736078916
1261.0, 0.024314314770477945
1262.0, 0.009384010516812195
1263.0, 0.01968209917598553
1264.0, 0.024847477082641792
1265.0, 0.021834843984675664
1266.0, 0.028934159616513792
1267.0, 0.027699483838830908
1268.0, 0.018092982360492622
1269.0, 0.020079364816498958
1270.0, 0.009941028698834719
1271.0, 0.009167234976151637
1272.0, 0.020724239998288978
1273.0, 0.021669073820340168
1274.0, 0.019098252788855893
1275.0, 0.01616751768923429
1276.0, 0.011633103357545648
1277.0, 0.010535012808778998
1278.0, 0.008033558222753576
1279.0, 0.008666346630949255
1280.0, 0.011096201336861436
1281.0, 0.009922370328944169
1282.0, 0.00046799015284724636
1283.0, 0.005225707136199515
1284.0, 0.004266575869360854
1285, 0.0
1286, 0.0
1287, 0.0
1288, 0.0
1289, 0.0
1290, 0.0
1291, 0.0
1292, 0.0
1293, 0.0
1294, 0.0
1295, 0.0
1296, 0.0
1297, 0.0
1298, 0.0
1299, 0.0
1300, 0.0
1301, 0.0
1302, 0.0
1303, 0.0
1304, 0.0
1305, 0.0
1306, 0.0
1307, 0.0
1308, 0.0
1309, 0.0
1310, 0.0
1311, 0.0
1312, 0.0
1313, 0.0
1314, 0.0
1315, 0.0
1316, 0.0
1317, 0.0
1318, 0.0
1319, 0.0
1320, 0.0
1321, 0.0
1322, 0.0
1323, 0.0
1324, 0.0
1325, 0.0
1326, 0.0
1327, 0.0
1328, 0.0
1329, 0.0
1330, 0.0
1331, 0.0
1332, 0.0
1333, 0.0
1334, 0.0
1335, 0.0
1336, 0.0
1337, 0.0
1338, 0.0
1339, 0.0
1340, 0.0
1341, 0.0
1342, 0.0
1343, 0.0
1344, 0.0
1345, 0.0
1346, 0.0
1347, 0.0
1348, 0.0
1349, 0.0
1350, 0.0
1351, 0.0
1352, 0.0
1353, 0.0
1354, 0.0
1355, 0.0
1356, 0.0
1357, 0.0
1358, 0.0
1359, 0.0
1360, 0.0
1361, 0.0
1362, 0.0
1363, 0.0
1364, 0.0
1365, 0.0
1366, 0.0
1367, 0.0
1368, 0.0
1369, 0.0
1370, 0.0
1371, 0.0
1372, 0.0
1373, 0.0
1374, 0.0
1375, 0.0
1376, 0.0
1377, 0.0
1378, 0.0
1379, 0.0
1380, 0.0
1381, 0.0
1382, 0.0
1383, 0.0
1384, 0.0
1385, 0.0
1386, 0.0
1387, 0.0
1388, 0.0
1389, 0.0
1390, 0.0
1391, 0.0
1392, 0.0
1393, 0.0
1394, 0.0
1395, 0.0
1396, 0.0
1397, 0.0
1398, 0.0
1399, 0.0
1400, 0.0
1401, 0.0
1402, 0.0
1403, 0.0
1404, 0.0
1405, 0.0
1406, 0.0
1407, 0.0
1408, 0.0
1409, 0.0
1410, 0.0
1411, 0.0
1412, 0.0
1413, 0.0
1414, 0.0
1415, 0.0
1416, 0.0
1417, 0.0
1418, 0.0
1419, 0.0
1420, 0.0
1421, 0.0
1422, 0.0
1423, 0.0
1424, 0.0
1425, 0.0
1426, 0.0
1427, 0.0
1428, 0.0
1429, 0.0
1430, 0.0
1431, 0.0
1432, 0.0
1433, 0.0
1434, 0.0
1435, 0.0
1436, 0.0
1437, 0.0
1438, 0.0
1439, 0.0
1440, 0.0
1441, 0.0
1442, 0.0
1443, 0.0
1444, 0.0
1445, 0.0
1446, 0.0
1447, 0.0
1448, 0.0
1449, 0.0
1450, 0.0
1451, 0.0
1452, 0.0
1453, 0.0
1454, 0.0
1455, 0.0
1456, 0.0
1457, 0.0
1458, 0.0
1459, 0.0
1460, 0.0
1461, 0.0
1462, 0.0
1463, 0.0
1464, 0.0
1465, 0.0
1466, 0.0
1467, 0.0
1468, 0.0
1469, 0.0
1470, 0.0
1471, 0.0
1472, 0.0
1473, 0.0
1474, 0.0
1475, 0.0
1476, 0.0
1477, 0.0
1478, 0.0
1479, 0.0
1480, 0.0
1481, 0.0
1482, 0.0
1483, 0.0
1484, 0.0
1485, 0.0
1486, 0.0
1487, 0.0
1488, 0.0
1489, 0.0
1490, 0.0
1491, 0.0
1492, 0.0
1493, 0.0
1494, 0.0
1495, 0.0
1496, 0.0
1497, 0.0
1498, 0.0
1499, 0.0
1500, 0.0
1501, 0.0
1502, 0.0
1503, 0.0
1504, 0.0
1505, 0.0
1506, 0.0
1507, 0.0
1508, 0.0
1509, 0.0
1510, 0.0
1511, 0.0
1512, 0.0
1513, 0.0
1514, 0.0
1515, 0.0
1516, 0.0
1517, 0.0
1518, 0.0
1519, 0.0
1520, 0.0
1521, 0.0
1522, 0.0
1523, 0.0
1524, 0.0
1525, 0.0
1526, 0.0
1527, 0.0
1528, 0.0
1529, 0.0
1530, 0.0
1531, 0.0
1532, 0.0
1533, 0.0
1534, 0.0
1535, 0.0
1536, 0.0
1537, 0.0
1538, 0.0
1539, 0.0
1540, 0.0
1541, 0.0
1542, 0.0
1543, 0.0
1544, 0.0
1545, 0.0
1546, 0.0
1547, 0.0
1548, 0.0
1549, 0.0
1550, 0.0
1551, 0.0
1552, 0.0
1553, 0.0
1554, 0.0
1555, 0.0
1556, 0.0
1557, 0.0
1558, 0.0
1559, 0.0
1560, 0.0
1561, 0.0
1562, 0.0
1563, 0.0
1564, 0.0
1565, 0.0
1566, 0.0
1567, 0.0
1568, 0.0
1569, 0.0
1570, 0.0
1571, 0.0
1572, 0.0
1573, 0.0
1574, 0.0
1575, 0.0
1576, 0.0
1577, 0.0
1578, 0.0
1579, 0.0
1580, 0.0
1581, 0.0
1582, 0.0
1583, 0.0
1584, 0.0
1585, 0.0
1586, 0.0
1587, 0.0
1588, 0.0
1589, 0.0
1590, 0.0
1591, 0.0
1592, 0.0
1593, 0.0
1594, 0.0
1595, 0.0
1596, 0.0
1597, 0.0
1598, 0.0
1599, 0.0
