30, 0.0
31, 0.0
32, 0.0
33, 0.0
34, 0.0
35, 0.0
36, 0.0
37, 0.0
38, 0.0
39, 0.0
40, 0.0
41, 0.0
42, 0.0
43, 0.0
44, 0.0
45, 0.0
46, 0.0
47, 0.0
48, 0.0
49, 0.0
50, 0.0
51, 0.0
52, 0.0
53, 0.0
54, 0.0
55, 0.0
56, 0.0
57, 0.0
58, 0.0
59, 0.0
60, 0.0
61, 0.0
62, 0.0
63, 0.0
64, 0.0
65, 0.0
66, 0.0
67, 0.0
68, 0.0
69, 0.0
70, 0.0
71, 0.0
72, 0.0
73, 0.0
74, 0.0
75, 0.0
76, 0.0
77, 0.0
78, 0.0
79, 0.0
80, 0.0
81, 0.0
82, 0.0
83, 0.0
84, 0.0
85, 0.0
86, 0.0
87, 0.0
88, 0.0
89, 0.0
90, 0.0
91, 0.0
92, 0.0
93, 0.0
94, 0.0
95, 0.0
96, 0.0
97, 0.0
98, 0.0
99, 0.0
100, 0.0
101, 0.0
102, 0.0
103, 0.0
104, 0.0
105, 0.0
106, 0.0
107, 0.0
108, 0.0
109, 0.0
110, 0.0
111, 0.0
112, 0.0
113, 0.0
114, 0.0
115, 0.0
116, 0.0
117, 0.0
118, 0.0
119, 0.0
120, 0.0
121, 0.0
122, 0.0
123, 0.0
124, 0.0
125, 0.0
126, 0.0
127, 0.0
128, 0.0
129, 0.0
130, 0.0
131, 0.0
132, 0.0
133, 0.0
134, 0.0
135, 0.0
136, 0.0
137, 0.0
138, 0.0
139, 0.0
140, 0.0
141, 0.0
142, 0.0
143, 0.0
144, 0.0
145, 0.0
146, 0.0
147, 0.0
148, 0.0
149, 0.0
150, 0.0
151, 0.0
152, 0.0
153, 0.0
154, 0.0
155, 0.0
156, 0.0
157, 0.0
158, 0.0
159, 0.0
160, 0.0
161, 0.0
162, 0.0
163, 0.0
164, 0.0
165, 0.0
166, 0.0
167, 0.0
168, 0.0
169.0, 0.00025397584600909273
170.0, 0.0008559792407149675
171.0, 0.0023606003588574546
172.0, 0.006157409703318231
173.0, 0.0062273574975917675
174.0, 0.004672369549794015
175.0, 0.002373725322013171
176.0, 0.003612813935079019
177.0, 0.0041196061551777375
178.0, 0.006693418399631803
179.0, 0.014049523587229346
180.0, 0.007533681871759762
181.0, 0.007902131184065946
182.0, 0.014297305728497314
183.0, 0.022204419961775607
184.0, 0.02577947845955648
185.0, 0.032802293679375503
186.0, 0.04515905704194993
187.0, 0.05213793740518867
188.0, 0.05881606521826519
189.0, 0.06745483860498641
190.0, 0.08090351955921116
191.0, 0.09535805933025705
192.0, 0.1063518667699951
193.0, 0.11524904760052304
194.0, 0.12796902333260152
195.0, 0.14707245391445384
196.0, 0.16520781695190942
197.0, 0.17994224150943466
198.0, 0.19891567108604766
199.0, 0.2228161679656519
200.0, 0.24624411358549947
201.0, 0.2625888266210316
202.0, 0.29667910473946374
203.0, 0.3297355219301754
204.0, 0.36271611691768474
205.0, 0.4066593033120709
206.0, 0.4361292479260445
207.0, 0.45804162566368173
208.0, 0.4743640448905751
209.0, 0.482729949017216
210.0, 0.48521208312528397
211.0, 0.48249474810734316
212.0, 0.4743192892654433
213.0, 0.46086531155061533
214.0, 0.4400649552721032
215.0, 0.41420223639267195
216.0, 0.39151341806191237
217.0, 0.35691435157272877
218.0, 0.32388140501791285
219.0, 0.2972876574962215
220.0, 0.2759087418475865
221.0, 0.25962492394926484
222.0, 0.24562676054823213
223.0, 0.23137687414497882
224.0, 0.23173097231577597
225.0, 0.23427285917682705
226.0, 0.24111409578893075
227.0, 0.2621795802458756
228.0, 0.2779235196646335
229.0, 0.3093295338955318
230.0, 0.35956515921191534
231.0, 0.3883553793068665
232.0, 0.4357312401592823
233.0, 0.4924364504005976
234.0, 0.5523424655390952
235.0, 0.6070532255588816
236.0, 0.662517054056562
237.0, 0.7125187301937301
238.0, 0.7416410001035179
239.0, 0.7619564137119194
240.0, 0.7637756515683799
241.0, 0.7464751873685778
242.0, 0.7206859557534504
243.0, 0.6784576015795003
244.0, 0.6231420233803634
245.0, 0.5555459839359854
246.0, 0.4967210579528154
247.0, 0.44060003971420575
248.0, 0.3863123225016493
249.0, 0.3328739542188897
250.0, 0.28503585679884974
251.0, 0.24221954339907173
252.0, 0.2068030048373838
253.0, 0.18897450236206148
254.0, 0.16328000937225215
255.0, 0.14172807299785087
256.0, 0.12790361959180988
257.0, 0.11118760356258774
258.0, 0.10191084337820404
259.0, 0.09454607165485776
260.0, 0.08466664435583604
261.0, 0.07265674760582978
262.0, 0.06471474484521715
263.0, 0.059700947734418704
264.0, 0.055270793593136545
265.0, 0.055750839904665166
266.0, 0.053052956916830256
267.0, 0.04666064940909198
268.0, 0.04127722567714996
269.0, 0.04116802953186704
270.0, 0.03982672561379949
271.0, 0.03445324698230437
272.0, 0.02914473553033318
273.0, 0.02664632311440639
274.0, 0.02332928930093481
275.0, 0.01534314957606341
276.0, 0.013376986293985113
277.0, 0.011769929708699105
278.0, 0.010361994527692736
279.0, 0.00954424525675735
280.0, 0.00440089482020668
281.0, 0.0011477458721120455
282.0, 0.0008577403012784055
283.0, 0.002660136725332234
284.0, 0.004589106981947104
285.0, 0.004675675494363209
286.0, 0.0024174205096608235
287.0, 0.008294144963633236
288.0, 0.00954114346448351
289.0, 0.0096364597820429
290.0, 0.011840921792059592
291.0, 0.010868339979843952
292.0, 0.009677410778753129
293.0, 0.008708026693983751
294.0, 0.008636178605271086
295.0, 0.012251303271842174
296.0, 0.012451224723767126
297.0, 0.009089640724772936
298.0, 0.006645216912819348
299.0, 0.0036619359070777444
300.0, 0.004462391110276739
301.0, 0.009792442126135146
302.0, 0.006999160589965197
303.0, 0.010527961879613825
304.0, 0.018440547539429787
305.0, 0.029700922682912797
306.0, 0.03355375590030133
307.0, 0.03932746839404365
308.0, 0.04761116119315276
309.0, 0.059509141343619044
310.0, 0.06701227510101179
311.0, 0.07425101109633561
312.0, 0.08054516504164472
313.0, 0.08259348185275203
314.0, 0.08532237435724073
315.0, 0.08827945921388085
316.0, 0.09069700998638736
317.0, 0.08859212628660121
318.0, 0.09238032445840501
319.0, 0.09085701475634461
320.0, 0.07977155533356797
321.0, 0.08043228894558328
322.0, 0.07328134699519914
323.0, 0.0672050414258402
324.0, 0.06987700768843948
325.0, 0.06560654679163155
326.0, 0.0613829350527478
327.0, 0.058068652072607176
328.0, 0.05693169331129284
329.0, 0.05693626749532443
330.0, 0.059255837929493536
331.0, 0.06321310652255673
332.0, 0.06673471788863788
333.0, 0.07338194915624284
334.0, 0.0816532910892363
335.0, 0.09010542497406397
336.0, 0.09280525502582104
337.0, 0.09692052563688838
338.0, 0.10464306108809249
339.0, 0.116821350239439
340.0, 0.1309903366740326
341.0, 0.1403966004056088
342.0, 0.1489555809559031
343.0, 0.15930682609807342
344.0, 0.17390310492267058
345.0, 0.18245344055385504
346.0, 0.19274436869259529
347.0, 0.21407822016265907
348.0, 0.23289299507674313
349.0, 0.253416194659564
350.0, 0.2781016018098895
351.0, 0.3117511660689228
352.0, 0.3447125160810514
353.0, 0.381140705821525
354.0, 0.42148367925837676
355.0, 0.46576181184202153
356.0, 0.5212167544998261
357.0, 0.5771309331667712
358.0, 0.6328906587546292
359.0, 0.6989039139878658
360.0, 0.7556260784514628
361.0, 0.816770863570193
362.0, 0.8834310414545574
363.0, 0.9111501779765336
364.0, 0.9470470723874839
365.0, 0.9792513149739229
366.0, 0.9996505970087177
367.0, 0.9890626275759271
368.0, 0.9646751790466882
369.0, 0.9289996076789266
370.0, 0.8835425983530053
371.0, 0.8387983663887694
372.0, 0.7829942778234636
373.0, 0.7217907491528791
374.0, 0.6630758287860625
375.0, 0.6062746978358456
376.0, 0.5561840533080005
377.0, 0.5103613016455056
378.0, 0.4634485579298021
379.0, 0.4244020228297153
380.0, 0.3889198681600954
381.0, 0.3561888325703175
382.0, 0.3257743869503543
383.0, 0.30200066473378656
384.0, 0.27975558817199336
385.0, 0.2584032496169091
386.0, 0.24012009969619363
387.0, 0.22503679418306985
388.0, 0.2108422692233653
389.0, 0.19782007560978915
390.0, 0.19290294119163276
391.0, 0.18368966367530334
392.0, 0.1734231195348762
393.0, 0.1634249069316678
394.0, 0.15243287467094152
395.0, 0.14606600956137247
396.0, 0.14360900673990803
397.0, 0.14451081686555575
398.0, 0.14110902549145987
399.0, 0.13455451592088435
400.0, 0.12976874086824813
401.0, 0.13089257955296757
402.0, 0.12505383981247697
403.0, 0.12543005433164225
404.0, 0.1244148509616024
405.0, 0.1133339079503931
406.0, 0.11582349662534107
407.0, 0.11087843975540736
408.0, 0.10285649376501951
409.0, 0.09892790199810134
410.0, 0.09359478978469021
411.0, 0.0887604882136279
412.0, 0.08407849603082078
413.0, 0.07866527403040738
414.0, 0.07385098667851406
415.0, 0.06916511388316278
416.0, 0.06442761798053864
417.0, 0.059330339090369826
418.0, 0.05520199691602587
419.0, 0.050718121553398124
420.0, 0.0459118607641201
421.0, 0.04146056089017526
422.0, 0.03975180411854003
423.0, 0.03672755676993042
424.0, 0.03297288199581948
425.0, 0.03361534616878576
426.0, 0.02634004990165423
427.0, 0.024758142754699352
428.0, 0.029112560542285042
429.0, 0.024878450851847783
430.0, 0.026412126032100792
431.0, 0.025549152126463578
432.0, 0.020939430041697227
433.0, 0.019144689016855912
434.0, 0.02180741009614015
435.0, 0.022024925661985405
436.0, 0.018194441911080793
437.0, 0.016861389717968127
438.0, 0.018753255368104127
439.0, 0.018684839891017584
440.0, 0.015190274318625423
441.0, 0.01492576954956024
442.0, 0.016065472814328508
443.0, 0.01625426906639047
444.0, 0.014568800687475278
445.0, 0.013532495738111725
446.0, 0.013060581001992548
447.0, 0.011499704207422792
448.0, 0.008266494163702436
449.0, 0.007842998127873188
450.0, 0.010137310616893361
451.0, 0.010828416202871748
452.0, 0.007880417469652129
453.0, 0.01097098211372187
454.0, 0.011792053090237462
455.0, 0.011300981741770645
456.0, 0.010181020285553793
457.0, 0.010254986988990838
458.0, 0.009186925244968332
459.0, 0.007968640856270165
460.0, 0.007326483697105689
461.0, 0.008095581159089432
462.0, 0.007902613433341891
463.0, 0.008977028758642782
464.0, 0.012848104735092533
465.0, 0.015042944319410452
466.0, 0.02166983900529664
467.0, 0.028608325802391657
468.0, 0.03272968419484472
469.0, 0.03514163581417589
470.0, 0.041282916627205624
471.0, 0.04767524778315512
472.0, 0.05167089117898907
473.0, 0.056766329882592566
474.0, 0.061271334959148015
475.0, 0.06592589561709253
476.0, 0.07128439830841199
477.0, 0.07596833090870808
478.0, 0.07946062675898005
479.0, 0.08417258563541542
480.0, 0.0918138395879405
481.0, 0.09486578440760196
482.0, 0.10092084531373108
483.0, 0.10500945820279534
484.0, 0.10392791229812637
485.0, 0.11814726526290223
486.0, 0.1279491747040631
487.0, 0.128978017735012
488.0, 0.11865035915355453
489.0, 0.11789562373580072
490.0, 0.12318403377773744
491.0, 0.12826795743892525
492.0, 0.12881391344043525
493.0, 0.12848267389286244
494.0, 0.12643215667678528
495.0, 0.12334220538169333
496.0, 0.12002481006595753
497.0, 0.12251899844126347
498.0, 0.11701707593216079
499.0, 0.11105100469737307
500.0, 0.10818701293465795
501.0, 0.09334780288152685
502.0, 0.09147360712148404
503.0, 0.09134137389605541
504.0, 0.0867726813262775
505.0, 0.07985499897666026
506.0, 0.07897833423549253
507.0, 0.07696819825255444
508.0, 0.07077083305010413
509.0, 0.06611132120124785
510.0, 0.06058579194632065
511.0, 0.05553196146484329
512.0, 0.0518976597524955
513.0, 0.0520505200050624
514.0, 0.04761039623495923
515.0, 0.04307250911306892
516.0, 0.040451919642756615
517.0, 0.041171874944207376
518.0, 0.03735684165063286
519.0, 0.0361626953600614
520.0, 0.038630675336813115
521.0, 0.03807453625984362
522.0, 0.03902969987161421
523.0, 0.03860013882666152
524.0, 0.037075184453945045
525.0, 0.03883255142418807
526.0, 0.040486525076363584
527.0, 0.041849661555975914
528.0, 0.04314324146493778
529.0, 0.045211846534574544
530.0, 0.0475880091321275
531.0, 0.04762713884320081
532.0, 0.046159966393575676
533.0, 0.04652725760499258
534.0, 0.045626342116138384
535.0, 0.04558314975521852
536.0, 0.0453686379375204
537.0, 0.04225368397785429
538.0, 0.04012321612009619
539.0, 0.03922167775591034
540.0, 0.03821974056633258
541.0, 0.034893072076758985
542.0, 0.0297444291364038
543.0, 0.02793103271306717
544.0, 0.02699148309359481
545.0, 0.023379371907416
546.0, 0.022352720926387425
547.0, 0.01921695803220156
548.0, 0.016619152375145614
549.0, 0.01716624351633217
550.0, 0.0105686125856867
551.0, 0.008752466309966556
552.0, 0.00802509864792511
553.0, 0.005769530251173528
554.0, 0.00763898343211312
555.0, 0.0064471121152790715
556.0, 0.004756214809923386
557.0, 0.004438358728491947
558.0, 0.008799562031583582
559.0, 0.005906583039422703
560.0, 0.0020377894503106086
561.0, 0.0002878546136671535
562.0, 0.0025861783576780154
563.0, 0.0013803140338719269
564.0, 0.0002798846315275306
565.0, 0.0007116495279357309
566.0, 0.003770715154610574
567.0, 0.003969586811920826
568.0, 0.002430151265839378
569.0, 0.0003687632881596906
570.0, 0.0004813215401550871
571.0, 0.003028777018049769
572.0, 0.0025945336466718467
573.0, 0.0009494535886041023
574.0, 0.0030377484893173226
575.0, 0.002194512086870776
576.0, 0.002780179182162894
577.0, 0.003059483598890016
578.0, 0.00021455312099884802
579.0, 0.0031895809331226026
580.0, 0.0031297452215003456
581.0, 0.0020378039469340923
582.0, 0.0021185378179609292
583.0, 0.005528756245962321
584.0, 0.004922460860105795
585.0, 0.0030371172733312866
586.0, 0.0017081097584740555
587.0, 0.0006937049759298531
588.0, 0.0009396111132271121
589.0, 0.0016057331099233758
590.0, 0.0020100891599388057
591.0, 0.0004421128704814826
592.0, 0.0027253412355808136
593.0, 0.003607060155449052
594.0, 0.002545364110414753
595.0, 0.002947559214356631
596.0, 0.003949297443322232
597.0, 0.003804052814812461
598.0, 0.002413345606068951
599.0, 0.00021837245813819328
600.0, 2.1846165525844442e-05
601.0, 6.0074071607499655e-05
602.0, 0.0011914167109128948
603.0, 0.00479706515194916
604.0, 0.0013354087831630814
605.0, 0.0005614515911741032
606.0, 0.002242081942620121
607.0, 0.005896939668616137
608.0, 0.010242178924115325
609.0, 0.011204566458716585
610.0, 0.011988873320061127
611.0, 0.01377165144473891
612.0, 0.011276964651221794
613.0, 0.01343985489751521
614.0, 0.017789776305029474
615.0, 0.02253518331710456
616.0, 0.02406816603268351
617.0, 0.02830351609801309
618.0, 0.033578631775842395
619.0, 0.04074861653346631
620.0, 0.05254805376052698
621.0, 0.05284015255060798
622.0, 0.06172180716519679
623.0, 0.07367971582159116
624.0, 0.07860921290360794
625.0, 0.08971803304130957
626.0, 0.10079791736598273
627.0, 0.11161969988080771
628.0, 0.12178686542151029
629.0, 0.12729353002344232
630.0, 0.12995081063931727
631.0, 0.13225282703113395
632.0, 0.1345742936457903
633.0, 0.1318980468976315
634.0, 0.13246350297056048
635.0, 0.13392712215548722
636.0, 0.13734111440070237
637.0, 0.14775473445254209
638.0, 0.15603636122063666
639.0, 0.16650844724159686
640.0, 0.1787753436003152
641.0, 0.1912029378008043
642.0, 0.2030030046993357
643.0, 0.21350426342893725
644.0, 0.22058412042648984
645.0, 0.22295870190350536
646.0, 0.2328754935421113
647.0, 0.23487462464023726
648.0, 0.23513161263035526
649.0, 0.23600103145769202
650.0, 0.23145477418969537
651.0, 0.23215616996288205
652.0, 0.2349864026006766
653.0, 0.2375382486999718
654.0, 0.2354574036031756
655.0, 0.2456684965254491
656.0, 0.2587682091716501
657.0, 0.2708435580565602
658.0, 0.27782828038991564
659.0, 0.2887162188868339
660.0, 0.3029542236020907
661.0, 0.31255785323259205
662.0, 0.3126149815190906
663.0, 0.32545221341076713
664.0, 0.33021830949606096
665.0, 0.332228124925876
666.0, 0.3335088986996179
667.0, 0.3322957403628318
668.0, 0.3233107512620368
669.0, 0.31266103545877566
670.0, 0.29970235221856373
671.0, 0.28025007032020954
672.0, 0.2633240382825461
673.0, 0.24847116097022276
674.0, 0.23655326266897791
675.0, 0.22812595866856722
676.0, 0.21266145451264137
677.0, 0.19424792240115435
678.0, 0.18323673460309678
679.0, 0.18259131643151524
680.0, 0.17286738629957304
681.0, 0.16896449767934582
682.0, 0.16822143933949762
683.0, 0.16794557396609353
684.0, 0.16298534162863176
685.0, 0.16510872331032284
686.0, 0.1682795075117987
687.0, 0.17334806658543903
688.0, 0.18207959035039825
689.0, 0.19017291086354574
690.0, 0.20282152372666917
691.0, 0.21353465510300174
692.0, 0.22035264334926424
693.0, 0.24016914517732812
694.0, 0.25898067638300204
695.0, 0.27690195726216127
696.0, 0.295621377122531
697.0, 0.3197398338835475
698.0, 0.3464340780134369
699.0, 0.3581395186270502
700.0, 0.3630351802882436
701.0, 0.3743159545699384
702.0, 0.3753848926238866
703.0, 0.35445038344511576
704.0, 0.3273674906478252
705.0, 0.30226483482198385
706.0, 0.26303650090013264
707.0, 0.23500838239256633
708.0, 0.2081337230093659
709.0, 0.17982097982972436
710.0, 0.15079848142400493
711.0, 0.12795663191335438
712.0, 0.10921038511902857
713.0, 0.09252719280515834
714.0, 0.07601260278665808
715.0, 0.06895758978194576
716.0, 0.06003146037685892
717.0, 0.050905249943744874
718.0, 0.042932980058831526
719.0, 0.03826852046305958
720.0, 0.034528912878034244
721.0, 0.031070382904967435
722.0, 0.027603319104774912
723.0, 0.023840315042115687
724.0, 0.023553630529773956
725.0, 0.022102402531249076
726.0, 0.02034237202521381
727.0, 0.01904130654562115
728.0, 0.015746318308150747
729.0, 0.015825760763526542
730.0, 0.015330726624702511
731.0, 0.01317404439319538
732.0, 0.010948415626667167
733.0, 0.012917160539319492
734.0, 0.013216268436281155
735.0, 0.013108485420653033
736.0, 0.015281350291201852
737.0, 0.013354433893566798
738.0, 0.013207820576725584
739.0, 0.013103849650375405
740.0, 0.012479967735882612
741.0, 0.014203746159147494
742.0, 0.013482675210187494
743.0, 0.013378299433034811
744.0, 0.014943836045206436
745.0, 0.01876930795040347
746.0, 0.019638216714672932
747.0, 0.020796693332546617
748.0, 0.02104372273398499
749.0, 0.020168886098921007
750.0, 0.026716236106701416
751.0, 0.030717109310942993
752.0, 0.03158048284600511
753.0, 0.03126171693577235
754.0, 0.03562390447164118
755.0, 0.036141172974685845
756.0, 0.03578943585110126
757.0, 0.03570769466969207
758.0, 0.03653011242589007
759.0, 0.03294378904929347
760.0, 0.03194892693951306
761.0, 0.03054588729118768
762.0, 0.028445446785032528
763.0, 0.029517323550044546
764.0, 0.024292331418744186
765.0, 0.021225762451777746
766.0, 0.021174470762519597
767.0, 0.023437445180048526
768.0, 0.023630380955330363
769.0, 0.024411117612562226
770.0, 0.02465852417672134
771.0, 0.023312924561844327
772.0, 0.01839219903204369
773.0, 0.02025042769497702
774.0, 0.0202595819220072
775.0, 0.019163413313266948
776.0, 0.020436237599880547
777.0, 0.01981678783294422
778.0, 0.019196342811358173
779.0, 0.018669120121409723
780.0, 0.018281652210068326
781.0, 0.0179880363811596
782.0, 0.017503245744547036
783.0, 0.01721488497415763
784.0, 0.017202326941541942
785.0, 0.017451133019911944
786.0, 0.016558246894374105
787.0, 0.01562412666315587
788.0, 0.014499079827166356
789.0, 0.013124530476095842
790.0, 0.011684605371401355
791.0, 0.01136691413762467
792.0, 0.01219591305169978
793.0, 0.013236604195525628
794.0, 0.012962726474763828
795.0, 0.01130117231843743
796.0, 0.010936875854817436
797.0, 0.010346587364166512
798.0, 0.009001655211292033
799.0, 0.009160485941965849
800.0, 0.010701662774036752
801.0, 0.01074243408803888
802.0, 0.01025215337484095
803.0, 0.01157272660227375
804.0, 0.012164186174266556
805.0, 0.010314138385198325
806.0, 0.0078234415731947
807.0, 0.005978063058889696
808.0, 0.005612079237769392
809.0, 0.006784420544081608
810.0, 0.005610824163896779
811.0, 0.004448390373315521
812.0, 0.007105001599284722
813.0, 0.005411244448233318
814.0, 0.002950136978638063
815.0, 0.003153407199018192
816.0, 0.0056945187195562245
817.0, 0.0035533194790418133
818.0, 0.0038567727498209623
819.0, 0.005200358898139751
820.0, 0.005529642928277856
821.0, 0.0030634456844313863
822.0, 0.0026022859852300843
823.0, 0.0031094522234831165
824.0, 0.0028046431256829227
825.0, 0.001576563635567136
826.0, 0.0010170421145729858
827.0, 0.0027264271204660026
828.0, 0.001659948411610706
829.0, 0.0002765048327068237
830.0, 0.0008351422329496295
831.0, 0.00048764202937695924
832.0, 0.00039191693416238516
833.0, 0.0003590732762504423
834.0, 0.0004658419235237317
835.0, 0.0009561061201867607
836.0, 0.002313919608661452
837.0, 0.0022488146245650937
838.0, 0.001536249219195913
839.0, 0.0008025991795857341
840.0, 0.00021108494471379612
841.0, 0.0028638928295544267
842.0, 0.00416120933567035
843.0, 0.003380465006582155
844.0, 0.0009849364840900873
845.0, 0.0016839705419163698
846.0, 0.0008319397672036475
847.0, 0.0026000522449397363
848.0, 0.006093184335125646
849.0, 0.002991487608773215
850.0, 0.002250044217864033
851.0, 0.003503332877575205
852.0, 0.003487833820999007
853.0, 0.00021405172084930412
854.0, 0.0019325001367353966
855.0, 0.002448388133604463
856.0, 0.002001380362461779
857.0, 0.0009892414453315254
858.0, 2.7022798625185433e-05
859.0, 0.0028460911382007176
860.0, 0.002827907285373626
861.0, 0.0024466300639740452
862.0, 0.0026944369841096633
863.0, 0.0013885688207224875
864.0, 0.0025881422298965765
865.0, 0.0033512276835658563
866.0, 0.003998732524987838
867.0, 0.005190945425163327
868.0, 0.005212881961264577
869.0, 0.00550801554332072
870.0, 0.0050684970648617635
871.0, 0.0041752169600216766
872.0, 0.0041111800010998475
873.0, 0.0022411546308688524
874.0, 0.0020953920357260638
875.0, 0.0020231095243438144
876.0, 0.0017557215453845498
877.0, 0.005157892459157571
878.0, 0.0028610365072325996
879.0, 0.003732725827928428
880.0, 0.005464127757364169
881.0, 0.004187003829636597
882.0, 0.0036646220921918065
883.0, 0.004025510627978323
884.0, 0.005192889540193294
885.0, 0.006562275468466884
886.0, 0.006987197144880611
887.0, 0.0059636111304981615
888.0, 0.007339803425185617
889.0, 0.009038310203831671
890.0, 0.009532057035893765
891.0, 0.008182549529840648
892.0, 0.00890097652333943
893.0, 0.01091866259805301
894.0, 0.010757611892534774
895.0, 0.006391419024000384
896.0, 0.009627779081034137
897.0, 0.010614712856621944
898.0, 0.010252047867830787
899.0, 0.010842085713806224
900.0, 0.015545504090577294
901.0, 0.013592703569469653
902.0, 0.012355179525333089
903.0, 0.011433904821346822
904.0, 0.010650849198341614
905.0, 0.010101533860248152
906.0, 0.010943950752738624
907.0, 0.014065434271635249
908.0, 0.01631707420904997
909.0, 0.015419935780190462
910.0, 0.01278970301054775
911.0, 0.014917559279238653
912.0, 0.01474651969353408
913.0, 0.013643113998297134
914.0, 0.014834084273241916
915.0, 0.01768709402350737
916.0, 0.016862576209355055
917.0, 0.016375709943212472
918.0, 0.017058370673105516
919.0, 0.01790288233803005
920.0, 0.02037885580066068
921.0, 0.022584289134928662
922.0, 0.023820128319958195
923.0, 0.023391074597324056
924.0, 0.020293843594074684
925.0, 0.021854016023832287
926.0, 0.021636948529062335
927.0, 0.02274550397895987
928.0, 0.02623816621637305
929.0, 0.023280972611715443
930.0, 0.025924327114275118
931.0, 0.024445085706535245
932.0, 0.023306550039793632
933.0, 0.02832765645788865
934.0, 0.029527581792138605
935.0, 0.032310209534899735
936.0, 0.033088010287629956
937.0, 0.03186912334949645
938.0, 0.030582393195580676
939.0, 0.03609491078080698
940.0, 0.0345443614806405
941.0, 0.034595231220421296
942.0, 0.03861660453542786
943.0, 0.04336851559288492
944.0, 0.037359940104275915
945.0, 0.03965482715550509
946.0, 0.04420065531462782
947.0, 0.04690515216237742
948.0, 0.047852925828506206
949.0, 0.0512881394505015
950.0, 0.053124375181388
951.0, 0.054631390711157066
952.0, 0.05701330639428574
953.0, 0.05960385792306471
954.0, 0.06126146999823414
955.0, 0.06344497417434979
956.0, 0.06581118869787303
957.0, 0.06783198363945345
958.0, 0.07017833710104299
959.0, 0.07158969926607917
960.0, 0.07370897088901344
961.0, 0.07514675820416639
962.0, 0.07382637743742215
963.0, 0.07368646035761169
964.0, 0.07277897007635839
965.0, 0.07256057671912947
966.0, 0.07229420778630152
967.0, 0.07003360470773938
968.0, 0.0706424100383678
969.0, 0.07073086557902873
970.0, 0.07000438227591435
971.0, 0.06910835962394768
972.0, 0.06966846927146668
973.0, 0.06975506357308554
974.0, 0.06951047352013244
975.0, 0.06831487566531706
976.0, 0.0666395167055624
977.0, 0.06663421008893926
978.0, 0.06578840093916874
979.0, 0.06513401424765485
980.0, 0.06409416573682168
981.0, 0.06316798166875374
982.0, 0.06550743445561473
983.0, 0.06432746936624019
984.0, 0.062018727539146154
985.0, 0.06272131799037838
986.0, 0.06710783014439022
987.0, 0.06509244670296864
988.0, 0.06960618852691593
989.0, 0.0710013542208909
990.0, 0.07061143093577366
991.0, 0.06993548947000036
992.0, 0.06409999544928463
993.0, 0.06712585566601899
994.0, 0.0697486017560707
995.0, 0.07006203479472822
996.0, 0.06889125261324143
997.0, 0.07386824105080016
998.0, 0.07504867678995399
999.0, 0.07690056344366293
1000.0, 0.0796934143990981
1001.0, 0.08260428546758801
1002.0, 0.0850147260396245
1003.0, 0.08490206710990257
1004.0, 0.08720728638313534
1005.0, 0.09064069694066901
1006.0, 0.09268410071690648
1007.0, 0.09911614109365086
1008.0, 0.10637606111281447
1009.0, 0.11205541338645872
1010.0, 0.11759448900725748
1011.0, 0.12526512071374643
1012.0, 0.12909000129210685
1013.0, 0.13736987230352293
1014.0, 0.1436603500888563
1015.0, 0.14665921887060346
1016.0, 0.148473672674916
1017.0, 0.16577917140995918
1018.0, 0.17178211645373648
1019.0, 0.18043461029898675
1020.0, 0.19100314763435772
1021.0, 0.19658537395792058
1022.0, 0.20433023863652278
1023.0, 0.21258618157159845
1024.0, 0.22246893846940283
1025.0, 0.2317028021961443
1026.0, 0.2369539507015799
1027.0, 0.24679485778995008
1028.0, 0.25154665745511434
1029.0, 0.25565496490026746
1030.0, 0.26012341197931393
1031.0, 0.2642637950451019
1032.0, 0.26774803817236253
1033.0, 0.2723426737364151
1034.0, 0.2754034173944556
1035.0, 0.27697910698460587
1036.0, 0.2785083924066647
1037.0, 0.28073937999026805
1038.0, 0.28074430568805364
1039.0, 0.28277393095125597
1040.0, 0.2842732595612585
1041.0, 0.2804588242024441
1042.0, 0.2806544067543145
1043.0, 0.27906222615655163
1044.0, 0.2751918430286461
1045.0, 0.2709745195256349
1046.0, 0.2688052034050428
1047.0, 0.26365505564287856
1048.0, 0.2595395774219178
1049.0, 0.2549606168919192
1050.0, 0.24740700039569916
1051.0, 0.23608115577780533
1052.0, 0.2376786636929637
1053.0, 0.23094340258215873
1054.0, 0.22467931496935176
1055.0, 0.22197960833673422
1056.0, 0.22194950781499886
1057.0, 0.209776910523732
1058.0, 0.20686538009742178
1059.0, 0.20265398386250916
1060.0, 0.19868373752268903
1061.0, 0.19718811795839922
1062.0, 0.18705426438881234
1063.0, 0.18839406669364558
1064.0, 0.1900599420370077
1065.0, 0.187977617912666
1066.0, 0.1821737611877633
1067.0, 0.1826024635211493
1068.0, 0.17206059453768005
1069.0, 0.17039867915105938
1070.0, 0.16999461903896418
1071.0, 0.16353804764591895
1072.0, 0.1570080880393905
1073.0, 0.1535510775056601
1074.0, 0.1480287118854914
1075.0, 0.14470403914702903
1076.0, 0.14336409379583132
1077.0, 0.1321531169948215
1078.0, 0.12702734642107788
1079.0, 0.12303439194467493
1080.0, 0.11635818853862971
1081.0, 0.10834210211544042
1082.0, 0.10793322520441476
1083.0, 0.10589339242361571
1084.0, 0.10018748872062336
1085.0, 0.0958918962429935
1086.0, 0.09384523858820384
1087.0, 0.09035239365908555
1088.0, 0.08872859968791508
1089.0, 0.08581772169980333
1090.0, 0.08244597647932433
1091.0, 0.07856336856779407
1092.0, 0.07376849799137304
1093.0, 0.07215401015318437
1094.0, 0.06867953337243282
1095.0, 0.06688645862687172
1096.0, 0.06572657475886559
1097.0, 0.06265018365170721
1098.0, 0.060270232037146446
1099.0, 0.062844342360113
1100.0, 0.05792531075956526
1101.0, 0.0536297409543066
1102.0, 0.0581103108942112
1103.0, 0.05329223067879914
1104.0, 0.05097701318779154
1105.0, 0.05030571318855342
1106.0, 0.048389539648796304
1107.0, 0.04519669119970482
1108.0, 0.04887676651812088
1109.0, 0.045791714325437376
1110.0, 0.04385360337669053
1111.0, 0.042809993192902095
1112.0, 0.04160131414187586
1113.0, 0.03897987475030209
1114.0, 0.03969556387043653
1115.0, 0.03860246513427261
1116.0, 0.037962497059633
1117.0, 0.03767864741872051
1118.0, 0.035523264179174
1119.0, 0.029933612159620003
1120.0, 0.028312119067180744
1121.0, 0.02714698839878167
1122.0, 0.02601207885347323
1123.0, 0.02542909151358249
1124.0, 0.021814557895690857
1125.0, 0.021985151498027714
1126.0, 0.020033400700571993
1127.0, 0.017625305051823918
1128.0, 0.016793713837675098
1129.0, 0.01409076328804681
1130.0, 0.015646744640431632
1131.0, 0.01468085204116729
1132.0, 0.012358691326502441
1133.0, 0.010230188344594725
1134.0, 0.00882012871217846
1135.0, 0.01010659325562749
1136.0, 0.010951509129482954
1137.0, 0.011300779604949568
1138.0, 0.010640449087164328
1139.0, 0.008284237260187321
1140.0, 0.009017687581493445
1141.0, 0.009315768568198613
1142.0, 0.009380695801575177
1143.0, 0.00895737196640734
1144.0, 0.007922664912381971
1145.0, 0.008020883298100407
1146.0, 0.006831347552393683
1147.0, 0.006817569286200229
1148.0, 0.005822005555987215
1149.0, 0.0029368568595167966
1150.0, 0.002680427011427799
1151.0, 0.003872007061169447
1152.0, 0.0031011868749284983
1153.0, 0.002176486199504826
1154.0, 0.0019828750885391884
1155.0, 0.0019148184679828122
1156.0, 0.00326598781917797
1157.0, 0.004919483336783734
1158.0, 0.003402324091071238
1159.0, 0.00129172355189239
1160.0, 0.0029776678435731447
1161.0, 0.0028041433637145527
1162.0, 0.003649587958516472
1163.0, 0.002226789045089175
1164.0, 0.001373176416048162
1165.0, 0.002728133373251143
1166.0, 0.0012555450120194636
1167.0, 0.0022063076753703354
1168.0, 0.002147744287290692
1169.0, 0.0022647057793348736
1170.0, 0.002982616713745988
1171.0, 0.003519280474578555
1172.0, 0.002747331967174398
1173.0, 0.0016429194826198237
1174.0, 0.0016520782247185955
1175.0, 0.0019127769629050907
1176.0, 0.0011425179398405721
1177.0, 0.0016562825187615138
1178.0, 0.0011487024926663696
1179.0, 0.0016649488313740441
1180.0, 0.0026884288199176243
1181.0, 0.0029551378346458954
1182.0, 0.0007102028407372965
1183.0, 0.0019525811771403413
1184.0, 0.0009713208269452468
1185.0, 0.001967773186198022
1186.0, 0.00392438575998221
1187.0, 0.0022933723629935494
1188.0, 0.0004210861564749529
1189.0, 0.00012375328173545966
1190.0, 0.0015292793372897347
1191.0, 0.002207695944090992
1192.0, 0.0008030836726051156
1193.0, 0.0013150021499280086
1194.0, 0.0016129471077229167
1195.0, 0.001490195458224828
1196.0, 0.0008308089472612028
1197.0, 0.0001698535143394098
1198.0, 0.0005796596716051553
1199.0, 0.0009087446433193798
1200.0, 0.003038834949090182
1201.0, 0.0023308222048274547
1202.0, 0.0009499763230558443
1203.0, 0.002085462626021637
1204.0, 0.0020391418421879205
1205.0, 0.0011353901645528843
1206.0, 0.0004101150634260044
1207.0, 0.00034394426435509126
1208.0, 0.000677220661293333
1209.0, 0.00038326033051746714
1210.0, 0.0011753552875485595
1211.0, 0.0016083719895808389
1212.0, 0.002124771466026518
1213.0, 0.002910984716303501
1214.0, 0.003735145975563264
1215.0, 0.0030907488191203075
1216.0, 0.002306839523698169
1217.0, 0.0012971917888569802
1218.0, 0.0014076299200294806
1219.0, 0.002188231402684043
1220.0, 0.0007417138226515608
1221.0, 0.0013337897771385518
1222.0, 0.0016134246467023677
1223.0, 0.0009079946804437436
1224.0, 0.0003593286776264043
1225.0, 0.0015391986959121466
1226.0, 0.00436077478477129
1227.0, 0.004499740107232382
1228.0, 0.004767228781292529
1229.0, 0.004505161856543723
1230.0, 0.0036100815611130378
1231.0, 0.003138416171000617
1232.0, 0.003262266182603595
1233.0, 0.005205346163086938
1234.0, 0.005778333252161467
1235.0, 0.005445169032692304
1236.0, 0.0056988837402818324
1237.0, 0.006295039311916426
1238.0, 0.004716006546141035
1239.0, 0.004094264878277246
1240.0, 0.003486462637384683
1241.0, 0.003076989876558387
1242.0, 0.004309191235386687
1243.0, 0.005976385261685681
1244.0, 0.002570733895404952
1245.0, 0.0018307962693795404
1246.0, 0.004113796164124307
1247.0, 0.0063521278126861995
1248.0, 0.003078878699239113
1249.0, 0.007751141980857005
1250.0, 0.006555256902473099
1251.0, 0.005717073346157281
1252.0, 0.006429349278153801
1253.0, 0.006002724741516575
1254.0, 0.004812935197110337
1255.0, 0.005948985094895511
1256.0, 0.0072830994536998645
1257.0, 0.007762308162699335
1258.0, 0.006957320856199378
1259.0, 0.005230088690280325
1260.0, 0.00751899219889987
1261.0, 0.005889642676879519
1262.0, 0.005583499505573328
1263.0, 0.00571302956320275
1264.0, 0.0038781898179708458
1265.0, 0.001914204515881391
1266.0, 0.0057139481378329915
1267.0, 0.004791736354665732
1268.0, 0.003960106167617513
1269.0, 0.0041591634563794885
1270.0, 0.002835072065566884
1271.0, 0.006831723464805724
1272.0, 0.006313950200978888
1273.0, 0.005426400054917504
1274.0, 0.005212207638771587
1275.0, 0.005610997593903721
1276.0, 0.005884782031783638
1277.0, 0.005776650236814535
1278.0, 0.008338265252277516
1279.0, 0.005227790221080607
1280.0, 0.0007303602025125899
1281.0, 0.0015961853598061067
1282.0, 0.003891834994074913
1283.0, 0.0047895935994947845
1284.0, 0.005840927766555386
1285.0, 0.0060778503275206236
1286.0, 0.005625469970693293
1287.0, 0.005212416043763433
1288.0, 0.00277794751538963
1289.0, 0.0035181519343408904
1290.0, 0.0020258362936560917
1291.0, 0.0012322032208940533
1292.0, 0.002874036137929627
1293.0, 0.005073624385712506
1294.0, 0.006842135571366533
1295.0, 0.005774890151748828
1296.0, 0.004028781674263131
1297.0, 0.003942349609397734
1298.0, 0.0056543303688040515
1299.0, 0.004678498237803608
1300.0, 0.003015458669025301
1301.0, 0.0036534902440109405
1302.0, 0.004057723070591926
1303.0, 0.004277067798811328
1304.0, 0.005417406681185841
1305.0, 0.0069868110836890564
1306.0, 0.007716413012568045
1307.0, 0.007722142917695436
1308.0, 0.007769101525317173
1309.0, 0.0073039482838991795
1310.0, 0.005251041860448443
1311.0, 0.0038984310188095875
1312.0, 0.002889551689327073
1313.0, 0.0017850076347806763
1314.0, 0.0014087648169798749
1315.0, 0.0015130737012643382
1316.0, 0.0008411653942829273
1317.0, 0.002832876685956117
1318.0, 0.00486595391974057
1319.0, 0.00575318725726182
1320.0, 0.005823598743646734
1321.0, 0.005482078885942484
1322.0, 0.004611141272230728
1323.0, 0.0032524242461590596
1324.0, 0.004585937310559023
1325.0, 0.004393380110443655
1326.0, 0.003900225738303913
1327.0, 0.004428144380081362
1328.0, 0.0033685391086840308
1329.0, 0.0031560000201328823
1330.0, 0.0038864294297456057
1331.0, 0.0043743269712458715
1332.0, 0.003077894239881177
1333.0, 0.0012814376848568135
1334.0, 0.00796980200505322
1335.0, 0.007534020623935009
1336.0, 0.004909281720613622
1337.0, 0.005368542960128143
1338.0, 0.005838466101729272
1339.0, 0.002073352910667882
1340.0, 0.0031285315881999466
1341.0, 0.005465319588608528
1342.0, 0.005577945954873886
1343.0, 0.004485030357429623
1344.0, 0.0033414502409726933
1345.0, 0.0026435084317497372
1346.0, 0.000967328333570656
1347.0, 0.0040700791615867205
1348.0, 0.0048013751387152625
1349.0, 0.00459661245895149
1350.0, 0.004382513038749081
1351.0, 0.0036398310232170165
1352.0, 0.0003149825024421351
1353.0, 0.0028770439432194627
1354.0, 0.002330201638766631
1355.0, 0.0024566397300996774
1356.0, 0.003348014522363032
1357.0, 0.00196781634990837
1358.0, 0.004696945320228543
1359.0, 0.003916884965197763
1360.0, 0.003162526071966291
1361.0, 0.00319906479874131
1362.0, 0.0033282424129597275
1363.0, 0.002578054095347282
1364.0, 0.004642047480448551
1365.0, 0.0018246623987793077
1366.0, 0.0033773822718572593
1367.0, 0.005555228403305073
1368.0, 0.005384603721988693
1369.0, 0.0036408427107666188
1370.0, 0.006480532602401338
1371.0, 0.006925087937454481
1372.0, 0.006170688288740316
1373.0, 0.006356625780968139
1374.0, 0.007259682935727085
1375.0, 0.006496939802383126
1376.0, 0.0034678524194678593
1377.0, 0.005752932515921505
1378.0, 0.005384423533165063
1379.0, 0.00403538229381035
1380.0, 0.004680612832767866
1381.0, 0.0082167525046133
1382.0, 0.005402538378508986
1383.0, 0.0036585817278538876
1384.0, 0.0048752880590125355
1385.0, 0.007213735494561764
1386.0, 0.008982867635834557
1387.0, 0.00922774832915788
1388.0, 0.006995201947475039
1389.0, 0.00432728467088233
1390.0, 0.006427438585663571
1391.0, 0.008737194687820887
1392.0, 0.010067309750818355
1393.0, 0.011769220076221538
1394.0, 0.010557901458533211
1395.0, 0.008087867812585248
1396.0, 0.008174326516339717
1397.0, 0.008297395490811797
1398.0, 0.007766244271621529
1399.0, 0.007550052482229074
1400.0, 0.008458141471304822
1401.0, 0.0069459685267326135
1402.0, 0.008838232606864066
1403.0, 0.008418219942848592
1404.0, 0.005851914542542659
1405.0, 0.005318893823855319
1406.0, 0.011106225804600814
1407.0, 0.01153518116152968
1408.0, 0.005585141155483769
1409.0, 0.0058133123269298
1410.0, 0.007678903221297266
1411.0, 0.0050354191603643505
1412.0, 0.0053908657361230765
1413.0, 0.010234927222131303
1414.0, 0.008336282223267611
1415.0, 0.005683333242746635
1416.0, 0.00691735294360947
1417.0, 0.010363001457218263
1418.0, 0.006945546986263915
1419.0, 0.0066703309112487
1420.0, 0.0049730279801639835
1421.0, 0.004763007630772446
1422.0, 0.005087269362130639
1423.0, 0.004976615960221445
1424.0, 0.004591563352764201
1425.0, 0.0030563330544723603
1426.0, 0.0059075494653881636
1427.0, 0.005703130663160701
1428.0, 0.006240983004177763
1429.0, 0.007283675777713824
1430.0, 0.005011793596587821
1431.0, 0.0030711514532080885
1432.0, 0.0024030258706559354
1433.0, 0.0026424040629209923
1434.0, 0.0034684178416960094
1435.0, 0.005238287034452918
1436.0, 0.006588471868680982
1437.0, 0.00046211857893229975
1438.0, 0.0014140491260526866
1439.0, 0.0014402251688976156
1440.0, 0.001034210987337525
1441.0, 0.0010484845518930206
1442.0, 0.001972506694055916
1443.0, 0.0033905003474486227
1444.0, 0.0029646628915598267
1445.0, 0.001730670637414688
1446.0, 0.001500858380092209
1447.0, 0.0012561608667912836
1448.0, 0.0005783598591144565
1449.0, 0.0006648675111644182
1450.0, 0.0023918117350228522
1451.0, 0.0021481103048010125
1452.0, 0.0021185607220594927
1453.0, 0.0022925097512206316
1454.0, 0.0025588192281726647
1455.0, 0.0027063576092207194
1456.0, 0.0016538872018479484
1457.0, 0.0007545304114740794
1458.0, 0.0022141124435371253
1459.0, 0.004188590193087316
1460.0, 0.004256213941191247
1461.0, 0.00255878999905855
1462.0, 0.003760774732509353
1463.0, 0.001597978511518233
1464.0, 0.00041214963367358523
1465.0, 0.001764250219587617
1466.0, 0.0037704746131309
1467.0, 0.005036976876133535
1468.0, 0.005897837059447425
1469.0, 0.006194906169537369
1470.0, 0.0018405303084816837
1471.0, 0.004391286217630323
1472.0, 0.004548014770271379
1473.0, 0.0031904371841165492
1474.0, 0.006013965439933411
1475.0, 0.006949919946840503
1476.0, 0.001725040808292342
1477.0, 0.0007137597328563933
1478.0, 0.0016430442337442722
1479.0, 0.002639254167207451
1480.0, 0.003111598626002428
1481.0, 0.003911422586761921
1482.0, 0.005053861273736932
1483.0, 0.005535353357732911
1484.0, 0.005876327634414111
1485.0, 0.006024738161157871
1486.0, 0.0058820011213205434
1487.0, 0.0054659013302095286
1488.0, 0.00502129286945134
1489.0, 0.003582565765864619
1490.0, 0.003333613198489962
1491.0, 0.0036392499164346545
1492.0, 0.00424916997336497
1493.0, 0.003979151339227527
1494.0, 0.0008688995090432479
1495.0, 0.0048020893631425254
1496.0, 0.0027603471480177953
1497.0, 0.0036314564015643086
1498.0, 0.005183739468399469
1499.0, 0.00519720571938675
1500.0, 0.0042897170684499065
1501.0, 0.0058267473004362325
1502.0, 0.009932340550974594
1503.0, 0.009185019728898975
1504.0, 0.007999574385561441
1505.0, 0.0071306680212333
1506.0, 0.00563192530538013
1507.0, 0.0031075234116983924
1508.0, 0.0012171573417353388
1509.0, 0.002535592170760795
1510.0, 0.0029639448337634745
1511.0, 0.004642671447557766
1512.0, 0.0054856176780921076
1513.0, 0.003098681797977699
1514.0, 0.005567317518179921
1515.0, 0.004629753835647242
1516.0, 0.0015213616185910145
1517.0, 0.003418964100949772
1518.0, 0.004657169369125157
1519.0, 0.0023981704545980283
1520.0, 0.0026859525884968443
1521.0, 0.006044487014834239
1522.0, 0.004121523959431092
1523.0, 0.0016385183479959925
1524.0, 0.00246191093314536
1525.0, 0.0029816821550023246
1526, 0.0
1527, 0.0
1528, 0.0
1529, 0.0
1530, 0.0
1531, 0.0
1532, 0.0
1533, 0.0
1534, 0.0
1535, 0.0
1536, 0.0
1537, 0.0
1538, 0.0
1539, 0.0
1540, 0.0
1541, 0.0
1542, 0.0
1543, 0.0
1544, 0.0
1545, 0.0
1546, 0.0
1547, 0.0
1548, 0.0
1549, 0.0
1550, 0.0
1551, 0.0
1552, 0.0
1553, 0.0
1554, 0.0
1555, 0.0
1556, 0.0
1557, 0.0
1558, 0.0
1559, 0.0
1560, 0.0
1561, 0.0
1562, 0.0
1563, 0.0
1564, 0.0
1565, 0.0
1566, 0.0
1567, 0.0
1568, 0.0
1569, 0.0
1570, 0.0
1571, 0.0
1572, 0.0
1573, 0.0
1574, 0.0
1575, 0.0
1576, 0.0
1577, 0.0
1578, 0.0
1579, 0.0
1580, 0.0
1581, 0.0
1582, 0.0
1583, 0.0
1584, 0.0
1585, 0.0
1586, 0.0
1587, 0.0
1588, 0.0
1589, 0.0
1590, 0.0
1591, 0.0
1592, 0.0
1593, 0.0
1594, 0.0
1595, 0.0
1596, 0.0
1597, 0.0
1598, 0.0
1599, 0.0
