30, 0.0
31, 0.0
32, 0.0
33, 0.0
34, 0.0
35, 0.0
36, 0.0
37, 0.0
38, 0.0
39, 0.0
40, 0.0
41, 0.0
42, 0.0
43, 0.0
44, 0.0
45, 0.0
46, 0.0
47, 0.0
48, 0.0
49, 0.0
50, 0.0
51, 0.0
52, 0.0
53, 0.0
54, 0.0
55, 0.0
56, 0.0
57, 0.0
58, 0.0
59, 0.0
60, 0.0
61, 0.0
62, 0.0
63, 0.0
64, 0.0
65, 0.0
66, 0.0
67, 0.0
68, 0.0
69, 0.0
70, 0.0
71, 0.0
72, 0.0
73, 0.0
74, 0.0
75, 0.0
76, 0.0
77, 0.0
78, 0.0
79, 0.0
80, 0.0
81, 0.0
82, 0.0
83, 0.0
84, 0.0
85, 0.0
86, 0.0
87, 0.0
88, 0.0
89, 0.0
90, 0.0
91, 0.0
92, 0.0
93, 0.0
94, 0.0
95, 0.0
96, 0.0
97, 0.0
98, 0.0
99, 0.0
100, 0.0
101, 0.0
102, 0.0
103, 0.0
104, 0.0
105, 0.0
106, 0.0
107, 0.0
108, 0.0
109, 0.0
110, 0.0
111, 0.0
112, 0.0
113, 0.0
114, 0.0
115, 0.0
116, 0.0
117, 0.0
118, 0.0
119, 0.0
120, 0.0
121, 0.0
122, 0.0
123.0, 0.0005922594071105026
124.0, 0.00031633909344336194
125.0, 0.0025914904675985438
126.0, 0.004805180010591355
127.0, 0.006810683083344091
128.0, 0.011530097475062246
129.0, 0.016263268822516216
130.0, 0.019115623166135357
131.0, 0.02125616452384004
132.0, 0.023820676419703184
133.0, 0.0242861846431516
134.0, 0.021084338323135415
135.0, 0.01622223129174594
136.0, 0.011011801464601295
137.0, 0.004435678024611021
138.0, 0.0007754368919049404
139.0, 0.00020239531831076548
140.0, 0.002215038847518642
141.0, 0.006640533255743867
142.0, 0.01248322373578312
143.0, 0.018591584658715334
144.0, 0.02481841658195425
145.0, 0.03086498902639181
146.0, 0.03340379801922919
147.0, 0.0402678464746789
148.0, 0.047738860956904106
149.0, 0.050754675262470565
150.0, 0.04872452402365349
151.0, 0.04647021158550956
152.0, 0.045922146458487384
153.0, 0.045234659280058605
154.0, 0.04340566489354739
155.0, 0.04768808263007155
156.0, 0.050501169524436
157.0, 0.05652695943564158
158.0, 0.06752816965790182
159.0, 0.07388950460149908
160.0, 0.08216720131666051
161.0, 0.08753049342469874
162.0, 0.08651956445749394
163.0, 0.07879666260700036
164.0, 0.06750232218534939
165.0, 0.054302420729545275
166.0, 0.04453839496996165
167.0, 0.03948091796496291
168.0, 0.03341757717593961
169.0, 0.030887746330326312
170.0, 0.032545293408355304
171.0, 0.0342285891603341
172.0, 0.03281122373814657
173.0, 0.03335035026880648
174.0, 0.03794398921975257
175.0, 0.04433947670229945
176.0, 0.049384147182926344
177.0, 0.050628196383058786
178.0, 0.04991155620796825
179.0, 0.0445143196777569
180.0, 0.036557942754664535
181.0, 0.030067014211968574
182.0, 0.025295961417444217
183.0, 0.021059793824016
184.0, 0.018904784125239295
185.0, 0.019776155407603482
186.0, 0.02209768419559448
187.0, 0.02272656682533957
188.0, 0.024732709860660857
189.0, 0.027848643890402987
190.0, 0.02927258046513383
191.0, 0.029877074083146004
192.0, 0.027641941310237873
193.0, 0.027336139160804865
194.0, 0.03088449197785118
195.0, 0.03462397686699024
196.0, 0.040051794982066485
197.0, 0.04696642242861131
198.0, 0.0545843668701288
199.0, 0.06271408992068266
200.0, 0.07169841350072535
201.0, 0.07569346871774461
202.0, 0.07670981511554165
203.0, 0.07437539865552294
204.0, 0.06747610141930217
205.0, 0.06107432841731507
206.0, 0.05728280002374113
207.0, 0.05447270390177161
208.0, 0.052374668603196214
209.0, 0.054483097064599306
210.0, 0.059580473615184565
211.0, 0.06610815427630251
212.0, 0.07273462643507517
213.0, 0.07755657883947012
214.0, 0.07433056285907715
215.0, 0.0720542950543917
216.0, 0.07258663678309668
217.0, 0.07341200459337192
218.0, 0.07124649825356381
219.0, 0.07212538736751427
220.0, 0.07750969192192919
221.0, 0.08351664592786419
222.0, 0.0874122778629801
223.0, 0.09123673258549632
224.0, 0.09640522447870452
225.0, 0.10239165165127816
226.0, 0.10538621104434695
227.0, 0.10334555032731892
228.0, 0.10047054258687038
229.0, 0.09155767083644575
230.0, 0.07846753710939172
231.0, 0.06612806205964274
232.0, 0.058346837688346496
233.0, 0.049404080827554514
234.0, 0.04393176588257907
235.0, 0.04120085297824845
236.0, 0.039247578631032794
237.0, 0.037006881492104744
238.0, 0.036728550232088736
239.0, 0.03947698525541321
240.0, 0.043770831717225754
241.0, 0.04716762928320408
242.0, 0.04927270493646086
243.0, 0.051711334183227355
244.0, 0.05585082530856396
245.0, 0.06020019887714572
246.0, 0.06094220908645797
247.0, 0.057473892836586535
248.0, 0.05366388051614224
249.0, 0.04777036693760783
250.0, 0.03804472632126868
251.0, 0.02654154368974553
252.0, 0.02088189117427059
253.0, 0.0158755658220173
254.0, 0.010189494978409236
255.0, 0.004855249914271285
256.0, 0.0009841642753006842
257.0, 0.0008630840669574416
258.0, 0.0032086258321990823
259.0, 0.004200906142281067
260.0, 0.0031283833410170165
261.0, 0.004945231297240972
262.0, 0.004731197633841975
263.0, 0.00470341704284879
264.0, 0.004789353797108042
265.0, 0.0036046810785885695
266.0, 0.004305428710166092
267.0, 0.0021414121987270614
268.0, 0.00012383396776376561
269.0, 0.000631075452572092
270.0, 0.0011772015281307378
271.0, 0.005652168397063425
272.0, 0.006547574174689589
273.0, 0.004180233137127479
274.0, 0.0043717833069288675
275.0, 0.00947612673494471
276.0, 0.0060054700596774875
277.0, 0.0060134854737066805
278.0, 0.010057723862648879
279.0, 0.014216108124500911
280.0, 0.016510350385060973
281.0, 0.016208298711301097
282.0, 0.01587368664348146
283.0, 0.018686153880359328
284.0, 0.02336908210078025
285.0, 0.024289697973490728
286.0, 0.025605927204517927
287.0, 0.027027201803644797
288.0, 0.028202834263387773
289.0, 0.02953994783210751
290.0, 0.03170642286395612
291.0, 0.03460828883664005
292.0, 0.03640565892402843
293.0, 0.03910716739539925
294.0, 0.04409135890525937
295.0, 0.04879100996970989
296.0, 0.052105574835190314
297.0, 0.05606588533003713
298.0, 0.054797310692442674
299.0, 0.04609159856432403
300.0, 0.03969644747032579
301.0, 0.03260911635468281
302.0, 0.023712425309461174
303.0, 0.0143724426860252
304.0, 0.007252146215561538
305.0, 0.008898139029764026
306.0, 0.0069361044735480335
307.0, 0.006375263985100597
308.0, 0.007801810255631672
309.0, 0.008920500929779055
310.0, 0.012604863348773046
311.0, 0.017398115071831102
312.0, 0.022952079579378257
313.0, 0.029100631484770302
314.0, 0.03493565603955385
315.0, 0.039916842266567845
316.0, 0.05166469789298506
317.0, 0.0607814452589577
318.0, 0.06971268104569424
319.0, 0.08359032188711758
320.0, 0.09613045441598903
321.0, 0.10969085678882487
322.0, 0.1227373505825875
323.0, 0.13733509951325698
324.0, 0.15449975137806582
325.0, 0.17004496263888957
326.0, 0.18494268235110697
327.0, 0.19950906906854554
328.0, 0.21482639545794777
329.0, 0.2309880614800822
330.0, 0.2457797663097756
331.0, 0.261708239966709
332.0, 0.27059095511862336
333.0, 0.2766122274685395
334.0, 0.2775014632210271
335.0, 0.2573858358433345
336.0, 0.23522122549009508
337.0, 0.20858773519641574
338.0, 0.17661808369251666
339.0, 0.14455986732475218
340.0, 0.12019528676580048
341.0, 0.09481082833773237
342.0, 0.07303935456438318
343.0, 0.05628769815853548
344.0, 0.04342704809124602
345.0, 0.032704665368757116
346.0, 0.02404552781552304
347.0, 0.017712335529054234
348.0, 0.010819080293088895
349.0, 0.003730698967913547
350.0, 0.0015636979445372056
351.0, 0.0005325740749660321
352.0, 0.0026882243427975012
353.0, 0.004849634582286921
354.0, 0.0052365806699208204
355.0, 0.0026226854774584903
356.0, 0.0022270445260381077
357.0, 0.0020516099219535047
358.0, 0.0009363373730996
359.0, 0.004000458366245338
360.0, 0.0035766961202060585
361.0, 0.006489308932125879
362.0, 0.011914299127323303
363.0, 0.014768033703520969
364.0, 0.015113747893833037
365.0, 0.018063483251921388
366.0, 0.02594424982762245
367.0, 0.027656077621361384
368.0, 0.032994531999500386
369.0, 0.038672668746931496
370.0, 0.04134729928902938
371.0, 0.04886119659205554
372.0, 0.054441924319882394
373.0, 0.05919219363484489
374.0, 0.06264527034011888
375.0, 0.06317020024747577
376.0, 0.05999658915087161
377.0, 0.05545212931150208
378.0, 0.05270050451418329
379.0, 0.05056784889882764
380.0, 0.048777674473535364
381.0, 0.04764102383343491
382.0, 0.04521165838744318
383.0, 0.04829876512111859
384.0, 0.049778895100283445
385.0, 0.05169188429569644
386.0, 0.05760020728281806
387.0, 0.06285766543103688
388.0, 0.07130761992042463
389.0, 0.08004031683964735
390.0, 0.0866366630561781
391.0, 0.09459210999151337
392.0, 0.10794938168648908
393.0, 0.11389915589226385
394.0, 0.1243829540247398
395.0, 0.13207683989378458
396.0, 0.1325107617515155
397.0, 0.1288679197495864
398.0, 0.12683279690209026
399.0, 0.1208227613425639
400.0, 0.11539158272155817
401.0, 0.1091411790688076
402.0, 0.09925963036898071
403.0, 0.08872913764040329
404.0, 0.08494992853648431
405.0, 0.08060691714409907
406.0, 0.07994086192012823
407.0, 0.08088246505713216
408.0, 0.07699428962311045
409.0, 0.08046977389041064
410.0, 0.0845616985659811
411.0, 0.09085455012880199
412.0, 0.09773241048226662
413.0, 0.10259500116809692
414.0, 0.11041846881995784
415.0, 0.11923258408393542
416.0, 0.1284257719803487
417.0, 0.13815031217144733
418.0, 0.14776530096983392
419.0, 0.1546832674860476
420.0, 0.15636836142554192
421.0, 0.15928939087176186
422.0, 0.16125947398904758
423.0, 0.16000364773993062
424.0, 0.1570736043665207
425.0, 0.15862117325549047
426.0, 0.16011188956219025
427.0, 0.16624430766551107
428.0, 0.17321445724134305
429.0, 0.17938362583146406
430.0, 0.19198258072015786
431.0, 0.20003937213168732
432.0, 0.20749846879779701
433.0, 0.21417745615808062
434.0, 0.2163761168799042
435.0, 0.21045504226505668
436.0, 0.1969379284761562
437.0, 0.182827184826948
438.0, 0.16760676586968742
439.0, 0.14721051526319015
440.0, 0.12278953388811449
441.0, 0.102247838817471
442.0, 0.08092676736141119
443.0, 0.0670657477288592
444.0, 0.05546990748410214
445.0, 0.04290913453535417
446.0, 0.03225380762541859
447.0, 0.0261625950823521
448.0, 0.017780685700092436
449.0, 0.012600732612212435
450.0, 0.008595252061653506
451.0, 0.004689415659437601
452.0, 0.0030273554035942897
453.0, 0.0005036454935942813
454.0, 0.002692713724359798
455.0, 0.004329515606857248
456.0, 0.004255244263375897
457.0, 0.003463086884569966
458.0, 0.002890698132387915
459.0, 0.0027219467882405738
460.0, 0.003465612574639899
461.0, 0.0022827071917070917
462.0, 0.0014291356657875234
463.0, 0.0021016557203088013
464.0, 0.0024061424946948836
465.0, 0.00541637253470093
466.0, 0.007943077640825368
467.0, 0.01034218216166135
468.0, 0.012036754874798147
469.0, 0.013284193846555476
470.0, 0.01789977740917977
471.0, 0.022927913322868827
472.0, 0.02663149657288964
473.0, 0.02967142281896675
474.0, 0.03407409639804138
475.0, 0.03927412907784844
476.0, 0.039990845740001085
477.0, 0.04125331614651302
478.0, 0.044726390086601786
479.0, 0.04723649520831924
480.0, 0.04718014218141364
481.0, 0.047570407001669604
482.0, 0.048328039580372587
483.0, 0.05030018950704435
484.0, 0.050349341535653507
485.0, 0.050298632256610805
486.0, 0.05198057600595868
487.0, 0.047742772168084154
488.0, 0.04883415880327582
489.0, 0.046208503712728374
490.0, 0.04376839390432313
491.0, 0.04466541341098581
492.0, 0.04588776089239529
493.0, 0.04763368386895196
494.0, 0.045476112638232986
495.0, 0.045040611059140874
496.0, 0.04840052117657905
497.0, 0.05273417227487541
498.0, 0.05410503299331087
499.0, 0.056664899860647475
500.0, 0.06166503000940933
501.0, 0.06494614635297574
502.0, 0.07137398592581591
503.0, 0.07938520516381213
504.0, 0.08302880823120946
505.0, 0.09461663449156119
506.0, 0.10547484876226955
507.0, 0.11806090550312533
508.0, 0.13004824189126202
509.0, 0.13871615720542135
510.0, 0.14447244664052122
511.0, 0.14621992436058523
512.0, 0.14665087799189777
513.0, 0.13653644361738074
514.0, 0.1219391419671451
515.0, 0.11105059107511543
516.0, 0.10041607287118093
517.0, 0.09014484274264645
518.0, 0.0801525511633596
519.0, 0.06704595344828866
520.0, 0.05867848153118171
521.0, 0.0555448377820074
522.0, 0.04747080017621223
523.0, 0.04621491683127154
524.0, 0.04356833757337862
525.0, 0.04129223403771384
526.0, 0.03769624462435689
527.0, 0.03320973388262388
528.0, 0.03168716812878891
529.0, 0.028722554105346906
530.0, 0.025777957837177245
531.0, 0.02371909824574483
532.0, 0.02226269894692503
533.0, 0.01982274142464463
534.0, 0.015632120451648066
535.0, 0.017857165114267735
536.0, 0.01819672006434735
537.0, 0.014530508326998762
538.0, 0.011709417447654438
539.0, 0.011071464494039186
540.0, 0.009371002433112256
541.0, 0.009263888149925494
542.0, 0.011186240103022632
543.0, 0.009157898138508062
544.0, 0.007485707648328726
545.0, 0.006611770118159252
546.0, 0.004669890517653703
547.0, 0.006436913727412042
548.0, 0.0072686953923843355
549.0, 0.003673053485255487
550.0, 0.0014776861017730498
551.0, 0.001961833192190034
552.0, 0.003635871801196531
553.0, 0.0017489847929765972
554.0, 0.002533430611358062
555.0, 0.0011303723893489209
556.0, 0.00110590557558796
557.0, 0.0009482849559227564
558.0, 0.0002589855787015769
559.0, 0.00034420021904815284
560.0, 0.00010163411555709789
561.0, 1.421754971266484e-05
562.0, 0.0017163868316141795
563.0, 0.001655052827064352
564.0, 0.00017039170404996139
565.0, 0.0002226425563815208
566.0, 0.000802282577132293
567.0, 0.0012754333649309454
568.0, 0.0025021678721005992
569.0, 0.0010335283500071118
570.0, 0.00021315070532353688
571.0, 0.000710446542835129
572.0, 0.0013925486512793035
573.0, 0.001683907056580616
574.0, 0.0009040723559768649
575.0, 0.001131392494915744
576.0, 0.001858791155889267
577.0, 0.003712822994459069
578.0, 0.002306055967586765
579.0, 0.0013250823737860275
580.0, 0.0026477547277501097
581.0, 0.003351642212088066
582.0, 0.001985371943309385
583.0, 0.002379290686482829
584.0, 0.0022133787004694687
585.0, 0.0003081215306980898
586.0, 0.0033436802872357837
587.0, 0.002333839634946735
588.0, 0.0007923667821676481
589.0, 0.000858677334912106
590.0, 0.0005772742699506083
591.0, 0.0001772417048700933
592.0, 0.0018133347330814838
593.0, 0.00429059850178772
594.0, 0.004567457922349456
595.0, 0.00334192201671751
596.0, 0.002962861597682299
597.0, 0.0038214969692035848
598.0, 0.0037792390633553
599.0, 0.0018020685238221144
600.0, 0.0031601893053667812
601.0, 0.005904324004003168
602.0, 0.0043716251946127405
603.0, 0.00026631225484722654
604.0, 0.0041414965213173215
605.0, 0.005154290042807466
606.0, 0.005738057362111421
607.0, 0.006600985062308732
608.0, 0.006151920042197814
609.0, 0.004920752985954008
610.0, 0.004531711865299465
611.0, 0.003975865993891815
612.0, 0.0072834491836691
613.0, 0.005425215885720172
614.0, 0.006299311181570306
615.0, 0.006760244235293521
616.0, 0.004838349264904573
617.0, 0.006015519056213727
618.0, 0.0037071005175521392
619.0, 0.0028756470259211557
620.0, 0.004904414868190695
621.0, 0.005651550967391228
622.0, 0.004103738483891445
623.0, 0.0026347289236429428
624.0, 0.002983868266399275
625.0, 0.0033194926154358605
626.0, 0.003449447129838656
627.0, 0.0030671221677309292
628.0, 0.00241943252970905
629.0, 0.0015530507981581217
630.0, 0.0011129150203656115
631.0, 0.003002977500986583
632.0, 0.003938620217711022
633.0, 0.0035063207385540494
634.0, 0.0026970649151109886
635.0, 0.0031542220148422172
636.0, 0.0028409564697964365
637.0, 0.0008461584497878594
638.0, 0.002354730272036996
639.0, 0.0035869376827072272
640.0, 0.002590485194368074
641.0, 0.0014520235218961333
642.0, 0.0034286404818261226
643.0, 0.006227727986253709
644.0, 0.005815084857016539
645.0, 0.003166546600754558
646.0, 0.0021608348721634607
647.0, 0.0004737803837034355
648.0, 0.0006640619876605671
649.0, 0.0016968304858333574
650.0, 0.002732687186161078
651.0, 0.00260873247921218
652.0, 0.0018698768318549366
653.0, 0.0023195359643357937
654.0, 0.00216022602482968
655.0, 0.0015486882191628347
656.0, 0.0030549345677615162
657.0, 0.005261752880357408
658.0, 0.0038334595159952778
659.0, 0.0033096647187286156
660.0, 0.004523957970872354
661.0, 0.004176110783265745
662.0, 0.004071992641565658
663.0, 0.0036156403801212117
664.0, 0.003848089273322849
665.0, 0.005284364933090476
666.0, 0.002901391751228571
667.0, 0.0020170560178683883
668.0, 0.0030924139781077554
669.0, 0.0017831536475000063
670.0, 0.0005178504760663511
671.0, 0.0006342773473837097
672.0, 0.0017033316144755056
673.0, 0.004544789735446063
674.0, 0.004586430127606024
675.0, 0.002464950228884058
676.0, 0.0036550569326778966
677.0, 0.00391529298588455
678.0, 0.002800414637214455
679.0, 0.0033722049978534467
680.0, 0.0036095233239347205
681.0, 0.003818959111302628
682.0, 0.0014556572435660297
683.0, 0.0001368728833950535
684.0, 0.0007462628210756759
685.0, 0.0009100174990490032
686.0, 0.002424132577603996
687.0, 0.0016104187772832295
688.0, 0.0009542217442563731
689.0, 0.002077233897728248
690.0, 0.0012025930569924638
691.0, 0.0008310558717761396
692.0, 0.0008097869620708171
693.0, 0.0026676628264854347
694.0, 0.007878959237725526
695.0, 0.007503661301038674
696.0, 0.008010527739358494
697.0, 0.008445799666539772
698.0, 0.00808015912420154
699.0, 0.010234589883212276
700.0, 0.013984276470498826
701.0, 0.015651633321532098
702.0, 0.01626680478160202
703.0, 0.020361118677638217
704.0, 0.02003560509398531
705.0, 0.0215287977952763
706.0, 0.023626948036511136
707.0, 0.026087757918041934
708.0, 0.029823472920074996
709.0, 0.0333995806653188
710.0, 0.03498957827538897
711.0, 0.039112246289764965
712.0, 0.03978211735602355
713.0, 0.04152541056952805
714.0, 0.046327193778967865
715.0, 0.05077637699479617
716.0, 0.05200352569864077
717.0, 0.05304879343146206
718.0, 0.05440966317007745
719.0, 0.054798593874818
720.0, 0.05363897529622543
721.0, 0.052154752513023914
722.0, 0.05023154272678171
723.0, 0.047256754359926025
724.0, 0.04401239965750585
725.0, 0.04379560441593926
726.0, 0.0397427905660169
727.0, 0.0393137820882479
728.0, 0.035094720214501135
729.0, 0.02994300267497406
730.0, 0.02633783930083793
731.0, 0.023609794027837427
732.0, 0.02215183253130089
733.0, 0.020176380446179344
734.0, 0.014732286733640342
735.0, 0.01510544727520465
736.0, 0.01272672941322826
737.0, 0.010086661392247695
738.0, 0.009523518778035868
739.0, 0.008304769348197245
740.0, 0.005534769422598147
741.0, 0.00424008863149479
742.0, 0.004407681783218534
743.0, 0.0026343085446660173
744.0, 0.0025414836178610806
745.0, 0.0016691031663107572
746.0, 0.00019616156450800884
747.0, 0.0008746967073896981
748.0, 0.0020634205938540626
749.0, 0.001805507274181409
750.0, 0.0022015329017376927
751.0, 0.0015803986181897219
752.0, 0.0023347602835598657
753.0, 0.0016960054795463037
754.0, 0.0005717395626606776
755.0, 0.0020058797541846894
756.0, 0.002564526657284809
757.0, 0.002978522998693858
758.0, 0.006612346628212312
759.0, 0.0031848616532061387
760.0, 0.0016292400904921792
761.0, 0.0019051333384794509
762.0, 0.000151172165466149
763.0, 0.0011583770906006727
764.0, 0.0011533007435915077
765.0, 0.000662358795979291
766.0, 0.0009436649976528676
767.0, 0.004866641692469911
768.0, 0.004308168769407939
769.0, 0.005381097217386487
770.0, 0.009801068140100956
771.0, 0.01135233132688376
772.0, 0.014236573119926819
773.0, 0.01781605786364803
774.0, 0.02325451973436526
775.0, 0.02666757348558264
776.0, 0.03137367652939618
777.0, 0.035362815427794195
778.0, 0.04023430948315038
779.0, 0.045474842304106616
780.0, 0.048145961296365884
781.0, 0.05850114171699712
782.0, 0.06371584721035302
783.0, 0.06830879226379492
784.0, 0.07946617572980781
785.0, 0.08899139902254917
786.0, 0.09128322339453548
787.0, 0.0924940514061627
788.0, 0.09819386928162054
789.0, 0.10125557321824476
790.0, 0.09826213390752694
791.0, 0.0969327281042458
792.0, 0.09476853128896459
793.0, 0.09559961504630325
794.0, 0.09637751824600554
795.0, 0.09394786498951616
796.0, 0.09186031407804955
797.0, 0.09575851581149948
798.0, 0.1071917395213269
799.0, 0.1140187649522522
800.0, 0.12511595848965135
801.0, 0.13547372735760835
802.0, 0.15148949260015412
803.0, 0.17318023498531923
804.0, 0.19475190241598914
805.0, 0.21522810457323352
806.0, 0.24066673620265536
807.0, 0.2771087845930168
808.0, 0.30750323717300665
809.0, 0.33399737187470474
810.0, 0.36198025866988276
811.0, 0.3854260461449039
812.0, 0.3936228685976747
813.0, 0.38680588825117795
814.0, 0.3709467755788318
815.0, 0.34051498213270204
816.0, 0.3009573438383143
817.0, 0.26402887317959406
818.0, 0.2308163426092601
819.0, 0.2030870184519425
820.0, 0.18380537012074694
821.0, 0.16553502727852235
822.0, 0.1462540140657633
823.0, 0.13612614662564368
824.0, 0.12936901925015146
825.0, 0.12904955869098816
826.0, 0.12945324310835746
827.0, 0.1300691228808193
828.0, 0.13608471369785197
829.0, 0.14318508714753592
830.0, 0.145693930698735
831.0, 0.15229745331880953
832.0, 0.1709553585186834
833.0, 0.1810909075565458
834.0, 0.20618811880605017
835.0, 0.23131553917561853
836.0, 0.25856548851311745
837.0, 0.2897425746068387
838.0, 0.3344486296330266
839.0, 0.3840188146573598
840.0, 0.43364900733853246
841.0, 0.4959599655188717
842.0, 0.5588610139248589
843.0, 0.6197201511082919
844.0, 0.6953992257696471
845.0, 0.7653979417213088
846.0, 0.8410332046384853
847.0, 0.9098941684227603
848.0, 0.9635813397747417
849.0, 0.9960146646068785
850.0, 0.9969962692184553
851.0, 0.9698637118262862
852.0, 0.9123156871601172
853.0, 0.8368072112804109
854.0, 0.7458958994853594
855.0, 0.6509002709663865
856.0, 0.5640310883354684
857.0, 0.4826720940883078
858.0, 0.4078193679864218
859.0, 0.3466848176891766
860.0, 0.29380561991491
861.0, 0.2488619552357614
862.0, 0.21381040416726715
863.0, 0.1778854358475817
864.0, 0.14882982614200643
865.0, 0.12916802324020574
866.0, 0.11153041542491467
867.0, 0.09686465146096976
868.0, 0.08508599202577209
869.0, 0.07152783182632942
870.0, 0.0626204625545559
871.0, 0.047091471618871464
872.0, 0.04047517733975248
873.0, 0.03377856476748524
874.0, 0.030481494571805212
875.0, 0.02643036849558914
876.0, 0.02011767284261373
877.0, 0.014468328140938454
878.0, 0.01079706721207754
879.0, 0.008884588677551554
880.0, 0.0067142212537532765
881.0, 0.00602241703081705
882.0, 0.007448952535043742
883.0, 0.0035607527848454234
884.0, 0.001632550063047899
885.0, 0.002959140432009053
886.0, 0.003184796036908017
887.0, 0.0038475505869905767
888.0, 0.0026232949906535427
889.0, 0.0006738346599147722
890.0, 0.003977495189385531
891.0, 0.004576724586965417
892.0, 0.0013146966847846584
893.0, 0.001306902333898512
894.0, 0.0014871526952434473
895.0, 0.0006479211522264188
896.0, 0.00384675148940235
897.0, 0.006992297841782203
898.0, 0.009714388403169164
899.0, 0.012979896897560456
900.0, 0.014258050064475577
901.0, 0.017864152411214838
902.0, 0.019853082491156995
903.0, 0.0203971346241318
904.0, 0.019683432834040268
905.0, 0.019940686422127044
906.0, 0.019496659972641484
907.0, 0.019671652300143914
908.0, 0.02093265960827579
909.0, 0.01992716089546264
910.0, 0.019791795693502933
911.0, 0.019141644849162424
912.0, 0.02158974145337832
913.0, 0.021746693474761405
914.0, 0.0249428195982829
915.0, 0.02821957436121374
916.0, 0.02762390064002691
917.0, 0.02636328690001298
918.0, 0.02564232780339046
919.0, 0.02340309197175981
920.0, 0.02236416565744599
921.0, 0.01725743707091255
922.0, 0.010587807056974461
923.0, 0.007888779884735457
924.0, 0.006045369593823971
925.0, 0.0009857573544643547
926.0, 0.0003294131850479247
927.0, 0.0009740718241825475
928.0, 0.002276009246916404
929.0, 0.0023091051933550647
930.0, 0.0015826075687457853
931.0, 0.00019672486258467636
932.0, 0.0007065623557926753
933.0, 0.0020120834650483193
934.0, 0.005916637154811852
935.0, 0.00736109131551476
936.0, 0.01273097197871961
937.0, 0.015600872832585603
938.0, 0.019839776982736004
939.0, 0.024985031217477496
940.0, 0.030688483518341095
941.0, 0.042389375324127294
942.0, 0.04939517372777173
943.0, 0.05635576372573473
944.0, 0.06194982167644329
945.0, 0.0735600499418066
946.0, 0.08210615847364414
947.0, 0.09134498240144102
948.0, 0.10216555507994816
949.0, 0.10745318180330055
950.0, 0.11247822783472858
951.0, 0.11452238194088829
952.0, 0.10622097634769546
953.0, 0.10248483506124326
954.0, 0.09313015172335133
955.0, 0.08048290394793213
956.0, 0.06872933072829474
957.0, 0.059307435218690065
958.0, 0.04975894571867847
959.0, 0.04014364130158126
960.0, 0.034082536060380135
961.0, 0.028572148854035546
962.0, 0.02197550808825467
963.0, 0.018226103871491352
964.0, 0.01692891010114256
965.0, 0.014865652763356777
966.0, 0.012465621181669679
967.0, 0.009400925205808016
968.0, 0.010969833629310576
969.0, 0.006574806812726816
970.0, 0.0068217903749568124
971.0, 0.006671660794738221
972.0, 0.00557724065962346
973.0, 0.005147036445643709
974.0, 0.003813045406295937
975.0, 0.001988310432083087
976.0, 0.0014605963492013623
977.0, 0.000666126444811991
978.0, 0.0020869410616129558
979.0, 0.002193224549743858
980.0, 0.00047782534626311624
981.0, 0.0019751358938355622
982.0, 0.00034322994007604133
983.0, 0.0016663744057474686
984.0, 0.0009901783236984003
985.0, 0.00030707409496646715
986.0, 0.0005986660577383112
987.0, 0.0010467675067381498
988.0, 0.0011894673487041546
989.0, 0.002383641021303659
990.0, 0.0002962225162003294
991.0, 0.0035254691893118204
992.0, 0.0017275645195191118
993.0, 0.0021296150948456197
994.0, 0.0023806969055017325
995.0, 0.0020371386924568843
996.0, 0.0011608006359838997
997.0, 0.0020924843757657097
998.0, 0.0023684594414170165
999.0, 0.0030347860658889265
1000.0, 0.005106498121824054
1001.0, 0.003470381039619506
1002.0, 0.005667139485744197
1003.0, 0.004961841879383781
1004.0, 0.0055126171812086115
1005.0, 0.00394949053430829
1006.0, 0.006723238704690457
1007.0, 0.004199132015953968
1008.0, 0.00585526842289567
1009.0, 0.008685970475848896
1010.0, 0.007126360218488079
1011.0, 0.005654140172490917
1012.0, 0.007480739597510188
1013.0, 0.008153528365208414
1014.0, 0.005701693884103535
1015.0, 0.005990592971797956
1016.0, 0.008019305476882838
1017.0, 0.008003755713771604
1018.0, 0.010096580221620145
1019.0, 0.006820208167584506
1020.0, 0.005689283318901875
1021.0, 0.0020344208715225246
1022.0, 0.0027537586892608943
1023.0, 0.004546604317618453
1024.0, 0.003540440809406095
1025.0, 0.0012008713261485167
1026.0, 0.0017679085749115182
1027.0, 0.006058971919803145
1028.0, 0.0029185292818711475
1029.0, 0.0004214720445294193
1030.0, 0.004218387868204492
1031.0, 0.0060803934267336735
1032.0, 0.004490670085930786
1033.0, 0.00437702583478655
1034.0, 0.00477242830917416
1035.0, 0.004164215900562426
1036.0, 0.003082317730650159
1037.0, 0.0011900404136612793
1038.0, 0.001297704257001681
1039.0, 0.003721147081652664
1040.0, 0.004935036341910355
1041.0, 0.0037097355723660873
1042.0, 0.00029474409264112643
1043.0, 0.002416421870798502
1044.0, 0.0011427592519470686
1045.0, 0.0014290850831933538
1046.0, 0.0009986422371281657
1047.0, 0.0022456221701130305
1048.0, 0.0014441655947339772
1049.0, 0.002877595715015262
1050.0, 0.0026172218149270853
1051.0, 0.0005552563840817782
1052.0, 0.0010226881807053065
1053.0, 0.0023495303080504036
1054.0, 0.0006706872768010137
1055.0, 0.0010179871332348755
1056.0, 0.0017328221616800046
1057.0, 0.0031889179135814794
1058.0, 0.0009720851584115616
1059.0, 0.0005465678054578193
1060.0, 0.002727755501706678
1061.0, 0.003525864440911617
1062.0, 0.0029419793931816283
1063.0, 0.0029970486767301953
1064.0, 0.0037410313803635954
1065.0, 0.004195106426495638
1066.0, 0.0035354401987012667
1067.0, 0.0038932145671930173
1068.0, 0.004351673677364583
1069.0, 0.004290814713730957
1070.0, 0.003715695408176607
1071.0, 0.001188162044738553
1072.0, 0.0026081494746851984
1073.0, 0.0029979617023124026
1074.0, 0.002348528212337588
1075.0, 0.004089849742353657
1076.0, 0.004967794614226572
1077.0, 0.004200208950139395
1078.0, 0.006503995390890565
1079.0, 0.0073685774599380255
1080.0, 0.008727149736580458
1081.0, 0.008264904867696288
1082.0, 0.005250475134727593
1083.0, 0.0051695628596216325
1084.0, 0.007838715062783238
1085.0, 0.007016984259668075
1086.0, 0.004963713638299956
1087.0, 0.006862606149633596
1088.0, 0.005187637076374036
1089.0, 0.003437124402575236
1090.0, 0.0050971714108523514
1091.0, 0.006085684615094548
1092.0, 0.0030910977801409923
1093.0, 0.004903332128287144
1094.0, 0.0021197095352462284
1095.0, 0.0034426721687906728
1096.0, 0.0023376359221430345
1097.0, 0.0026720289382011824
1098.0, 0.003415660122310951
1099.0, 0.0025186264384582185
1100.0, 0.002203581419705727
1101.0, 0.0033067863353972845
1102.0, 0.0025586606453115615
1103.0, 0.000324927339156989
1104.0, 0.00031910788748142635
1105.0, 0.0005652842727315434
1106.0, 0.0006372286358204647
1107.0, 0.0023752219068655283
1108.0, 0.003995089855841412
1109.0, 0.0006391545332640497
1110.0, 0.0014404899008716896
1111.0, 0.003040443738149818
1112.0, 0.000441300655764416
1113.0, 0.0032977732984817293
1114.0, 0.0025947604701535296
1115.0, 0.001493108302128207
1116.0, 0.0014054757186289315
1117.0, 0.002724011235828574
1118.0, 0.0014719184037470516
1119.0, 0.004089974260580427
1120.0, 0.0022409920329497348
1121.0, 0.0007736287176742974
1122.0, 0.003207631314577281
1123.0, 0.00386183930293221
1124.0, 0.0038271973989248667
1125.0, 0.002938999929219442
1126.0, 0.005294905641820833
1127.0, 0.0007769294852997385
1128.0, 0.003265877354426766
1129.0, 0.00572056396532465
1130.0, 0.0023019361333504527
1131.0, 0.0006869513518811297
1132.0, 0.0014049169491986819
1133.0, 0.003293961649750121
1134.0, 0.0018938821651696526
1135.0, 0.0019599344762030115
1136.0, 0.003964716257668701
1137.0, 0.003168753791343686
1138.0, 0.0011405327799190832
1139.0, 0.0015762837324181044
1140.0, 0.003022241667633674
1141.0, 0.0040671685810143195
1142.0, 0.0019526865183441921
1143.0, 0.00109834725195448
1144.0, 0.0017407037004207738
1145.0, 0.0009395147815411656
1146.0, 0.0019094894014418592
1147.0, 0.0011297812621328966
1148.0, 0.0013337672905539078
1149.0, 0.0033992589726121168
1150.0, 0.004240688365789021
1151.0, 0.004200886165766097
1152.0, 0.003075753150696251
1153.0, 0.003328889962161817
1154.0, 0.00010936542544689402
1155.0, 0.002542406412421227
1156.0, 0.0052140632955759054
1157.0, 0.007951606773494402
1158.0, 0.008290751041280481
1159.0, 0.0017573131905702709
1160.0, 0.0007830248377306693
1161.0, 0.0021143938717841895
1162.0, 0.004508558139923006
1163.0, 0.003921063746985609
1164.0, 0.0027415250078706914
1165.0, 0.0027567647494278354
1166.0, 0.0030318145396416463
1167.0, 0.005004011684042581
1168.0, 0.003235014410943906
1169.0, 0.0026631049887320666
1170.0, 0.006545807940294003
1171.0, 0.005282511816041085
1172.0, 0.004451571200563551
1173.0, 0.00312374786267359
1174.0, 0.0008038685909506485
1175.0, 0.0025099680735348106
1176.0, 0.002611358917595256
1177.0, 0.0027864477973939352
1178.0, 0.0038034952167664716
1179.0, 0.004321841682004924
1180.0, 0.002039543502145855
1181.0, 0.000875551717098834
1182.0, 0.0039037046637574245
1183.0, 0.003402625820308825
1184.0, 0.003449834367601769
1185.0, 0.003736171235340433
1186.0, 0.0018795455948451276
1187.0, 0.004300219710537459
1188.0, 0.005366324279614582
1189.0, 0.005827401306944713
1190.0, 0.002458363291419593
1191.0, 0.003885584793428532
1192.0, 0.004752811424476267
1193.0, 0.002969464548397702
1194.0, 0.005099142658975346
1195.0, 0.0047058740298553696
1196.0, 0.004680876502008111
1197.0, 0.004997582731117277
1198.0, 0.0017767879471763974
1199.0, 0.002567064458345078
1200.0, 0.0047788019389809555
1201.0, 0.0033712070990975576
1202.0, 0.002932626491755624
1203.0, 0.002679242335314786
1204.0, 0.00312700221799475
1205.0, 0.004805530079617628
1206.0, 0.0046128818222822745
1207.0, 0.003459607487983375
1208.0, 0.002461518444890381
1209.0, 0.001400782072386938
1210.0, 0.0013269924479165057
1211.0, 0.0004482440974810186
1212.0, 0.0006706285954622258
1213.0, 0.0022242962560436886
1214.0, 0.0010445032968765596
1215.0, 0.003822484382820948
1216.0, 0.0028235846026683754
1217.0, 0.001126201493212989
1218.0, 0.0005551080059800082
1219.0, 0.001545658350354725
1220.0, 0.001716696713812145
1221.0, 0.0027340414956694907
1222.0, 0.0028290457603140974
1223.0, 0.003011882220230547
1224.0, 0.0024403878722853594
1225.0, 0.0032021086746555753
1226.0, 0.004625052994620208
1227.0, 0.004250413992368792
1228.0, 0.0036133547818661166
1229.0, 0.002026361135047972
1230.0, 0.004236376251738328
1231.0, 0.00489120895233145
1232.0, 0.003357877169321893
1233.0, 0.0025922395142643885
1234.0, 0.004105244075870884
1235.0, 0.004300358652267602
1236.0, 0.0013626099854530988
1237.0, 0.000778895120413244
1238.0, 0.0022538714681935934
1239.0, 0.0039040330429887145
1240.0, 0.0048010700233334005
1241.0, 0.0035195010334302126
1242.0, 4.2308820319003266e-05
1243.0, 0.0006786850538998201
1244.0, 0.000815377317566771
1245.0, 0.00014021878613636887
1246, 0.0
1247, 0.0
1248, 0.0
1249, 0.0
1250, 0.0
1251, 0.0
1252, 0.0
1253, 0.0
1254, 0.0
1255, 0.0
1256, 0.0
1257, 0.0
1258, 0.0
1259, 0.0
1260, 0.0
1261, 0.0
1262, 0.0
1263, 0.0
1264, 0.0
1265, 0.0
1266, 0.0
1267, 0.0
1268, 0.0
1269, 0.0
1270, 0.0
1271, 0.0
1272, 0.0
1273, 0.0
1274, 0.0
1275, 0.0
1276, 0.0
1277, 0.0
1278, 0.0
1279, 0.0
1280, 0.0
1281, 0.0
1282, 0.0
1283, 0.0
1284, 0.0
1285, 0.0
1286, 0.0
1287, 0.0
1288, 0.0
1289, 0.0
1290, 0.0
1291, 0.0
1292, 0.0
1293, 0.0
1294, 0.0
1295, 0.0
1296, 0.0
1297, 0.0
1298, 0.0
1299, 0.0
1300, 0.0
1301, 0.0
1302, 0.0
1303, 0.0
1304, 0.0
1305, 0.0
1306, 0.0
1307, 0.0
1308, 0.0
1309, 0.0
1310, 0.0
1311, 0.0
1312, 0.0
1313, 0.0
1314, 0.0
1315, 0.0
1316, 0.0
1317, 0.0
1318, 0.0
1319, 0.0
1320, 0.0
1321, 0.0
1322, 0.0
1323, 0.0
1324, 0.0
1325, 0.0
1326, 0.0
1327, 0.0
1328, 0.0
1329, 0.0
1330, 0.0
1331, 0.0
1332, 0.0
1333, 0.0
1334, 0.0
1335, 0.0
1336, 0.0
1337, 0.0
1338, 0.0
1339, 0.0
1340, 0.0
1341, 0.0
1342, 0.0
1343, 0.0
1344, 0.0
1345, 0.0
1346, 0.0
1347, 0.0
1348, 0.0
1349, 0.0
1350, 0.0
1351, 0.0
1352, 0.0
1353, 0.0
1354, 0.0
1355, 0.0
1356, 0.0
1357, 0.0
1358, 0.0
1359, 0.0
1360, 0.0
1361, 0.0
1362, 0.0
1363, 0.0
1364, 0.0
1365, 0.0
1366, 0.0
1367, 0.0
1368, 0.0
1369, 0.0
1370, 0.0
1371, 0.0
1372, 0.0
1373, 0.0
1374, 0.0
1375, 0.0
1376, 0.0
1377, 0.0
1378, 0.0
1379, 0.0
1380, 0.0
1381, 0.0
1382, 0.0
1383, 0.0
1384, 0.0
1385, 0.0
1386, 0.0
1387, 0.0
1388, 0.0
1389, 0.0
1390, 0.0
1391, 0.0
1392, 0.0
1393, 0.0
1394, 0.0
1395, 0.0
1396, 0.0
1397, 0.0
1398, 0.0
1399, 0.0
1400, 0.0
1401, 0.0
1402, 0.0
1403, 0.0
1404, 0.0
1405, 0.0
1406, 0.0
1407, 0.0
1408, 0.0
1409, 0.0
1410, 0.0
1411, 0.0
1412, 0.0
1413, 0.0
1414, 0.0
1415, 0.0
1416, 0.0
1417, 0.0
1418, 0.0
1419, 0.0
1420, 0.0
1421, 0.0
1422, 0.0
1423, 0.0
1424, 0.0
1425, 0.0
1426, 0.0
1427, 0.0
1428, 0.0
1429, 0.0
1430, 0.0
1431, 0.0
1432, 0.0
1433, 0.0
1434, 0.0
1435, 0.0
1436, 0.0
1437, 0.0
1438, 0.0
1439, 0.0
1440, 0.0
1441, 0.0
1442, 0.0
1443, 0.0
1444, 0.0
1445, 0.0
1446, 0.0
1447, 0.0
1448, 0.0
1449, 0.0
1450, 0.0
1451, 0.0
1452, 0.0
1453, 0.0
1454, 0.0
1455, 0.0
1456, 0.0
1457, 0.0
1458, 0.0
1459, 0.0
1460, 0.0
1461, 0.0
1462, 0.0
1463, 0.0
1464, 0.0
1465, 0.0
1466, 0.0
1467, 0.0
1468, 0.0
1469, 0.0
1470, 0.0
1471, 0.0
1472, 0.0
1473, 0.0
1474, 0.0
1475, 0.0
1476, 0.0
1477, 0.0
1478, 0.0
1479, 0.0
1480, 0.0
1481, 0.0
1482, 0.0
1483, 0.0
1484, 0.0
1485, 0.0
1486, 0.0
1487, 0.0
1488, 0.0
1489, 0.0
1490, 0.0
1491, 0.0
1492, 0.0
1493, 0.0
1494, 0.0
1495, 0.0
1496, 0.0
1497, 0.0
1498, 0.0
1499, 0.0
1500, 0.0
1501, 0.0
1502, 0.0
1503, 0.0
1504, 0.0
1505, 0.0
1506, 0.0
1507, 0.0
1508, 0.0
1509, 0.0
1510, 0.0
1511, 0.0
1512, 0.0
1513, 0.0
1514, 0.0
1515, 0.0
1516, 0.0
1517, 0.0
1518, 0.0
1519, 0.0
1520, 0.0
1521, 0.0
1522, 0.0
1523, 0.0
1524, 0.0
1525, 0.0
1526, 0.0
1527, 0.0
1528, 0.0
1529, 0.0
1530, 0.0
1531, 0.0
1532, 0.0
1533, 0.0
1534, 0.0
1535, 0.0
1536, 0.0
1537, 0.0
1538, 0.0
1539, 0.0
1540, 0.0
1541, 0.0
1542, 0.0
1543, 0.0
1544, 0.0
1545, 0.0
1546, 0.0
1547, 0.0
1548, 0.0
1549, 0.0
1550, 0.0
1551, 0.0
1552, 0.0
1553, 0.0
1554, 0.0
1555, 0.0
1556, 0.0
1557, 0.0
1558, 0.0
1559, 0.0
1560, 0.0
1561, 0.0
1562, 0.0
1563, 0.0
1564, 0.0
1565, 0.0
1566, 0.0
1567, 0.0
1568, 0.0
1569, 0.0
1570, 0.0
1571, 0.0
1572, 0.0
1573, 0.0
1574, 0.0
1575, 0.0
1576, 0.0
1577, 0.0
1578, 0.0
1579, 0.0
1580, 0.0
1581, 0.0
1582, 0.0
1583, 0.0
1584, 0.0
1585, 0.0
1586, 0.0
1587, 0.0
1588, 0.0
1589, 0.0
1590, 0.0
1591, 0.0
1592, 0.0
1593, 0.0
1594, 0.0
1595, 0.0
1596, 0.0
1597, 0.0
1598, 0.0
1599, 0.0
