30, 0.0
31, 0.0
32, 0.0
33, 0.0
34, 0.0
35, 0.0
36, 0.0
37, 0.0
38, 0.0
39, 0.0
40, 0.0
41, 0.0
42, 0.0
43, 0.0
44, 0.0
45, 0.0
46, 0.0
47, 0.0
48, 0.0
49, 0.0
50, 0.0
51, 0.0
52, 0.0
53, 0.0
54, 0.0
55, 0.0
56, 0.0
57, 0.0
58, 0.0
59, 0.0
60, 0.0
61, 0.0
62, 0.0
63, 0.0
64, 0.0
65, 0.0
66, 0.0
67, 0.0
68, 0.0
69, 0.0
70, 0.0
71, 0.0
72, 0.0
73, 0.0
74, 0.0
75, 0.0
76, 0.0
77, 0.0
78, 0.0
79, 0.0
80, 0.0
81, 0.0
82, 0.0
83, 0.0
84, 0.0
85, 0.0
86, 0.0
87, 0.0
88, 0.0
89, 0.0
90, 0.0
91, 0.0
92, 0.0
93, 0.0
94, 0.0
95, 0.0
96, 0.0
97, 0.0
98, 0.0
99, 0.0
100, 0.0
101, 0.0
102, 0.0
103, 0.0
104, 0.0
105, 0.0
106, 0.0
107, 0.0
108, 0.0
109, 0.0
110, 0.0
111, 0.0
112, 0.0
113, 0.0
114, 0.0
115, 0.0
116, 0.0
117, 0.0
118, 0.0
119, 0.0
120, 0.0
121, 0.0
122, 0.0
123, 0.0
124, 0.0
125, 0.0
126, 0.0
127, 0.0
128, 0.0
129, 0.0
130, 0.0
131, 0.0
132, 0.0
133, 0.0
134, 0.0
135, 0.0
136, 0.0
137, 0.0
138, 0.0
139, 0.0
140.0, 0.0037210096885017512
141.0, 0.0041693805087249115
142.0, 0.0045309611169072166
143.0, 0.005362635218757997
144.0, 0.004393650812956026
145.0, 0.006278381817837534
146.0, 0.006528783359774758
147.0, 0.009068741623960217
148.0, 0.009108554331450937
149.0, 0.004051978792515561
150.0, 0.016112434778860152
151.0, 0.007073016920235214
152.0, 0.011420674351003626
153.0, 0.014352694627917018
154.0, 0.009070443644921683
155.0, 0.012305654109673042
156.0, 0.015283002264006237
157.0, 0.011707786597950433
158.0, 0.011821598354977323
159.0, 0.015111861649150808
160.0, 0.015347249946901995
161.0, 0.017628207006763857
162.0, 0.008957148542653916
163.0, 0.011203294793602651
164.0, 0.0197679407721083
165.0, 0.028457289203179588
166.0, 0.04218763192917693
167.0, 0.03761067194355634
168.0, 0.03277967800701833
169.0, 0.040047971170480624
170.0, 0.05156462057218248
171.0, 0.04671081404963158
172.0, 0.05604254142818862
173.0, 0.0676570190633776
174.0, 0.07147532873372796
175.0, 0.0724945311207341
176.0, 0.07696311232836983
177.0, 0.08025056152496869
178.0, 0.08130586226242305
179.0, 0.08256813821920166
180.0, 0.08000997216109787
181.0, 0.07640522539038273
182.0, 0.08096310239478825
183.0, 0.08794030925717426
184.0, 0.08563895701834967
185.0, 0.08899271481398625
186.0, 0.0923275005854921
187.0, 0.0874406056468908
188.0, 0.08338466367677011
189.0, 0.07677535001060991
190.0, 0.06896747899876787
191.0, 0.05937067179200034
192.0, 0.05722180008759535
193.0, 0.0783066700196767
194.0, 0.07121640833597362
195.0, 0.06850374019266309
196.0, 0.06426680870308878
197.0, 0.057537430952712285
198.0, 0.05150327868916594
199.0, 0.05666188086886624
200.0, 0.05400769122277528
201.0, 0.05291706591251077
202.0, 0.04980221429821463
203.0, 0.04540621279440204
204.0, 0.04531480921033214
205.0, 0.04288039748855017
206.0, 0.04111917047026037
207.0, 0.039018322064675794
208.0, 0.035151226430180885
209.0, 0.02938651162824752
210.0, 0.025468152832688187
211.0, 0.03479211146701924
212.0, 0.02798600761667294
213.0, 0.024427784935389656
214.0, 0.02843200783846827
215.0, 0.02998248272860647
216.0, 0.04572151426114135
217.0, 0.04005950067190363
218.0, 0.034899100919760034
219.0, 0.03076694785955836
220.0, 0.029068668216755418
221.0, 0.04528042101940821
222.0, 0.033363818472301014
223.0, 0.03898012503644836
224.0, 0.04412874983821853
225.0, 0.044142276130803
226.0, 0.04402356479497762
227.0, 0.04047788894384793
228.0, 0.04790582306752282
229.0, 0.050683609134837666
230.0, 0.051246520802629474
231.0, 0.05445220910332351
232.0, 0.06330269254127993
233.0, 0.07379839498970488
234.0, 0.07643516181758023
235.0, 0.08406240810697213
236.0, 0.09225855541665413
237.0, 0.09496150373064306
238.0, 0.10922333355851534
239.0, 0.11674069326931148
240.0, 0.11870022264889452
241.0, 0.12246877349797429
242.0, 0.128042773696535
243.0, 0.1290507443384125
244.0, 0.13470161114348927
245.0, 0.14480795091049942
246.0, 0.1616767784281163
247.0, 0.17309565632363494
248.0, 0.16953183141818884
249.0, 0.15483327037705522
250.0, 0.1771207031261422
251.0, 0.19671750647816807
252.0, 0.19845591391604614
253.0, 0.20167436284994333
254.0, 0.22972344339705641
255.0, 0.24118038427775726
256.0, 0.23926007156316867
257.0, 0.24436759205763092
258.0, 0.262028785744295
259.0, 0.28020718354879437
260.0, 0.2765948184164687
261.0, 0.2932056552619818
262.0, 0.28340082937037026
263.0, 0.2596335730532015
264.0, 0.245307758213471
265.0, 0.2486889813202354
266.0, 0.24329185796825378
267.0, 0.2191229375699945
268.0, 0.2076018139883236
269.0, 0.18914788328638246
270.0, 0.17198523885031766
271.0, 0.16747932989065253
272.0, 0.14324905348975944
273.0, 0.1291395251749509
274.0, 0.12041868460411057
275.0, 0.11680973114378669
276.0, 0.11369890245196088
277.0, 0.10472402570692124
278.0, 0.0994843370852803
279.0, 0.088310237424987
280.0, 0.08400206500602744
281.0, 0.07804620765625074
282.0, 0.06770258416417892
283.0, 0.06425177718671429
284.0, 0.062117934257967806
285.0, 0.0558874125605032
286.0, 0.05121112547515019
287.0, 0.047336070730927084
288.0, 0.04403663247186639
289.0, 0.047879090489627144
290.0, 0.0444787278845602
291.0, 0.04688527073738058
292.0, 0.04758794206688949
293.0, 0.04663335818085891
294.0, 0.04631244190451196
295.0, 0.03823418633709339
296.0, 0.035613320230806995
297.0, 0.04768925002020097
298.0, 0.052935240818555926
299.0, 0.04826793394925246
300.0, 0.047878351211567784
301.0, 0.052489194419534486
302.0, 0.045460217456858666
303.0, 0.03834774443088793
304.0, 0.035185539098747685
305.0, 0.03475177696710496
306.0, 0.03206907539904236
307.0, 0.03613309358629337
308.0, 0.031597418782251877
309.0, 0.03275973887221078
310.0, 0.027866379262015246
311.0, 0.017104886168631966
312.0, 0.030726192303294955
313.0, 0.02345999905596822
314.0, 0.02181845095816999
315.0, 0.0278565043450159
316.0, 0.03066254226670628
317.0, 0.025966720074357855
318.0, 0.036408319461701505
319.0, 0.029059277362551778
320.0, 0.020781658102766467
321.0, 0.014385598570328874
322.0, 0.012295407160407118
323.0, 0.01367960473558925
324.0, 0.008633091982327106
325.0, 0.008756126807522593
326.0, 0.007546737620888187
327.0, 0.008556751076870565
328.0, 0.011209493310772013
329.0, 0.013189782874288462
330.0, 0.01865461732170506
331.0, 0.004742557820396128
332.0, 0.001244886269129431
333.0, 0.0023203234642971146
334.0, 0.002946757414265745
335.0, 0.0033658708589694346
336.0, 0.011664077801998662
337.0, 0.013934491554345915
338.0, 0.006231601331554749
339.0, 0.003872576837729943
340.0, 0.007270187500844281
341.0, 0.0029045663636161866
342.0, 0.0009329097153741446
343.0, 0.0017200310557878569
344.0, 0.0019945335531317055
345.0, 0.004931536578380776
346.0, 0.011422440199981768
347.0, 0.017147323645338105
348.0, 0.004336436888782492
349.0, 0.009680316245928518
350.0, 0.00805261364312086
351.0, 0.005227240966253487
352.0, 0.004821648117760264
353.0, 0.0014136513091924131
354.0, 0.005253645552940824
355.0, 0.01145888512550559
356.0, 0.012449821460784912
357.0, 0.011463032303077037
358.0, 0.009672876505431617
359.0, 0.0035728586847980207
360.0, 0.006211058717907478
361.0, 0.004142067288259918
362.0, 0.0020531869512370343
363.0, 0.0021505742092402507
364.0, 0.003637488853226971
365.0, 0.003420072762264016
366.0, 0.009304162827024781
367.0, 0.018344869377748155
368.0, 0.023014673394210986
369.0, 0.02500530659369892
370.0, 0.02433153904574685
371.0, 0.01697535202379704
372.0, 0.016463553498685484
373.0, 0.02173470123493015
374.0, 0.030365965799256843
375.0, 0.02346521372437004
376.0, 0.010513046596851197
377.0, 0.033127727299949235
378.0, 0.0234449907334338
379.0, 0.02026845693396611
380.0, 0.029480051110706822
381.0, 0.03378345599487893
382.0, 0.030791913834252727
383.0, 0.04069454340505057
384.0, 0.05333532308576579
385.0, 0.04044250105389205
386.0, 0.04464872905181308
387.0, 0.05067067028991348
388.0, 0.05061450239748246
389.0, 0.057381135890158204
390.0, 0.06273567757365384
391.0, 0.055138677532124605
392.0, 0.04919049313203342
393.0, 0.05305965477942631
394.0, 0.06447876640819776
395.0, 0.07211533548932127
396.0, 0.06675234739136189
397.0, 0.07151388383071194
398.0, 0.07637291712797442
399.0, 0.09620586500516246
400.0, 0.11014869462536507
401.0, 0.08458636052253629
402.0, 0.0954618921994624
403.0, 0.10452641038265083
404.0, 0.09402291981547413
405.0, 0.08792586696828596
406.0, 0.09134084346463876
407.0, 0.09173037668017554
408.0, 0.08147922422910175
409.0, 0.09305585307419206
410.0, 0.08273423900858182
411.0, 0.08117237006095722
412.0, 0.09151227271571497
413.0, 0.09390944711688333
414.0, 0.06526968245105987
415.0, 0.07901339556378216
416.0, 0.06317534914040927
417.0, 0.04424158447802139
418.0, 0.03933692528605242
419.0, 0.04973399487556112
420.0, 0.058309116804206515
421.0, 0.03997552226571271
422.0, 0.05335465280281052
423.0, 0.04925935047337209
424.0, 0.04228223253035449
425.0, 0.047802152783955096
426.0, 0.04293993517159719
427.0, 0.037373954788247996
428.0, 0.04043192368741964
429.0, 0.045557121619930044
430.0, 0.04271636478798726
431.0, 0.03818155880107216
432.0, 0.05080747524318077
433.0, 0.03520772427055475
434.0, 0.039446104263637344
435.0, 0.0380499887655709
436.0, 0.038799058198751346
437.0, 0.04228658410884736
438.0, 0.04145617596419323
439.0, 0.04729144061802189
440.0, 0.039877864473375164
441.0, 0.03313599804452361
442.0, 0.03737361509138755
443.0, 0.043086043921628694
444.0, 0.0375292231132233
445.0, 0.03398356402103929
446.0, 0.02793841281284581
447.0, 0.028915957182574892
448.0, 0.03997026968807927
449.0, 0.04635786674111689
450.0, 0.042026260589863466
451.0, 0.04832539737113783
452.0, 0.057999149408819964
453.0, 0.047789671944581724
454.0, 0.037370980917114285
455.0, 0.03603369660490455
456.0, 0.03999771236603833
457.0, 0.036751059256505667
458.0, 0.03482488872006215
459.0, 0.04005541267527629
460.0, 0.03463032975939759
461.0, 0.03967541673745281
462.0, 0.053839635427557986
463.0, 0.060073594111226564
464.0, 0.06378331859287643
465.0, 0.04632445188801536
466.0, 0.061264772800358684
467.0, 0.051937997270002485
468.0, 0.03637218976883296
469.0, 0.043646953287864616
470.0, 0.04689304341542168
471.0, 0.053213938772303446
472.0, 0.05761267563330661
473.0, 0.06093186464250534
474.0, 0.061980680135715865
475.0, 0.06393887711294934
476.0, 0.0713137399300315
477.0, 0.06150013268860885
478.0, 0.06916394668266226
479.0, 0.050855406540271535
480.0, 0.04714467515188841
481.0, 0.050459925131706114
482.0, 0.0312625902818753
483.0, 0.018494179110647983
484.0, 0.037713447905309755
485.0, 0.04106760369827287
486.0, 0.03368522665378894
487.0, 0.02900724342253237
488.0, 0.026945169517727015
489.0, 0.009349039281396954
490.0, 0.03094905627621075
491.0, 0.024129223402631916
492.0, 0.030894954473019594
493.0, 0.026073555498927828
494.0, 0.022569901920791932
495.0, 0.05600337735178831
496.0, 0.08223360195673109
497.0, 0.015389223399406158
498.0, 0.00028895766446639104
499.0, 0.00521490510966701
500.0, 0.008198331474571018
501.0, 0.006323219642156512
502.0, 0.012050203565631048
503.0, 0.02098652610578611
504.0, 0.012258684351308759
505.0, 0.007564470529641004
506.0, 0.007630268027713757
507.0, 0.008735551920733086
508.0, 0.008816632112434669
509.0, 0.010944306896439963
510.0, 0.0029331144436646954
511.0, 0.004887044275158727
512.0, 0.009471303104334488
513.0, 0.011439125134452032
514.0, 0.008368339023561705
515.0, 0.00046891555776214125
516.0, 0.002785601354761927
517.0, 0.009185476397247882
518.0, 0.010922422451724792
519.0, 0.012134040283551435
520.0, 0.017866135190275113
521.0, 0.024717931582188733
522.0, 0.00672051050772869
523.0, 0.0015210241347926262
524.0, 0.006240496092232781
525.0, 0.0055326298879845165
526.0, 0.003989422579373721
527.0, 0.01038715364264372
528.0, 0.021832202634828032
529.0, 0.003462155585378719
530.0, 0.016261371079748968
531.0, 0.019379857791889162
532.0, 0.017421301878787935
533.0, 0.022072322537275292
534.0, 0.035735963615749725
535.0, 0.03826965907909632
536.0, 0.03490454659661835
537.0, 0.03665878635978812
538.0, 0.03722579588593898
539.0, 0.040558281935096786
540.0, 0.04545272424076107
541.0, 0.04465742796077014
542.0, 0.05259147874924634
543.0, 0.04011163591705
544.0, 0.05143219532089039
545.0, 0.05834672421232731
546.0, 0.05122617014484856
547.0, 0.04055920020468357
548.0, 0.04509160768761324
549.0, 0.06574069917216617
550.0, 0.054170305612002145
551.0, 0.05658149227863393
552.0, 0.06151058095279305
553.0, 0.06978416027177277
554.0, 0.08611400859977805
555.0, 0.07254147707137784
556.0, 0.078994215260542
557.0, 0.0891367840679728
558.0, 0.08803812732808682
559.0, 0.08766077343359918
560.0, 0.09512918123638099
561.0, 0.10086992480538247
562.0, 0.094342880232033
563.0, 0.09467187727655015
564.0, 0.08967735072755209
565.0, 0.08446699078176362
566.0, 0.08757030084561855
567.0, 0.08954723668298972
568.0, 0.06437909824787881
569.0, 0.09026761539344282
570.0, 0.06193210714381553
571.0, 0.06513257085718056
572.0, 0.07113370688146765
573.0, 0.0672071666076668
574.0, 0.06419646374503454
575.0, 0.07331130484163804
576.0, 0.052850442259844546
577.0, 0.052588496877559884
578.0, 0.03450460926994793
579.0, 0.030725938487693366
580.0, 0.03942054186810088
581.0, 0.031006130484660638
582.0, 0.016025696085774904
583.0, 0.035323133765728855
584.0, 0.03643141127238819
585.0, 0.037395967259070705
586.0, 0.02936044304042047
587.0, 0.012246531784216278
588.0, 0.003360396567805713
589.0, 0.019489062372173634
590.0, 0.015454069475150106
591.0, 0.022967491889719683
592.0, 0.021490641284363808
593.0, 0.0260487564722469
594.0, 0.03146258576556789
595.0, 0.012057618897833489
596.0, 0.03444944801461883
597.0, 0.017872786437130493
598.0, 0.015567233680864757
599.0, 0.015348366447676764
600.0, 0.010453442822854696
601.0, 0.006882562674517935
602.0, 0.014880641067666725
603.0, 0.004840903680250094
604.0, 0.02306159439138112
605.0, 0.03163954186095889
606.0, 0.02892464626660722
607.0, 0.021768375914038712
608.0, 0.023083115754779764
609.0, 0.042980823571547914
610.0, 0.048024147827998055
611.0, 0.027862588721772122
612.0, 0.03826886325438956
613.0, 0.03450320901306983
614.0, 0.028109943511801305
615.0, 0.03762385488832434
616.0, 0.041399033196432296
617.0, 0.046607045258725006
618.0, 0.03660546580522807
619.0, 0.029538593208305913
620.0, 0.025689232326620466
621.0, 0.019844897466913786
622.0, 0.016483847118775534
623.0, 0.030103812639674293
624.0, 0.019158460960481596
625.0, 0.02840031003887995
626.0, 0.023365961517019723
627.0, 0.016200990519727478
628.0, 0.01051749988079172
629.0, 0.00669402626994302
630.0, 0.009168538539701199
631.0, 0.009110270267549556
632.0, 0.01579452457408235
633.0, 0.01876076684286149
634.0, 0.01870219215436486
635.0, 0.021088428564910718
636.0, 0.027598583488153805
637.0, 0.03031632311513322
638.0, 0.012366042313729701
639.0, 0.031528539897825475
640.0, 0.022442910756249126
641.0, 0.013280854725706634
642.0, 0.009993983552641344
643.0, 0.012550467780371284
644.0, 0.024414882336141693
645.0, 0.017994366721707226
646.0, 0.02035322070055713
647.0, 0.013262735576133824
648.0, 0.01405410810106127
649.0, 0.02111977973656285
650.0, 0.02460590263640705
651.0, 0.020084668740311035
652.0, 0.02095367635465163
653.0, 0.004542804792102713
654.0, 0.01860835613853524
655.0, 0.012345174713757671
656.0, 0.007834751921530997
657.0, 0.021227625413297643
658.0, 0.034162492179620065
659.0, 0.021198138141969747
660.0, 0.029700630685784823
661.0, 0.024871394136040784
662.0, 0.035993300802139236
663.0, 0.041236475365137436
664.0, 0.03847262850438671
665.0, 0.044286656347847744
666.0, 0.05558221634054058
667.0, 0.05219790326332209
668.0, 0.0475743693372858
669.0, 0.05388291086058718
670.0, 0.05545851569916187
671.0, 0.05506262487749103
672.0, 0.05837193106293825
673.0, 0.05475298355182373
674.0, 0.06659611673435031
675.0, 0.06809679227655333
676.0, 0.07325232455536412
677.0, 0.07778361473046169
678.0, 0.08655020546313157
679.0, 0.09984937083929206
680.0, 0.1079011466807877
681.0, 0.11196976334633008
682.0, 0.10964227937906086
683.0, 0.12538555372945168
684.0, 0.14875932928773536
685.0, 0.1600849012811761
686.0, 0.16215816729910706
687.0, 0.17596039963924962
688.0, 0.20520791264282734
689.0, 0.23881280749309425
690.0, 0.24092726986812685
691.0, 0.2671170750467351
692.0, 0.2918972598990467
693.0, 0.3081162098329206
694.0, 0.33171123378221395
695.0, 0.3719502208239903
696.0, 0.4097134161913604
697.0, 0.46282514744658465
698.0, 0.5106755532961491
699.0, 0.569325189004256
700.0, 0.6299142833237685
701.0, 0.6899744747021184
702.0, 0.7611146473783187
703.0, 0.8211450737200326
704.0, 0.8838184302746028
705.0, 0.9161580026480955
706.0, 0.953350080064667
707.0, 0.9854210902211994
708.0, 0.9982018042149455
709.0, 0.9888978496291193
710.0, 0.9614782042054664
711.0, 0.9024523566649861
712.0, 0.8508767869296031
713.0, 0.7784567243369299
714.0, 0.6935614172111151
715.0, 0.6124212524061503
716.0, 0.5375080810432895
717.0, 0.4632883099027957
718.0, 0.42931077872462176
719.0, 0.3805595626034833
720.0, 0.3358785246681835
721.0, 0.2903047781288143
722.0, 0.2585126378100682
723.0, 0.23030844987893057
724.0, 0.1951760736205335
725.0, 0.18402064367719623
726.0, 0.15700984702406348
727.0, 0.1420953919471184
728.0, 0.12434103543149666
729.0, 0.12171556658016545
730.0, 0.1162946745105599
731.0, 0.10070999980745172
732.0, 0.09601650029974691
733.0, 0.10129967481149355
734.0, 0.07591375935115206
735.0, 0.09563866597673756
736.0, 0.09169930255710192
737.0, 0.09154924923015204
738.0, 0.08500190188582904
739.0, 0.06750748638344223
740.0, 0.09099086734921451
741.0, 0.08191797968489764
742.0, 0.09133021399845678
743.0, 0.07668072349898344
744.0, 0.05812720393708835
745.0, 0.06076128278521727
746.0, 0.07276048934126009
747.0, 0.06764914795446962
748.0, 0.06389849715461988
749.0, 0.06035653079100398
750.0, 0.06547588826163128
751.0, 0.061039625491726854
752.0, 0.06115869108977684
753.0, 0.06780846962323527
754.0, 0.06270828026736695
755.0, 0.04012643747961071
756.0, 0.07240591731699238
757.0, 0.051194068472999746
758.0, 0.05516018770389899
759.0, 0.051863444058967915
760.0, 0.04261149902571052
761.0, 0.044912823541040744
762.0, 0.05000459781782677
763.0, 0.028347942048959147
764.0, 0.05969470396194297
765.0, 0.04978470717650772
766.0, 0.05188826892682791
767.0, 0.0369733771619562
768.0, 0.04448045545608549
769.0, 0.05604642528258005
770.0, 0.04239513738592022
771.0, 0.044325219450629845
772.0, 0.04499549190711132
773.0, 0.03186912903148293
774.0, 0.041747405351525047
775.0, 0.05340312344142187
776.0, 0.04320510516539041
777.0, 0.03006199088218003
778.0, 0.03659048919417855
779.0, 0.030437158159979546
780.0, 0.027071931162172352
781.0, 0.03195218759383495
782.0, 0.030689725831658982
783.0, 0.033689788233094334
784.0, 0.03844140368788112
785.0, 0.038324391967721624
786.0, 0.032996524141965466
787.0, 0.03185061388035493
788.0, 0.03887203129661952
789.0, 0.026752886513800093
790.0, 0.03183981605253148
791.0, 0.019219564308431282
792.0, 0.006427822462564662
793.0, 0.004479614253942952
794.0, 0.008708136836617374
795.0, 0.03165681266771837
796.0, 0.01640295605376217
797.0, 0.012493756647098469
798.0, 0.016901521298316662
799.0, 0.012665144626878996
800.0, 0.00830089974443546
801.0, 0.011828406225021931
802.0, 0.016475426161436463
803.0, 0.009603512167990528
804.0, 0.008224068264684565
805.0, 0.004857183547013916
806.0, 0.01531802812191389
807.0, 0.020667624492720558
808.0, 0.011960699165320166
809.0, 0.001678062858428763
810.0, 0.004639343735598313
811.0, 0.010841599544683356
812.0, 0.004348093935963583
813.0, 0.008334221481391905
814.0, 0.006591998417952133
815.0, 0.008728315391500568
816.0, 0.009232976599422708
817.0, 0.008523671569267663
818.0, 0.009693978622507676
819.0, 0.0071636369504595185
820.0, 0.005079028984191082
821.0, 0.018791398072141217
822.0, 0.025218715735010323
823.0, 0.017071510492239615
824.0, 0.016032766561428442
825.0, 0.013168528113501568
826.0, 0.001199996844411428
827.0, 0.006786395761249687
828.0, 0.030328033169010584
829.0, 0.00900543660635879
830.0, 0.0049237469416092495
831.0, 0.01324308642071445
832.0, 0.009198869612548208
833.0, 0.0015766924287480852
834.0, 0.004247267755965205
835.0, 0.01143812643851604
836.0, 0.015944760368820053
837.0, 0.005360300770101053
838.0, 0.0016264664083977308
839.0, 0.0013124723919560582
840.0, 0.006252454385443732
841.0, 0.007674898926442561
842.0, 0.007528177276414589
843.0, 0.013643247193296336
844.0, 0.017023165761386048
845.0, 0.018711354276346837
846.0, 0.018545703415227266
847.0, 0.014261254551357697
848.0, 0.014101954987697559
849.0, 0.017464921484813233
850.0, 0.02137566545075989
851.0, 0.02422364041007471
852.0, 0.02235376237509745
853.0, 0.00025133614795252415
854.0, 0.002768509743529858
855.0, 0.00628242019174494
856.0, 0.01802737178323814
857.0, 0.018371250242373825
858.0, 0.008440746938999598
859.0, 0.0037539767282943693
860.0, 0.008522833580500187
861.0, 0.003540786523200362
862.0, 0.026444287165611827
863.0, 0.0119894295006472
864.0, 0.005421165303102351
865.0, 0.004698116522189666
866.0, 0.017620651132657345
867.0, 0.030634717070921927
868.0, 0.02644402042236309
869.0, 0.017361402846793265
870.0, 0.033616487452393304
871.0, 0.024958481378400274
872.0, 0.014764256574674627
873.0, 0.016688575384607586
874.0, 0.020099840249371177
875.0, 0.018799006160247697
876.0, 0.014909651220345132
877.0, 0.010609048780010004
878.0, 0.003814448584704736
879.0, 0.024922645276094314
880.0, 0.010675742302682856
881.0, 0.0021687560596114824
882.0, 0.01018947111392462
883.0, 0.01292456705088577
884.0, 0.015750682254557113
885.0, 0.02233278581827363
886.0, 0.016934325651111557
887.0, 0.01938606399501678
888.0, 0.016272263382015283
889.0, 0.017073492762213177
890.0, 0.017131129011871662
891.0, 0.012943151647216518
892.0, 0.010774054699200047
893.0, 0.01233781089458928
894.0, 0.012441892420091945
895.0, 0.007450503069812913
896.0, 0.0022640246306229054
897.0, 0.00043370397827893054
898.0, 0.009263267362386099
899.0, 0.006197497619119685
900.0, 0.008195187639696061
901.0, 0.006357495646625766
902.0, 0.004230460456170041
903.0, 0.010222403053511612
904.0, 0.004733940877783393
905.0, 0.003470570430433629
906.0, 0.0341661036097672
907.0, 0.015870044710638617
908.0, 0.018061172261256867
909.0, 0.019879240442643515
910.0, 0.014863467782124305
911.0, 0.010442829050748819
912.0, 0.010563241931005793
913.0, 0.013122621565156808
914.0, 0.004780208621759497
915.0, 0.01499347874848045
916.0, 0.008628415055272991
917.0, 0.012472207374960072
918.0, 0.03822188018721115
919.0, 0.047570221077934446
920.0, 0.030254321994443317
921.0, 0.02027047694618442
922.0, 0.024752594786020994
923.0, 0.010144090551997012
924.0, 0.028155517835483708
925.0, 0.032602062314209035
926.0, 0.02417944708674346
927.0, 0.019101149538358494
928.0, 0.016581997642542694
929.0, 0.018259562664576862
930.0, 0.026376356986913
931.0, 0.025815282206361246
932.0, 0.03432692454158384
933.0, 0.022351254086949577
934.0, 0.035560023167949255
935.0, 0.029074813187051914
936.0, 0.018671432747268416
937.0, 0.011571090192957028
938.0, 0.012379512899301611
939.0, 0.020522174040212504
940.0, 0.019405406714674698
941.0, 0.012078439845267233
942.0, 0.019493054831757787
943.0, 0.012761861214377874
944.0, 0.027346364609549263
945.0, 0.023954731071291247
946.0, 0.024377025997566006
947.0, 0.02769001047774872
948.0, 0.02563691742349131
949.0, 0.03791207967277926
950.0, 0.007705534514787349
951.0, 0.015054498491083477
952.0, 0.012862852890228186
953.0, 0.027159923473448692
954.0, 0.02437300665588817
955.0, 0.025005867589151062
956.0, 0.029606350383692564
957.0, 0.026208701746859967
958.0, 0.02011338955304389
959.0, 0.017510007771551744
960.0, 0.04146224554246406
961.0, 0.038792465927577305
962.0, 0.04304281512095125
963.0, 0.017952638213648047
964.0, 0.01398982970122824
965.0, 0.012109960836624377
966.0, 0.004794872818674632
967.0, 0.015455822322445006
968.0, 0.023862013069327934
969.0, 0.03962102027959992
970.0, 0.02424485130978974
971.0, 0.01664166739591981
972.0, 0.009614507157870798
973.0, 0.015472026987003699
974.0, 0.024145058173054408
975.0, 0.027531273237940482
976.0, 0.026502281375976603
977.0, 0.02261405293698135
978.0, 0.017311107409769433
979.0, 0.018931675339296183
980.0, 0.02421562289561676
981.0, 0.02088630452573666
982.0, 0.027274777690186835
983.0, 0.03297175713839931
984.0, 0.026746040794457738
985.0, 0.02743491265896151
986.0, 0.04195337133456372
987.0, 0.029332608570006375
988.0, 0.013105967434575124
989.0, 0.007659659973078419
990.0, 0.02045491848378124
991.0, 0.03130313279848963
992.0, 0.038406814673405336
993.0, 0.03786619651959292
994.0, 0.034260252202557316
995.0, 0.037957594752170344
996.0, 0.043780752029424774
997.0, 0.030155970398768706
998.0, 0.0501158355285828
999.0, 0.016005433021645865
1000.0, 0.01925244197821981
1001.0, 0.01050853924477412
1002.0, 0.028940235860194945
1003.0, 0.043702254008859694
1004.0, 0.04259254061715559
1005.0, 0.040014162646592244
1006.0, 0.03974788616280094
1007.0, 0.04025965388668615
1008.0, 0.022765317505889338
1009.0, 0.03832744520042792
1010.0, 0.036124691076268665
1011.0, 0.01991533549492298
1012.0, 0.027969880919245516
1013.0, 0.03172402011919634
1014.0, 0.0260083949521739
1015.0, 0.030516583360864658
1016.0, 0.03604651027447735
1017.0, 0.02317820684289957
1018.0, 0.06121162362342274
1019.0, 0.04061604087584715
1020.0, 0.04981268910020465
1021.0, 0.0474872297888364
1022.0, 0.03969663715231499
1023.0, 0.0339177465558107
1024.0, 0.021584804790637048
1025.0, 0.010819435321625827
1026.0, 0.02326593115710853
1027.0, 0.02964236083532254
1028.0, 0.00246909430351276
1029.0, 0.025663758606315517
1030.0, 0.023016503905973103
1031.0, 0.01896707892391208
1032.0, 0.03768950982051471
1033.0, 0.03613027964022026
1034.0, 0.023727666755472034
1035.0, 0.023010431912151325
1036.0, 0.02288576144663533
1037.0, 0.02939312954518499
1038.0, 0.008611840519267184
1039.0, 0.023152814320799447
1040.0, 0.020425012407377364
1041.0, 0.0174571390951395
1042.0, 0.008335926324804165
1043.0, 0.020402539085894726
1044.0, 0.0356279837768187
1045.0, 0.036013127387391326
1046.0, 0.035608536058643635
1047.0, 0.04297512946004913
1048.0, 0.05196040327893914
1049.0, 0.030445961137094378
1050.0, 0.03130927764296483
1051.0, 0.03330982827166635
1052.0, 0.0244604957788482
1053.0, 0.037750981053262946
1054.0, 0.04071208034850841
1055.0, 0.03189612751878561
1056.0, 0.028747060772223863
1057.0, 0.022335892394595856
1058.0, 0.04346507246687703
1059.0, 0.049064115908176095
1060.0, 0.045139895617375664
1061.0, 0.03561650991985872
1062.0, 0.049212774975590075
1063.0, 0.039985653631006327
1064.0, 0.04862627753442057
1065.0, 0.04679105070522112
1066.0, 0.03983450620263179
1067.0, 0.06350124528942307
1068.0, 0.0612831137479633
1069.0, 0.059193142909794515
1070.0, 0.05694216740991562
1071.0, 0.06310238559887187
1072.0, 0.050708093315508185
1073.0, 0.07252750916293783
1074.0, 0.05939253815396552
1075.0, 0.06637330527124065
1076.0, 0.07887957142119395
1077.0, 0.07191996769739711
1078.0, 0.08191847989247002
1079.0, 0.07559517936579906
1080.0, 0.061178006527739116
1081.0, 0.06458454336867708
1082.0, 0.0573974992599997
1083.0, 0.07673562835129599
1084.0, 0.07779761342505474
1085.0, 0.07651676507837764
1086.0, 0.0805962513516635
1087.0, 0.08329952610403372
1088.0, 0.08816139434114174
1089.0, 0.09742236442684704
1090.0, 0.08349391477892817
1091.0, 0.06793609383323743
1092.0, 0.04700217785930634
1093.0, 0.07665517531590102
1094.0, 0.06540723400694924
1095.0, 0.07122023727148732
1096.0, 0.08640003698871022
1097.0, 0.08474455384184582
1098.0, 0.07735899604087361
1099.0, 0.0741402861933795
1100.0, 0.06500330767343923
1101.0, 0.07261092389918812
1102.0, 0.07844971588883994
1103.0, 0.06039857443725541
1104.0, 0.08127158062089562
1105.0, 0.0708918061391962
1106.0, 0.08473696134889847
1107.0, 0.08349771505012753
1108.0, 0.0833804685153993
1109.0, 0.07582630211790918
1110.0, 0.06333282388974065
1111.0, 0.07433087936836925
1112.0, 0.07592679413891523
1113.0, 0.06568970102885183
1114.0, 0.07515631612688853
1115.0, 0.07461861244953695
1116.0, 0.09251292115860607
1117.0, 0.09767735480054748
1118.0, 0.11573373862251739
1119.0, 0.1071314655695964
1120.0, 0.088535078600801
1121.0, 0.09730500095991704
1122.0, 0.10574953447482627
1123.0, 0.08083454982611817
1124.0, 0.10741529558989316
1125.0, 0.13033434080015746
1126.0, 0.09489544151937396
1127.0, 0.10178557094577473
1128.0, 0.12174551119499084
1129.0, 0.10485422869389012
1130.0, 0.10025661723032377
1131.0, 0.09047975340922904
1132.0, 0.06674364947168854
1133.0, 0.05020829182448377
1134.0, 0.04182156375288113
1135.0, 0.034802144374416324
1136.0, 0.04483621115566161
1137.0, 0.031532228898860364
1138.0, 0.0368898846158418
1139.0, 0.035970869965909744
1140.0, 0.02996696985093655
1141.0, 0.030198877311019858
1142.0, 0.028424530345345717
1143.0, 0.024427122066608836
1144.0, 0.029475599991439557
1145.0, 0.03674277668397297
1146.0, 0.02585089980615065
1147.0, 0.01459683400245782
1148.0, 0.027311542849131575
1149.0, 0.022449255448427765
1150.0, 0.026746636909615127
1151.0, 0.025403445109608874
1152.0, 0.008127458693345111
1153.0, 0.018009211333523394
1154.0, 0.01525085791054489
1155.0, 0.013357350891111801
1156.0, 0.018416323214695603
1157.0, 0.015017764798677946
1158.0, 0.015447617001420789
1159.0, 0.009302856316033666
1160.0, 0.008843197095631385
1161.0, 0.02989714672828249
1162.0, 0.019224528673748492
1163.0, 0.007948224675465755
1164.0, 0.03001039601831438
1165.0, 0.02423950371315984
1166.0, 0.007118260871210893
1167.0, 0.012768176465551733
1168.0, 0.0160203324086001
1169.0, 0.008361487068898296
1170.0, 0.017605901351273087
1171.0, 0.006868339851187613
1172.0, 0.01734301438036891
1173.0, 0.034194961074762456
1174.0, 0.017010336808571964
1175.0, 0.06281788811933846
1176.0, 0.06195612231275432
1177.0, 0.03711171917069095
1178.0, 0.030233920858185392
1179.0, 0.018075102284732084
1180.0, 0.003604376201440787
1181.0, 0.015101060105618775
1182.0, 0.03332393012126604
1183.0, 0.01733454476578633
1184.0, 0.005941182478263689
1185.0, 0.011904715335588827
1186.0, 0.0012991606822101657
1187.0, 0.02759486645452197
1188.0, 0.04350160246386898
1189.0, 0.025205143256641728
1190.0, 0.02652658650574076
1191.0, 0.019082891971487784
1192.0, 0.019493852770318173
1193.0, 0.01869199784551236
1194.0, 0.011383640895693213
1195.0, 0.02059563035128428
1196.0, 0.00707293578457004
1197.0, 0.016653103548143935
1198.0, 0.0322975021928279
1199.0, 0.007719534284289658
1200.0, 0.012461644131936725
1201.0, 0.022351278054528367
1202.0, 0.01786216376440865
1203.0, 0.027635917285919246
1204.0, 0.019139372600934026
1205.0, 0.013877418020130958
1206.0, 0.018794821674024628
1207.0, 0.020561441595830086
1208.0, 0.022748562112182638
1209.0, 0.008376049937204486
1210.0, 0.029994009937346307
1211.0, 0.0013097347549049752
1212.0, 0.03303864279121198
1213.0, 0.014199236798751663
1214.0, 0.011311019009212542
1215.0, 0.02174205416679702
1216.0, 0.020146238725650526
1217.0, 0.030536428819067412
1218.0, 0.03501676116820306
1219.0, 0.02645942757406124
1220.0, 0.014315654924592788
1221.0, 0.01156846425887762
1222.0, 0.036322450777283924
1223.0, 0.019648005398042553
1224.0, 0.007986585211674925
1225.0, 0.05110659863936744
1226.0, 0.019921309753108886
1227.0, 0.026316368881713563
1228.0, 0.011737239504117227
1229.0, 0.00938856471877178
1230.0, 0.0338433004102541
1231.0, 0.03056408092686895
1232.0, 0.01676538593963458
1233.0, 0.02236022303647804
1234.0, 0.02114193073386593
1235.0, 0.013426974504878173
1236.0, 0.03654121656160803
1237.0, 0.03456223494071431
1238.0, 0.03800120040983705
1239.0, 0.0045043011041602625
1240.0, 0.017853758964374453
1241.0, 0.02675842179544703
1242.0, 0.034523247494753315
1243.0, 0.033179158590504854
1244.0, 0.026269829313112537
1245.0, 0.0232898102356172
1246.0, 0.02522060201035942
1247.0, 0.026566569091161982
1248.0, 0.02667004491973497
1249.0, 0.025909320992084667
1250.0, 0.021250279917300798
1251.0, 0.03360432863235537
1252.0, 0.016217536865173895
1253.0, 0.018528875671229687
1254.0, 0.03892431961136455
1255.0, 0.008455294962026275
1256.0, 0.004079837993825083
1257.0, 0.021452909207850958
1258.0, 0.016503902503870658
1259.0, 0.01152311311334407
1260.0, 0.009472398082077648
1261.0, 0.010903482555226645
1262.0, 0.02528259634216273
1263.0, 0.03791099213371384
1264.0, 0.04836274033225121
1265.0, 0.04830653366097721
1266.0, 0.0314161849899764
1267.0, 0.05290231461189776
1268.0, 0.02773342070245716
1269.0, 0.02402323677824182
1270.0, 0.011383778048182101
1271.0, 0.008884323710229838
1272.0, 0.0308492297416421
1273.0, 0.02307948655641195
1274.0, 0.021489136777637984
1275.0, 0.0298026333768555
1276.0, 0.026257479683377657
1277.0, 0.030283172351223322
1278.0, 0.03135222875133572
1279.0, 0.01875543876201357
1280.0, 0.02580662617674215
1281.0, 0.0007548232276101908
1282.0, 0.003799994457652084
1283.0, 0.03202481425639101
1284.0, 0.029333898442948068
1285.0, 0.014758803183812622
1286.0, 0.031993052578789816
1287.0, 0.020097820200990612
1288.0, 0.02257036068725055
1289.0, 0.03656366534128975
1290.0, 0.030941368914210156
1291.0, 0.030061090857310863
1292.0, 0.0344371641405642
1293.0, 0.00981519181399681
1294.0, 0.01721679545709992
1295.0, 0.013758190823232933
1296.0, 0.022739045988206034
1297.0, 0.033934713294181525
1298.0, 0.02954999889766508
1299.0, 0.030330175833948918
1300.0, 0.034181704196246776
1301.0, 0.045434598939426724
1302.0, 0.053446749673047904
1303.0, 0.05573213453650219
1304.0, 0.041484565213364626
1305.0, 0.03578041991791965
1306.0, 0.039780626767014216
1307.0, 0.025215482319116946
1308.0, 0.008325408215335714
1309.0, 0.02084972414914605
1310.0, 0.03917000356381868
1311.0, 0.03586734485572784
1312.0, 0.03236726748728085
1313.0, 0.017818798827901324
1314.0, 0.022969555859629773
1315.0, 0.024067369700806536
1316.0, 0.011521835887547929
1317.0, 0.02394956317755115
1318.0, 0.03499650192542036
1319.0, 0.02928831731569384
1320.0, 0.02347463661965057
1321.0, 0.029417652234665786
1322.0, 0.04758977513390449
1323.0, 0.048683502375752585
1324.0, 0.028864678755779572
1325.0, 0.03515068972672145
1326.0, 0.015723591551574625
1327.0, 0.019506571337648767
1328.0, 0.023509083034135042
1329.0, 0.031013160602848033
1330.0, 0.015432241773277608
1331.0, 0.025813819749813213
1332.0, 0.03145047148896003
1333.0, 0.018040951926049695
1334.0, 0.031647200519811784
1335.0, 0.03889520628867878
1336.0, 0.042142786706956925
1337.0, 0.03726399240886961
1338.0, 0.02897192755907435
1339.0, 0.028181482811685126
1340.0, 0.021835186423682564
1341.0, 0.008982925363267374
1342.0, 0.011244684363985959
1343.0, 0.009329142785928472
1344.0, 0.03784809332614489
1345.0, 0.03995037968173096
1346.0, 0.04024391476272191
1347.0, 0.03424268900406009
1348.0, 0.039270795176009024
1349.0, 0.016950338891115135
1350.0, 0.015865704149288826
1351.0, 0.033228607711791605
1352.0, 0.029412579334401112
1353.0, 0.010440517170067908
1354.0, 0.02562644385136943
1355.0, 0.03534059494838959
1356.0, 0.02345138348995196
1357.0, 0.028561324070201878
1358.0, 0.033847655357821006
1359.0, 0.025697531037875566
1360.0, 0.027959994734073026
1361.0, 0.04235366200827403
1362.0, 0.03992037147186906
1363.0, 0.03186064795558271
1364.0, 0.0371039315963227
1365.0, 0.01849135293133919
1366.0, 0.013745340316880338
1367.0, 0.016983726589425298
1368.0, 0.02535909255741984
1369.0, 0.032336091847827556
1370.0, 0.027903179805434945
1371.0, 0.036953529383631244
1372.0, 0.04225401854656089
1373.0, 0.025094690134334453
1374.0, 0.01978654755375513
1375.0, 0.029879197213486888
1376.0, 0.01828219688971242
1377.0, 0.012288500065618813
1378.0, 0.031730149961672637
1379.0, 0.026642066051635275
1380.0, 0.034514151307806024
1381.0, 0.024262493607951276
1382.0, 0.029918226573552538
1383.0, 0.042226725486749425
1384.0, 0.019371389312818767
1385.0, 0.031320993732545044
1386.0, 0.03466752528732916
1387.0, 0.01877144796335917
1388.0, 0.01187283784370984
1389.0, 0.028906933750640518
1390.0, 0.024565252990758627
1391.0, 0.013279649067031942
1392.0, 0.009693705380077347
1393.0, 0.004225809795181717
1394.0, 0.0009085225588675773
1395.0, 0.006639025729224712
1396.0, 0.016324597576005108
1397.0, 0.01620118536652533
1398.0, 0.0224203910133804
1399.0, 0.021801878760963362
1400.0, 0.038438193678358414
1401.0, 0.03552973841731694
1402.0, 0.02768520106631114
1403.0, 0.0022307360793808653
1404.0, 0.0010199764554153976
1405.0, 0.00320886327488712
1406.0, 0.002671438433919422
1407.0, 0.0007457718347977192
1408.0, 0.014377150223402538
1409.0, 0.019045093867155347
1410.0, 0.011348243691924081
1411.0, 0.023941974466603396
1412.0, 0.03372109532453352
1413.0, 0.02267392629022055
1414.0, 0.011101406445605132
1415.0, 0.006269599358583504
1416.0, 0.011358808481782867
1417.0, 0.01069455530887145
1418.0, 0.008257554411452641
1419.0, 0.009590852161470391
1420.0, 0.008349498468027104
1421.0, 0.02778561343472747
1422.0, 0.006219028667630103
1423.0, 0.018888034053605392
1424.0, 0.0162509916325585
1425.0, 0.01593137586551737
1426.0, 0.014693296774731477
1427.0, 0.034850641779760314
1428.0, 0.04906800735518116
1429.0, 0.04011353371630944
1430.0, 0.019104530072916542
1431.0, 0.03625760271939503
1432.0, 0.03520577012295992
1433.0, 0.018907091488361828
1434.0, 0.0262517494898536
1435.0, 0.03911012350110854
1436.0, 0.046707508766912126
1437.0, 0.05010930123488345
1438.0, 0.0455339337290476
1439.0, 0.03248438842238288
1440.0, 0.040065309187912006
1441.0, 0.03711066201237316
1442.0, 0.027524276436266006
1443.0, 0.045512231696382334
1444.0, 0.055887557715052716
1445.0, 0.06017548087366373
1446.0, 0.06149823410985299
1447.0, 0.02911832613867555
1448.0, 0.03940228972973035
1449.0, 0.024686013580246073
1450.0, 0.012552247881862197
1451.0, 0.01291125814126504
1452.0, 0.0060472798867206865
1453.0, 0.013531648095648377
1454.0, 0.01663155310186137
1455.0, 0.01743606994819314
1456.0, 0.020608762094915342
1457.0, 0.031630172801008785
1458.0, 0.05071225931039661
1459.0, 0.04794435166114495
1460.0, 0.02934119341514115
1461.0, 0.02251367852514894
1462.0, 0.01597179858531577
1463.0, 0.021458034727931785
1464.0, 0.0055763549260629125
1465.0, 0.0021274601183392935
1466.0, 0.02097785122680918
1467.0, 0.04323566036602834
1468.0, 0.009244228130765867
1469.0, 0.03714255990432121
1470.0, 0.02720569325547907
1471.0, 0.030079396194625452
1472.0, 0.02582818649656709
1473.0, 0.027182651423513816
1474.0, 0.033000349106078
1475.0, 0.030850542603211573
1476.0, 0.040777906119757575
1477.0, 0.036890972786673804
1478.0, 0.02085424786848848
1479.0, 0.01175581761052215
1480.0, 0.020486678388345583
1481.0, 0.041479591051076355
1482.0, 0.04263100403776592
1483.0, 0.039140691301313923
1484.0, 0.049500233410490584
1485.0, 0.034094671358759585
1486.0, 0.02014308397169518
1487.0, 0.01204911813871861
1488.0, 0.0360648921175078
1489.0, 0.01939237298585827
1490.0, 0.029588205667612444
1491.0, 0.018860098640151295
1492.0, 0.016761833448886192
1493.0, 0.03254066869874743
1494.0, 0.04062911416381153
1495.0, 0.04336820089747687
1496.0, 0.03277429284518217
1497.0, 0.0375697333418806
1498.0, 0.03365285765268612
1499.0, 0.03578863264078644
1500.0, 0.029374503843366283
1501.0, 0.0211944348431591
1502.0, 0.016524163331001037
1503.0, 0.02916273280170308
1504.0, 0.014334360247146722
1505.0, 0.011926882309664493
1506.0, 0.029362234292324412
1507.0, 0.03287370471290281
1508.0, 0.0183952684794793
1509.0, 0.02276945214497325
1510.0, 0.04786272879762632
1511.0, 0.0462963744318832
1512.0, 0.023520989572848663
1513.0, 0.00983710882422383
1514.0, 0.0091341267556559
1515.0, 0.01636710779035902
1516.0, 0.0117697023214273
1517.0, 0.042084491149453174
1518.0, 0.0451096182539364
1519.0, 0.039971998811235546
1520.0, 0.04727880845742543
1521.0, 0.018454385588320667
1522.0, 0.01706983530093708
1523.0, 0.03412607150612109
1524.0, 0.015612450823401904
1525.0, 0.02798794741662394
1526.0, 0.02718525741377255
1527.0, 0.007620435208018403
1528.0, 0.02932213093685638
1529.0, 0.02966751410920427
1530.0, 0.021268333181440113
1531.0, 0.012550023207407335
1532.0, 0.014849604546884655
1533.0, 0.018011189798198986
1534.0, 0.030466448626580902
1535.0, 0.03688978261529224
1536.0, 0.04737433059699351
1537.0, 0.0610618042688263
1538.0, 0.046476048676020135
1539.0, 0.014548026157695695
1540.0, 0.02489963781695623
1541.0, 0.032493046546796446
1542.0, 0.027080177869109132
1543.0, 0.05409880013939699
1544.0, 0.02640889566297228
1545.0, 0.02848165002509702
1546.0, 0.05571137851021656
1547.0, 0.03165581737991878
1548.0, 0.023251364234513523
1549.0, 0.013158519754817345
1550.0, 0.00834199108759534
1551.0, 0.032702401687057465
1552.0, 0.02874881295917346
1553.0, 0.04345623799651804
1554.0, 0.029332784669529238
1555.0, 0.023296649703157264
1556.0, 0.05240238173527123
1557.0, 0.0423174300347605
1558.0, 0.05432148149932948
1559.0, 0.046474670094447175
1560.0, 0.029923816446237168
1561.0, 0.04530451365522822
1562.0, 0.04781892430812559
1563.0, 0.041311220652632936
1564.0, 0.034078224816533935
1565.0, 0.04950022932081202
1566.0, 0.04301221687632328
1567.0, 0.012450540967637752
1568.0, 0.021746988437511085
1569.0, 0.04236768013536206
1570.0, 0.020842671184590517
1571.0, 0.00856726684183277
1572.0, 0.0047856105891441155
1573, 0.0
1574, 0.0
1575, 0.0
1576, 0.0
1577, 0.0
1578, 0.0
1579, 0.0
1580, 0.0
1581, 0.0
1582, 0.0
1583, 0.0
1584, 0.0
1585, 0.0
1586, 0.0
1587, 0.0
1588, 0.0
1589, 0.0
1590, 0.0
1591, 0.0
1592, 0.0
1593, 0.0
1594, 0.0
1595, 0.0
1596, 0.0
1597, 0.0
1598, 0.0
1599, 0.0
