30, 0.0
31, 0.0
32, 0.0
33, 0.0
34, 0.0
35, 0.0
36, 0.0
37, 0.0
38, 0.0
39, 0.0
40, 0.0
41, 0.0
42, 0.0
43, 0.0
44, 0.0
45, 0.0
46, 0.0
47, 0.0
48, 0.0
49, 0.0
50, 0.0
51, 0.0
52, 0.0
53, 0.0
54, 0.0
55, 0.0
56, 0.0
57, 0.0
58, 0.0
59, 0.0
60, 0.0
61, 0.0
62, 0.0
63, 0.0
64, 0.0
65, 0.0
66, 0.0
67, 0.0
68, 0.0
69, 0.0
70, 0.0
71, 0.0
72, 0.0
73, 0.0
74, 0.0
75, 0.0
76, 0.0
77, 0.0
78, 0.0
79, 0.0
80, 0.0
81, 0.0
82, 0.0
83, 0.0
84, 0.0
85, 0.0
86, 0.0
87, 0.0
88, 0.0
89, 0.0
90, 0.0
91, 0.0
92, 0.0
93, 0.0
94, 0.0
95, 0.0
96, 0.0
97, 0.0
98, 0.0
99, 0.0
100, 0.0
101, 0.0
102, 0.0
103, 0.0
104, 0.0
105, 0.0
106, 0.0
107, 0.0
108, 0.0
109, 0.0
110, 0.0
111, 0.0
112, 0.0
113, 0.0
114, 0.0
115, 0.0
116, 0.0
117, 0.0
118, 0.0
119, 0.0
120, 0.0
121, 0.0
122, 0.0
123, 0.0
124, 0.0
125, 0.0
126, 0.0
127, 0.0
128, 0.0
129, 0.0
130, 0.0
131, 0.0
132, 0.0
133, 0.0
134, 0.0
135, 0.0
136, 0.0
137, 0.0
138, 0.0
139, 0.0
140, 0.0
141, 0.0
142, 0.0
143, 0.0
144.0, 0.0009822825624274942
145.0, 0.001144326997085042
146.0, 0.0023870446703310117
147.0, 0.0012305603007701194
148.0, 0.0026817320849533686
149.0, 0.00045510894785160197
150.0, 0.0010108483474139038
151.0, 0.0025101886826539694
152.0, 0.0007938710414918263
153.0, 0.0014005938347024659
154.0, 0.0040481626144539635
155.0, 0.005991484193972121
156.0, 0.002997192371024071
157.0, 0.0038737144371470853
158.0, 0.00819606338330663
159.0, 0.011243229175326313
160.0, 0.008556922648211677
161.0, 0.01238196443527884
162.0, 0.015075379873663228
163.0, 0.017377585922601826
164.0, 0.02343678132286241
165.0, 0.025766388224931904
166.0, 0.03159027986829818
167.0, 0.03707208048016674
168.0, 0.03931585038047795
169.0, 0.04640037405546251
170.0, 0.05743642470500648
171.0, 0.0649258176046956
172.0, 0.0687183525043747
173.0, 0.07737049680646696
174.0, 0.08504685154014505
175.0, 0.09064663877242504
176.0, 0.09329515339707982
177.0, 0.0926515446567199
178.0, 0.09659823126358584
179.0, 0.09740891371916618
180.0, 0.09697999312984792
181.0, 0.09881510438540415
182.0, 0.09602561639537865
183.0, 0.09423571896656811
184.0, 0.09573752589321938
185.0, 0.09885562096204978
186.0, 0.10009712390773119
187.0, 0.10111246832290975
188.0, 0.1079223377135496
189.0, 0.1190763432121346
190.0, 0.12754968130074548
191.0, 0.13911887677514215
192.0, 0.1514601399997216
193.0, 0.16369215826949615
194.0, 0.17711331307476638
195.0, 0.19394112748792922
196.0, 0.20177036028579098
197.0, 0.20644486521724453
198.0, 0.21160602751344507
199.0, 0.20594138139288093
200.0, 0.19809391915220986
201.0, 0.18855307289453563
202.0, 0.177414841398855
203.0, 0.1668191714377649
204.0, 0.1636183708818642
205.0, 0.16073365895563807
206.0, 0.15841257637563688
207.0, 0.1595083027965631
208.0, 0.1605747917320274
209.0, 0.1663171719139832
210.0, 0.17438608179490347
211.0, 0.18195945176942505
212.0, 0.18912805144290012
213.0, 0.19210429995013187
214.0, 0.18955335586334401
215.0, 0.17889775232630772
216.0, 0.15765863224755544
217.0, 0.1459123196729677
218.0, 0.1243512737711418
219.0, 0.09680206639498912
220.0, 0.07352442483987433
221.0, 0.058541844440299924
222.0, 0.04279385163083152
223.0, 0.03182433704390723
224.0, 0.025181597392892916
225.0, 0.012087937487792523
226.0, 0.005990174858216729
227.0, 0.0026841654815775184
228.0, 0.0011556387343634885
229.0, 0.00428913986139643
230.0, 0.0027912031664801672
231.0, 0.001802584829072579
232.0, 0.003302661410681275
233.0, 0.0056791657685689905
234.0, 0.002970614789692766
235.0, 0.0059872495714113445
236.0, 0.005125600134235578
237.0, 0.0007998255562019731
238.0, 0.004342965009629085
239.0, 0.011930752539425729
240.0, 0.01872814817224793
241.0, 0.027347123675855532
242.0, 0.039407051945725906
243.0, 0.049164053659286416
244.0, 0.062450564875729406
245.0, 0.07745573356081076
246.0, 0.09447848456811654
247.0, 0.11593268314236707
248.0, 0.13890193454740987
249.0, 0.17164266807911846
250.0, 0.21414107905455262
251.0, 0.26287454960140083
252.0, 0.3157356180262474
253.0, 0.381182341756198
254.0, 0.45003165051212884
255.0, 0.5219358296833709
256.0, 0.6070440394109563
257.0, 0.6889615197829817
258.0, 0.7713140233059489
259.0, 0.8453525889911224
260.0, 0.9036752934929321
261.0, 0.9602025251814157
262.0, 0.9944069330903222
263.0, 0.9962087491410907
264.0, 0.9620894566401001
265.0, 0.8959982278723664
266.0, 0.8139161790242754
267.0, 0.7247312114507946
268.0, 0.6315176272905129
269.0, 0.5389738499937441
270.0, 0.4581082515153868
271.0, 0.3959395084115928
272.0, 0.3394766949523617
273.0, 0.28880692959651855
274.0, 0.25508131562685876
275.0, 0.22111734715401749
276.0, 0.19074420496638367
277.0, 0.16550948649174946
278.0, 0.14549754156003958
279.0, 0.13071049476982458
280.0, 0.11302056204025057
281.0, 0.10527094503061861
282.0, 0.10287564995429564
283.0, 0.0909679831670029
284.0, 0.08228301351951976
285.0, 0.07537078743937206
286.0, 0.06814783529087966
287.0, 0.06060643435154528
288.0, 0.05704192224895777
289.0, 0.05316318778544382
290.0, 0.0473482116068721
291.0, 0.0427310502422885
292.0, 0.04293903987019114
293.0, 0.042222092614349796
294.0, 0.03718999981386985
295.0, 0.03501476013127204
296.0, 0.035182546836730826
297.0, 0.029945676535778336
298.0, 0.03243509396439739
299.0, 0.03698054608526449
300.0, 0.03446543114322852
301.0, 0.02487142178398664
302.0, 0.026586341058143545
303.0, 0.029484239847889716
304.0, 0.027099834908791254
305.0, 0.022330949356372632
306.0, 0.022229002566577095
307.0, 0.024521847150091997
308.0, 0.021997772267179264
309.0, 0.0210826787369027
310.0, 0.0234866351435751
311.0, 0.019043452832675035
312.0, 0.01863767412100995
313.0, 0.01582285804232693
314.0, 0.014882008947246214
315.0, 0.01942124242017518
316.0, 0.0109859115896985
317.0, 0.012234867055488681
318.0, 0.016412647850608145
319.0, 0.01602155084569875
320.0, 0.013137053440603154
321.0, 0.021306699795656615
322.0, 0.02218737418121151
323.0, 0.020140328664356128
324.0, 0.021033837841654916
325.0, 0.019127381975950878
326.0, 0.018192527204877944
327.0, 0.01793683225730455
328.0, 0.01604154662473608
329.0, 0.011055827089533527
330.0, 0.011509523938395752
331.0, 0.007807938178488004
332.0, 0.0029743620615266726
333.0, 0.0005259755369036687
334.0, 0.0019205395659078282
335.0, 0.004863030057654243
336.0, 0.005506131587746849
337.0, 0.005614522627472988
338.0, 0.006195080755691488
339.0, 0.004359473290587904
340.0, 0.006323790239506595
341.0, 0.004997799856415146
342.0, 0.002685371467699592
343.0, 0.0031841780721892725
344.0, 0.0017206386414159705
345.0, 0.0024101637782662035
346.0, 0.0023432030222595365
347.0, 0.002631873739121255
348.0, 0.004685202520812912
349.0, 0.0047982797631049776
350.0, 0.008166023676933932
351.0, 0.007590555015655968
352.0, 0.011951774510804926
353.0, 0.013923234409328617
354.0, 0.015306935607595731
355.0, 0.01961855346607464
356.0, 0.02516991535260936
357.0, 0.029511816716638075
358.0, 0.03467441007295742
359.0, 0.036600969462178425
360.0, 0.041381354061748504
361.0, 0.046685488639732556
362.0, 0.04947202794831261
363.0, 0.054733386169544006
364.0, 0.05906040790309345
365.0, 0.06490624322999924
366.0, 0.07336667552873412
367.0, 0.08370570339488244
368.0, 0.09191163806778405
369.0, 0.10439278797504403
370.0, 0.11372499971985693
371.0, 0.11920154973315754
372.0, 0.12813271768499687
373.0, 0.1420950768786476
374.0, 0.1514227010937125
375.0, 0.15703308297093022
376.0, 0.16192699035440417
377.0, 0.1665798706483036
378.0, 0.16991255677392947
379.0, 0.17244133828525526
380.0, 0.17298391861043116
381.0, 0.17441559557837474
382.0, 0.18664227570892009
383.0, 0.1933531707012293
384.0, 0.19788033708393915
385.0, 0.20476756973320398
386.0, 0.21388152662419602
387.0, 0.2205847042326278
388.0, 0.22919809898055496
389.0, 0.23445255620657549
390.0, 0.24138465937236972
391.0, 0.2546353840156155
392.0, 0.2670741740683021
393.0, 0.2711918264893836
394.0, 0.2820364858249216
395.0, 0.29669230218742954
396.0, 0.30591919061739153
397.0, 0.3188596578957059
398.0, 0.3309751444601901
399.0, 0.3432217490444894
400.0, 0.35354640098103657
401.0, 0.35918437062233827
402.0, 0.3668803248311476
403.0, 0.3703440563993584
404.0, 0.3685081093723249
405.0, 0.36414155752617616
406.0, 0.36031254990121636
407.0, 0.35415842049867335
408.0, 0.34323032570144985
409.0, 0.330303680907746
410.0, 0.31814177843299307
411.0, 0.3057153500101182
412.0, 0.284657248141968
413.0, 0.2697246146147381
414.0, 0.25439735105215927
415.0, 0.2385106405625511
416.0, 0.22976352291255858
417.0, 0.21316338348486047
418.0, 0.19451907083123193
419.0, 0.1802524336971956
420.0, 0.17055870265430761
421.0, 0.16175473995113096
422.0, 0.15580483863665998
423.0, 0.1442741638882758
424.0, 0.13148216585691683
425.0, 0.12383257367617403
426.0, 0.12239639995706991
427.0, 0.10861994681072636
428.0, 0.10227740482699331
429.0, 0.09859318041514101
430.0, 0.09129394058385304
431.0, 0.0832230820299225
432.0, 0.07742333726195946
433.0, 0.07403718248303655
434.0, 0.07075212211342488
435.0, 0.06559740983556159
436.0, 0.05842050683314723
437.0, 0.05259680616608183
438.0, 0.04543880752807243
439.0, 0.0410129075139971
440.0, 0.036815789169227016
441.0, 0.02718769516558093
442.0, 0.027187253189228
443.0, 0.026977877751425815
444.0, 0.023122528124435045
445.0, 0.017887120831841106
446.0, 0.013664098486788429
447.0, 0.006859862739968331
448.0, 0.009888926587264459
449.0, 0.010737365442422155
450.0, 0.006140333296348642
451.0, 0.002776792506415978
452.0, 0.0024886812050032197
453.0, 0.0015434655217958615
454.0, 0.0022297482400259194
455.0, 0.001960489005197416
456.0, 0.003706771191815173
457.0, 0.0008899344476782384
458.0, 0.0007306529152240567
459.0, 0.00104968870979669
460.0, 0.004862428921790752
461.0, 0.0119997168239008
462.0, 0.0058744107805962075
463.0, 0.006740124174539734
464.0, 0.010910776426122362
465.0, 0.014240174311268882
466.0, 0.01670859876157967
467.0, 0.02081400605589284
468.0, 0.01821441796107226
469.0, 0.019383500280501422
470.0, 0.021019909962803018
471.0, 0.017704412976530914
472.0, 0.01800039572010153
473.0, 0.0232647705009371
474.0, 0.02052740082072884
475.0, 0.016785237174797598
476.0, 0.01891051757307727
477.0, 0.01875421252215899
478.0, 0.022135843828520768
479.0, 0.02377973173922499
480.0, 0.023800116402722653
481.0, 0.024307593050975906
482.0, 0.025532596637547495
483.0, 0.02808647808898105
484.0, 0.026702202033228973
485.0, 0.026463981359184915
486.0, 0.027169596898884443
487.0, 0.02344404001836865
488.0, 0.027769272289686585
489.0, 0.024443874985844508
490.0, 0.02015362662279989
491.0, 0.01875319594584269
492.0, 0.01866106769126585
493.0, 0.020201477536961596
494.0, 0.016758408193811254
495.0, 0.016830479683242767
496.0, 0.014451005930947409
497.0, 0.004693135176595037
498.0, 0.003467010782870157
499.0, 0.00496621787922185
500.0, 0.005418348986021645
501.0, 0.0024609908457088082
502.0, 0.0024550576548318815
503.0, 0.0033447297468180413
504.0, 0.0012894767118398652
505.0, 0.0005237920250932571
506.0, 0.0006388820193004553
507.0, 0.0011130033040279701
508.0, 0.0005180554663987156
509.0, 0.0014906508549382715
510.0, 0.0028279276551803284
511.0, 0.00200294190792051
512.0, 0.0005108620243830772
513.0, 0.0037252169459542784
514.0, 0.005427582232154953
515.0, 0.0038974999941329283
516.0, 0.004940180081907154
517.0, 0.008218209910647192
518.0, 0.0007514373376780493
519.0, 0.0038883137392631646
520.0, 0.006973598014544311
521.0, 0.006682767388992993
522.0, 0.005538923704473217
523.0, 0.005001731709764223
524.0, 0.003441867826817423
525.0, 0.0015786901654875622
526.0, 0.0023827356780083218
527.0, 0.005964275476560935
528.0, 0.007067761971289629
529.0, 0.0029922690861939345
530.0, 0.004554215933187787
531.0, 0.0075415259957723165
532.0, 0.009613845248668674
533.0, 0.009319659229257593
534.0, 0.008531635065433803
535.0, 0.011765279071024788
536.0, 0.012504401601537705
537.0, 0.011981256224350393
538.0, 0.015102517960978373
539.0, 0.020662649099481643
540.0, 0.02244600548032369
541.0, 0.019541971515169353
542.0, 0.020658826691200755
543.0, 0.0209497916262725
544.0, 0.021033483119836945
545.0, 0.023237157008776026
546.0, 0.02370793793643801
547.0, 0.026616330658000485
548.0, 0.026441317809460265
549.0, 0.027075095719344064
550.0, 0.030906484222083752
551.0, 0.03397211461033573
552.0, 0.03465937077515691
553.0, 0.0346727400950763
554.0, 0.03786024398438606
555.0, 0.04206692410235257
556.0, 0.042698173528451726
557.0, 0.04028137672230278
558.0, 0.03961191771525505
559.0, 0.03488453817557144
560.0, 0.030456838119655834
561.0, 0.029447830240697668
562.0, 0.028053479948062513
563.0, 0.028511394539024817
564.0, 0.028531496367427214
565.0, 0.024136968517204475
566.0, 0.019012566269613087
567.0, 0.0186912026996162
568.0, 0.02101673706920912
569.0, 0.016247521323194843
570.0, 0.01769322921823841
571.0, 0.01413043969726565
572.0, 0.007451708412586968
573.0, 0.015636791015153792
574.0, 0.01382247055867104
575.0, 0.014507988793575182
576.0, 0.01663783905933293
577.0, 0.012586530185100323
578.0, 0.004433305853446768
579.0, 0.010044603850109763
580.0, 0.005847687873857767
581.0, 0.004684425338532139
582.0, 0.006149096837988738
583.0, 0.006146904165613025
584.0, 0.00523866444696371
585.0, 0.005426137521694769
586.0, 0.0050851859752205865
587.0, 0.0016576623375443907
588.0, 0.00431797718705655
589.0, 0.0051666180844982465
590.0, 0.0017605157840452266
591.0, 0.002288669667470729
592.0, 0.0016720883590123903
593.0, 0.001396315470467464
594.0, 0.0038578854608859394
595.0, 0.004130209727161241
596.0, 0.005881833535152799
597.0, 0.004020750159339213
598.0, 0.0031811287128262217
599.0, 0.004986344670661896
600.0, 0.007141541007299215
601.0, 0.006621562467703877
602.0, 0.005276233777776031
603.0, 0.009114180179175726
604.0, 0.01166321005999877
605.0, 0.013884997603255756
606.0, 0.018843725341579964
607.0, 0.023452811433801513
608.0, 0.02738710482694595
609.0, 0.027253812907991518
610.0, 0.027494438252453728
611.0, 0.027973276056686768
612.0, 0.02736490123144058
613.0, 0.03232416558017147
614.0, 0.032288061020183986
615.0, 0.03055796768978485
616.0, 0.03465802361158868
617.0, 0.04246034951262363
618.0, 0.046585835093339495
619.0, 0.053756107107668344
620.0, 0.062183780898572995
621.0, 0.0670435672571511
622.0, 0.06976784364347882
623.0, 0.0726475517698857
624.0, 0.07561770310012514
625.0, 0.08241955036830904
626.0, 0.08526790839848107
627.0, 0.08793765344124924
628.0, 0.09390800156820191
629.0, 0.10162375223519433
630.0, 0.10578849357966631
631.0, 0.10381899872356395
632.0, 0.09998146719111725
633.0, 0.09924458565012637
634.0, 0.10094459034869237
635.0, 0.0990354840327493
636.0, 0.0840334030072804
637.0, 0.07042650754837733
638.0, 0.0654379286210913
639.0, 0.06000883265038415
640.0, 0.05459107462744418
641.0, 0.054070560067843935
642.0, 0.04703605928217644
643.0, 0.04466967715943334
644.0, 0.038435133485469467
645.0, 0.031373495202310406
646.0, 0.024516147570969912
647.0, 0.016950759654364746
648.0, 0.017792549175147047
649.0, 0.015344865382563137
650.0, 0.011301700890162384
651.0, 0.00774612108324374
652.0, 0.005711773013246151
653.0, 0.004703405741558481
654.0, 0.001154011024290563
655.0, 0.0035127939852577085
656.0, 0.006696500942527916
657.0, 0.006719766818233613
658.0, 0.0054233717706991934
659.0, 0.005739045377898405
660.0, 0.0019640616952329424
661.0, 0.005537446910503794
662.0, 0.007255235923150756
663.0, 0.003539384496682488
664.0, 0.0016748477689340205
665.0, 0.0044401284527230385
666.0, 0.009551134228552305
667.0, 0.008651260339481449
668.0, 0.006305076347679157
669.0, 0.007843306584687113
670.0, 0.013634066183628767
671.0, 0.019153835540006284
672.0, 0.02217848636702018
673.0, 0.02460094403121557
674.0, 0.03057100020511086
675.0, 0.0340080567193773
676.0, 0.03690965175724774
677.0, 0.04884718038401624
678.0, 0.05451683389979695
679.0, 0.055298982863149826
680.0, 0.06557740705957814
681.0, 0.07590321210415406
682.0, 0.08191839574168083
683.0, 0.09397394634855347
684.0, 0.11057286329870297
685.0, 0.1211409882994993
686.0, 0.13771185652338847
687.0, 0.16052260874892108
688.0, 0.18092815851966243
689.0, 0.1946352439351982
690.0, 0.21540019682755868
691.0, 0.2404712679179589
692.0, 0.2676917974352322
693.0, 0.29186494226457244
694.0, 0.3189608540118896
695.0, 0.35416848192924416
696.0, 0.3805980291912187
697.0, 0.4151987175516202
698.0, 0.43708376028428436
699.0, 0.45295535621352895
700.0, 0.46795481808894956
701.0, 0.4787447862803032
702.0, 0.4855153636093795
703.0, 0.48890963309117874
704.0, 0.485485774847512
705.0, 0.46685816681694037
706.0, 0.447323990652983
707.0, 0.436266737268895
708.0, 0.41644835442269035
709.0, 0.4011693809585554
710.0, 0.3700286339864844
711.0, 0.3483431133583636
712.0, 0.3307118197607691
713.0, 0.3063754182283887
714.0, 0.2827228550069092
715.0, 0.24947691806933528
716.0, 0.21505664139963196
717.0, 0.18068954797210768
718.0, 0.15065587902852082
719.0, 0.1281940057112237
720.0, 0.11195956777440479
721.0, 0.09540637843483946
722.0, 0.07899755049653384
723.0, 0.07289340257893186
724.0, 0.06330429661848207
725.0, 0.05729922751430441
726.0, 0.06164920449594376
727.0, 0.05232852215752858
728.0, 0.05070876176283114
729.0, 0.045157570775819396
730.0, 0.04460738700874323
731.0, 0.04871530505279124
732.0, 0.04999032303683743
733.0, 0.04564123826415909
734.0, 0.046887161788488334
735.0, 0.05058071740955677
736.0, 0.058636120295263355
737.0, 0.06513649458059718
738.0, 0.06715767272747863
739.0, 0.06841226735682333
740.0, 0.0711338633011893
741.0, 0.08476787183996869
742.0, 0.08779664209852134
743.0, 0.09852058997201059
744.0, 0.112150271130846
745.0, 0.11696060317031237
746.0, 0.12389572123455529
747.0, 0.1376658702309698
748.0, 0.14674523975315457
749.0, 0.15747324173097144
750.0, 0.16091530594336553
751.0, 0.1561020275316583
752.0, 0.15715195903265303
753.0, 0.15870374348237576
754.0, 0.16348831907717604
755.0, 0.16527055881900596
756.0, 0.15847213776216193
757.0, 0.15118516250388478
758.0, 0.1490767880523539
759.0, 0.1415923967762852
760.0, 0.1358206773876874
761.0, 0.1300605451967585
762.0, 0.12378891741631287
763.0, 0.12023545343718527
764.0, 0.11371946384084787
765.0, 0.10032797828752986
766.0, 0.0974889606880215
767.0, 0.09717771000144834
768.0, 0.0842777129741955
769.0, 0.07470157922104338
770.0, 0.06908039109045795
771.0, 0.06185516029203601
772.0, 0.05970373410618501
773.0, 0.05375259797438162
774.0, 0.047778718162610465
775.0, 0.04647046576514179
776.0, 0.04342980457527567
777.0, 0.03716235940221475
778.0, 0.03489965947023831
779.0, 0.037619782946229606
780.0, 0.03453948581718727
781.0, 0.03478439795868279
782.0, 0.0312757852490556
783.0, 0.02687975494298007
784.0, 0.02567872183802351
785.0, 0.024030581432399528
786.0, 0.018262069120147262
787.0, 0.02184356793859264
788.0, 0.01741201959812053
789.0, 0.01461701048099576
790.0, 0.017690131532263693
791.0, 0.02040564696671285
792.0, 0.018995750051431167
793.0, 0.013896960050574178
794.0, 0.013723620762510871
795.0, 0.008276054413575921
796.0, 0.005020527178907916
797.0, 0.004511757636001265
798.0, 0.002344195300552156
799.0, 0.004132519481254442
800.0, 0.004636199892776025
801.0, 0.0027384713116557014
802.0, 0.0012110359395968752
803.0, 0.0007332391876060016
804.0, 0.000789903628684919
805.0, 0.0010525006997529759
806.0, 0.0019871970898511565
807.0, 0.0013971177493009124
808.0, 0.001630081615286513
809.0, 0.001324194553470911
810.0, 0.003617741356935547
811.0, 0.0010641418664261413
812.0, 0.001528897928311291
813.0, 0.0012254126501111224
814.0, 0.0038610929358067333
815.0, 0.00552924826464999
816.0, 0.006201243347974556
817.0, 0.00598295701015999
818.0, 0.004782415319472813
819.0, 0.0031779005551026847
820.0, 0.002033143403178272
821.0, 0.009271800886872078
822.0, 0.014294465225150202
823.0, 0.015454954991026755
824.0, 0.017516864457844655
825.0, 0.020902993033642864
826.0, 0.024144581470423948
827.0, 0.025543465366688712
828.0, 0.025158875750871466
829.0, 0.028004992525468043
830.0, 0.029152729054701926
831.0, 0.032487766470022876
832.0, 0.03416177643209277
833.0, 0.02754640341900188
834.0, 0.03383959662399875
835.0, 0.03330820509981135
836.0, 0.03305646125621779
837.0, 0.029759684939937355
838.0, 0.028408790014716537
839.0, 0.029035306086756967
840.0, 0.025441032513053168
841.0, 0.028555687028572748
842.0, 0.026248822162294724
843.0, 0.028636865244332548
844.0, 0.03083334021814431
845.0, 0.031051268967586133
846.0, 0.027289613368011834
847.0, 0.019908161307984864
848.0, 0.020188187069282746
849.0, 0.01901554200497316
850.0, 0.01490933544859289
851.0, 0.013062587507678981
852.0, 0.018312194070074797
853.0, 0.021227966121828555
854.0, 0.016648722382615107
855.0, 0.02578829535880242
856.0, 0.026543887094346744
857.0, 0.02914398635822738
858.0, 0.026216240858246725
859.0, 0.022888235186410543
860.0, 0.022240957967980632
861.0, 0.0218883575608038
862.0, 0.02293810155920887
863.0, 0.02035579632802886
864.0, 0.02014120781329425
865.0, 0.014019439231053464
866.0, 0.009061464635795796
867.0, 0.009636415094499383
868.0, 0.012081532269719553
869.0, 0.011311045862737876
870.0, 0.0055588766807366935
871.0, 0.004633636063314326
872.0, 0.011441248635911026
873.0, 0.012385703248094902
874.0, 0.005216936918401998
875.0, 0.0008974380629680574
876.0, 0.00022099151147278695
877.0, 0.0024798685732423187
878.0, 0.00016029107114468163
879.0, 0.006176490282378163
880.0, 0.00457784295403553
881.0, 0.0010057837261478004
882.0, 0.004991457735834162
883.0, 0.005652769170125047
884.0, 0.002679608611864112
885.0, 0.0027747423193853825
886.0, 0.0024153521628990557
887.0, 0.007294049526610077
888.0, 0.01403040044076489
889.0, 0.01146111379491316
890.0, 0.006010329205172686
891.0, 0.012666851635853685
892.0, 0.01851487496431578
893.0, 0.019675052950804076
894.0, 0.02380636006279699
895.0, 0.030119338704889403
896.0, 0.035960087549156486
897.0, 0.0416782917303022
898.0, 0.04537016348582351
899.0, 0.04332927402642906
900.0, 0.04637809023686271
901.0, 0.05889348806053006
902.0, 0.06165577124371636
903.0, 0.06878493725413695
904.0, 0.07661320934088414
905.0, 0.08153510173525276
906.0, 0.08849856985429495
907.0, 0.08954086006762219
908.0, 0.09600704222689195
909.0, 0.1018399241781211
910.0, 0.10410665490568469
911.0, 0.10497866660492335
912.0, 0.10398718904881077
913.0, 0.10173348500759737
914.0, 0.1018421678227853
915.0, 0.10145672657248823
916.0, 0.09138197167488925
917.0, 0.09115847860197844
918.0, 0.08563555383765047
919.0, 0.07486192391858863
920.0, 0.06721883216695819
921.0, 0.06249782466185323
922.0, 0.05516073330204765
923.0, 0.05477811493601133
924.0, 0.055677611910136794
925.0, 0.050990666998640105
926.0, 0.046959645211282965
927.0, 0.04163185186456924
928.0, 0.03697112895995497
929.0, 0.037933900392583944
930.0, 0.03737741414014778
931.0, 0.03019599303492146
932.0, 0.025758311884279995
933.0, 0.02353768017425261
934.0, 0.02378855838934063
935.0, 0.02650803792925752
936.0, 0.029203872849116425
937.0, 0.030220984505620874
938.0, 0.033448477627294464
939.0, 0.03739376359340279
940.0, 0.04157330167195408
941.0, 0.04297318275251723
942.0, 0.04081132002381326
943.0, 0.040567053656554414
944.0, 0.04543209817843597
945.0, 0.05189490620848867
946.0, 0.055349066612455554
947.0, 0.06681817746533408
948.0, 0.0680084324448796
949.0, 0.07328489020020475
950.0, 0.07713846748843556
951.0, 0.07943602877266186
952.0, 0.08277906784648588
953.0, 0.0844420103815664
954.0, 0.08233631942403213
955.0, 0.07489957311985888
956.0, 0.08236858308000031
957.0, 0.0772854586974729
958.0, 0.07251851643963714
959.0, 0.06616773385831226
960.0, 0.054861522340579144
961.0, 0.04460628018101997
962.0, 0.037303424957478744
963.0, 0.03899672821599948
964.0, 0.03752058693077541
965.0, 0.03205707848944369
966.0, 0.021297713177085755
967.0, 0.017472110563214294
968.0, 0.01878385456552335
969.0, 0.016917581272398993
970.0, 0.015319353136568407
971.0, 0.009324755153882484
972.0, 0.0016830509833905046
973.0, 0.0007361189735845804
974.0, 0.0005034106857887944
975.0, 0.0005420114027142615
976.0, 0.0027077098666078332
977.0, 0.0038209390686757758
978.0, 0.002285940956425735
979.0, 0.006360572164775957
980.0, 0.004143626760411216
981.0, 0.009132283618943039
982.0, 0.010304834725517305
983.0, 0.009959570151526473
984.0, 0.007171209503789224
985.0, 0.00553438415957589
986.0, 0.00892825425712843
987.0, 0.0044071245652531205
988.0, 0.004295245005993254
989.0, 0.004560598514690098
990.0, 0.00838527471521712
991.0, 0.013640989726126622
992.0, 0.013548008156197782
993.0, 0.015077905776635613
994.0, 0.020571766555355038
995.0, 0.02009831110199468
996.0, 0.021429727188627783
997.0, 0.01922322149341901
998.0, 0.02293969600120189
999.0, 0.013556733346507721
1000.0, 0.011592626751660237
1001.0, 0.015140643182610271
1002.0, 0.01574118168985364
1003.0, 0.014842519824325114
1004.0, 0.011394539022195185
1005.0, 0.010741138071933085
1006.0, 0.010902974483190971
1007.0, 0.013043210655017675
1008.0, 0.012910958643064368
1009.0, 0.013547592111757158
1010.0, 0.014060862750863387
1011.0, 0.016860318817562288
1012.0, 0.022505726890027708
1013.0, 0.019947065704877552
1014.0, 0.025031412729110296
1015.0, 0.021582361127756033
1016.0, 0.017453063798737872
1017.0, 0.016944658355136505
1018.0, 0.017940702031421864
1019.0, 0.019434030407238383
1020.0, 0.019842072728113204
1021.0, 0.019435649888830307
1022.0, 0.024775353570868974
1023.0, 0.026887754602805135
1024.0, 0.022979214003565094
1025.0, 0.020096730395297812
1026.0, 0.017058770265332715
1027.0, 0.01725369689827752
1028.0, 0.01594894160000109
1029.0, 0.009823003545010039
1030.0, 0.007520561172144769
1031.0, 0.010438221067594343
1032.0, 0.0012346455753770471
1033.0, 0.0007173284445410393
1034.0, 0.003375673231352277
1035.0, 0.0047448826973015956
1036.0, 0.005508509203007929
1037.0, 0.004269635197799619
1038.0, 0.003812148674951456
1039.0, 0.008531293275165507
1040.0, 0.0032554573823309796
1041.0, 0.003997262147566131
1042.0, 0.0005819490948014695
1043.0, 0.00043320469976440286
1044.0, 7.211486653416976e-05
1045.0, 0.0022170042241310564
1046.0, 0.0032229420440252447
1047.0, 0.005103424679004704
1048.0, 0.012315920437686069
1049.0, 0.014493882331898968
1050.0, 0.013201033099364236
1051.0, 0.013306972282141777
1052.0, 0.01806897615111659
1053.0, 0.014691253201466312
1054.0, 0.011928433097249804
1055.0, 0.01046848938531298
1056.0, 0.008719982644539862
1057.0, 0.011536073662169018
1058.0, 0.015651161109186514
1059.0, 0.013765239463869901
1060.0, 0.01894640066603824
1061.0, 0.01326490388443958
1062.0, 0.012225729022522287
1063.0, 0.014023437089025561
1064.0, 0.014750337122511614
1065.0, 0.01605932107669434
1066.0, 0.01580539411869364
1067.0, 0.011796644069461066
1068.0, 0.015301169428716961
1069.0, 0.0229991497356499
1070.0, 0.02091839371530569
1071.0, 0.02239977975356036
1072.0, 0.020414794366483812
1073.0, 0.021470244334372696
1074.0, 0.024280814564241623
1075.0, 0.02165637381865628
1076.0, 0.022473377805025552
1077.0, 0.03362791485210192
1078.0, 0.02991287501707268
1079.0, 0.024259959749518806
1080.0, 0.028348489211520927
1081.0, 0.03017360051257994
1082.0, 0.029585116911665585
1083.0, 0.026990697678828817
1084.0, 0.02968762894583172
1085.0, 0.03352021951730477
1086.0, 0.02595129573495126
1087.0, 0.023039254897226347
1088.0, 0.02935455217323838
1089.0, 0.03082657530358714
1090.0, 0.03406708574874182
1091.0, 0.03728366372587229
1092.0, 0.038971001357207914
1093.0, 0.041784965180176346
1094.0, 0.04192411199129751
1095.0, 0.03963272663617457
1096.0, 0.04327448719187772
1097.0, 0.04780240691384514
1098.0, 0.04643703437889929
1099.0, 0.04930795354382915
1100.0, 0.058024748768490855
1101.0, 0.05543685321696477
1102.0, 0.05460928240015032
1103.0, 0.060886698064115785
1104.0, 0.06300978497709635
1105.0, 0.06096457187475438
1106.0, 0.06301956040127403
1107.0, 0.06421303727889485
1108.0, 0.06791567995038064
1109.0, 0.07160840614980962
1110.0, 0.0728040769480691
1111.0, 0.07328914997433245
1112.0, 0.07530283057518829
1113.0, 0.08092897396229481
1114.0, 0.08449263364508916
1115.0, 0.08440534863426422
1116.0, 0.08664560953291289
1117.0, 0.08796593389456474
1118.0, 0.08448404097135137
1119.0, 0.08485106907282668
1120.0, 0.08045179419457378
1121.0, 0.07262825328017859
1122.0, 0.07201391142768436
1123.0, 0.06923955471250627
1124.0, 0.05881799417826697
1125.0, 0.05159149267133331
1126.0, 0.053563932768905295
1127.0, 0.05104115025378685
1128.0, 0.043770866939853624
1129.0, 0.04580860303617808
1130.0, 0.03902389134093892
1131.0, 0.02949707164820865
1132.0, 0.036274518355623626
1133.0, 0.04100673183587813
1134.0, 0.03757137538441485
1135.0, 0.03437073682768166
1136.0, 0.035360578352680506
1137.0, 0.037813645194200204
1138.0, 0.036826970270792216
1139.0, 0.02796329193928476
1140.0, 0.026092665026781967
1141.0, 0.0248352916699353
1142.0, 0.020347601285389514
1143.0, 0.015398009010341624
1144.0, 0.015870444547228073
1145.0, 0.014579054332063905
1146.0, 0.014635010208391266
1147.0, 0.01688052625573094
1148.0, 0.012957393407146805
1149.0, 0.013000060374447623
1150.0, 0.0067197290916714775
1151.0, 0.005377977926133765
1152.0, 0.005369822080453029
1153.0, 0.012815603655815947
1154.0, 0.013779155675090046
1155.0, 0.01446228078049926
1156.0, 0.01089497771346379
1157.0, 0.003941495355349829
1158.0, 0.004058955703765552
1159.0, 0.00804157857613435
1160.0, 0.010065006113655916
1161.0, 0.004195140912702403
1162.0, 0.012607158623502791
1163.0, 0.010246588380188422
1164.0, 0.006293967937375315
1165.0, 0.010335396900645295
1166.0, 0.0064128632163092825
1167.0, 0.0009542856807645673
1168.0, 0.001685770070919805
1169.0, 0.002155550036690902
1170.0, 0.002112828388490218
1171.0, 0.005774693663715447
1172.0, 0.010333336470464744
1173.0, 0.007112878056378572
1174.0, 0.0151499246571886
1175.0, 0.011652532413018973
1176.0, 0.00714919133266912
1177.0, 0.009065828744556227
1178.0, 0.008775909027113813
1179.0, 0.006620738280432972
1180.0, 0.003058101763381969
1181.0, 0.0028646317128238376
1182.0, 0.002154306983066385
1183.0, 0.0008137702051136758
1184.0, 5.137348203937869e-05
1185.0, 0.0011463486698536046
1186.0, 0.001089801483408381
1187.0, 0.003508725388549812
1188.0, 0.002695364896809882
1189.0, 0.0041838870771096605
1190.0, 0.006273960929354111
1191.0, 0.0051922486001817975
1192.0, 0.0006408083830074661
1193.0, 0.006052870226878793
1194.0, 0.009655036509062565
1195.0, 0.006547807959608286
1196.0, 0.006852227967858758
1197.0, 0.00945965885096863
1198.0, 0.01708404238185761
1199.0, 0.01648452017407385
1200.0, 0.008476394220577152
1201.0, 0.010354857597750641
1202.0, 0.009392703004942538
1203.0, 0.004794767205341382
1204.0, 0.006345586958304293
1205.0, 0.008536416385331005
1206.0, 0.007385578362194128
1207.0, 0.005473974866708446
1208.0, 0.0014137398176320942
1209.0, 0.007874084743675278
1210.0, 0.0018410352593145845
1211.0, 0.00048654157088558653
1212.0, 0.0027689890397729266
1213.0, 0.005739365106775884
1214.0, 0.0038615313985835777
1215.0, 0.0010620201910213755
1216.0, 0.0026363258010148522
1217.0, 0.0015696717196702374
1218.0, 0.0021127329770888937
1219.0, 0.0015648543439550997
1220.0, 0.0017601071149701442
1221.0, 0.004665150644366925
1222.0, 0.003049964630848063
1223.0, 0.005482496077536059
1224.0, 0.007733570362718467
1225.0, 0.00888130996305342
1226.0, 0.0073570734503847785
1227.0, 0.005789850420997262
1228.0, 0.005483013190486571
1229.0, 0.006955052695245391
1230.0, 0.008922805324064002
1231.0, 0.007390617456953137
1232.0, 0.0067672483040422254
1233.0, 0.011750926587147725
1234.0, 0.01132312598512708
1235.0, 0.013372487538119641
1236.0, 0.012006251147146478
1237.0, 0.016571162149109978
1238.0, 0.014030562236269317
1239.0, 0.012296725524017085
1240.0, 0.00832175527569897
1241.0, 0.008572287249453015
1242.0, 0.012958016109787895
1243.0, 0.007929234677730441
1244.0, 0.007259357428776412
1245.0, 0.013267462640408777
1246.0, 0.009165944520241148
1247.0, 0.011043499110538115
1248.0, 0.014145684165977309
1249.0, 0.010796406718342606
1250.0, 0.013356008123009473
1251.0, 0.011048726198920108
1252.0, 0.010864094838776
1253.0, 0.011031327050041331
1254.0, 0.008670029879124873
1255.0, 0.0118431840934814
1256.0, 0.01782361833914405
1257.0, 0.01872249374605685
1258.0, 0.025604327124157802
1259.0, 0.010976567411460452
1260.0, 0.008960495872457381
1261.0, 0.011297570723832877
1262.0, 0.009328448475326453
1263.0, 0.008223318997963669
1264.0, 0.011170349011741116
1265.0, 0.008328329283202254
1266.0, 0.0016468868841403557
1267.0, 0.002588954307906853
1268.0, 0.005974127263364199
1269.0, 0.004656812805711872
1270.0, 0.003825238795024271
1271.0, 0.0046919070797903405
1272.0, 0.0017419617203638178
1273.0, 0.007062769853156078
1274.0, 0.00813035357079859
1275.0, 0.0042133548222590385
1276.0, 0.00749060850126874
1277.0, 0.00947894892586342
1278.0, 0.005761412833414217
1279.0, 0.008192041006053516
1280.0, 0.004895182290285827
1281.0, 0.008947852426676298
1282.0, 0.01163715000563767
1283.0, 0.008035917885712382
1284.0, 0.009143321283304895
1285.0, 0.007841281370485651
1286.0, 0.004229740526727517
1287.0, 0.0040814826175583595
1288.0, 0.008165356131192457
1289.0, 0.012929397072702969
1290.0, 0.010060853127181727
1291.0, 0.007140131047084436
1292.0, 0.007513349369311299
1293.0, 0.005162637469212852
1294.0, 0.005726035804255799
1295.0, 0.009215013180692809
1296.0, 0.004137794134199208
1297.0, 0.00012058924893488252
1298, 0.0
1299, 0.0
1300, 0.0
1301, 0.0
1302, 0.0
1303, 0.0
1304, 0.0
1305, 0.0
1306, 0.0
1307, 0.0
1308, 0.0
1309, 0.0
1310, 0.0
1311, 0.0
1312, 0.0
1313, 0.0
1314, 0.0
1315, 0.0
1316, 0.0
1317, 0.0
1318, 0.0
1319, 0.0
1320, 0.0
1321, 0.0
1322, 0.0
1323, 0.0
1324, 0.0
1325, 0.0
1326, 0.0
1327, 0.0
1328, 0.0
1329, 0.0
1330, 0.0
1331, 0.0
1332, 0.0
1333, 0.0
1334, 0.0
1335, 0.0
1336, 0.0
1337, 0.0
1338, 0.0
1339, 0.0
1340, 0.0
1341, 0.0
1342, 0.0
1343, 0.0
1344, 0.0
1345, 0.0
1346, 0.0
1347, 0.0
1348, 0.0
1349, 0.0
1350, 0.0
1351, 0.0
1352, 0.0
1353, 0.0
1354, 0.0
1355, 0.0
1356, 0.0
1357, 0.0
1358, 0.0
1359, 0.0
1360, 0.0
1361, 0.0
1362, 0.0
1363, 0.0
1364, 0.0
1365, 0.0
1366, 0.0
1367, 0.0
1368, 0.0
1369, 0.0
1370, 0.0
1371, 0.0
1372, 0.0
1373, 0.0
1374, 0.0
1375, 0.0
1376, 0.0
1377, 0.0
1378, 0.0
1379, 0.0
1380, 0.0
1381, 0.0
1382, 0.0
1383, 0.0
1384, 0.0
1385, 0.0
1386, 0.0
1387, 0.0
1388, 0.0
1389, 0.0
1390, 0.0
1391, 0.0
1392, 0.0
1393, 0.0
1394, 0.0
1395, 0.0
1396, 0.0
1397, 0.0
1398, 0.0
1399, 0.0
1400, 0.0
1401, 0.0
1402, 0.0
1403, 0.0
1404, 0.0
1405, 0.0
1406, 0.0
1407, 0.0
1408, 0.0
1409, 0.0
1410, 0.0
1411, 0.0
1412, 0.0
1413, 0.0
1414, 0.0
1415, 0.0
1416, 0.0
1417, 0.0
1418, 0.0
1419, 0.0
1420, 0.0
1421, 0.0
1422, 0.0
1423, 0.0
1424, 0.0
1425, 0.0
1426, 0.0
1427, 0.0
1428, 0.0
1429, 0.0
1430, 0.0
1431, 0.0
1432, 0.0
1433, 0.0
1434, 0.0
1435, 0.0
1436, 0.0
1437, 0.0
1438, 0.0
1439, 0.0
1440, 0.0
1441, 0.0
1442, 0.0
1443, 0.0
1444, 0.0
1445, 0.0
1446, 0.0
1447, 0.0
1448, 0.0
1449, 0.0
1450, 0.0
1451, 0.0
1452, 0.0
1453, 0.0
1454, 0.0
1455, 0.0
1456, 0.0
1457, 0.0
1458, 0.0
1459, 0.0
1460, 0.0
1461, 0.0
1462, 0.0
1463, 0.0
1464, 0.0
1465, 0.0
1466, 0.0
1467, 0.0
1468, 0.0
1469, 0.0
1470, 0.0
1471, 0.0
1472, 0.0
1473, 0.0
1474, 0.0
1475, 0.0
1476, 0.0
1477, 0.0
1478, 0.0
1479, 0.0
1480, 0.0
1481, 0.0
1482, 0.0
1483, 0.0
1484, 0.0
1485, 0.0
1486, 0.0
1487, 0.0
1488, 0.0
1489, 0.0
1490, 0.0
1491, 0.0
1492, 0.0
1493, 0.0
1494, 0.0
1495, 0.0
1496, 0.0
1497, 0.0
1498, 0.0
1499, 0.0
1500, 0.0
1501, 0.0
1502, 0.0
1503, 0.0
1504, 0.0
1505, 0.0
1506, 0.0
1507, 0.0
1508, 0.0
1509, 0.0
1510, 0.0
1511, 0.0
1512, 0.0
1513, 0.0
1514, 0.0
1515, 0.0
1516, 0.0
1517, 0.0
1518, 0.0
1519, 0.0
1520, 0.0
1521, 0.0
1522, 0.0
1523, 0.0
1524, 0.0
1525, 0.0
1526, 0.0
1527, 0.0
1528, 0.0
1529, 0.0
1530, 0.0
1531, 0.0
1532, 0.0
1533, 0.0
1534, 0.0
1535, 0.0
1536, 0.0
1537, 0.0
1538, 0.0
1539, 0.0
1540, 0.0
1541, 0.0
1542, 0.0
1543, 0.0
1544, 0.0
1545, 0.0
1546, 0.0
1547, 0.0
1548, 0.0
1549, 0.0
1550, 0.0
1551, 0.0
1552, 0.0
1553, 0.0
1554, 0.0
1555, 0.0
1556, 0.0
1557, 0.0
1558, 0.0
1559, 0.0
1560, 0.0
1561, 0.0
1562, 0.0
1563, 0.0
1564, 0.0
1565, 0.0
1566, 0.0
1567, 0.0
1568, 0.0
1569, 0.0
1570, 0.0
1571, 0.0
1572, 0.0
1573, 0.0
1574, 0.0
1575, 0.0
1576, 0.0
1577, 0.0
1578, 0.0
1579, 0.0
1580, 0.0
1581, 0.0
1582, 0.0
1583, 0.0
1584, 0.0
1585, 0.0
1586, 0.0
1587, 0.0
1588, 0.0
1589, 0.0
1590, 0.0
1591, 0.0
1592, 0.0
1593, 0.0
1594, 0.0
1595, 0.0
1596, 0.0
1597, 0.0
1598, 0.0
1599, 0.0
