30, 0.0
31, 0.0
32, 0.0
33, 0.0
34, 0.0
35, 0.0
36, 0.0
37, 0.0
38, 0.0
39, 0.0
40, 0.0
41, 0.0
42, 0.0
43, 0.0
44, 0.0
45, 0.0
46, 0.0
47, 0.0
48, 0.0
49, 0.0
50, 0.0
51, 0.0
52, 0.0
53, 0.0
54, 0.0
55, 0.0
56, 0.0
57, 0.0
58, 0.0
59, 0.0
60, 0.0
61, 0.0
62, 0.0
63, 0.0
64, 0.0
65, 0.0
66, 0.0
67, 0.0
68, 0.0
69, 0.0
70, 0.0
71, 0.0
72, 0.0
73, 0.0
74, 0.0
75, 0.0
76, 0.0
77, 0.0
78, 0.0
79, 0.0
80, 0.0
81, 0.0
82, 0.0
83, 0.0
84, 0.0
85, 0.0
86, 0.0
87, 0.0
88, 0.0
89, 0.0
90, 0.0
91, 0.0
92, 0.0
93, 0.0
94, 0.0
95, 0.0
96, 0.0
97, 0.0
98, 0.0
99, 0.0
100, 0.0
101, 0.0
102, 0.0
103, 0.0
104, 0.0
105, 0.0
106, 0.0
107, 0.0
108, 0.0
109, 0.0
110, 0.0
111, 0.0
112, 0.0
113, 0.0
114, 0.0
115, 0.0
116, 0.0
117, 0.0
118, 0.0
119, 0.0
120, 0.0
121, 0.0
122, 0.0
123, 0.0
124, 0.0
125, 0.0
126, 0.0
127, 0.0
128, 0.0
129, 0.0
130, 0.0
131, 0.0
132, 0.0
133, 0.0
134, 0.0
135, 0.0
136, 0.0
137, 0.0
138, 0.0
139, 0.0
140, 0.0
141, 0.0
142, 0.0
143, 0.0
144, 0.0
145, 0.0
146, 0.0
147, 0.0
148, 0.0
149, 0.0
150, 0.0
151, 0.0
152, 0.0
153, 0.0
154, 0.0
155, 0.0
156, 0.0
157, 0.0
158, 0.0
159.0, 7.771834516202231e-06
160.0, 0.002461936397408867
161.0, 0.00080918209824801
162.0, 0.004252806957739895
163.0, 0.0071731718528771325
164.0, 0.004880312086465406
165.0, 0.008687421299142007
166.0, 0.00973604622756678
167.0, 0.015052277565607135
168.0, 0.016802414117561407
169.0, 0.022621527700822958
170.0, 0.02886110419643736
171.0, 0.030967113722397493
172.0, 0.03904587966956636
173.0, 0.04638179732618236
174.0, 0.05055469666893493
175.0, 0.06296348548395451
176.0, 0.06953506898141038
177.0, 0.07327967487281759
178.0, 0.08501744638589706
179.0, 0.09929963921159883
180.0, 0.09545033086675626
181.0, 0.10099284339035042
182.0, 0.10043285083886384
183.0, 0.09426597320873369
184.0, 0.08572462234680472
185.0, 0.08121467771311819
186.0, 0.07040500392880118
187.0, 0.06413081181737346
188.0, 0.0571903784605013
189.0, 0.04468466661272583
190.0, 0.03717766520990536
191.0, 0.039539514974978124
192.0, 0.04180329032441404
193.0, 0.04271232844796923
194.0, 0.04623493445612462
195.0, 0.06341802176840054
196.0, 0.06237526875511747
197.0, 0.07017879531734106
198.0, 0.07204176995926077
199.0, 0.07318325471175825
200.0, 0.06088014027868799
201.0, 0.059977067324610556
202.0, 0.051606508433096936
203.0, 0.045929421743230295
204.0, 0.045360191619184594
205.0, 0.0322940456641672
206.0, 0.02572929522515424
207.0, 0.024836653027674595
208.0, 0.026301313986617877
209.0, 0.021867522892867225
210.0, 0.028905760711986552
211.0, 0.030204828449745983
212.0, 0.039101351613201406
213.0, 0.04258043238295521
214.0, 0.05751182288330074
215.0, 0.06551033186487776
216.0, 0.05886137549004079
217.0, 0.05035992268378699
218.0, 0.044775476395468625
219.0, 0.03223454929116486
220.0, 0.022868742224780848
221.0, 0.018518656697901325
222.0, 0.010275723573540627
223.0, 0.0023705674543099474
224.0, 0.003457299151170636
225.0, 0.002148611123620749
226.0, 0.0016132216285298041
227.0, 0.0031255387384929063
228.0, 0.004265017478031829
229.0, 0.002967558276148069
230.0, 0.004922151092753384
231.0, 0.004225459800113766
232.0, 0.004812203995060477
233.0, 0.01132402051732592
234.0, 0.010827182520228561
235.0, 0.012386898695124656
236.0, 0.01780571769004461
237.0, 0.026606898959196337
238.0, 0.03062221836745357
239.0, 0.03388522748762642
240.0, 0.040254613112032565
241.0, 0.05023330062846313
242.0, 0.05619885375683491
243.0, 0.07497445711475231
244.0, 0.07297347552774618
245.0, 0.08544639099766606
246.0, 0.08940547427894309
247.0, 0.1036183916223101
248.0, 0.1010732269945885
249.0, 0.10938048809709804
250.0, 0.11685288262763595
251.0, 0.12043233561785323
252.0, 0.12886600911294124
253.0, 0.1428880747161099
254.0, 0.1540680591953097
255.0, 0.17505797893045624
256.0, 0.20417771656416855
257.0, 0.23824454987411317
258.0, 0.2729478429577736
259.0, 0.3132006459717096
260.0, 0.3677106440974318
261.0, 0.4142196539832294
262.0, 0.4445459743317148
263.0, 0.4699200353609315
264.0, 0.47454960192639206
265.0, 0.459736407208179
266.0, 0.4302327251423242
267.0, 0.3839673832138141
268.0, 0.3370532115653557
269.0, 0.2973884008251455
270.0, 0.25737839760105685
271.0, 0.22392455395400937
272.0, 0.1861383243225289
273.0, 0.16577180868121236
274.0, 0.13236401042904594
275.0, 0.12113401863954003
276.0, 0.10892717244550257
277.0, 0.09016402645728339
278.0, 0.07868490849963956
279.0, 0.06850339234792281
280.0, 0.06549129556956393
281.0, 0.056835607926123154
282.0, 0.05037794652940814
283.0, 0.04381240437095907
284.0, 0.0367261496024913
285.0, 0.037446265072962365
286.0, 0.036339808514928
287.0, 0.034726952400982336
288.0, 0.030358272135890308
289.0, 0.024754188118689992
290.0, 0.026584128352354446
291.0, 0.02182429999989754
292.0, 0.026808089360570126
293.0, 0.0292876529164334
294.0, 0.025751208945216836
295.0, 0.02405888165489449
296.0, 0.027399806354999803
297.0, 0.023900065379102418
298.0, 0.03035427448639126
299.0, 0.024221865789746895
300.0, 0.02752429277948025
301.0, 0.027138933464058098
302.0, 0.028842411853884625
303.0, 0.027190250938153082
304.0, 0.026613467734811064
305.0, 0.02608824660759631
306.0, 0.03069626445114903
307.0, 0.024074737108488783
308.0, 0.028448989940855506
309.0, 0.024494705362743743
310.0, 0.01680799102893336
311.0, 0.021306014179372057
312.0, 0.023114444107578437
313.0, 0.018289635164549338
314.0, 0.018397207564278335
315.0, 0.021472708464024173
316.0, 0.012848884239316183
317.0, 0.01783887049327261
318.0, 0.018584631397998416
319.0, 0.014662890070303605
320.0, 0.01504458813258855
321.0, 0.011150582144106119
322.0, 0.010872358845610263
323.0, 0.013025949630732512
324.0, 0.016194636135844088
325.0, 0.010114254752047969
326.0, 0.008674862402508365
327.0, 0.006329219267632473
328.0, 0.005152303468968244
329.0, 0.006831466935882656
330.0, 0.004442467373340038
331.0, 0.007517040805477748
332.0, 0.002315267686028765
333.0, 0.001057071060717942
334.0, 0.0054155197403124595
335.0, 0.0027336822054597042
336.0, 0.0011282442330452153
337.0, 0.002525240188381827
338.0, 0.00096215100428807
339.0, 0.004063097115059175
340.0, 0.004954080600694569
341.0, 0.003960614141762326
342.0, 0.0063241557575774605
343.0, 0.006699720432050077
344.0, 0.0062475600455118765
345.0, 0.006663698061424812
346.0, 0.005205484621665956
347.0, 0.004148352019474877
348.0, 0.0020002418830993448
349.0, 0.0010588134975060182
350.0, 0.000775390295063612
351.0, 0.003326026018942839
352.0, 0.0007223764771189963
353.0, 0.0009677487462103834
354.0, 0.008006408197840958
355.0, 0.0036938292325741145
356.0, 0.011996846000601611
357.0, 0.017814731993362948
358.0, 0.016547142602753286
359.0, 0.02042676071657025
360.0, 0.024032526620710724
361.0, 0.0230833387777164
362.0, 0.022191852284137
363.0, 0.023331487054370447
364.0, 0.023620055569494192
365.0, 0.0273160210904866
366.0, 0.02986410622255551
367.0, 0.032698286136836424
368.0, 0.03364192979868198
369.0, 0.035998854096963455
370.0, 0.03764308805604653
371.0, 0.039736172580602074
372.0, 0.046222159184218535
373.0, 0.05085004449282026
374.0, 0.05466635893666781
375.0, 0.058022500875635805
376.0, 0.05812695594051751
377.0, 0.06280673924871884
378.0, 0.06429759073191929
379.0, 0.06258715645800147
380.0, 0.07244523358353112
381.0, 0.0676633516228929
382.0, 0.07255091884916325
383.0, 0.07268340575020518
384.0, 0.07614630405384772
385.0, 0.07156701333292344
386.0, 0.07983180131997404
387.0, 0.08376486322928797
388.0, 0.08831102915496862
389.0, 0.0925873583966259
390.0, 0.09926666115662539
391.0, 0.10606732223806445
392.0, 0.11721603859393807
393.0, 0.12523024154956156
394.0, 0.12969992016767978
395.0, 0.14098609153533115
396.0, 0.14522033295120487
397.0, 0.15311737515048202
398.0, 0.16183647066526582
399.0, 0.17644436926992366
400.0, 0.17964534428460147
401.0, 0.19638922520706964
402.0, 0.19519437728025715
403.0, 0.20590003620354838
404.0, 0.20946369051630667
405.0, 0.22096201325141918
406.0, 0.20986388516728063
407.0, 0.21899618686245753
408.0, 0.21743856115247176
409.0, 0.21911683899595058
410.0, 0.2111776084437653
411.0, 0.20437351513476612
412.0, 0.20264090324546133
413.0, 0.1883764684587248
414.0, 0.18284933695518416
415.0, 0.17758983076587578
416.0, 0.16508028408048517
417.0, 0.1487252045910257
418.0, 0.147768783990104
419.0, 0.14367793567986165
420.0, 0.12883625873162322
421.0, 0.1289137972792948
422.0, 0.11862432491550065
423.0, 0.11214141115393708
424.0, 0.10253451086414465
425.0, 0.10332995544899026
426.0, 0.08911999007644976
427.0, 0.08962530004247579
428.0, 0.08635972325401124
429.0, 0.07795219441126981
430.0, 0.07619556515460742
431.0, 0.07105194898510549
432.0, 0.07394163472240668
433.0, 0.06818176938445804
434.0, 0.06960792098586159
435.0, 0.0704121441076741
436.0, 0.061640867993625545
437.0, 0.06035562569539478
438.0, 0.05680464436172698
439.0, 0.06388801564374307
440.0, 0.05644411133079215
441.0, 0.05967560530335199
442.0, 0.05672952728643177
443.0, 0.056020662163512966
444.0, 0.06278522913418311
445.0, 0.05779745999037979
446.0, 0.05982037452749669
447.0, 0.055288877831337235
448.0, 0.058480842234308245
449.0, 0.050565895788123594
450.0, 0.04927512482997307
451.0, 0.050121790305951396
452.0, 0.0433350086286475
453.0, 0.04137374080109635
454.0, 0.04176536751465111
455.0, 0.03905666968031303
456.0, 0.03674120811233608
457.0, 0.03657006805132284
458.0, 0.03559395705078657
459.0, 0.0305123036060664
460.0, 0.029054256724497806
461.0, 0.02781382032823591
462.0, 0.028575148564385866
463.0, 0.024937772882711266
464.0, 0.031276474736536525
465.0, 0.02573378018431742
466.0, 0.02698403677026537
467.0, 0.028772466073030346
468.0, 0.02883023847672995
469.0, 0.029774332788552127
470.0, 0.03660586839778523
471.0, 0.03758751729586231
472.0, 0.0428935802166648
473.0, 0.04288406857296578
474.0, 0.046324499281867146
475.0, 0.05241255332211766
476.0, 0.05092242936037363
477.0, 0.05295776273987167
478.0, 0.05207580739323533
479.0, 0.053099799170785986
480.0, 0.052090066363276746
481.0, 0.04523715789134497
482.0, 0.035845912905530665
483.0, 0.04065938010684017
484.0, 0.03212692057346543
485.0, 0.032497302996702726
486.0, 0.028038431157332896
487.0, 0.02008739461344177
488.0, 0.018288674552019074
489.0, 0.021850198428614232
490.0, 0.013729079658121748
491.0, 0.014566237025282583
492.0, 0.01102257829601623
493.0, 0.008891050768093434
494.0, 0.0077891978829296715
495.0, 0.008893669003475227
496.0, 0.003412630283725563
497.0, 0.0074812537677734275
498.0, 0.00256269894176391
499.0, 0.0025649911884964684
500.0, 0.0025339619723135204
501.0, 0.0025886496218174744
502.0, 0.0031033128189704943
503.0, 0.003310526502578762
504.0, 0.005575149113048292
505.0, 0.005931502310147883
506.0, 0.006624800017729871
507.0, 0.0024646325183271395
508.0, 0.00041611896830863026
509.0, 0.0018115051260290812
510.0, 0.002290577857477716
511.0, 0.002411992750040716
512.0, 0.0011620091156590876
513.0, 0.0012804663171746794
514.0, 0.0018372628335009832
515.0, 0.005346279566448717
516.0, 0.007330145645874642
517.0, 0.0035952726028292245
518.0, 0.007458803401193036
519.0, 0.008082749301156293
520.0, 0.008854767743679392
521.0, 0.008910990026506712
522.0, 0.009216189295645535
523.0, 0.010570212143286876
524.0, 0.012038614081379243
525.0, 0.012848624619204864
526.0, 0.015641052832774612
527.0, 0.015944278840827227
528.0, 0.01894320242894619
529.0, 0.01888801339811561
530.0, 0.02155056157130762
531.0, 0.024261339570466004
532.0, 0.02812010432395385
533.0, 0.025464390926079904
534.0, 0.02715498162004057
535.0, 0.03637391774988113
536.0, 0.03430611482863901
537.0, 0.03820569237316905
538.0, 0.042809399272712996
539.0, 0.03910329910462599
540.0, 0.04889042551476875
541.0, 0.04782158795943061
542.0, 0.05226880151393854
543.0, 0.053131910181146505
544.0, 0.06155570890879064
545.0, 0.0631207989834632
546.0, 0.06726804390874688
547.0, 0.06567718193013222
548.0, 0.0758202065134295
549.0, 0.07580169938742995
550.0, 0.08407184412179385
551.0, 0.08777609654089491
552.0, 0.09337335133265844
553.0, 0.1039296779420672
554.0, 0.11006397029223913
555.0, 0.11739978940181717
556.0, 0.11782951498998734
557.0, 0.1271718767661408
558.0, 0.13269215538296716
559.0, 0.13726252461436914
560.0, 0.1386275312837493
561.0, 0.13897723185373265
562.0, 0.13248848753244263
563.0, 0.12531936765472268
564.0, 0.11750984412679383
565.0, 0.10923945140827965
566.0, 0.10440178986694662
567.0, 0.09342220394468974
568.0, 0.09006173625175597
569.0, 0.07975729703917096
570.0, 0.07104223919182018
571.0, 0.0600917661471478
572.0, 0.05487216410875073
573.0, 0.045821491524832315
574.0, 0.041613296616764474
575.0, 0.03630564687057094
576.0, 0.03348349161298849
577.0, 0.029585868162187546
578.0, 0.023142188787207342
579.0, 0.02113759239390335
580.0, 0.01937918441975514
581.0, 0.017956690388578896
582.0, 0.012013380561434622
583.0, 0.010350901746506713
584.0, 0.013808634444604501
585.0, 0.006936915956314521
586.0, 0.008902778851820144
587.0, 0.008508307782937017
588.0, 0.0032630259886346617
589.0, 0.0007420114469309894
590.0, 0.0035754389606742435
591.0, 0.0033001509347694294
592.0, 0.0006404623845366257
593.0, 0.004387457348503964
594.0, 0.002829409524241809
595.0, 0.001185212719859705
596.0, 0.0031120479934077377
597.0, 0.002099166112047238
598.0, 0.004680488447566823
599.0, 0.0011641099493117529
600.0, 0.0034988772917769963
601.0, 0.0033542331661162946
602.0, 0.0032529809753820416
603.0, 0.00451932569067796
604.0, 0.002609784145002245
605.0, 0.00483162937356761
606.0, 0.0022255102120100415
607.0, 0.0008584142712674448
608.0, 0.0029695562477581225
609.0, 0.001275338005269635
610.0, 0.002311227844026925
611.0, 0.0029186055068907983
612.0, 0.00376876035832904
613.0, 0.00592449286864941
614.0, 0.006246466444219283
615.0, 0.009852982019843463
616.0, 0.00933931660417883
617.0, 0.009589211204737475
618.0, 0.019796824630964164
619.0, 0.02224958574690268
620.0, 0.01753652761355636
621.0, 0.025477080711404056
622.0, 0.024691927454748703
623.0, 0.027243141267934933
624.0, 0.023486318203278796
625.0, 0.03287852862159133
626.0, 0.037270918867114394
627.0, 0.04147727059313773
628.0, 0.039037783044319936
629.0, 0.03963429737801012
630.0, 0.0400681341004583
631.0, 0.041485728518598115
632.0, 0.04186639700089732
633.0, 0.043136958213211965
634.0, 0.03966385915949534
635.0, 0.03681243364385677
636.0, 0.03745443667608134
637.0, 0.04103857819504425
638.0, 0.03630881302099119
639.0, 0.04105741777498294
640.0, 0.03469416762690168
641.0, 0.03137297967192188
642.0, 0.024989925797871786
643.0, 0.03011878293522676
644.0, 0.027401162227905694
645.0, 0.03288018333731193
646.0, 0.02820707604510493
647.0, 0.024566423026957347
648.0, 0.023961903461256734
649.0, 0.02855411954705363
650.0, 0.018759729462206907
651.0, 0.028813171406082052
652.0, 0.026586838787103297
653.0, 0.02387170225427809
654.0, 0.021039324258204463
655.0, 0.025071652590048735
656.0, 0.023557107214790075
657.0, 0.023808601175981898
658.0, 0.02470250340091082
659.0, 0.025474666242617856
660.0, 0.018032869200679178
661.0, 0.023762745383249455
662.0, 0.02129803995049072
663.0, 0.020747105768983306
664.0, 0.023657518991851402
665.0, 0.02315758881473334
666.0, 0.020566429504725352
667.0, 0.029828743212773533
668.0, 0.02524472904664796
669.0, 0.030234356059727588
670.0, 0.031027350676301038
671.0, 0.028577804857435662
672.0, 0.03010030926135345
673.0, 0.032884273538991475
674.0, 0.03807376613172389
675.0, 0.043180996564598034
676.0, 0.04776961251577704
677.0, 0.05140556419227059
678.0, 0.05565420799377001
679.0, 0.05851947286655161
680.0, 0.07261401202303239
681.0, 0.0698234068772274
682.0, 0.07530255407417612
683.0, 0.07884864800709852
684.0, 0.0930965656140615
685.0, 0.09986006261706547
686.0, 0.11418468303697389
687.0, 0.1314503259890536
688.0, 0.13392170985475293
689.0, 0.14878336198629039
690.0, 0.16768880708054842
691.0, 0.1851886637956317
692.0, 0.20154652516502286
693.0, 0.21899961225029005
694.0, 0.2516748178907834
695.0, 0.27884383629908743
696.0, 0.294565131642219
697.0, 0.3312279051069474
698.0, 0.3697085988012764
699.0, 0.4037178282642512
700.0, 0.44705983098733393
701.0, 0.49210881701030984
702.0, 0.5263591889490805
703.0, 0.5789444452350245
704.0, 0.6417935296113632
705.0, 0.6974356103895338
706.0, 0.7639577107874381
707.0, 0.8531529751118078
708.0, 0.9023786679590141
709.0, 0.9608069235473025
710.0, 0.9957862364875738
711.0, 0.9846970713802149
712.0, 0.9306817868114114
713.0, 0.8530224395015414
714.0, 0.764181363025081
715.0, 0.6382969648093396
716.0, 0.5475519899500537
717.0, 0.45373018839142787
718.0, 0.3861155157661617
719.0, 0.3281652532982589
720.0, 0.27188741463872224
721.0, 0.2434124906147501
722.0, 0.20078504340319947
723.0, 0.18135920012958703
724.0, 0.15392088433965195
725.0, 0.13096562778264098
726.0, 0.12334073147968545
727.0, 0.10772240212873724
728.0, 0.09534818532461692
729.0, 0.08926554252863149
730.0, 0.08629618360413743
731.0, 0.07481159892893162
732.0, 0.07021500619026884
733.0, 0.06577182214996433
734.0, 0.06765416399445984
735.0, 0.06806829707353532
736.0, 0.06424035221122772
737.0, 0.06082428678296736
738.0, 0.0635764117044237
739.0, 0.06630017657709267
740.0, 0.07133393316108726
741.0, 0.06812873687602938
742.0, 0.07257923092707108
743.0, 0.0723010752803418
744.0, 0.08114895222565557
745.0, 0.08094109923639088
746.0, 0.09014136884069739
747.0, 0.09169468538555524
748.0, 0.09088860293688773
749.0, 0.09554429530309047
750.0, 0.09894203806648313
751.0, 0.10219248373050946
752.0, 0.09907261289172782
753.0, 0.09740657374452401
754.0, 0.09418484294993748
755.0, 0.09623459089043802
756.0, 0.09464970916578143
757.0, 0.09492866726517664
758.0, 0.08688684639025811
759.0, 0.08426598248790199
760.0, 0.08239055479110609
761.0, 0.07788370497686514
762.0, 0.07290197238098566
763.0, 0.06651307198476722
764.0, 0.059221384344647354
765.0, 0.05789912227270251
766.0, 0.05699217484611071
767.0, 0.040361473152735666
768.0, 0.04987288118998579
769.0, 0.04296141169294409
770.0, 0.04667116254029762
771.0, 0.04182902257973845
772.0, 0.04021126159374322
773.0, 0.03873443176150889
774.0, 0.039911657129622254
775.0, 0.041646211796023194
776.0, 0.040079993118529035
777.0, 0.039415076202965096
778.0, 0.03913522900347735
779.0, 0.038934233496105676
780.0, 0.042680690316432256
781.0, 0.04391827481073965
782.0, 0.04851672565077573
783.0, 0.04133482843991002
784.0, 0.04348191870365318
785.0, 0.04138595285112836
786.0, 0.040212182240886796
787.0, 0.04364625530551744
788.0, 0.04060840289620246
789.0, 0.038681482493051075
790.0, 0.02869287029824149
791.0, 0.031036063108787156
792.0, 0.028962681759516017
793.0, 0.03006243049715803
794.0, 0.027647045162729988
795.0, 0.025563579438218607
796.0, 0.016792754351708388
797.0, 0.014217062270399823
798.0, 0.013074208912404043
799.0, 0.01629584857972057
800.0, 0.013408942324355185
801.0, 0.010843718348874522
802.0, 0.009173101705558826
803.0, 0.009765510322556754
804.0, 0.007850184406427731
805.0, 0.009221638660786909
806.0, 0.005917262432621516
807.0, 0.005814444444396998
808.0, 0.006249239110139397
809.0, 0.0026877396887188317
810.0, 0.003449187141577644
811.0, 0.007767679731388674
812.0, 0.002682435220256809
813.0, 0.0006351008455586382
814.0, 0.0009001563331112168
815.0, 0.0024838013204197874
816.0, 0.0014659595782740393
817.0, 0.004118280170559027
818.0, 0.001271320886229757
819.0, 0.0025529067292213636
820.0, 0.003937785067688414
821.0, 0.006118848968968715
822.0, 0.000805881829077012
823.0, 0.0008846280713701597
824.0, 0.004495047883016195
825.0, 0.0013541420101822186
826.0, 0.0035992972006999593
827.0, 0.002631918431208996
828.0, 0.00171817930937524
829.0, 0.0028787794566033803
830.0, 0.0067053281691996725
831.0, 0.0018367582270698438
832.0, 0.0016982398829473169
833.0, 0.000388563920486344
834.0, 0.0013909176750848946
835.0, 0.0010018809555449436
836.0, 0.0015466674410827136
837.0, 0.00015368359641111022
838.0, 0.0012034261294160487
839.0, 0.002352304070745625
840.0, 0.0019388131878223407
841.0, 0.0011499521785551961
842.0, 0.0001758756720717455
843.0, 0.0034194064833187434
844.0, 0.000621467854230767
845.0, 0.003576328119714173
846.0, 0.004258409127677229
847.0, 0.0006989185193324609
848.0, 0.0019655538226602655
849.0, 0.0027103877518116185
850.0, 0.004052348787986562
851.0, 0.006925773362868663
852.0, 0.005860197994433141
853.0, 0.0024914233925480327
854.0, 0.0012726239166295737
855.0, 0.004208014632378005
856.0, 0.002035845259347591
857.0, 0.0038598649700514183
858.0, 0.00462346144636268
859.0, 0.004877307955930706
860.0, 0.005417580828166676
861.0, 0.0018508297682179634
862.0, 0.003523938754980868
863.0, 0.00507015468588664
864.0, 0.009196517392580924
865.0, 0.0031140155918031095
866.0, 0.003346167068962577
867.0, 0.004979240646010472
868.0, 0.004092202925522196
869.0, 0.0032472190861320732
870.0, 0.003493040785221927
871.0, 0.005687595146286738
872.0, 0.0022173663341537317
873.0, 0.0066330203613810595
874.0, 0.005910684335374269
875.0, 0.006758111655552476
876.0, 0.005890429275879624
877.0, 0.0045726305642566556
878.0, 0.004221774294466543
879.0, 0.0017207093117555072
880.0, 0.00588181292041711
881.0, 0.0036755945290193317
882.0, 0.005655838635856602
883.0, 0.0014459432277124451
884.0, 0.007291161658215381
885.0, 0.005385575609659177
886.0, 0.005406382384260618
887.0, 0.006706341471898069
888.0, 0.0081898715990931
889.0, 0.009910367147309971
890.0, 0.010838035289061902
891.0, 0.009264087408860788
892.0, 0.010871698569339621
893.0, 0.011652271340965088
894.0, 0.013385975586885484
895.0, 0.014637690170873074
896.0, 0.01929160058272511
897.0, 0.01919575211893035
898.0, 0.026725854494257018
899.0, 0.025650232486066158
900.0, 0.02977360640717561
901.0, 0.0292178137903086
902.0, 0.03241720798146311
903.0, 0.032365737143506455
904.0, 0.037998590186530415
905.0, 0.042781782295570114
906.0, 0.042317122127605515
907.0, 0.04862987713192245
908.0, 0.04702184110098443
909.0, 0.04847375667935823
910.0, 0.053106126715928084
911.0, 0.05388727240352845
912.0, 0.05653272285583852
913.0, 0.055229084830662314
914.0, 0.05435315264818355
915.0, 0.05307255789462255
916.0, 0.05326816197844373
917.0, 0.05516070017370254
918.0, 0.051981214380520314
919.0, 0.05216026739097565
920.0, 0.04849205732599343
921.0, 0.04553732975698687
922.0, 0.039736794201227846
923.0, 0.04065255695759678
924.0, 0.03909855912320706
925.0, 0.03462047662844478
926.0, 0.036449618662060965
927.0, 0.03439253829126721
928.0, 0.03444756203505742
929.0, 0.027350931514785737
930.0, 0.02807651617519267
931.0, 0.028447935881571112
932.0, 0.030024460958449822
933.0, 0.029489118734048077
934.0, 0.027182629027825204
935.0, 0.027700585380354272
936.0, 0.02919536813246178
937.0, 0.026964902464061396
938.0, 0.027068574492550936
939.0, 0.021067590687111278
940.0, 0.03016239007350034
941.0, 0.02605979293338067
942.0, 0.02775192337368984
943.0, 0.026846637384359332
944.0, 0.028483744818807957
945.0, 0.026514498369081343
946.0, 0.02814588576103496
947.0, 0.031793785934111723
948.0, 0.03062835811159098
949.0, 0.030741349743548464
950.0, 0.03496721007629479
951.0, 0.040852180028999645
952.0, 0.036758201835329844
953.0, 0.041091308939403645
954.0, 0.0385984226954762
955.0, 0.039236547118924575
956.0, 0.04069628098489074
957.0, 0.04017081138247931
958.0, 0.03685007828935187
959.0, 0.03446047305315658
960.0, 0.030196521902207243
961.0, 0.029726226392056118
962.0, 0.02976459168003136
963.0, 0.03151071951861241
964.0, 0.023308635257511794
965.0, 0.015955202781136022
966.0, 0.01675040576277849
967.0, 0.017306735673492096
968.0, 0.013190832283395413
969.0, 0.014710631383519477
970.0, 0.009524976843431426
971.0, 0.015199575191921062
972.0, 0.012146841797047966
973.0, 0.01092889486240983
974.0, 0.010044715662853487
975.0, 0.0104313667299478
976.0, 0.009290842697422478
977.0, 0.008610837328629594
978.0, 0.010169234904073572
979.0, 0.011226286540583096
980.0, 0.010226254947965674
981.0, 0.00839290705846033
982.0, 0.010322435337204656
983.0, 0.007479583769667719
984.0, 0.010900904133935647
985.0, 0.00864499991347481
986.0, 0.011686729515359574
987.0, 0.010494087762296106
988.0, 0.00885080593608504
989.0, 0.011381445639327789
990.0, 0.010415410135674156
991.0, 0.009309573800252498
992.0, 0.008093478742227652
993.0, 0.00777889228104174
994.0, 0.009536408382031746
995.0, 0.00592481708428768
996.0, 0.006144907992238037
997.0, 0.0007315675051243044
998.0, 0.0049490303806960945
999.0, 0.00886024531451947
1000.0, 0.006854362918932911
1001.0, 0.002601712130882971
1002.0, 0.0013252595520483355
1003.0, 0.003875284137441532
1004.0, 0.0036454783937762076
1005.0, 0.0016468276335005964
1006.0, 0.0030865991118959094
1007.0, 0.00512510063388435
1008.0, 0.001012101307167636
1009.0, 0.007214619369787027
1010.0, 0.009849339055172827
1011.0, 0.006711279722201889
1012.0, 0.00882343205444353
1013.0, 0.0018840905773913992
1014.0, 0.004568948176028893
1015.0, 0.004069116209962225
1016.0, 0.004207526302951534
1017, 0.0
1018, 0.0
1019, 0.0
1020, 0.0
1021, 0.0
1022, 0.0
1023, 0.0
1024, 0.0
1025, 0.0
1026, 0.0
1027, 0.0
1028, 0.0
1029, 0.0
1030, 0.0
1031, 0.0
1032, 0.0
1033, 0.0
1034, 0.0
1035, 0.0
1036, 0.0
1037, 0.0
1038, 0.0
1039, 0.0
1040, 0.0
1041, 0.0
1042, 0.0
1043, 0.0
1044, 0.0
1045, 0.0
1046, 0.0
1047, 0.0
1048, 0.0
1049, 0.0
1050, 0.0
1051, 0.0
1052, 0.0
1053, 0.0
1054, 0.0
1055, 0.0
1056, 0.0
1057, 0.0
1058, 0.0
1059, 0.0
1060, 0.0
1061, 0.0
1062, 0.0
1063, 0.0
1064, 0.0
1065, 0.0
1066, 0.0
1067, 0.0
1068, 0.0
1069, 0.0
1070, 0.0
1071, 0.0
1072, 0.0
1073, 0.0
1074, 0.0
1075, 0.0
1076, 0.0
1077, 0.0
1078, 0.0
1079, 0.0
1080, 0.0
1081, 0.0
1082, 0.0
1083, 0.0
1084, 0.0
1085, 0.0
1086, 0.0
1087, 0.0
1088, 0.0
1089, 0.0
1090, 0.0
1091, 0.0
1092, 0.0
1093, 0.0
1094, 0.0
1095, 0.0
1096, 0.0
1097, 0.0
1098, 0.0
1099, 0.0
1100, 0.0
1101, 0.0
1102, 0.0
1103, 0.0
1104, 0.0
1105, 0.0
1106, 0.0
1107, 0.0
1108, 0.0
1109, 0.0
1110, 0.0
1111, 0.0
1112, 0.0
1113, 0.0
1114, 0.0
1115, 0.0
1116, 0.0
1117, 0.0
1118, 0.0
1119, 0.0
1120, 0.0
1121, 0.0
1122, 0.0
1123, 0.0
1124, 0.0
1125, 0.0
1126, 0.0
1127, 0.0
1128, 0.0
1129, 0.0
1130, 0.0
1131, 0.0
1132, 0.0
1133, 0.0
1134, 0.0
1135, 0.0
1136, 0.0
1137, 0.0
1138, 0.0
1139, 0.0
1140, 0.0
1141, 0.0
1142, 0.0
1143, 0.0
1144, 0.0
1145, 0.0
1146, 0.0
1147, 0.0
1148, 0.0
1149, 0.0
1150, 0.0
1151, 0.0
1152, 0.0
1153, 0.0
1154, 0.0
1155, 0.0
1156, 0.0
1157, 0.0
1158, 0.0
1159, 0.0
1160, 0.0
1161, 0.0
1162, 0.0
1163, 0.0
1164, 0.0
1165, 0.0
1166, 0.0
1167, 0.0
1168, 0.0
1169, 0.0
1170, 0.0
1171, 0.0
1172, 0.0
1173, 0.0
1174, 0.0
1175, 0.0
1176, 0.0
1177, 0.0
1178, 0.0
1179, 0.0
1180, 0.0
1181, 0.0
1182, 0.0
1183, 0.0
1184, 0.0
1185, 0.0
1186, 0.0
1187, 0.0
1188, 0.0
1189, 0.0
1190, 0.0
1191, 0.0
1192, 0.0
1193, 0.0
1194, 0.0
1195, 0.0
1196, 0.0
1197, 0.0
1198, 0.0
1199, 0.0
1200, 0.0
1201, 0.0
1202, 0.0
1203, 0.0
1204, 0.0
1205, 0.0
1206, 0.0
1207, 0.0
1208, 0.0
1209, 0.0
1210, 0.0
1211, 0.0
1212, 0.0
1213, 0.0
1214, 0.0
1215, 0.0
1216, 0.0
1217, 0.0
1218, 0.0
1219, 0.0
1220, 0.0
1221, 0.0
1222, 0.0
1223, 0.0
1224, 0.0
1225, 0.0
1226, 0.0
1227, 0.0
1228, 0.0
1229, 0.0
1230, 0.0
1231, 0.0
1232, 0.0
1233, 0.0
1234, 0.0
1235, 0.0
1236, 0.0
1237, 0.0
1238, 0.0
1239, 0.0
1240, 0.0
1241, 0.0
1242, 0.0
1243, 0.0
1244, 0.0
1245, 0.0
1246, 0.0
1247, 0.0
1248, 0.0
1249, 0.0
1250, 0.0
1251, 0.0
1252, 0.0
1253, 0.0
1254, 0.0
1255, 0.0
1256, 0.0
1257, 0.0
1258, 0.0
1259, 0.0
1260, 0.0
1261, 0.0
1262, 0.0
1263, 0.0
1264, 0.0
1265, 0.0
1266, 0.0
1267, 0.0
1268, 0.0
1269, 0.0
1270, 0.0
1271, 0.0
1272, 0.0
1273, 0.0
1274, 0.0
1275, 0.0
1276, 0.0
1277, 0.0
1278, 0.0
1279, 0.0
1280, 0.0
1281, 0.0
1282, 0.0
1283, 0.0
1284, 0.0
1285, 0.0
1286, 0.0
1287, 0.0
1288, 0.0
1289, 0.0
1290, 0.0
1291, 0.0
1292, 0.0
1293, 0.0
1294, 0.0
1295, 0.0
1296, 0.0
1297, 0.0
1298, 0.0
1299, 0.0
1300, 0.0
1301, 0.0
1302, 0.0
1303, 0.0
1304, 0.0
1305, 0.0
1306, 0.0
1307, 0.0
1308, 0.0
1309, 0.0
1310, 0.0
1311, 0.0
1312, 0.0
1313, 0.0
1314, 0.0
1315, 0.0
1316, 0.0
1317, 0.0
1318, 0.0
1319, 0.0
1320, 0.0
1321, 0.0
1322, 0.0
1323, 0.0
1324, 0.0
1325, 0.0
1326, 0.0
1327, 0.0
1328, 0.0
1329, 0.0
1330, 0.0
1331, 0.0
1332, 0.0
1333, 0.0
1334, 0.0
1335, 0.0
1336, 0.0
1337, 0.0
1338, 0.0
1339, 0.0
1340, 0.0
1341, 0.0
1342, 0.0
1343, 0.0
1344, 0.0
1345, 0.0
1346, 0.0
1347, 0.0
1348, 0.0
1349, 0.0
1350, 0.0
1351, 0.0
1352, 0.0
1353, 0.0
1354, 0.0
1355, 0.0
1356, 0.0
1357, 0.0
1358, 0.0
1359, 0.0
1360, 0.0
1361, 0.0
1362, 0.0
1363, 0.0
1364, 0.0
1365, 0.0
1366, 0.0
1367, 0.0
1368, 0.0
1369, 0.0
1370, 0.0
1371, 0.0
1372, 0.0
1373, 0.0
1374, 0.0
1375, 0.0
1376, 0.0
1377, 0.0
1378, 0.0
1379, 0.0
1380, 0.0
1381, 0.0
1382, 0.0
1383, 0.0
1384, 0.0
1385, 0.0
1386, 0.0
1387, 0.0
1388, 0.0
1389, 0.0
1390, 0.0
1391, 0.0
1392, 0.0
1393, 0.0
1394, 0.0
1395, 0.0
1396, 0.0
1397, 0.0
1398, 0.0
1399, 0.0
1400, 0.0
1401, 0.0
1402, 0.0
1403, 0.0
1404, 0.0
1405, 0.0
1406, 0.0
1407, 0.0
1408, 0.0
1409, 0.0
1410, 0.0
1411, 0.0
1412, 0.0
1413, 0.0
1414, 0.0
1415, 0.0
1416, 0.0
1417, 0.0
1418, 0.0
1419, 0.0
1420, 0.0
1421, 0.0
1422, 0.0
1423, 0.0
1424, 0.0
1425, 0.0
1426, 0.0
1427, 0.0
1428, 0.0
1429, 0.0
1430, 0.0
1431, 0.0
1432, 0.0
1433, 0.0
1434, 0.0
1435, 0.0
1436, 0.0
1437, 0.0
1438, 0.0
1439, 0.0
1440, 0.0
1441, 0.0
1442, 0.0
1443, 0.0
1444, 0.0
1445, 0.0
1446, 0.0
1447, 0.0
1448, 0.0
1449, 0.0
1450, 0.0
1451, 0.0
1452, 0.0
1453, 0.0
1454, 0.0
1455, 0.0
1456, 0.0
1457, 0.0
1458, 0.0
1459, 0.0
1460, 0.0
1461, 0.0
1462, 0.0
1463, 0.0
1464, 0.0
1465, 0.0
1466, 0.0
1467, 0.0
1468, 0.0
1469, 0.0
1470, 0.0
1471, 0.0
1472, 0.0
1473, 0.0
1474, 0.0
1475, 0.0
1476, 0.0
1477, 0.0
1478, 0.0
1479, 0.0
1480, 0.0
1481, 0.0
1482, 0.0
1483, 0.0
1484, 0.0
1485, 0.0
1486, 0.0
1487, 0.0
1488, 0.0
1489, 0.0
1490, 0.0
1491, 0.0
1492, 0.0
1493, 0.0
1494, 0.0
1495, 0.0
1496, 0.0
1497, 0.0
1498, 0.0
1499, 0.0
1500, 0.0
1501, 0.0
1502, 0.0
1503, 0.0
1504, 0.0
1505, 0.0
1506, 0.0
1507, 0.0
1508, 0.0
1509, 0.0
1510, 0.0
1511, 0.0
1512, 0.0
1513, 0.0
1514, 0.0
1515, 0.0
1516, 0.0
1517, 0.0
1518, 0.0
1519, 0.0
1520, 0.0
1521, 0.0
1522, 0.0
1523, 0.0
1524, 0.0
1525, 0.0
1526, 0.0
1527, 0.0
1528, 0.0
1529, 0.0
1530, 0.0
1531, 0.0
1532, 0.0
1533, 0.0
1534, 0.0
1535, 0.0
1536, 0.0
1537, 0.0
1538, 0.0
1539, 0.0
1540, 0.0
1541, 0.0
1542, 0.0
1543, 0.0
1544, 0.0
1545, 0.0
1546, 0.0
1547, 0.0
1548, 0.0
1549, 0.0
1550, 0.0
1551, 0.0
1552, 0.0
1553, 0.0
1554, 0.0
1555, 0.0
1556, 0.0
1557, 0.0
1558, 0.0
1559, 0.0
1560, 0.0
1561, 0.0
1562, 0.0
1563, 0.0
1564, 0.0
1565, 0.0
1566, 0.0
1567, 0.0
1568, 0.0
1569, 0.0
1570, 0.0
1571, 0.0
1572, 0.0
1573, 0.0
1574, 0.0
1575, 0.0
1576, 0.0
1577, 0.0
1578, 0.0
1579, 0.0
1580, 0.0
1581, 0.0
1582, 0.0
1583, 0.0
1584, 0.0
1585, 0.0
1586, 0.0
1587, 0.0
1588, 0.0
1589, 0.0
1590, 0.0
1591, 0.0
1592, 0.0
1593, 0.0
1594, 0.0
1595, 0.0
1596, 0.0
1597, 0.0
1598, 0.0
1599, 0.0
