30, 0.0
31, 0.0
32, 0.0
33, 0.0
34, 0.0
35, 0.0
36, 0.0
37, 0.0
38, 0.0
39, 0.0
40, 0.0
41, 0.0
42, 0.0
43, 0.0
44, 0.0
45, 0.0
46, 0.0
47, 0.0
48, 0.0
49, 0.0
50, 0.0
51, 0.0
52, 0.0
53, 0.0
54, 0.0
55, 0.0
56, 0.0
57, 0.0
58, 0.0
59, 0.0
60, 0.0
61, 0.0
62, 0.0
63, 0.0
64, 0.0
65, 0.0
66, 0.0
67, 0.0
68, 0.0
69, 0.0
70, 0.0
71, 0.0
72, 0.0
73, 0.0
74, 0.0
75, 0.0
76, 0.0
77, 0.0
78, 0.0
79, 0.0
80, 0.0
81, 0.0
82, 0.0
83, 0.0
84, 0.0
85, 0.0
86, 0.0
87, 0.0
88, 0.0
89, 0.0
90, 0.0
91, 0.0
92, 0.0
93, 0.0
94, 0.0
95, 0.0
96, 0.0
97, 0.0
98, 0.0
99, 0.0
100, 0.0
101, 0.0
102, 0.0
103, 0.0
104, 0.0
105, 0.0
106.0, 0.013264543113875888
107.0, 0.019342715763632307
108.0, 0.008993028958237075
109.0, 0.0011581105979241533
110.0, 0.0009672616653258397
111.0, 0.0035384595217884543
112.0, 0.00748987551094566
113.0, 0.015361245810942926
114.0, 0.022589688683034896
115.0, 0.02863835094149806
116.0, 0.02812968346473579
117.0, 0.023204755062279005
118.0, 0.036088496866917855
119.0, 0.03465503150380629
120.0, 0.04243519435457315
121.0, 0.06558580418567966
122.0, 0.0606514152779874
123.0, 0.06362973765595253
124.0, 0.07832511029392017
125.0, 0.09037026844055851
126.0, 0.08621661175797295
127.0, 0.10440133721116471
128.0, 0.12129676585466548
129.0, 0.13416413663200236
130.0, 0.15429077735407545
131.0, 0.17003925961786168
132.0, 0.18165002949050715
133.0, 0.19152856877628638
134.0, 0.20225958891093127
135.0, 0.2178213128891144
136.0, 0.23163086479443254
137.0, 0.24502043197791648
138.0, 0.2590530636787952
139.0, 0.2675662344081859
140.0, 0.27791497837219575
141.0, 0.2631683356357662
142.0, 0.22130356215855032
143.0, 0.181805575412074
144.0, 0.14541851088793364
145.0, 0.10759213785443078
146.0, 0.07599195484124895
147.0, 0.06302339820284614
148.0, 0.04706236962416308
149.0, 0.04353390508271429
150.0, 0.039952974050803905
151.0, 0.018352143061632097
152.0, 0.02963422137671211
153.0, 0.03272220221893008
154.0, 0.032552990487297685
155.0, 0.04288576919787606
156.0, 0.04482005918073832
157.0, 0.04590681875096684
158.0, 0.04072344638058416
159.0, 0.0397863434896868
160.0, 0.049784033281832986
161.0, 0.05426528931770373
162.0, 0.05570444152076591
163.0, 0.06122470252057693
164.0, 0.06358225380786524
165.0, 0.05977217360283929
166.0, 0.06010367188116238
167.0, 0.06033950986292306
168.0, 0.05458652679368003
169.0, 0.048154365547249244
170.0, 0.042467829033831374
171.0, 0.036902010055931495
172.0, 0.03536566156191799
173.0, 0.04103550404012276
174.0, 0.03350448054478717
175.0, 0.03546531393723695
176.0, 0.04689399518151705
177.0, 0.04971986816998048
178.0, 0.044400290861004645
179.0, 0.04068027292015052
180.0, 0.04093751124749157
181.0, 0.04261579821378379
182.0, 0.040419954634718695
183.0, 0.04145387380665557
184.0, 0.0458474116391898
185.0, 0.05058077120733747
186.0, 0.051690400613951144
187.0, 0.04866805130578418
188.0, 0.04513442350040814
189.0, 0.04798811632700874
190.0, 0.05311534132270205
191.0, 0.02700929857616433
192.0, 0.025041735745226775
193.0, 0.028520751043451986
194.0, 0.020477214264588737
195.0, 0.013389807587198432
196.0, 0.007976172282516193
197.0, 0.01233541641613399
198.0, 0.01750199510368023
199.0, 0.011653571614192879
200.0, 0.0052071352550732775
201.0, 0.016370278949142416
202.0, 0.020920917955022413
203.0, 0.00479707996385338
204.0, 0.0008350289129428444
205.0, 0.0046463510666385375
206.0, 0.006198116791742592
207.0, 0.0023289492096323183
208.0, 0.015564710502422873
209.0, 0.0053594413569179565
210.0, 0.004523367841956128
211.0, 0.003197482770514323
212.0, 0.005243376899348496
213.0, 0.001876574116024575
214.0, 0.0019896737779652655
215.0, 0.006651152956959155
216.0, 0.012636633337927887
217.0, 0.0022319745881656146
218.0, 0.01478041426228623
219.0, 0.0034811720900999026
220.0, 0.008425838617360439
221.0, 0.00566351821303648
222.0, 0.005072528693532817
223.0, 0.002970801904685979
224.0, 0.008837301757923209
225.0, 0.009850242126314817
226.0, 0.01695943930750703
227.0, 0.005594684819882733
228.0, 0.004611515046757627
229.0, 0.007529062619555353
230.0, 0.005136249300529369
231.0, 0.00461835463606824
232.0, 0.009637960495699333
233.0, 0.00563117860814739
234.0, 0.005731513742260498
235.0, 0.016124180891918756
236.0, 0.030876110095340074
237.0, 0.030664281405940276
238.0, 0.01974007688476895
239.0, 0.00930204091801468
240.0, 0.025456195298919078
241.0, 0.028688742609317384
242.0, 0.03227192541579373
243.0, 0.04020156538249282
244.0, 0.03913800942528931
245.0, 0.04588459972173997
246.0, 0.04015867179671678
247.0, 0.04022526806870047
248.0, 0.06242425272374994
249.0, 0.05053448805220102
250.0, 0.04778988495348277
251.0, 0.050957685709941664
252.0, 0.048744661390341934
253.0, 0.0413712403561698
254.0, 0.049587276398277334
255.0, 0.05163933711023712
256.0, 0.04207240459670769
257.0, 0.035997466047674904
258.0, 0.052047857064926165
259.0, 0.0472346318710623
260.0, 0.044678367577113715
261.0, 0.046456392765000375
262.0, 0.041997266749687144
263.0, 0.03799733943216852
264.0, 0.03367664241017708
265.0, 0.027706530641233504
266.0, 0.016914192861442273
267.0, 0.003748072879335885
268.0, 0.0121977592785764
269.0, 0.0050969599512400215
270.0, 0.0017229192446763658
271.0, 0.011137682981583501
272.0, 0.011141170264979707
273.0, 0.0015339717715269529
274.0, 0.003097380942569142
275.0, 0.005334956458178288
276.0, 0.015801014827733464
277.0, 0.003039217417446298
278.0, 0.0075101967374245305
279.0, 0.0016378266286472267
280.0, 0.0021625286293559596
281.0, 0.00418112211011193
282.0, 0.011495140943541916
283.0, 0.024353052237175963
284.0, 0.025427062661533963
285.0, 0.021523512948535013
286.0, 0.0371998751671626
287.0, 0.04317223090840236
288.0, 0.042288715448475026
289.0, 0.04349850674091343
290.0, 0.05302992529148121
291.0, 0.05722562565106859
292.0, 0.06274167700484663
293.0, 0.06969132356177643
294.0, 0.07856402877300724
295.0, 0.09160558319971876
296.0, 0.09671979307454764
297.0, 0.10113841990134197
298.0, 0.10008641668450985
299.0, 0.09910770308370617
300.0, 0.11869971853857322
301.0, 0.12520027771277473
302.0, 0.13254201835706841
303.0, 0.14104000194143793
304.0, 0.14484842591538444
305.0, 0.14729594695667295
306.0, 0.15614828590262034
307.0, 0.1617581741334479
308.0, 0.1591074938680471
309.0, 0.1514962095776246
310.0, 0.15686295514896376
311.0, 0.16111097464511318
312.0, 0.1607493779129381
313.0, 0.1568280194159724
314.0, 0.15223999403943012
315.0, 0.1711873159340637
316.0, 0.1685093331988155
317.0, 0.15489096397776478
318.0, 0.15360814608159995
319.0, 0.16099465356181653
320.0, 0.15700425431768172
321.0, 0.15357748242745461
322.0, 0.15022728365604177
323.0, 0.14741147919965922
324.0, 0.1597803556054801
325.0, 0.16344942157457545
326.0, 0.16440311709063762
327.0, 0.1802117975718261
328.0, 0.20555345843350148
329.0, 0.20006105071960173
330.0, 0.21242399023038236
331.0, 0.22641763248413793
332.0, 0.22719472839432134
333.0, 0.22300386668892755
334.0, 0.24808006996421117
335.0, 0.24292537733175334
336.0, 0.23533282211883166
337.0, 0.24055914448154586
338.0, 0.24659329065606203
339.0, 0.23746641072933694
340.0, 0.2339176639300156
341.0, 0.2352974010338692
342.0, 0.24066233112118762
343.0, 0.25312896587560507
344.0, 0.25270709482239384
345.0, 0.2502164683760502
346.0, 0.24971703102139936
347.0, 0.24546985735006036
348.0, 0.2330726962190681
349.0, 0.23944652040036649
350.0, 0.2368076384679018
351.0, 0.2308544924826349
352.0, 0.23128356978870646
353.0, 0.22950731069487498
354.0, 0.2403396886970739
355.0, 0.23647954531497273
356.0, 0.23347922857275757
357.0, 0.24753480394973187
358.0, 0.2693819963512205
359.0, 0.275232839813396
360.0, 0.2965772135994897
361.0, 0.3207040738832215
362.0, 0.3315683693495576
363.0, 0.34723401155494404
364.0, 0.38042790737315835
365.0, 0.41487760299549864
366.0, 0.4499644149819373
367.0, 0.4920206238699477
368.0, 0.5419006632196709
369.0, 0.5837096995903206
370.0, 0.628071220250692
371.0, 0.655716970615971
372.0, 0.6643642970556216
373.0, 0.6926304672890616
374.0, 0.708313690233923
375.0, 0.7135939102508994
376.0, 0.7334473218787937
377.0, 0.7719358354036964
378.0, 0.7969412618635868
379.0, 0.8267251414867843
380.0, 0.8570187050136611
381.0, 0.8894519119840534
382.0, 0.92441236026436
383.0, 0.951637517075862
384.0, 0.9869194279195546
385.0, 0.9986153812723297
386.0, 0.9828060221148982
387.0, 0.9387597610039077
388.0, 0.8439978521277627
389.0, 0.7119237460608735
390.0, 0.5759979092692395
391.0, 0.4534958844783778
392.0, 0.348770542293866
393.0, 0.2625387958227626
394.0, 0.18636719902924756
395.0, 0.15060020853770426
396.0, 0.11584071224446776
397.0, 0.07613712226388988
398.0, 0.06049960209346022
399.0, 0.04944850480189942
400.0, 0.03223368404828506
401.0, 0.024447544681174615
402.0, 0.02725086206343188
403.0, 0.025716842445218435
404.0, 0.002913189429066504
405.0, 0.007847123996614417
406.0, 0.00920883223176104
407.0, 0.006818416814728883
408.0, 0.0026938747290724493
409.0, 0.00699907340950754
410.0, 0.010584860167886175
411.0, 0.011454125673626187
412.0, 0.00642028137732222
413.0, 0.003987002610739166
414.0, 0.0059302976115930914
415.0, 0.005276007178441559
416.0, 0.006978332928579337
417.0, 0.0029743833438803527
418.0, 0.002245456691333757
419.0, 0.008845636322550927
420.0, 0.003909764083876213
421.0, 0.002489503283762031
422.0, 0.010559397185455639
423.0, 0.0016862669723618205
424.0, 0.011985702851888208
425.0, 0.00418084348979578
426.0, 0.0047225073167955905
427.0, 0.005461971145465785
428.0, 0.004027931060239887
429.0, 0.01109943646324894
430.0, 0.011494398960582918
431.0, 0.01581100072361667
432.0, 0.01679084872505938
433.0, 0.010690702499318748
434.0, 0.005524840870597545
435.0, 0.009839927535544985
436.0, 0.005037168193733503
437.0, 0.0033365683262342187
438.0, 0.008188306205017547
439.0, 0.014014898176158804
440.0, 0.016229373349222937
441.0, 0.02220257634321328
442.0, 0.022970089789373555
443.0, 0.019686485250958667
444.0, 0.019030993167744197
445.0, 0.024048873150921152
446.0, 0.018831497981204558
447.0, 0.022550679547025165
448.0, 0.025790468645545454
449.0, 0.0239946960711293
450.0, 0.022793934614969466
451.0, 0.019027591514750235
452.0, 0.015937188986646558
453.0, 0.01512615063222914
454.0, 0.022604365919872506
455.0, 0.03380300036233579
456.0, 0.026205151970895634
457.0, 0.017346996248151208
458.0, 0.017568175956202556
459.0, 0.02145547809632051
460.0, 0.023999662135915298
461.0, 0.02722799258092037
462.0, 0.020875126313393857
463.0, 0.03083245147427121
464.0, 0.035064203299864344
465.0, 0.031085943977077927
466.0, 0.03645753652595307
467.0, 0.027948161675679192
468.0, 0.035829805821255126
469.0, 0.028629745618668708
470.0, 0.02066692968911952
471.0, 0.02841042061805663
472.0, 0.022348104188036087
473.0, 0.03450325747380286
474.0, 0.02900267787550619
475.0, 0.020652163649977903
476.0, 0.021809012493733432
477.0, 0.022325804666619868
478.0, 0.0010022492304051127
479.0, 0.004288747467762699
480.0, 0.022429655959424363
481.0, 0.033809847631820496
482.0, 0.03208654557806286
483.0, 0.020237473814477904
484.0, 0.01198149909633656
485.0, 0.017230310456034872
486.0, 0.02706729283375596
487.0, 0.027599128235773426
488.0, 0.020119526485628692
489.0, 0.02927614247901655
490.0, 0.037293355330598424
491.0, 0.03050373654866647
492.0, 0.02597675233248969
493.0, 0.03044563256780677
494.0, 0.019136447747878076
495.0, 0.0267559359224821
496.0, 0.01594330977452412
497.0, 0.007884815489564418
498.0, 0.011640073618828527
499.0, 0.00816933259191899
500.0, 0.005998780827210842
501.0, 0.011272653768217598
502.0, 0.015259996398681709
503.0, 0.013899871174727386
504.0, 0.011470752107757543
505.0, 0.013957161855791128
506.0, 0.017687810570983415
507.0, 0.012856487199750221
508.0, 0.00959331558081383
509.0, 0.007429386753773418
510.0, 0.0053581282332855
511.0, 0.016989231878459868
512.0, 0.017247712642772004
513.0, 0.01070175352691364
514.0, 0.009426884596368437
515.0, 0.0132769917562107
516.0, 0.01459684854633084
517.0, 0.019293471754321858
518.0, 0.016906406160472308
519.0, 0.012715799658958462
520.0, 0.01730064004902023
521.0, 0.020281509333344685
522.0, 0.0033386238372526507
523.0, 0.002052025856044281
524.0, 0.016549127567466446
525.0, 0.014761733898595185
526.0, 0.007653451890570589
527.0, 0.01768559587865576
528.0, 0.023009323873292808
529.0, 0.019945786874536006
530.0, 0.017757471942785662
531.0, 0.014486049850741357
532.0, 0.006746061417880614
533.0, 0.0026956002062026754
534.0, 0.022576700158856468
535.0, 0.02201680463181916
536.0, 0.009802008065395792
537.0, 0.0018336744580987538
538.0, 0.0027039742437202185
539.0, 0.0033379188922252946
540.0, 0.001054250830915136
541.0, 0.002576283679847884
542.0, 0.0007987264817513463
543.0, 0.00840018398984548
544.0, 0.017015665977956212
545.0, 0.0009147205357997092
546.0, 0.0009146221019683673
547.0, 0.0071637754918010416
548.0, 0.008200464078130007
549.0, 0.009348813519588498
550.0, 0.012230998755814475
551.0, 0.004051809869986672
552.0, 0.0125454168979659
553.0, 0.014626158583599311
554.0, 0.013477606507406427
555.0, 0.015895088262982165
556.0, 0.020701758445297046
557.0, 0.010680549709929483
558.0, 0.005849570607106134
559.0, 0.009378298822877166
560.0, 0.007217478600101902
561.0, 0.005478559664574213
562.0, 0.014278712379953155
563.0, 0.006910406698693281
564.0, 0.010863341934399601
565.0, 0.013553923490611321
566.0, 0.014431241696454086
567.0, 0.013217605129780078
568.0, 0.006835962684481685
569.0, 0.0006537882618649183
570.0, 0.005390101607136888
571.0, 0.012841993162687203
572.0, 0.008911256847202887
573.0, 0.0036089937540169474
574.0, 0.013782172164002448
575.0, 0.00657092288985078
576.0, 0.013233243004110419
577.0, 0.018961213459171553
578.0, 0.007440612015930952
579.0, 0.0024599282728784036
580.0, 0.010370177898360002
581.0, 0.015654257984856486
582.0, 0.007668643316908714
583.0, 0.013503308129800875
584.0, 0.015068704429275184
585.0, 0.004127569446322864
586.0, 0.005738892151916433
587.0, 0.013440949780841809
588.0, 0.014089209037546856
589.0, 0.01087721524917312
590.0, 0.008400869763177977
591.0, 0.008881291593399464
592.0, 0.01120565837180747
593.0, 0.0028743184163385165
594.0, 0.013140964022307473
595.0, 0.011497432600558355
596.0, 0.011352415206064139
597.0, 0.012229859030221309
598.0, 0.0033717149909205366
599.0, 0.008990943778010903
600.0, 0.021722324815106955
601.0, 0.011886280382035302
602.0, 0.008774134767776588
603.0, 0.012173263404468943
604.0, 0.008096733400034875
605.0, 0.010311018750833926
606.0, 0.007783500166950372
607.0, 0.007859350754617135
608.0, 0.005001325987778742
609.0, 0.00764137966296831
610.0, 0.018707917102213437
611.0, 0.020713208859263293
612.0, 0.012398006085537245
613.0, 0.012910006960994477
614.0, 0.015721064643090157
615.0, 0.016813699963423558
616.0, 0.016185765532587822
617.0, 0.016076503037472274
618.0, 0.02177612514314437
619.0, 0.021205608933546862
620.0, 0.022655073921096145
621.0, 0.021394543626987936
622.0, 0.020248359775825116
623.0, 0.023306256381953508
624.0, 0.00909794630353275
625.0, 0.009831546542990727
626.0, 0.009049108288098502
627.0, 0.012847810310209193
628.0, 0.015216304530350451
629.0, 0.010615096567466438
630.0, 0.010450617770972904
631.0, 0.01930676150914553
632.0, 0.017162947222113308
633.0, 0.02138708488815904
634.0, 0.021422040910492195
635.0, 0.018151687139023306
636.0, 0.0253812043375068
637.0, 0.009454954368635917
638.0, 0.008921167912873347
639.0, 0.0113244584845138
640.0, 0.011547742870381014
641.0, 0.01115095144220659
642.0, 0.013797813059802296
643.0, 0.01901737539322992
644.0, 0.00748019880505403
645.0, 0.015614670622794926
646.0, 0.008376322150413227
647.0, 0.00485483910587057
648.0, 0.015176128502449161
649.0, 0.012973297454249246
650.0, 0.016995832419197884
651.0, 0.007900861857544818
652.0, 0.011487093067041971
653.0, 0.02010711843278545
654.0, 0.017266076152281037
655.0, 0.004878107639399794
656.0, 0.013426414137077269
657.0, 0.012190326057962617
658.0, 0.013790202155845647
659.0, 0.005155012836860608
660.0, 0.004532673941135519
661.0, 0.01270608202169334
662.0, 0.021040519769250306
663.0, 0.011437210096720277
664.0, 0.022186337158248748
665.0, 0.02598446746113043
666.0, 0.02086301733349544
667.0, 0.01654614301480782
668.0, 0.014942763568791978
669.0, 0.011091567669232633
670.0, 0.011062290075990008
671.0, 0.02419254741254944
672.0, 0.013465555478514447
673.0, 0.005841831518485068
674.0, 0.011450363700100353
675.0, 0.005965113325872877
676.0, 0.008387939408972865
677.0, 0.017071469932409673
678.0, 0.012091356709145528
679.0, 0.017848300306443014
680.0, 0.022765050776262886
681.0, 0.01479122273187856
682.0, 0.012796327481677746
683.0, 0.008235093228027983
684.0, 0.00857966372198328
685.0, 0.010411680614342844
686.0, 0.01251925677902731
687.0, 0.010234585232325927
688.0, 0.003587218709536268
689.0, 0.001884487670618556
690.0, 0.005556697982945523
691.0, 0.018007887538754336
692.0, 0.019754156045930085
693.0, 0.013111168341338898
694.0, 0.012003361844098184
695.0, 0.019147324017694985
696.0, 0.01658032607620413
697.0, 0.026435155156393213
698.0, 0.018498241088602315
699.0, 0.01694982436659231
700.0, 0.01769735284986268
701.0, 0.008752556873164662
702.0, 0.0008388831177313935
703.0, 0.013033084761026298
704.0, 0.008669375581488769
705.0, 0.011752431788352023
706.0, 0.010848255451228427
707.0, 0.012114019052056137
708.0, 0.017380206901067435
709.0, 0.016594730813557997
710.0, 0.01227290430979134
711.0, 0.02239619159460564
712.0, 0.015482962730024667
713.0, 0.00983194679644244
714.0, 0.0070139649200756824
715.0, 0.005721070999333206
716.0, 0.004905296536148983
717.0, 0.005582037456453265
718.0, 0.01468359878193684
719.0, 0.01628888537608172
720.0, 0.016120508943301408
721.0, 0.010585706049242596
722.0, 0.0057090808535426646
723.0, 0.00841899370019683
724.0, 0.00829465252789908
725.0, 0.0033558109475111406
726.0, 0.010428301634351055
727.0, 0.007250407477470968
728.0, 0.0028980654803757366
729.0, 0.002205134245195115
730.0, 0.002169670192924214
731.0, 0.013612894665647367
732.0, 0.021837724580194406
733.0, 0.011031426668652214
734.0, 0.013847499726764618
735.0, 0.022937609427067573
736.0, 0.019157757777065475
737.0, 0.005628294143168057
738.0, 0.0043934174762084105
739.0, 0.006002301621870614
740.0, 0.009497956789242043
741.0, 0.009509902454634941
742.0, 0.014414075678182661
743.0, 0.017442743224859503
744.0, 0.011809492883254327
745.0, 0.00711772762887213
746.0, 0.00840826103563635
747.0, 0.0028592088285918295
748.0, 0.004324996604122882
749.0, 0.01261669328805671
750.0, 0.01364174589984757
751.0, 0.0074249190833697715
752.0, 0.007433208908270523
753.0, 0.011359572228568164
754.0, 0.02029069238563532
755.0, 0.01778017879070767
756.0, 0.0063100897689587964
757.0, 0.012546229268059147
758.0, 0.019216183530086393
759.0, 0.007131610576870091
760.0, 0.011786941253923721
761.0, 0.014343085307791445
762.0, 0.00776931337638297
763.0, 0.0011820431905711821
764.0, 0.0010115131626674033
765.0, 0.0039087623689666295
766.0, 0.008573896754200611
767.0, 0.012318053586673382
768.0, 0.006524676829649463
769.0, 0.010460046169038775
770.0, 0.013320319112318596
771.0, 0.012026866821715883
772.0, 0.011643867216292098
773.0, 0.007049636999445651
774.0, 0.0014928034371915052
775.0, 0.00813781064275805
776.0, 0.009287621121375095
777.0, 0.0013648608161611622
778.0, 0.004282023651963855
779.0, 0.005352417888170862
780.0, 0.0005737726726330521
781.0, 0.0069048482251303864
782.0, 0.019280464997230542
783.0, 0.016699365554314442
784.0, 0.014060411673178081
785.0, 0.014994356652697195
786.0, 0.011296516622570123
787.0, 0.004881739207714291
788.0, 0.00044155697094379743
789.0, 0.0015596595501607955
790.0, 0.008902458303799302
791.0, 0.009261017509007343
792.0, 0.011082671369974144
793.0, 0.006613884059857445
794.0, 0.0030589162808516567
795.0, 0.003777682073224254
796.0, 0.00594192248685971
797.0, 0.009848028310245262
798.0, 0.002494953137824182
799.0, 0.0017016933904522526
800.0, 0.005263077876743526
801.0, 0.015136962513911395
802.0, 0.018373921429569198
803.0, 0.01678768486523535
804.0, 0.01247389243690044
805.0, 0.006402355196843036
806.0, 0.007900214257716595
807.0, 0.013885230139715479
808.0, 0.011673258110857856
809.0, 0.005077144979592858
810.0, 0.002345992625509148
811.0, 0.0052555600522659375
812.0, 0.010121562965707449
813.0, 0.012561446386739991
814.0, 0.011037975149223955
815.0, 0.011120146118936573
816.0, 0.002259043900729846
817.0, 0.006658772941978089
818.0, 0.010697477677870663
819.0, 0.004502180413777052
820.0, 0.002398503113473705
821.0, 0.008544762698030273
822.0, 0.0056843643477034
823.0, 0.009145032757241722
824.0, 0.019123302336705505
825.0, 0.0024472409284901154
826.0, 0.0059418397422362655
827.0, 0.01435551811007215
828.0, 0.010743134347790229
829.0, 0.006881310794241296
830.0, 0.007480234484495179
831.0, 0.003291622374982671
832.0, 0.007878078753881537
833.0, 0.013460456565104728
834.0, 0.010419847887358278
835.0, 0.004008173177843554
836.0, 0.0020603213531784413
837.0, 0.005363014496777961
838.0, 0.0097092158892175
839.0, 0.007063674466609317
840.0, 0.014067014515468029
841.0, 0.00231441037413234
842.0, 0.006353264223608477
843.0, 0.0076665688539959455
844.0, 0.0015599654836313886
845.0, 0.005654972829646206
846.0, 0.010572096156815106
847.0, 0.005433934473772324
848.0, 0.004726303958695176
849.0, 0.00890585419233052
850.0, 0.0026340495135006533
851.0, 0.007727209463105224
852.0, 0.013154074880010058
853.0, 0.006287445578683329
854.0, 0.004316380687556042
855.0, 0.013522505056453318
856.0, 0.0035314686262589517
857.0, 0.014766011168178297
858.0, 0.01923704069662136
859.0, 0.012057801177892074
860.0, 0.0036148408344890775
861.0, 0.0004904578929274975
862.0, 0.0011306625886040866
863.0, 0.0032914364225888598
864.0, 0.014533108359674037
865.0, 0.009900303791543962
866.0, 0.010083247131253366
867.0, 0.005678252006377448
868.0, 0.00925211132064066
869.0, 0.007175595680618589
870.0, 0.005934965382523543
871.0, 0.014482556793026999
872.0, 0.007566510484609437
873.0, 0.00043878446669839765
874.0, 0.007142180594407218
875.0, 0.004690037312312448
876.0, 0.010134605567175232
877.0, 0.012784982246666217
878.0, 0.0066075251150814265
879.0, 0.010991437315465376
880.0, 0.01842142481933984
881.0, 0.002647229553723865
882.0, 0.007273916740890868
883.0, 0.009986017172035459
884.0, 0.00777789513011035
885.0, 0.0016667423192142023
886.0, 0.0010560609500063285
887.0, 0.0068029347795688505
888.0, 0.008302643026331071
889.0, 0.00622395913785154
890.0, 0.012744221450589894
891.0, 0.005940244036533121
892.0, 0.013844448190426253
893.0, 0.00766641692428526
894.0, 0.0006059413482118796
895.0, 0.0012669016244581926
896.0, 0.010470804060663594
897.0, 0.010211025426776243
898.0, 0.0021786221486893953
899.0, 0.005822394359931932
900.0, 0.0034191727029186476
901.0, 0.007161838623910977
902.0, 0.010419463417790412
903.0, 0.009517921448313062
904.0, 0.018128508466519633
905.0, 0.013011564384908742
906.0, 0.0003572188670145824
907.0, 0.0038251361769294397
908.0, 0.010855320323180626
909.0, 0.0030853285262683024
910.0, 0.004224972471584499
911.0, 0.002446012528924677
912.0, 0.01308156885797564
913.0, 0.012750583889435336
914.0, 0.007813250074656797
915.0, 0.005161805502021077
916.0, 0.004021350932924706
917.0, 0.011057316596710592
918.0, 0.004666559029650563
919.0, 0.005977700366467309
920.0, 0.00030111790367772016
921.0, 0.013827134668672227
922.0, 0.007138684566784438
923.0, 0.005561226772366158
924.0, 0.009662228688613113
925.0, 0.009480737112328831
926.0, 0.012138207741455121
927.0, 0.013615480837741592
928.0, 0.0038379150140424516
929.0, 0.0027958063973522996
930.0, 0.0053567812557500025
931.0, 0.015202148498696057
932.0, 0.012532327368166094
933.0, 0.018070306721070666
934.0, 0.017435983661098792
935.0, 0.006697152504522273
936.0, 0.015161239857059722
937.0, 0.013849120989530358
938.0, 0.0015961494983283014
939.0, 0.0015798689260868614
940.0, 0.0017278837500313564
941.0, 0.004084288808632576
942.0, 0.012323749175822848
943.0, 0.01514732524018766
944.0, 0.01561843353499112
945.0, 0.018350067498930415
946.0, 0.017430583977639795
947.0, 0.017006993784261067
948.0, 0.017180614156818153
949.0, 0.024520944003620284
950.0, 0.012555392531516702
951.0, 0.004882445842637784
952.0, 0.0016515669104346076
953.0, 0.0009460070656113732
954.0, 0.001990688074152363
955.0, 0.011271407195280324
956.0, 0.015495330711658727
957.0, 0.007900822746092186
958.0, 0.008937741698484459
959.0, 0.013959142331657452
960.0, 0.010064282845565025
961.0, 0.005457352102112573
962.0, 0.015679077602707973
963.0, 0.017749015191876286
964.0, 0.010192182820117359
965.0, 0.008440047811403433
966.0, 0.007905814806541279
967.0, 0.0014925392182839363
968.0, 0.001652095384871956
969.0, 0.003973592071705875
970.0, 0.01413424016753493
971.0, 0.01841460093527468
972.0, 0.014659307053548017
973.0, 0.006850070814101654
974.0, 0.00977247944190689
975.0, 0.015104192334786158
976.0, 0.012178736058899594
977.0, 0.009289353697503503
978.0, 0.003975274890876866
979.0, 0.007455487899404
980.0, 0.002885049171282365
981.0, 0.005865242586567263
982.0, 0.004661922570019114
983.0, 0.003918392134744949
984.0, 0.012162956567745267
985.0, 0.02041781366717027
986.0, 0.020429235115699773
987.0, 0.013152012611716444
988.0, 0.010930259141606535
989.0, 0.013446467747128118
990.0, 0.006053531970860006
991.0, 0.00907305466398912
992.0, 0.0015517310450917808
993.0, 0.01120921566336947
994.0, 0.017036518330687207
995.0, 0.007482636106312381
996.0, 0.014194232224512559
997.0, 0.027323663693454105
998.0, 0.022563281133464126
999.0, 0.02802091114311464
1000.0, 0.02271212676004167
1001.0, 0.020721850769675542
1002.0, 0.019508712823697642
1003.0, 0.009454725809779869
1004.0, 0.004866905681771995
1005.0, 0.00678754360425961
1006.0, 0.01253573690156096
1007.0, 0.01767696165128219
1008.0, 0.014233674097292214
1009.0, 0.008751725425927332
1010.0, 0.014635962241504142
1011.0, 0.013926141151650358
1012.0, 0.0037546439134185767
1013.0, 0.0006602385947400578
1014.0, 0.0091603863777671
1015.0, 0.01272322384569339
1016.0, 0.006961719734418845
1017.0, 0.000710278080895027
1018.0, 0.002714215159974213
1019.0, 0.00123741414021904
1020.0, 0.004527403583453003
1021.0, 0.011347913074076862
1022.0, 0.011887425052628797
1023.0, 0.011506888016964442
1024.0, 0.0030847377443326152
1025.0, 0.008396197460769467
1026.0, 0.016549574659848968
1027.0, 0.005074822444809555
1028.0, 0.0011109296670343055
1029.0, 0.0009062266786873121
1030.0, 0.011414327963772342
1031.0, 0.016903170433996088
1032.0, 0.007946715825877656
1033.0, 0.009078121012548233
1034.0, 0.004984330958813974
1035.0, 0.01407095006948107
1036.0, 0.014861734842448132
1037.0, 0.016296950576315344
1038.0, 0.010084741637984344
1039.0, 0.010734631131685718
1040.0, 0.003829476279976752
1041.0, 0.0017055766927809904
1042.0, 0.0068785620708629765
1043.0, 0.014520757223218744
1044.0, 0.019715626680812247
1045.0, 0.015788846840288653
1046.0, 0.017439465266329206
1047.0, 0.013297335376221273
1048.0, 0.020767622067735237
1049.0, 0.009864756347245771
1050.0, 0.005886214459617676
1051.0, 0.013180814405586334
1052.0, 0.007630418366798028
1053.0, 0.012226544281738937
1054.0, 0.010634866628444746
1055.0, 0.01084575665836293
1056.0, 0.02051957086489973
1057.0, 0.017823285349765024
1058.0, 0.015029774648057657
1059.0, 0.02799762798451521
1060.0, 0.01938991187277834
1061.0, 0.011997598293420071
1062.0, 0.0019437843953581588
1063.0, 0.01034476405398583
1064.0, 0.006004307010964058
1065.0, 0.0014565241647639246
1066.0, 0.011057496273364905
1067.0, 0.014832034659068299
1068.0, 0.014013566389455482
1069.0, 0.016703434733723373
1070.0, 0.015089266840725873
1071.0, 0.01770107204219489
1072.0, 0.024487828289688474
1073.0, 0.01920712101834204
1074.0, 0.02396420813665483
1075.0, 0.005340549290893319
1076.0, 0.01116660469560862
1077.0, 0.020343305893611684
1078.0, 0.007833003677240097
1079.0, 0.008303626339710136
1080.0, 0.01700630125379609
1081.0, 0.013625688830798253
1082.0, 0.013240815888612048
1083.0, 0.018989296774077347
1084.0, 0.011258169427459448
1085.0, 0.003569813256996036
1086.0, 0.0009307220696997393
1087.0, 0.006798516866925671
1088.0, 0.017416828443796818
1089.0, 0.014076556701794475
1090.0, 0.013140190563878107
1091.0, 0.014540811633608892
1092.0, 0.0020402026533945395
1093.0, 0.0018998109604086598
1094.0, 0.010224541977905734
1095.0, 0.00823007093515157
1096.0, 0.009773782201189173
1097.0, 0.01613529945726955
1098.0, 0.0027455970990713533
1099.0, 0.00705162990465638
1100.0, 0.015554922752770322
1101.0, 0.011625104168839445
1102.0, 0.009357623324819844
1103.0, 0.0020143145021566623
1104.0, 0.007036997456152454
1105.0, 0.008596724822422862
1106.0, 0.014195335236070613
1107.0, 0.009555795815506222
1108.0, 0.00906205395519023
1109.0, 0.007499819072703381
1110.0, 0.004214846489559526
1111.0, 0.005165258305114034
1112.0, 0.0074916653691985075
1113.0, 0.015133754378755292
1114.0, 0.02279935586056799
1115.0, 0.013969552915630928
1116.0, 0.014894928045143944
1117.0, 0.021258445998052707
1118.0, 0.018112811664855104
1119.0, 0.013593312178136384
1120.0, 0.007431407021802273
1121.0, 0.009627026493620435
1122.0, 0.005457064212213363
1123.0, 0.0015341672827256761
1124.0, 0.00605436241568769
1125.0, 0.008213450990159006
1126.0, 0.0090988239886199
1127.0, 0.02119038958342506
1128.0, 0.0217697923401915
1129.0, 0.013694186649129655
1130.0, 0.022036994545921958
1131.0, 0.02809805509894901
1132.0, 0.017774033685566435
1133.0, 0.014513253547529506
1134.0, 0.010176385245838653
1135.0, 0.013883556612293516
1136.0, 0.013495292071620672
1137.0, 0.013309459117509975
1138.0, 0.009721886721698512
1139.0, 0.005647774209108459
1140.0, 0.002891405007045054
1141.0, 0.0013775056376330874
1142.0, 0.00924647611186754
1143.0, 0.013394974175107844
1144.0, 0.009814623692192426
1145.0, 0.009736733954209788
1146.0, 0.009858389223194323
1147.0, 0.010811128060264397
1148.0, 0.014686695426576553
1149.0, 0.020419266901537395
1150.0, 0.010996137881269923
1151.0, 0.01494866079030172
1152.0, 0.010294419480209333
1153.0, 0.01467849925083953
1154.0, 0.009701225207986577
1155.0, 0.0013481408347921925
1156.0, 0.015134175631828877
1157.0, 0.024469703732994435
1158.0, 0.01920628290300594
1159.0, 0.020880923581708434
1160.0, 0.015420975656363701
1161.0, 0.020601433741853633
1162.0, 0.00025264970162882337
1163.0, 0.007926865019265731
1164.0, 0.006162999526646675
1165.0, 0.017618230388408103
1166.0, 0.019771029561878827
1167.0, 0.010983126846965138
1168.0, 0.012134880500919704
1169.0, 0.015565768169033703
1170.0, 0.01406792095763311
1171.0, 0.019516194476020408
1172.0, 0.021308252237791377
1173.0, 0.016866000609040498
1174.0, 0.011086641952043981
1175.0, 0.007181526692370153
1176.0, 0.01529390021191808
1177.0, 0.022615332371775418
1178.0, 0.02432515566845877
1179.0, 0.007736221205285633
1180.0, 0.0018113043865301691
1181.0, 0.007893888398405095
1182.0, 0.01217690142186845
1183.0, 0.003882136959102245
1184.0, 0.0204719323561376
1185.0, 0.01852876317324776
1186.0, 0.013763643368987544
1187.0, 0.015497645713269585
1188.0, 0.014478726638955006
1189.0, 0.010666941752002113
1190.0, 0.01686201797530091
1191.0, 0.026069248550471425
1192.0, 0.02010583955907944
1193.0, 0.010114130019548187
1194.0, 0.014530341264338838
1195.0, 0.01377386626850371
1196.0, 0.0018157329937218652
1197.0, 0.0005228551683531791
1198.0, 0.005747473091704813
1199.0, 0.014941390719610856
1200.0, 0.015656076220607315
1201.0, 0.006748053411913771
1202.0, 0.013785537741784558
1203.0, 0.009396061515919258
1204.0, 0.00890727081184451
1205.0, 0.005213901185980394
1206.0, 0.007119997963602776
1207.0, 0.0019001453938852137
1208.0, 0.0016906695480038397
1209.0, 0.00475953373458198
1210.0, 0.0017604627139033756
1211.0, 0.007599800401664792
1212.0, 0.011724983957661776
1213.0, 0.010808300080183419
1214.0, 0.012690578249519116
1215.0, 0.009280481032939563
1216.0, 0.018322789285236545
1217.0, 0.014001694502562181
1218.0, 0.010004147292115448
1219.0, 0.014812648915320286
1220.0, 0.01082389187967051
1221.0, 0.016771164508307054
1222.0, 0.012994316321859935
1223.0, 0.011759395131197238
1224.0, 0.007791480782670667
1225.0, 0.014545865771561738
1226.0, 0.011076901387709108
1227.0, 0.0019563163119925286
1228.0, 0.010529712130909193
1229.0, 0.011767894577684455
1230.0, 0.012547523223179098
1231.0, 0.015967487469906505
1232.0, 0.019570014528095994
1233.0, 0.015098100570459093
1234.0, 0.013791457083430651
1235.0, 0.015223055142209249
1236.0, 0.013613232313409288
1237.0, 0.01991147289719839
1238.0, 0.011951241915407518
1239.0, 0.01344240992282307
1240.0, 0.01068337916148663
1241.0, 0.002315533618379357
1242.0, 0.017032834073496105
1243.0, 0.013615462909663307
1244.0, 0.01259911194863499
1245.0, 0.005977667838628984
1246.0, 0.0018279903242050166
1247.0, 0.012374344837985194
1248.0, 0.010038210024525155
1249.0, 0.0162810205539759
1250.0, 0.009476509110645999
1251.0, 0.01728181615685249
1252.0, 0.011109578614383444
1253.0, 0.012209886178543803
1254.0, 0.015612552373420302
1255.0, 0.013898008210751704
1256.0, 0.0064221521918109165
1257.0, 0.013669469731607702
1258.0, 0.017120338078547466
1259.0, 0.003340431066291138
1260.0, 0.007223999773852394
1261.0, 0.017408607769540847
1262.0, 0.011425890680798769
1263.0, 0.007275391693556772
1264.0, 0.01867199893727016
1265.0, 0.020004322063262647
1266.0, 0.00815674986595739
1267.0, 0.0053473602606028195
1268.0, 0.010393929534907222
1269.0, 0.01112890647839777
1270.0, 0.0037661494371104497
1271.0, 0.0328228934911445
1272.0, 0.00562160370750169
1273.0, 0.015597534122723616
1274.0, 0.011521189384598082
1275.0, 0.007104691274219129
1276.0, 0.014463036900299249
1277.0, 0.01325662321631663
1278.0, 0.0066706627970812005
1279.0, 0.013659069513021876
1280.0, 0.010757687686536357
1281.0, 0.0050740448289404065
1282.0, 0.0016037221480798749
1283.0, 0.012955618231491658
1284.0, 0.012228783923304336
1285.0, 0.00555468424674354
1286.0, 0.005900566061457249
1287, 0.0
1288, 0.0
1289, 0.0
1290, 0.0
1291, 0.0
1292, 0.0
1293, 0.0
1294, 0.0
1295, 0.0
1296, 0.0
1297, 0.0
1298, 0.0
1299, 0.0
1300, 0.0
1301, 0.0
1302, 0.0
1303, 0.0
1304, 0.0
1305, 0.0
1306, 0.0
1307, 0.0
1308, 0.0
1309, 0.0
1310, 0.0
1311, 0.0
1312, 0.0
1313, 0.0
1314, 0.0
1315, 0.0
1316, 0.0
1317, 0.0
1318, 0.0
1319, 0.0
1320, 0.0
1321, 0.0
1322, 0.0
1323, 0.0
1324, 0.0
1325, 0.0
1326, 0.0
1327, 0.0
1328, 0.0
1329, 0.0
1330, 0.0
1331, 0.0
1332, 0.0
1333, 0.0
1334, 0.0
1335, 0.0
1336, 0.0
1337, 0.0
1338, 0.0
1339, 0.0
1340, 0.0
1341, 0.0
1342, 0.0
1343, 0.0
1344, 0.0
1345, 0.0
1346, 0.0
1347, 0.0
1348, 0.0
1349, 0.0
1350, 0.0
1351, 0.0
1352, 0.0
1353, 0.0
1354, 0.0
1355, 0.0
1356, 0.0
1357, 0.0
1358, 0.0
1359, 0.0
1360, 0.0
1361, 0.0
1362, 0.0
1363, 0.0
1364, 0.0
1365, 0.0
1366, 0.0
1367, 0.0
1368, 0.0
1369, 0.0
1370, 0.0
1371, 0.0
1372, 0.0
1373, 0.0
1374, 0.0
1375, 0.0
1376, 0.0
1377, 0.0
1378, 0.0
1379, 0.0
1380, 0.0
1381, 0.0
1382, 0.0
1383, 0.0
1384, 0.0
1385, 0.0
1386, 0.0
1387, 0.0
1388, 0.0
1389, 0.0
1390, 0.0
1391, 0.0
1392, 0.0
1393, 0.0
1394, 0.0
1395, 0.0
1396, 0.0
1397, 0.0
1398, 0.0
1399, 0.0
1400, 0.0
1401, 0.0
1402, 0.0
1403, 0.0
1404, 0.0
1405, 0.0
1406, 0.0
1407, 0.0
1408, 0.0
1409, 0.0
1410, 0.0
1411, 0.0
1412, 0.0
1413, 0.0
1414, 0.0
1415, 0.0
1416, 0.0
1417, 0.0
1418, 0.0
1419, 0.0
1420, 0.0
1421, 0.0
1422, 0.0
1423, 0.0
1424, 0.0
1425, 0.0
1426, 0.0
1427, 0.0
1428, 0.0
1429, 0.0
1430, 0.0
1431, 0.0
1432, 0.0
1433, 0.0
1434, 0.0
1435, 0.0
1436, 0.0
1437, 0.0
1438, 0.0
1439, 0.0
1440, 0.0
1441, 0.0
1442, 0.0
1443, 0.0
1444, 0.0
1445, 0.0
1446, 0.0
1447, 0.0
1448, 0.0
1449, 0.0
1450, 0.0
1451, 0.0
1452, 0.0
1453, 0.0
1454, 0.0
1455, 0.0
1456, 0.0
1457, 0.0
1458, 0.0
1459, 0.0
1460, 0.0
1461, 0.0
1462, 0.0
1463, 0.0
1464, 0.0
1465, 0.0
1466, 0.0
1467, 0.0
1468, 0.0
1469, 0.0
1470, 0.0
1471, 0.0
1472, 0.0
1473, 0.0
1474, 0.0
1475, 0.0
1476, 0.0
1477, 0.0
1478, 0.0
1479, 0.0
1480, 0.0
1481, 0.0
1482, 0.0
1483, 0.0
1484, 0.0
1485, 0.0
1486, 0.0
1487, 0.0
1488, 0.0
1489, 0.0
1490, 0.0
1491, 0.0
1492, 0.0
1493, 0.0
1494, 0.0
1495, 0.0
1496, 0.0
1497, 0.0
1498, 0.0
1499, 0.0
1500, 0.0
1501, 0.0
1502, 0.0
1503, 0.0
1504, 0.0
1505, 0.0
1506, 0.0
1507, 0.0
1508, 0.0
1509, 0.0
1510, 0.0
1511, 0.0
1512, 0.0
1513, 0.0
1514, 0.0
1515, 0.0
1516, 0.0
1517, 0.0
1518, 0.0
1519, 0.0
1520, 0.0
1521, 0.0
1522, 0.0
1523, 0.0
1524, 0.0
1525, 0.0
1526, 0.0
1527, 0.0
1528, 0.0
1529, 0.0
1530, 0.0
1531, 0.0
1532, 0.0
1533, 0.0
1534, 0.0
1535, 0.0
1536, 0.0
1537, 0.0
1538, 0.0
1539, 0.0
1540, 0.0
1541, 0.0
1542, 0.0
1543, 0.0
1544, 0.0
1545, 0.0
1546, 0.0
1547, 0.0
1548, 0.0
1549, 0.0
1550, 0.0
1551, 0.0
1552, 0.0
1553, 0.0
1554, 0.0
1555, 0.0
1556, 0.0
1557, 0.0
1558, 0.0
1559, 0.0
1560, 0.0
1561, 0.0
1562, 0.0
1563, 0.0
1564, 0.0
1565, 0.0
1566, 0.0
1567, 0.0
1568, 0.0
1569, 0.0
1570, 0.0
1571, 0.0
1572, 0.0
1573, 0.0
1574, 0.0
1575, 0.0
1576, 0.0
1577, 0.0
1578, 0.0
1579, 0.0
1580, 0.0
1581, 0.0
1582, 0.0
1583, 0.0
1584, 0.0
1585, 0.0
1586, 0.0
1587, 0.0
1588, 0.0
1589, 0.0
1590, 0.0
1591, 0.0
1592, 0.0
1593, 0.0
1594, 0.0
1595, 0.0
1596, 0.0
1597, 0.0
1598, 0.0
1599, 0.0
