30, 0.0
31, 0.0
32, 0.0
33, 0.0
34, 0.0
35, 0.0
36, 0.0
37, 0.0
38, 0.0
39, 0.0
40, 0.0
41, 0.0
42, 0.0
43, 0.0
44, 0.0
45, 0.0
46, 0.0
47, 0.0
48, 0.0
49, 0.0
50, 0.0
51, 0.0
52, 0.0
53, 0.0
54, 0.0
55, 0.0
56, 0.0
57, 0.0
58, 0.0
59, 0.0
60, 0.0
61, 0.0
62, 0.0
63, 0.0
64, 0.0
65, 0.0
66, 0.0
67, 0.0
68, 0.0
69, 0.0
70, 0.0
71, 0.0
72, 0.0
73, 0.0
74, 0.0
75, 0.0
76, 0.0
77, 0.0
78, 0.0
79, 0.0
80, 0.0
81, 0.0
82, 0.0
83, 0.0
84, 0.0
85, 0.0
86, 0.0
87, 0.0
88, 0.0
89, 0.0
90, 0.0
91, 0.0
92, 0.0
93, 0.0
94, 0.0
95, 0.0
96, 0.0
97, 0.0
98, 0.0
99, 0.0
100, 0.0
101, 0.0
102, 0.0
103, 0.0
104, 0.0
105, 0.0
106, 0.0
107, 0.0
108, 0.0
109, 0.0
110, 0.0
111, 0.0
112, 0.0
113, 0.0
114, 0.0
115, 0.0
116, 0.0
117, 0.0
118, 0.0
119, 0.0
120, 0.0
121, 0.0
122, 0.0
123, 0.0
124, 0.0
125, 0.0
126, 0.0
127, 0.0
128, 0.0
129, 0.0
130, 0.0
131, 0.0
132, 0.0
133, 0.0
134, 0.0
135, 0.0
136, 0.0
137, 0.0
138, 0.0
139, 0.0
140, 0.0
141, 0.0
142, 0.0
143, 0.0
144, 0.0
145, 0.0
146, 0.0
147, 0.0
148, 0.0
149.0, 0.0004415349924934666
150.0, 0.00012517939086312128
151.0, 0.002171172280101082
152.0, 0.005056605907792272
153.0, 0.009107289297299799
154.0, 0.014606565309612334
155.0, 0.019060188372638676
156.0, 0.024423444474124555
157.0, 0.02990647641172476
158.0, 0.03558481036035295
159.0, 0.0428117836735389
160.0, 0.05001182025121293
161.0, 0.05771121150590464
162.0, 0.06661143461136797
163.0, 0.07696906841003756
164.0, 0.08707912705778419
165.0, 0.10048173537460488
166.0, 0.11469935549480399
167.0, 0.12692773202398386
168.0, 0.14059828778052422
169.0, 0.15356280016503596
170.0, 0.16133937398113074
171.0, 0.16102132591418974
172.0, 0.15382372776712605
173.0, 0.13795154168753165
174.0, 0.11679081164763454
175.0, 0.09536980863785946
176.0, 0.0768602077605176
177.0, 0.06210435880934143
178.0, 0.04967534988422389
179.0, 0.038961219991210924
180.0, 0.030161655096134356
181.0, 0.023984557615513658
182.0, 0.01784643800971488
183.0, 0.013071541891067571
184.0, 0.010118388501532575
185.0, 0.006738096936041639
186.0, 0.004666288247775956
187.0, 0.002932723435105293
188.0, 0.0006802143809639872
189.0, 0.00223325741985924
190.0, 0.003040315488075849
191.0, 0.0026600565345612165
192.0, 0.002342455730975614
193.0, 0.0025368279730880764
194.0, 0.001726107666057615
195.0, 0.0007319345806830775
196.0, 0.0004251051421709598
197.0, 0.000490492712817092
198.0, 0.0016983914673548693
199.0, 0.002832231529952735
200.0, 0.004645764512064859
201.0, 0.00779264366551024
202.0, 0.011274408839268555
203.0, 0.013739835688753498
204.0, 0.018148588508562914
205.0, 0.02281520150407107
206.0, 0.026138884820666206
207.0, 0.03105974594611322
208.0, 0.03611571565194006
209.0, 0.04149085847117505
210.0, 0.047754934558082995
211.0, 0.055163746457905095
212.0, 0.060648185812832316
213.0, 0.06538615102406566
214.0, 0.06899927327750544
215.0, 0.07077266265612112
216.0, 0.07240160997804089
217.0, 0.07229812427755364
218.0, 0.07151728139091061
219.0, 0.06983879752522279
220.0, 0.06445649939608533
221.0, 0.061366737197657104
222.0, 0.05752075700436902
223.0, 0.052332578410098196
224.0, 0.046993087089897315
225.0, 0.04064636014261994
226.0, 0.035904877679267894
227.0, 0.03188894721961031
228.0, 0.02733409091024327
229.0, 0.022739459258449106
230.0, 0.020986902022643337
231.0, 0.01947298813185676
232.0, 0.017654710197193998
233.0, 0.016992334836302476
234.0, 0.015424355700444804
235.0, 0.01553521389500388
236.0, 0.01704817121963755
237.0, 0.01858327654850078
238.0, 0.019699197366791984
239.0, 0.021621507068330662
240.0, 0.023357092051788278
241.0, 0.025160019135455874
242.0, 0.02835324364934637
243.0, 0.03145575003565054
244.0, 0.03456039944225373
245.0, 0.03632221168376628
246.0, 0.03672098205700341
247.0, 0.039893717500435064
248.0, 0.040947799744909676
249.0, 0.040304985384737355
250.0, 0.0391474714683834
251.0, 0.03832496448225172
252.0, 0.036876116051664055
253.0, 0.03443059587467368
254.0, 0.03174817771869497
255.0, 0.028989695815576675
256.0, 0.024155333081320222
257.0, 0.022938459588762377
258.0, 0.021284734537736973
259.0, 0.0178737240901686
260.0, 0.015138971144573925
261.0, 0.01348287492490085
262.0, 0.011672983937563467
263.0, 0.010047377247393135
264.0, 0.008934944413866209
265.0, 0.0072360276897005795
266.0, 0.006916201654248564
267.0, 0.008448096367436245
268.0, 0.010540187644707828
269.0, 0.011174127382882175
270.0, 0.011836153194973692
271.0, 0.01215382859048822
272.0, 0.012441106100160826
273.0, 0.013190341790741524
274.0, 0.014413710139807027
275.0, 0.012588585931670988
276.0, 0.014195967697401316
277.0, 0.016479420800044185
278.0, 0.013375756104019908
279.0, 0.010811493483834405
280.0, 0.009006730401219472
281.0, 0.0072201398617325364
282.0, 0.005345019543789751
283.0, 0.0039468290128275175
284.0, 0.0013459060202494193
285.0, 8.857348388251322e-05
286.0, 0.0010155807125697576
287.0, 0.0030416966545541535
288.0, 0.004067189295385953
289.0, 0.004481622696441794
290.0, 0.005206698949623974
291.0, 0.00545042640511127
292.0, 0.003983927862793809
293.0, 0.005246218901390888
294.0, 0.004948348727298975
295.0, 0.004036080779504589
296.0, 0.003694683190058059
297.0, 0.0016551835666138788
298.0, 0.0012704275002719733
299.0, 0.004409824977809349
300.0, 0.006469504102956435
301.0, 0.007409771794844719
302.0, 0.01131533884142329
303.0, 0.01429623007359428
304.0, 0.01800873770286789
305.0, 0.022606078148513172
306.0, 0.026071673557008224
307.0, 0.03109851071854696
308.0, 0.03775032653040262
309.0, 0.043842417887947925
310.0, 0.04826977583443563
311.0, 0.05276869821693435
312.0, 0.05744137542756995
313.0, 0.06267053882811967
314.0, 0.06879365355817069
315.0, 0.07552289808614152
316.0, 0.08059597764277
317.0, 0.08575468084967852
318.0, 0.08972981756619304
319.0, 0.0930685098677848
320.0, 0.09804292497820218
321.0, 0.10286450235365396
322.0, 0.10488133612826964
323.0, 0.10490181347889883
324.0, 0.10458830228037197
325.0, 0.10498138049934098
326.0, 0.10735857156829368
327.0, 0.10727789721636885
328.0, 0.1074150399781545
329.0, 0.11123879145527497
330.0, 0.1117069521491947
331.0, 0.1133658691603514
332.0, 0.11637630618346163
333.0, 0.12011358784506203
334.0, 0.12402540228395123
335.0, 0.1288593917636013
336.0, 0.13276307142592103
337.0, 0.13687486338793328
338.0, 0.14086965016550393
339.0, 0.14217829698243195
340.0, 0.14654914560553947
341.0, 0.14960952267042446
342.0, 0.15062196821304552
343.0, 0.15045708616854833
344.0, 0.1487956614267303
345.0, 0.15019681417086397
346.0, 0.1491436716627184
347.0, 0.14614440895805772
348.0, 0.1445311923438947
349.0, 0.1416289214797061
350.0, 0.14133864655354653
351.0, 0.13995513050799702
352.0, 0.13753157507434693
353.0, 0.13672818504837753
354.0, 0.13368990502411465
355.0, 0.13432609176180668
356.0, 0.1360333126808054
357.0, 0.13676907958890402
358.0, 0.1380822296651087
359.0, 0.14273032309756054
360.0, 0.14677382861842878
361.0, 0.15159014527608158
362.0, 0.15827285718859546
363.0, 0.16473874135772634
364.0, 0.17181372013346155
365.0, 0.17868814910326777
366.0, 0.18640520550923595
367.0, 0.19509373854234305
368.0, 0.20167298913181755
369.0, 0.2080688025165419
370.0, 0.21570188546240385
371.0, 0.22237187827841293
372.0, 0.22566738414331283
373.0, 0.22797406828481606
374.0, 0.22608608213879178
375.0, 0.21973309702513377
376.0, 0.21103587519690067
377.0, 0.20127731035739851
378.0, 0.18559525114468578
379.0, 0.16831087839137776
380.0, 0.15172487398151752
381.0, 0.1348201928892403
382.0, 0.11645366550604704
383.0, 0.10382401940164833
384.0, 0.09088711920194258
385.0, 0.0790045269180494
386.0, 0.07119595304377319
387.0, 0.06759836230339418
388.0, 0.06244127470159784
389.0, 0.05719610997041538
390.0, 0.053939422938147644
391.0, 0.05262864474561915
392.0, 0.05184253133233649
393.0, 0.05100751034636135
394.0, 0.04999114773759226
395.0, 0.04799054980390771
396.0, 0.04497650565575983
397.0, 0.04197823635376829
398.0, 0.03907001439227579
399.0, 0.03329669370477396
400.0, 0.02884183091276523
401.0, 0.028042778682288553
402.0, 0.02629415211670065
403.0, 0.02372740562729539
404.0, 0.023717647864454884
405.0, 0.024146258807948188
406.0, 0.023555768984137446
407.0, 0.024902973398545067
408.0, 0.023929823765877926
409.0, 0.025402618859005893
410.0, 0.02771321875746376
411.0, 0.02807443562067898
412.0, 0.027943788991564196
413.0, 0.028465577421153892
414.0, 0.030117425567891883
415.0, 0.03134069629666049
416.0, 0.03136432533323373
417.0, 0.03176963592842037
418.0, 0.031246866520283256
419.0, 0.03166661678626567
420.0, 0.032337582407775955
421.0, 0.031689762805458585
422.0, 0.028890280986045652
423.0, 0.03083985549627046
424.0, 0.03066840852098295
425.0, 0.027412108021543966
426.0, 0.0236731657527346
427.0, 0.023853591202658442
428.0, 0.020845164266129458
429.0, 0.0181474878203312
430.0, 0.015462544505377835
431.0, 0.011457322929015731
432.0, 0.007541199402236368
433.0, 0.004770344333377766
434.0, 0.0018586355446648802
435.0, 0.0007948154155165106
436.0, 0.0020023815846978866
437.0, 0.0018870939747111348
438.0, 0.0032840195461368397
439.0, 0.004398782106551672
440.0, 0.005169457959274336
441.0, 0.00551482228876048
442.0, 0.004654197443739885
443.0, 0.005086677423254126
444.0, 0.004667406990364152
445.0, 0.0033176447783581486
446.0, 0.002017833353953145
447.0, 0.0013335427304947555
448.0, 0.0010337107419651616
449.0, 0.00289273375110479
450.0, 0.004549824548168223
451.0, 0.006845134101037339
452.0, 0.010096732924787955
453.0, 0.013578076030748263
454.0, 0.015384964552944753
455.0, 0.01669121060416405
456.0, 0.018889125602943438
457.0, 0.021609096451294343
458.0, 0.02300780164211504
459.0, 0.023288900083602276
460.0, 0.02366192027758612
461.0, 0.024070025707238558
462.0, 0.023770190779566033
463.0, 0.022496748358400945
464.0, 0.022054853931677734
465.0, 0.021421181535379353
466.0, 0.02087064949708716
467.0, 0.021194100677361223
468.0, 0.021246970441618503
469.0, 0.02192183568802111
470.0, 0.022207131136552174
471.0, 0.022339919079097204
472.0, 0.022850681760015486
473.0, 0.022954434636741062
474.0, 0.022783453715215365
475.0, 0.024004680185114712
476.0, 0.0243414528682816
477.0, 0.02293151130093075
478.0, 0.023346321069127905
479.0, 0.023525527846325413
480.0, 0.022255529494116928
481.0, 0.021148646876749146
482.0, 0.021002038382289045
483.0, 0.02063290908586336
484.0, 0.019121059712257246
485.0, 0.01701277455772333
486.0, 0.0176369107751531
487.0, 0.019839378879074332
488.0, 0.01968805957986235
489.0, 0.019229641266465942
490.0, 0.02033651994775204
491.0, 0.01980209634932325
492.0, 0.019083508154882443
493.0, 0.020904135931729167
494.0, 0.022161593582835558
495.0, 0.021507036206846075
496.0, 0.02104881601075929
497.0, 0.020129747081782896
498.0, 0.017881473025924566
499.0, 0.015876807008737094
500.0, 0.014770575936293329
501.0, 0.012934243468330291
502.0, 0.0110145084419194
503.0, 0.00955430400340115
504.0, 0.008063083301404922
505.0, 0.006133298006198518
506.0, 0.004465599751860718
507.0, 0.002576664828859385
508.0, 0.0005813242005744838
509.0, 0.0014863138848386123
510.0, 0.002709625202637132
511.0, 0.0020927276475447574
512.0, 0.0006357912652248836
513.0, 0.0008978746687690096
514.0, 0.0005469399282008835
515.0, 0.00037485528235931226
516.0, 0.0009840648237439903
517.0, 0.0011365641911042453
518.0, 0.0001406699039522819
519.0, 0.0009480762190295158
520.0, 0.00010523573754196057
521.0, 0.0008969076584585756
522.0, 0.0018921853270055544
523.0, 0.003400529473354225
524.0, 0.0047248240324150185
525.0, 0.004647570990380276
526.0, 0.004413304878594604
527.0, 0.006058910607944611
528.0, 0.006322515255658782
529.0, 0.005515404003459715
530.0, 0.00569472617578338
531.0, 0.007457629548254789
532.0, 0.008358780428251725
533.0, 0.009779018355464637
534.0, 0.009129451491905367
535.0, 0.008173814104426393
536.0, 0.011380570423904402
537.0, 0.011921462106287306
538.0, 0.011350298853336454
539.0, 0.012212839675424726
540.0, 0.013478558448366488
541.0, 0.013594800415877456
542.0, 0.014060546613640318
543.0, 0.01352418423671702
544.0, 0.014004523557304555
545.0, 0.013511255647737959
546.0, 0.012154821963245658
547.0, 0.01298147919901295
548.0, 0.011334117791238767
549.0, 0.010052806613503617
550.0, 0.010231772941235309
551.0, 0.01060155825606455
552.0, 0.010270607699194237
553.0, 0.011557080762489886
554.0, 0.012333418317650198
555.0, 0.012567841318040104
556.0, 0.01374830558666086
557.0, 0.014996072402041892
558.0, 0.014178984118372538
559.0, 0.016287905412535754
560.0, 0.017432689138940145
561.0, 0.019552472864147068
562.0, 0.022921389591105852
563.0, 0.026006915644560025
564.0, 0.027384270450631985
565.0, 0.03009173737302055
566.0, 0.034094345594034174
567.0, 0.03814204809878927
568.0, 0.042175924518600943
569.0, 0.0473288313045127
570.0, 0.05362279228399172
571.0, 0.060297667056245834
572.0, 0.0683331341283518
573.0, 0.07773999661226515
574.0, 0.08743580826933942
575.0, 0.09675726243096248
576.0, 0.10889182975842711
577.0, 0.1213705324811243
578.0, 0.13426888673600695
579.0, 0.14786110889725593
580.0, 0.16188958636424416
581.0, 0.17696376713514514
582.0, 0.18866864653881613
583.0, 0.1980153341203583
584.0, 0.20469500226793735
585.0, 0.2078076962959792
586.0, 0.20725968516727425
587.0, 0.2038987736112452
588.0, 0.19393266559143338
589.0, 0.18462610497019163
590.0, 0.17673337833995786
591.0, 0.16684127240287008
592.0, 0.1568867483739513
593.0, 0.14877194565782487
594.0, 0.14223336424631272
595.0, 0.13357512003974076
596.0, 0.12411502757756725
597.0, 0.11780433980865715
598.0, 0.1116528343662385
599.0, 0.10699850497025697
600.0, 0.10078484844894077
601.0, 0.09377958573146677
602.0, 0.08802777193312378
603.0, 0.0839803899277146
604.0, 0.07765503859222633
605.0, 0.07222199835810479
606.0, 0.06537098843615165
607.0, 0.05833200729901669
608.0, 0.05345947935578207
609.0, 0.04848279261121471
610.0, 0.042492498113374556
611.0, 0.038241416415385567
612.0, 0.034630586331413124
613.0, 0.030510780093690668
614.0, 0.025608722535743984
615.0, 0.019849742467736037
616.0, 0.017758143308812844
617.0, 0.015314752248335608
618.0, 0.013265972885944782
619.0, 0.01134235160221378
620.0, 0.007279839952571951
621.0, 0.0051455211102227885
622.0, 0.005625842149148345
623.0, 0.003583856336581477
624.0, 0.00279435711286784
625.0, 0.00421164318011446
626.0, 0.0013806970555565285
627.0, 3.17185704458885e-05
628.0, 3.1631771524099297e-05
629.0, 0.00015256409662252308
630.0, 0.000325208012041896
631.0, 0.0004738427075467789
632.0, 0.00043046142835228294
633.0, 0.001151723719077371
634.0, 0.0020529307202973657
635.0, 0.0016016873229993452
636.0, 0.001134025063845167
637.0, 0.001630522744600264
638.0, 0.00020735272366676616
639.0, 0.00042249877527575103
640.0, 0.00030307267725027034
641.0, 0.00030554761589631147
642.0, 0.0003600453360079991
643.0, 0.00032962339820063764
644.0, 0.0006841902288531384
645.0, 0.0009066877455368333
646.0, 0.0006416406295735794
647.0, 0.00036508208445542044
648.0, 0.001035508224196692
649.0, 0.002758117108171626
650.0, 0.003301641935145424
651.0, 0.002261720915161752
652.0, 0.004055004670249679
653.0, 0.004780556859319532
654.0, 0.004800665672989361
655.0, 0.007436011508240901
656.0, 0.007242700269892388
657.0, 0.008576403802524455
658.0, 0.009881696591483077
659.0, 0.010707703249747003
660.0, 0.012050165137306524
661.0, 0.014167793851313785
662.0, 0.015229870540554321
663.0, 0.018055735678735196
664.0, 0.019133864708138597
665.0, 0.01987831124533685
666.0, 0.022836853686676692
667.0, 0.02814395196332293
668.0, 0.030275548099383643
669.0, 0.03177382652379249
670.0, 0.03512022806475206
671.0, 0.03882734461181428
672.0, 0.04325050276192559
673.0, 0.04958778160730262
674.0, 0.054037918813262406
675.0, 0.05686053444732837
676.0, 0.06432154214558021
677.0, 0.07007002658363369
678.0, 0.07517136327354255
679.0, 0.08479495947273591
680.0, 0.09166380746236914
681.0, 0.10034089823628974
682.0, 0.10970531077339958
683.0, 0.11877482868443341
684.0, 0.1272914630644833
685.0, 0.1355648316224801
686.0, 0.14467376587435413
687.0, 0.1541762691532143
688.0, 0.1619633176982847
689.0, 0.1703990853431009
690.0, 0.17755879715161202
691.0, 0.18139370168292668
692.0, 0.18486011511644587
693.0, 0.18216685909014416
694.0, 0.1804829702369161
695.0, 0.17673803658005194
696.0, 0.16857555766199497
697.0, 0.15693971131121745
698.0, 0.14593347692326644
699.0, 0.13464885247884878
700.0, 0.12394851710400759
701.0, 0.11235093255056744
702.0, 0.10097475294733917
703.0, 0.09077342894914903
704.0, 0.08139197244900293
705.0, 0.07564041528242836
706.0, 0.06752332477800892
707.0, 0.06085207291835625
708.0, 0.055063259220393575
709.0, 0.048670432207273774
710.0, 0.04297378864968169
711.0, 0.04073891445805124
712.0, 0.03843036770645063
713.0, 0.03427371025530566
714.0, 0.03051592209085155
715.0, 0.028353308877751567
716.0, 0.026536974761905092
717.0, 0.023776809790754246
718.0, 0.021693490591901194
719.0, 0.020164489340852156
720.0, 0.019379787823870204
721.0, 0.017365466660436923
722.0, 0.014385156139050646
723.0, 0.014929122395489769
724.0, 0.014584678566482974
725.0, 0.012576636920080892
726.0, 0.011463013692170326
727.0, 0.010487239108971882
728.0, 0.009604926145619835
729.0, 0.009806012121543889
730.0, 0.007304806536756475
731.0, 0.005686603442588241
732.0, 0.005576506990519588
733.0, 0.005797042576719312
734.0, 0.005834747241723745
735.0, 0.005808669453636795
736.0, 0.005413994972884675
737.0, 0.0044941864879934805
738.0, 0.0016877285759389219
739.0, 0.00013400883754548403
740.0, 0.0006436642210459975
741.0, 0.0013123836187406443
742.0, 0.000700672604621351
743.0, 0.0008589313347867102
744.0, 0.00048153063137597215
745.0, 0.0006991212373231846
746.0, 9.244865677712511e-05
747.0, 0.0005923216855278393
748.0, 0.00045990624846055486
749.0, 0.0013602552742539003
750.0, 0.0025488479654392367
751.0, 0.00173220202196128
752.0, 0.0004053910149161204
753.0, 0.00026597055431885273
754.0, 0.0002652186072824035
755.0, 0.0009222671377891083
756.0, 0.0004899943062790636
757.0, 0.00010636016980931099
758.0, 0.0011961026164814354
759.0, 0.0012912004606626015
760.0, 0.000885098339021594
761.0, 0.0023422392636554606
762.0, 0.0006464240851515996
763.0, 0.0006346521116537383
764.0, 0.0004646681940390608
765.0, 0.002330078569679831
766.0, 0.0032945149429702966
767.0, 0.003654554519564642
768.0, 0.004220953960421387
769.0, 0.0038800958336185284
770.0, 0.005782819021339036
771.0, 0.008665211867583993
772.0, 0.00920628620693029
773.0, 0.008637214450281833
774.0, 0.00988239338952348
775.0, 0.012566930547659526
776.0, 0.01546133423021958
777.0, 0.017433851839273706
778.0, 0.019095293994131964
779.0, 0.020707408215360774
780.0, 0.023161748144864564
781.0, 0.026909141044333305
782.0, 0.02902284805538151
783.0, 0.030342697336579058
784.0, 0.03363187472512484
785.0, 0.03634266070325785
786.0, 0.038673267270514636
787.0, 0.04104781467805895
788.0, 0.04143400403525228
789.0, 0.042671543410084715
790.0, 0.0419276387357304
791.0, 0.042443127912932505
792.0, 0.045799956836894876
793.0, 0.048099799848292
794.0, 0.04791871044155619
795.0, 0.04972156012600612
796.0, 0.04609892189178044
797.0, 0.04525184972962305
798.0, 0.04353840224484785
799.0, 0.04146494970306764
800.0, 0.041120590946170106
801.0, 0.04122350485947805
802.0, 0.03777398846246556
803.0, 0.036572777496548414
804.0, 0.0350751930245107
805.0, 0.03352190978067572
806.0, 0.03331828582925119
807.0, 0.032239695897456545
808.0, 0.027596369676063826
809.0, 0.023476074711824352
810.0, 0.024027551258623252
811.0, 0.020886088753444595
812.0, 0.018035531145855044
813.0, 0.01621787597288932
814.0, 0.014816894226317325
815.0, 0.014088315984367177
816.0, 0.011350136276241825
817.0, 0.007968234597623915
818.0, 0.00496119617498392
819.0, 0.003271828521372317
820.0, 0.001095911008360587
821.0, 0.00278897911319611
822.0, 0.005154988281717058
823.0, 0.005575771894819032
824.0, 0.008089410585411495
825.0, 0.007177726626072136
826.0, 0.008216423196550483
827.0, 0.009283722099917641
828.0, 0.0076550984991610605
829.0, 0.005904361701016045
830.0, 0.00513701100386734
831.0, 0.005629085051761845
832.0, 0.00445717065604837
833.0, 0.0012119713528675091
834.0, 0.0020680472762192263
835.0, 0.004913386973724055
836.0, 0.009568013031258898
837.0, 0.015581300796472464
838.0, 0.0225869602883307
839.0, 0.02761412525926286
840.0, 0.032564109831155576
841.0, 0.03863001285894253
842.0, 0.045261590603187074
843.0, 0.051871168196899416
844.0, 0.058499033247348585
845.0, 0.061095001037574356
846.0, 0.06967642806783828
847.0, 0.07490313411509687
848.0, 0.07644516445878628
849.0, 0.07981839281151022
850.0, 0.08433075277779652
851.0, 0.08363781517757936
852.0, 0.08060836039173716
853.0, 0.07816186199065936
854.0, 0.07861846842857609
855.0, 0.07718329432501027
856.0, 0.07286560698878104
857.0, 0.0694089601329407
858.0, 0.06904048449689726
859.0, 0.06668367606087766
860.0, 0.06438468877832541
861.0, 0.06345037701259175
862.0, 0.06154674032089729
863.0, 0.06021008938437853
864.0, 0.061714203498999254
865.0, 0.06435990005063942
866.0, 0.06867875949828102
867.0, 0.07543883932257524
868.0, 0.08446500356905864
869.0, 0.09813031282381528
870.0, 0.11601657517646495
871.0, 0.13787767186448374
872.0, 0.16593305090864494
873.0, 0.199823533377483
874.0, 0.23430279219987954
875.0, 0.28102495258986027
876.0, 0.3331294445549105
877.0, 0.38772190406716095
878.0, 0.449409721883063
879.0, 0.5178793231957899
880.0, 0.584251188995019
881.0, 0.6510370713077644
882.0, 0.717330083162589
883.0, 0.7814509320121118
884.0, 0.8388637047518581
885.0, 0.8945139279414379
886.0, 0.9437107485823658
887.0, 0.9702778865301112
888.0, 0.9898856380027545
889.0, 0.9986510318374257
890.0, 0.9986655087052656
891.0, 0.983408032355786
892.0, 0.9599034595227651
893.0, 0.931029707720692
894.0, 0.8951644073497355
895.0, 0.8604849575663541
896.0, 0.8197289326405005
897.0, 0.7816707063914297
898.0, 0.7475593754598447
899.0, 0.711755918355423
900.0, 0.6781013987758983
901.0, 0.6505830797753281
902.0, 0.6235285964551948
903.0, 0.596512781257809
904.0, 0.5748162985231211
905.0, 0.5577483499444056
906.0, 0.5345434058737883
907.0, 0.5132445219046667
908.0, 0.4967465416842309
909.0, 0.4778052376576471
910.0, 0.4549261198616517
911.0, 0.44099149889345574
912.0, 0.42349248127708383
913.0, 0.40138051833824634
914.0, 0.38354584839132677
915.0, 0.36670147847886936
916.0, 0.34907898871774246
917.0, 0.3333548915246452
918.0, 0.31508052295748756
919.0, 0.30023354106047206
920.0, 0.28732096685564046
921.0, 0.27203822506268277
922.0, 0.2582332986450358
923.0, 0.24767910826686138
924.0, 0.23896315460157402
925.0, 0.23049593906959534
926.0, 0.2204451886879517
927.0, 0.21460395398273258
928.0, 0.21060656061964508
929.0, 0.20557343234331382
930.0, 0.2039363680354033
931.0, 0.204501834268051
932.0, 0.20386136664712193
933.0, 0.2040803947356821
934.0, 0.2059067233256673
935.0, 0.20910378255190296
936.0, 0.21204260020197344
937.0, 0.21575694518414998
938.0, 0.22013179449689607
939.0, 0.22462890226739105
940.0, 0.22988889617359556
941.0, 0.23626848659818872
942.0, 0.24015395684161736
943.0, 0.24587559456787478
944.0, 0.25038522887501646
945.0, 0.25284127629429864
946.0, 0.25075877304817196
947.0, 0.2448403519076707
948.0, 0.2376681166867942
949.0, 0.22785016815215628
950.0, 0.21026272229951232
951.0, 0.19587313780964621
952.0, 0.17557365801984384
953.0, 0.1557686668592501
954.0, 0.13561093649074926
955.0, 0.11462976548102441
956.0, 0.09658867919874253
957.0, 0.08198328645983158
958.0, 0.06755853184583827
959.0, 0.05820822066495848
960.0, 0.04573436754358683
961.0, 0.0362623872999028
962.0, 0.028376174748101356
963.0, 0.022063346338668043
964.0, 0.01737328385554724
965.0, 0.012521571463829761
966.0, 0.010741936626773668
967.0, 0.006069235560842702
968.0, 0.0021480225246922335
969.0, 0.00042935871679954877
970.0, 0.0018600075618681558
971.0, 0.0020227398544161107
972.0, 0.002764001319923209
973.0, 0.004661265201956151
974.0, 0.004101618040585075
975.0, 0.005186339988211274
976.0, 0.005290495004268004
977.0, 0.006828610130401177
978.0, 0.006424276542648429
979.0, 0.006245221584473408
980.0, 0.0067482185453654414
981.0, 0.0059307531942273065
982.0, 0.0053936975714134194
983.0, 0.005255511798223755
984.0, 0.005076700585153063
985.0, 0.00515389475323581
986.0, 0.003050273056614337
987.0, 0.0019376271449448763
988.0, 0.0009990060897523373
989.0, 0.0020610845959916657
990.0, 0.004491868999154905
991.0, 0.0022787310079191337
992.0, 0.005137417874821259
993.0, 0.005355577218554354
994.0, 0.00492667328122911
995.0, 0.007766231021797669
996.0, 0.010135092414329782
997.0, 0.01046231251604192
998.0, 0.011530066027596791
999.0, 0.012948959673842717
1000.0, 0.014634835018152471
1001.0, 0.014039792768644846
1002.0, 0.015926262260742376
1003.0, 0.017120650576851602
1004.0, 0.01939157531140123
1005.0, 0.020840669427596246
1006.0, 0.020781678458676962
1007.0, 0.02285535686534707
1008.0, 0.025891982017556454
1009.0, 0.025802087245008373
1010.0, 0.0254925452164384
1011.0, 0.027182011291805665
1012.0, 0.028911747943451287
1013.0, 0.030921141627172744
1014.0, 0.032133409963816584
1015.0, 0.03294499576495221
1016.0, 0.03611523684158328
1017.0, 0.0388495355211341
1018.0, 0.03554882545571284
1019.0, 0.038230365880354326
1020.0, 0.039597143606956736
1021.0, 0.04088750771479069
1022.0, 0.04373739902261363
1023.0, 0.046013845333416584
1024.0, 0.04650578088412091
1025.0, 0.04720353758130259
1026.0, 0.048536265081884945
1027.0, 0.05053743953389977
1028.0, 0.05072400590953633
1029.0, 0.052556197547231946
1030.0, 0.05384758220752362
1031.0, 0.05474698838952317
1032.0, 0.055972801870449715
1033.0, 0.05679246626584864
1034.0, 0.05789344673205481
1035.0, 0.05856590716392376
1036.0, 0.061831046488894516
1037.0, 0.06239636657520028
1038.0, 0.06460461560204239
1039.0, 0.06661351499761743
1040.0, 0.06794669669207783
1041.0, 0.07022751672641958
1042.0, 0.073090889429784
1043.0, 0.07499912504534148
1044.0, 0.07649251540722136
1045.0, 0.07992277048640987
1046.0, 0.08318688648381352
1047.0, 0.0854458881420815
1048.0, 0.09018996624913861
1049.0, 0.09627047658089687
1050.0, 0.1017632917179047
1051.0, 0.10668109791421515
1052.0, 0.11114299633288115
1053.0, 0.11529784779273412
1054.0, 0.12191841532253407
1055.0, 0.1287819680518359
1056.0, 0.13608090860621197
1057.0, 0.1415003443443621
1058.0, 0.1465545393826599
1059.0, 0.15213028043502774
1060.0, 0.1562830882451041
1061.0, 0.15769043059382665
1062.0, 0.15900415403468707
1063.0, 0.1587674845413469
1064.0, 0.15938271120840472
1065.0, 0.159163584929287
1066.0, 0.15567037427778105
1067.0, 0.15063200457827455
1068.0, 0.14443799069377078
1069.0, 0.13701291220071452
1070.0, 0.12966447197393846
1071.0, 0.12247507900412792
1072.0, 0.11205812796884046
1073.0, 0.1013044500348536
1074.0, 0.09261576008323821
1075.0, 0.08394430799492204
1076.0, 0.07511160869488433
1077.0, 0.06680455190750635
1078.0, 0.059543210339315415
1079.0, 0.05342286117949219
1080.0, 0.04753646016703048
1081.0, 0.04133811741214507
1082.0, 0.036875663895904284
1083.0, 0.03125481545555569
1084.0, 0.027005793387653663
1085.0, 0.023652181378168935
1086.0, 0.02216902415896236
1087.0, 0.019693764972388905
1088.0, 0.015393616388324288
1089.0, 0.012493370083163747
1090.0, 0.011094925239184882
1091.0, 0.007995582955310407
1092.0, 0.008475460068909908
1093.0, 0.008209868487650464
1094.0, 0.005321554448244592
1095.0, 0.004782837640657379
1096.0, 0.004327034106837724
1097.0, 0.004320158118292983
1098.0, 0.004822949519469868
1099.0, 0.004172733719863907
1100.0, 0.0026552940663471048
1101.0, 0.0003362347460729219
1102.0, 0.0007628533307877652
1103.0, 0.0011661726351268997
1104.0, 0.0013752955083411503
1105.0, 0.000414985647047054
1106.0, 0.00024487448570719827
1107.0, 0.00073121637063816
1108.0, 0.0010050286801452978
1109.0, 0.0012646372852415171
1110.0, 0.001208145828317912
1111.0, 7.931993916394963e-06
1112.0, 0.0006087998601222567
1113.0, 0.0005426003713424676
1114.0, 0.000936962389032728
1115.0, 0.0015278527152434427
1116.0, 0.0005615593345284591
1117.0, 0.0014522177306400467
1118.0, 0.0002979251168395883
1119.0, 0.00040732531941067217
1120.0, 0.00038103721975112835
1121.0, 0.0012710744162129479
1122.0, 0.000678153299978903
1123.0, 0.0003963606375330343
1124.0, 0.00014209824659059978
1125.0, 5.066614272920346e-05
1126.0, 0.0003397067993314437
1127.0, 0.0004385373973791458
1128.0, 0.0004700021745320079
1129.0, 0.0009407391100604194
1130.0, 8.788825889509259e-05
1131.0, 0.0004831287149937502
1132.0, 0.002469573057131207
1133.0, 0.0020358209293880594
1134.0, 0.0019231479696025493
1135.0, 0.0005317645594270318
1136.0, 0.0006255522589425273
1137.0, 0.0008216901319061351
1138.0, 0.002458690816118507
1139.0, 0.0010561868556388282
1140.0, 0.0014528931212891107
1141.0, 0.00014096740728270765
1142.0, 0.00022467200576453613
1143.0, 0.00019547044527094338
1144.0, 0.0009263628787784739
1145.0, 0.0020454494184293645
1146.0, 0.0022291480028546902
1147.0, 0.00203289186812363
1148.0, 0.0016706722567043106
1149.0, 0.002464604173560013
1150.0, 0.0017627336581130606
1151.0, 0.0008253724870775532
1152.0, 0.0006777117522066521
1153.0, 0.0015465801709575813
1154.0, 0.002091138798064735
1155.0, 0.0013765032778743792
1156.0, 0.000883430597222936
1157.0, 0.002478929901459942
1158.0, 0.0027821468804164764
1159.0, 0.0006491344868987281
1160.0, 0.0010519955514778996
1161.0, 0.0025295968680877027
1162.0, 0.0018815831695087105
1163.0, 0.0016668859222625496
1164.0, 0.0008809826824482541
1165.0, 0.0017596013108914569
1166.0, 0.002483866967919956
1167.0, 0.0034658568210382628
1168.0, 0.0025275399831312054
1169.0, 0.0005865518211159128
1170.0, 0.0008822805476580084
1171.0, 0.001027685176932841
1172.0, 0.001032758946271613
1173.0, 0.0025357779727884153
1174.0, 0.0023529183124758307
1175.0, 0.0024078805229262655
1176.0, 0.0016473246211266004
1177.0, 0.0027140470792242776
1178.0, 0.0008116437972214285
1179.0, 0.0002856312424827276
1180.0, 0.00010712637294896013
1181.0, 0.0016612837505002405
1182.0, 0.0016896903691431208
1183.0, 0.0016139521956484459
1184.0, 0.002420798413364439
1185.0, 0.0020633504569620336
1186.0, 0.0028526243092602327
1187.0, 0.0003418330988420646
1188.0, 0.0007668854596852295
1189.0, 0.0016718780889629255
1190.0, 0.0014389536229648316
1191.0, 0.002282576804601386
1192.0, 0.002534695267215957
1193.0, 0.001234649028510411
1194.0, 0.00044733430610013555
1195.0, 0.0009259011253939215
1196.0, 0.0009634220601506843
1197.0, 0.0005243349731600379
1198.0, 0.00029907126519785736
1199.0, 0.0005196301684325598
1200.0, 0.0005099199617967683
1201.0, 0.0026848703789648268
1202.0, 0.0017806725361682201
1203.0, 0.001011337895004109
1204.0, 0.0013652112138760836
1205.0, 0.001443475298298539
1206.0, 0.0004036574526038309
1207.0, 0.00017266632052080332
1208.0, 0.001998327792285503
1209.0, 0.0033852743056243576
1210.0, 0.0005445732506994863
1211.0, 0.00037239080520362925
1212.0, 0.0009514719849722502
1213.0, 0.000581933005806212
1214.0, 0.0007074620702590846
1215.0, 0.0008800892762825089
1216.0, 0.0009387245976581793
1217.0, 0.0021742582156671713
1218.0, 0.0032555052277550536
1219.0, 0.0021605651914819793
1220.0, 0.00035119916224432383
1221.0, 0.0006667688181931216
1222.0, 0.0017878923254540191
1223.0, 0.0014901160700058706
1224.0, 0.00028355414228398217
1225.0, 0.001017491529436796
1226.0, 0.0012834046577199641
1227.0, 0.00232152185558738
1228.0, 0.0012287677954722026
1229.0, 0.0013983570430413236
1230.0, 0.0006998003507751371
1231.0, 0.0002907028509596507
1232.0, 0.0011035565159512092
1233.0, 0.000566680801921567
1234.0, 0.0008859394047700471
1235.0, 0.0020140411336679364
1236.0, 0.0006481017049253762
1237.0, 0.002321136206243316
1238.0, 0.001929224134158336
1239.0, 0.0009703915165353084
1240.0, 0.0007576875736703576
1241.0, 0.0003947212114400782
1242.0, 0.0012948001053679915
1243.0, 0.0011067604373585266
1244.0, 0.0006770514227645805
1245.0, 0.0015009013480374374
1246.0, 0.0021945621020499437
1247.0, 0.001911553054259591
1248.0, 0.0031414225965827095
1249.0, 0.0010168479360435246
1250.0, 0.001070840407306984
1251.0, 0.0015359976947233484
1252.0, 0.0006407357325860833
1253.0, 0.0013635014662789643
1254.0, 0.0018826839404057253
1255.0, 0.0021345767451994313
1256.0, 0.0015778365752962006
1257.0, 0.0011283698063529132
1258.0, 0.0013241439354867142
1259.0, 0.0004273766345518512
1260.0, 0.0004047082831691271
1261.0, 0.0023232118932573474
1262.0, 0.0025382927792065657
1263.0, 0.0009932269443351685
1264.0, 0.00029023562854378545
1265.0, 0.0021223452207181216
1266.0, 0.0034282942690290444
1267.0, 0.0011035040180357018
1268.0, 0.0006405238331051326
1269.0, 0.0012062691976997058
1270.0, 0.0025864714068286475
1271.0, 0.0025552592395572055
1272.0, 0.0016966930729690037
1273.0, 0.002610555417119998
1274.0, 0.0013906412383735839
1275.0, 0.0019694465018824238
1276.0, 0.004865219127767305
1277.0, 0.0026388921780851724
1278.0, 0.0016907008032381453
1279.0, 0.00011912161685507056
1280.0, 0.0017398966957623257
1281.0, 0.0027332015140842584
1282.0, 0.0034285555326491243
1283.0, 0.003773951412187756
1284.0, 0.0024735697762113223
1285.0, 0.0009628265201794039
1286.0, 0.0005685849316600813
1287.0, 0.0005514958869331738
1288.0, 0.0006812031161803763
1289.0, 0.002624195837141786
1290.0, 0.002571133886281228
1291.0, 0.0002279615742995434
1292.0, 0.0022927878629806575
1293.0, 0.0013436622331486233
1294.0, 0.0017618160967727689
1295.0, 0.0019742434336115656
1296.0, 0.0016919697785615607
1297.0, 0.0005258883200403006
1298.0, 0.0020357489403897036
1299.0, 0.0030446644479922825
1300.0, 0.0008483116252050278
1301.0, 0.00019304253118663877
1302.0, 0.0018504765957075159
1303.0, 0.0026301736399498184
1304.0, 0.002280289176557821
1305.0, 0.0016629147461472693
1306.0, 0.002086592555925592
1307.0, 0.0012185405282439255
1308.0, 0.00035547128155016035
1309.0, 0.0026046599188695226
1310.0, 0.0012972478706319366
1311.0, 0.0010706652910410072
1312.0, 0.0007465320223347086
1313.0, 0.0021172081893435376
1314.0, 0.001423074762588498
1315, 0.0
1316, 0.0
1317, 0.0
1318, 0.0
1319, 0.0
1320, 0.0
1321, 0.0
1322, 0.0
1323, 0.0
1324, 0.0
1325, 0.0
1326, 0.0
1327, 0.0
1328, 0.0
1329, 0.0
1330, 0.0
1331, 0.0
1332, 0.0
1333, 0.0
1334, 0.0
1335, 0.0
1336, 0.0
1337, 0.0
1338, 0.0
1339, 0.0
1340, 0.0
1341, 0.0
1342, 0.0
1343, 0.0
1344, 0.0
1345, 0.0
1346, 0.0
1347, 0.0
1348, 0.0
1349, 0.0
1350, 0.0
1351, 0.0
1352, 0.0
1353, 0.0
1354, 0.0
1355, 0.0
1356, 0.0
1357, 0.0
1358, 0.0
1359, 0.0
1360, 0.0
1361, 0.0
1362, 0.0
1363, 0.0
1364, 0.0
1365, 0.0
1366, 0.0
1367, 0.0
1368, 0.0
1369, 0.0
1370, 0.0
1371, 0.0
1372, 0.0
1373, 0.0
1374, 0.0
1375, 0.0
1376, 0.0
1377, 0.0
1378, 0.0
1379, 0.0
1380, 0.0
1381, 0.0
1382, 0.0
1383, 0.0
1384, 0.0
1385, 0.0
1386, 0.0
1387, 0.0
1388, 0.0
1389, 0.0
1390, 0.0
1391, 0.0
1392, 0.0
1393, 0.0
1394, 0.0
1395, 0.0
1396, 0.0
1397, 0.0
1398, 0.0
1399, 0.0
1400, 0.0
1401, 0.0
1402, 0.0
1403, 0.0
1404, 0.0
1405, 0.0
1406, 0.0
1407, 0.0
1408, 0.0
1409, 0.0
1410, 0.0
1411, 0.0
1412, 0.0
1413, 0.0
1414, 0.0
1415, 0.0
1416, 0.0
1417, 0.0
1418, 0.0
1419, 0.0
1420, 0.0
1421, 0.0
1422, 0.0
1423, 0.0
1424, 0.0
1425, 0.0
1426, 0.0
1427, 0.0
1428, 0.0
1429, 0.0
1430, 0.0
1431, 0.0
1432, 0.0
1433, 0.0
1434, 0.0
1435, 0.0
1436, 0.0
1437, 0.0
1438, 0.0
1439, 0.0
1440, 0.0
1441, 0.0
1442, 0.0
1443, 0.0
1444, 0.0
1445, 0.0
1446, 0.0
1447, 0.0
1448, 0.0
1449, 0.0
1450, 0.0
1451, 0.0
1452, 0.0
1453, 0.0
1454, 0.0
1455, 0.0
1456, 0.0
1457, 0.0
1458, 0.0
1459, 0.0
1460, 0.0
1461, 0.0
1462, 0.0
1463, 0.0
1464, 0.0
1465, 0.0
1466, 0.0
1467, 0.0
1468, 0.0
1469, 0.0
1470, 0.0
1471, 0.0
1472, 0.0
1473, 0.0
1474, 0.0
1475, 0.0
1476, 0.0
1477, 0.0
1478, 0.0
1479, 0.0
1480, 0.0
1481, 0.0
1482, 0.0
1483, 0.0
1484, 0.0
1485, 0.0
1486, 0.0
1487, 0.0
1488, 0.0
1489, 0.0
1490, 0.0
1491, 0.0
1492, 0.0
1493, 0.0
1494, 0.0
1495, 0.0
1496, 0.0
1497, 0.0
1498, 0.0
1499, 0.0
1500, 0.0
1501, 0.0
1502, 0.0
1503, 0.0
1504, 0.0
1505, 0.0
1506, 0.0
1507, 0.0
1508, 0.0
1509, 0.0
1510, 0.0
1511, 0.0
1512, 0.0
1513, 0.0
1514, 0.0
1515, 0.0
1516, 0.0
1517, 0.0
1518, 0.0
1519, 0.0
1520, 0.0
1521, 0.0
1522, 0.0
1523, 0.0
1524, 0.0
1525, 0.0
1526, 0.0
1527, 0.0
1528, 0.0
1529, 0.0
1530, 0.0
1531, 0.0
1532, 0.0
1533, 0.0
1534, 0.0
1535, 0.0
1536, 0.0
1537, 0.0
1538, 0.0
1539, 0.0
1540, 0.0
1541, 0.0
1542, 0.0
1543, 0.0
1544, 0.0
1545, 0.0
1546, 0.0
1547, 0.0
1548, 0.0
1549, 0.0
1550, 0.0
1551, 0.0
1552, 0.0
1553, 0.0
1554, 0.0
1555, 0.0
1556, 0.0
1557, 0.0
1558, 0.0
1559, 0.0
1560, 0.0
1561, 0.0
1562, 0.0
1563, 0.0
1564, 0.0
1565, 0.0
1566, 0.0
1567, 0.0
1568, 0.0
1569, 0.0
1570, 0.0
1571, 0.0
1572, 0.0
1573, 0.0
1574, 0.0
1575, 0.0
1576, 0.0
1577, 0.0
1578, 0.0
1579, 0.0
1580, 0.0
1581, 0.0
1582, 0.0
1583, 0.0
1584, 0.0
1585, 0.0
1586, 0.0
1587, 0.0
1588, 0.0
1589, 0.0
1590, 0.0
1591, 0.0
1592, 0.0
1593, 0.0
1594, 0.0
1595, 0.0
1596, 0.0
1597, 0.0
1598, 0.0
1599, 0.0
