30, 0.0
31, 0.0
32, 0.0
33, 0.0
34, 0.0
35, 0.0
36, 0.0
37, 0.0
38, 0.0
39, 0.0
40, 0.0
41, 0.0
42, 0.0
43, 0.0
44, 0.0
45, 0.0
46, 0.0
47, 0.0
48, 0.0
49, 0.0
50, 0.0
51, 0.0
52, 0.0
53, 0.0
54, 0.0
55, 0.0
56, 0.0
57, 0.0
58, 0.0
59, 0.0
60, 0.0
61, 0.0
62, 0.0
63, 0.0
64, 0.0
65, 0.0
66, 0.0
67, 0.0
68, 0.0
69, 0.0
70, 0.0
71, 0.0
72, 0.0
73, 0.0
74, 0.0
75, 0.0
76, 0.0
77, 0.0
78, 0.0
79, 0.0
80, 0.0
81, 0.0
82, 0.0
83, 0.0
84, 0.0
85, 0.0
86, 0.0
87, 0.0
88, 0.0
89, 0.0
90, 0.0
91, 0.0
92, 0.0
93.0, 0.004278049301098357
94.0, 0.01756391669581364
95.0, 0.0464402033367436
96.0, 0.06394958236111344
97.0, 0.06884902739743434
98.0, 0.06350886303632226
99.0, 0.0446516243202867
100.0, 0.025765739028941262
101.0, 0.015022306294365104
102.0, 0.01559207127408261
103.0, 0.02565265666477228
104.0, 0.04775499011461321
105.0, 0.09380291758241753
106.0, 0.14385352773127957
107.0, 0.20375118662417846
108.0, 0.2766426856065136
109.0, 0.2733357833485423
110.0, 0.2510771840161075
111.0, 0.21297521766153438
112.0, 0.1613584838440144
113.0, 0.1144874271687947
114.0, 0.07820260195034301
115.0, 0.05430833411051799
116.0, 0.0338824976431213
117.0, 0.02580681457388752
118.0, 0.023759495880046534
119.0, 0.02089029908450774
120.0, 0.043343544827806155
121.0, 0.07697607035584492
122.0, 0.12047027178307465
123.0, 0.1800797556096186
124.0, 0.27086714779572557
125.0, 0.36432347078752053
126.0, 0.4373850339990428
127.0, 0.5483440787830218
128.0, 0.6383805774540263
129.0, 0.7010064412054018
130.0, 0.7213610909728518
131.0, 0.6822087917120075
132.0, 0.5924486629167063
133.0, 0.4499211533474924
134.0, 0.33682437937186394
135.0, 0.23664978714413112
136.0, 0.1539817384716591
137.0, 0.10372274227530404
138.0, 0.06566358139120859
139.0, 0.03997060774050174
140.0, 0.026980113369347795
141.0, 0.021624788054138526
142.0, 0.019926210053540023
143.0, 0.023774802300238
144.0, 0.03688794939135019
145.0, 0.053267136107312374
146.0, 0.08236477965778853
147.0, 0.12223973440171716
148.0, 0.15794982059765458
149.0, 0.2027470059795776
150.0, 0.24133074658503517
151.0, 0.26383510793728104
152.0, 0.23978045583083704
153.0, 0.21459481341618114
154.0, 0.18414704631235942
155.0, 0.13471524046449282
156.0, 0.10313455235578277
157.0, 0.07548559444809728
158.0, 0.04928217302048274
159.0, 0.04053985135064992
160.0, 0.036521976046215564
161.0, 0.03693084794819648
162.0, 0.04255668064106478
163.0, 0.06041766615586125
164.0, 0.07296032885528268
165.0, 0.08281571980154329
166.0, 0.11051976193339885
167.0, 0.1285798377993547
168.0, 0.13976441350186536
169.0, 0.1446073906118934
170.0, 0.13052361563675557
171.0, 0.10837445765133133
172.0, 0.08313827725070366
173.0, 0.06381266874218881
174.0, 0.040784819364793876
175.0, 0.024325247402983204
176.0, 0.015474736276217522
177.0, 0.004133993798347715
178.0, 0.0017138546093547007
179.0, 0.0021592015781848684
180.0, 0.001274861484688721
181.0, 0.002608836586619842
182.0, 0.00430285428542499
183.0, 0.0059559846229286706
184.0, 0.006668491741346884
185.0, 0.014475750455762711
186.0, 0.023677707535990564
187.0, 0.03313888812139769
188.0, 0.05057019778481809
189.0, 0.07237768699774812
190.0, 0.09411514167524652
191.0, 0.11095281434704672
192.0, 0.1387711537791067
193.0, 0.1492522579455563
194.0, 0.1444292970145744
195.0, 0.13893202984921887
196.0, 0.12129148251813818
197.0, 0.10136596262982792
198.0, 0.08287543867774749
199.0, 0.06770964093680838
200.0, 0.04955149474447718
201.0, 0.0337888970640143
202.0, 0.02800111559656577
203.0, 0.017058101231461197
204.0, 0.010876358489274662
205.0, 0.008835788232331882
206.0, 0.003774655813635718
207.0, 0.0011842966296357659
208.0, 0.001402998639725486
209.0, 0.004626358402165625
210.0, 0.0037438994716762816
211.0, 0.004898231938673519
212.0, 0.005708694707950631
213.0, 0.0028151220520001357
214.0, 0.005553727857804993
215.0, 0.008340550819342755
216.0, 0.010621849587756554
217.0, 0.012860365876352501
218.0, 0.019809412648692567
219.0, 0.02480943411929331
220.0, 0.025128056830489076
221.0, 0.028786081975324774
222.0, 0.02541820798081986
223.0, 0.019355420330614645
224.0, 0.015640950349105547
225.0, 0.01298244985538359
226.0, 0.008027097348986127
227.0, 0.0024518834442673687
228.0, 0.0039210978560633835
229.0, 0.005269065062403174
230.0, 0.005079770600873641
231.0, 0.0030423101025886827
232.0, 0.004767214668600291
233.0, 0.004826129766603622
234.0, 0.0037436238644409188
235.0, 0.0018580700342683187
236.0, 0.002129583496934418
237.0, 0.004555041740051745
238.0, 0.0074467811661984885
239.0, 0.005904325906870245
240.0, 0.010427881835963503
241.0, 0.014659639328442808
242.0, 0.016941183931130716
243.0, 0.01857445697991157
244.0, 0.024098643216346676
245.0, 0.02743780105202194
246.0, 0.023669594784150583
247.0, 0.028429447009493614
248.0, 0.026864827788822026
249.0, 0.02200355390051705
250.0, 0.020224754317543094
251.0, 0.015521302545026436
252.0, 0.01001727622764658
253.0, 0.004696693444409574
254.0, 0.0029627682118027066
255.0, 0.006327023760150252
256.0, 0.00817749690795685
257.0, 0.005529786578468026
258.0, 0.011742593042692966
259.0, 0.013710723609655836
260.0, 0.013947550112673138
261.0, 0.015288437527834254
262.0, 0.01593299187161923
263.0, 0.013544337553835207
264.0, 0.01059270754360146
265.0, 0.015194830128475084
266.0, 0.012510199966989438
267.0, 0.010437761083899353
268.0, 0.01080149953577661
269.0, 0.010119848294833499
270.0, 0.008981923171861745
271.0, 0.008695872035440661
272.0, 0.010220991253309606
273.0, 0.005202144361025432
274.0, 0.003854586821292713
275.0, 0.003929029264751563
276.0, 0.0019607232581503762
277.0, 0.002782193195034762
278.0, 0.004889090934167062
279.0, 0.008575725372964497
280.0, 0.015804166736460457
281.0, 0.01781496393102628
282.0, 0.021191395174331287
283.0, 0.027524696188851734
284.0, 0.030388077124731586
285.0, 0.03621050985778033
286.0, 0.044313707971536276
287.0, 0.05444765858949563
288.0, 0.05825995135836336
289.0, 0.06973205727113038
290.0, 0.08342313609828192
291.0, 0.09062306994949476
292.0, 0.1097011022606756
293.0, 0.12814845277929893
294.0, 0.14561380111533118
295.0, 0.16599453581928225
296.0, 0.19784331505976796
297.0, 0.22481326723054246
298.0, 0.24477598485624452
299.0, 0.2826250272265564
300.0, 0.296922030099068
301.0, 0.3033379493590875
302.0, 0.3107232464566858
303.0, 0.30739021890924206
304.0, 0.2889140428288523
305.0, 0.26511548301985366
306.0, 0.24804183857765927
307.0, 0.21724365167205878
308.0, 0.19726293415288781
309.0, 0.18427945177532748
310.0, 0.1643895916164975
311.0, 0.1530034392389517
312.0, 0.1462707375917018
313.0, 0.14160476538027686
314.0, 0.1291744043140534
315.0, 0.1326362932894114
316.0, 0.13178378752508602
317.0, 0.1190564326084117
318.0, 0.115430631688028
319.0, 0.10542404132062617
320.0, 0.0940572757282505
321.0, 0.0852982932705559
322.0, 0.08128229955513257
323.0, 0.07378395099814872
324.0, 0.06684913939626771
325.0, 0.06709435377311779
326.0, 0.06385162567044914
327.0, 0.06484526405560775
328.0, 0.06895150327325669
329.0, 0.07098680104057815
330.0, 0.07217342681723593
331.0, 0.07861982000379222
332.0, 0.0897076752448048
333.0, 0.09394648057863647
334.0, 0.10857662404784368
335.0, 0.12430326572060847
336.0, 0.13786320833289273
337.0, 0.15790454285417715
338.0, 0.1883647869394902
339.0, 0.21977899394425413
340.0, 0.2452180802511714
341.0, 0.29428177498448965
342.0, 0.33359989154736713
343.0, 0.36984691556832006
344.0, 0.41159636915742137
345.0, 0.44515256344530135
346.0, 0.4564852068811169
347.0, 0.45420494001661027
348.0, 0.4580227313838672
349.0, 0.421194880430809
350.0, 0.38750505542075303
351.0, 0.359344187785651
352.0, 0.3190633846919659
353.0, 0.28871662451818186
354.0, 0.2653694947049074
355.0, 0.24606970959439955
356.0, 0.21545950215763712
357.0, 0.20088737972072132
358.0, 0.18747578149159363
359.0, 0.16902036390099423
360.0, 0.1596201151118965
361.0, 0.14945544626722032
362.0, 0.13812321817476692
363.0, 0.1252791762423433
364.0, 0.12019292717384933
365.0, 0.10901652240419758
366.0, 0.09895012207090911
367.0, 0.0989290835107008
368.0, 0.0878480193399904
369.0, 0.08165739427559751
370.0, 0.07974958300425256
371.0, 0.07986292141667342
372.0, 0.07176439658919949
373.0, 0.0692633790919543
374.0, 0.07061631783287513
375.0, 0.06642146525745408
376.0, 0.0673481669703979
377.0, 0.06843914470868676
378.0, 0.06824192177414393
379.0, 0.06484734506285379
380.0, 0.06874821176828864
381.0, 0.06979937944946447
382.0, 0.06650734016137486
383.0, 0.07152186985100326
384.0, 0.06982761762538169
385.0, 0.06750496474369393
386.0, 0.06752153379717715
387.0, 0.07181631826482957
388.0, 0.07027233508495544
389.0, 0.07047340212709348
390.0, 0.0770307088648895
391.0, 0.07110586075726062
392.0, 0.07353505352740206
393.0, 0.07854182636591055
394.0, 0.0808852111305301
395.0, 0.08174656962681787
396.0, 0.0868186811196836
397.0, 0.0917234176594959
398.0, 0.09062164330416575
399.0, 0.09744683387012767
400.0, 0.10181580471353946
401.0, 0.10508639991532688
402.0, 0.11053180493154216
403.0, 0.12666281143855881
404.0, 0.13604153004190095
405.0, 0.1430809494647247
406.0, 0.1620043498324987
407.0, 0.17287858122668812
408.0, 0.18724368453322346
409.0, 0.20765754601654893
410.0, 0.23690529611058833
411.0, 0.2583212755401531
412.0, 0.29196644649889153
413.0, 0.33638085468142465
414.0, 0.36822377060251493
415.0, 0.4241526790094091
416.0, 0.4880865654028304
417.0, 0.5538113554809512
418.0, 0.611743772533307
419.0, 0.71562117349907
420.0, 0.8004613299758472
421.0, 0.8522199383761879
422.0, 0.9423296390650926
423.0, 0.9754892754975004
424.0, 0.9701030542659735
425.0, 0.9368570884459941
426.0, 0.9132529351419492
427.0, 0.8209738691891548
428.0, 0.7289858841886018
429.0, 0.6704459444933049
430.0, 0.576178293381169
431.0, 0.5071424802727462
432.0, 0.4528156578269464
433.0, 0.40656827273464885
434.0, 0.36137547571839906
435.0, 0.3495449413486338
436.0, 0.34460208751561117
437.0, 0.3275806770990964
438.0, 0.3513764314353445
439.0, 0.38333018060140567
440.0, 0.4159242573774123
441.0, 0.44253175489018665
442.0, 0.48732682822747886
443.0, 0.48882402845710987
444.0, 0.469559761282888
445.0, 0.45225579898265156
446.0, 0.39684852644609436
447.0, 0.341745754113482
448.0, 0.2895028742675375
449.0, 0.2426801675029685
450.0, 0.20318492806492672
451.0, 0.16822649828107483
452.0, 0.13707873624398342
453.0, 0.10906466009637264
454.0, 0.09144251683410376
455.0, 0.07709627377057245
456.0, 0.06413622634173921
457.0, 0.050385744565488874
458.0, 0.045236446716138044
459.0, 0.03592024393166971
460.0, 0.026753732096615974
461.0, 0.025096511786916093
462.0, 0.019561495789883542
463.0, 0.014783083932794499
464.0, 0.010987839595415704
465.0, 0.008152417376987511
466.0, 0.005387860440651754
467.0, 0.0046700281437489655
468.0, 0.00428112606565667
469.0, 0.0012187250132868737
470.0, 0.0013916708088149558
471.0, 0.0017711435771587914
472.0, 0.0023326077339378792
473.0, 0.0034083164676068927
474.0, 0.0041182616347144796
475.0, 0.0029580536450057914
476.0, 0.002385157664726645
477.0, 0.006747566132398701
478.0, 0.01180470313426318
479.0, 0.014567227411768661
480.0, 0.018741906977954012
481.0, 0.030963352863043213
482.0, 0.03233455735160953
483.0, 0.041130091071694935
484.0, 0.055930458565431544
485.0, 0.07249443053739141
486.0, 0.08937895669662388
487.0, 0.11639459879164003
488.0, 0.1490209049718627
489.0, 0.1793483799552292
490.0, 0.2319922234715696
491.0, 0.279624974947969
492.0, 0.32229996005084716
493.0, 0.36239513655679145
494.0, 0.3960764027918915
495.0, 0.3968376534251484
496.0, 0.38028939355668445
497.0, 0.3696092247560267
498.0, 0.3290139688735362
499.0, 0.28431183079725086
500.0, 0.24425090771099675
501.0, 0.21878442623185199
502.0, 0.17746740084889287
503.0, 0.15237807121754893
504.0, 0.13290706157621446
505.0, 0.10561745941010534
506.0, 0.09083781451278695
507.0, 0.07853734188928932
508.0, 0.06565990317370267
509.0, 0.04917727885837727
510.0, 0.04398465991985788
511.0, 0.03428256069542478
512.0, 0.02613232821769757
513.0, 0.02497893147291822
514.0, 0.01786001617208984
515.0, 0.012691478386634526
516.0, 0.009118184985496212
517.0, 0.006711532247665163
518.0, 0.0017595388521158366
519.0, 0.0015137533698566929
520.0, 0.0019483709603838229
521.0, 0.0005215482388111898
522.0, 0.001694101103699759
523.0, 0.001908459059981766
524.0, 0.002682194761922112
525.0, 0.0044715069923835
526.0, 0.0023847721554358173
527.0, 0.0010300327591072514
528.0, 0.0005025203447377135
529.0, 0.0007212890275331151
530.0, 0.0006058991492820754
531.0, 0.0015270717192499732
532.0, 0.0020132606291703055
533.0, 0.002302562358258577
534.0, 0.007220412157325235
535.0, 0.0063426013343458225
536.0, 0.004694842310100759
537.0, 0.004023456050461267
538.0, 0.004866246107308312
539.0, 0.003938679507356443
540.0, 0.0043490192313081506
541.0, 0.005397457694288946
542.0, 0.00209202554229313
543.0, 0.0015827286923731807
544.0, 0.0022322963298355624
545.0, 0.0026965353467754928
546.0, 0.00029439029602549324
547.0, 0.0015899824771726473
548.0, 0.0024765031848597617
549.0, 0.0023368396988973023
550.0, 0.001009321048201154
551.0, 0.0007678064028255518
552.0, 0.004498406880321536
553.0, 0.007628064964169858
554.0, 0.0029712866625939125
555.0, 0.009229641716092214
556.0, 0.012434969589634486
557.0, 0.014168342107966888
558.0, 0.016817355307585442
559.0, 0.021840651151846427
560.0, 0.025137192267543226
561.0, 0.030745701248079266
562.0, 0.041526641039721084
563.0, 0.04497972358577553
564.0, 0.05446707290921931
565.0, 0.06662638791079557
566.0, 0.07855138773860382
567.0, 0.0821834772493545
568.0, 0.09928943040393726
569.0, 0.11253106444078761
570.0, 0.11737368239333548
571.0, 0.1333940747098433
572.0, 0.15080317108650096
573.0, 0.16345991207722188
574.0, 0.17473599708445722
575.0, 0.20506619633126102
576.0, 0.2126165038589915
577.0, 0.23037949901169236
578.0, 0.25899059189197277
579.0, 0.28261149952980286
580.0, 0.3022302632650541
581.0, 0.3343127862116047
582.0, 0.368110097624933
583.0, 0.3813813490559803
584.0, 0.40460202722652006
585.0, 0.42107924807025765
586.0, 0.4222370990133099
587.0, 0.3994545408488161
588.0, 0.40406391538923814
589.0, 0.38183840030576477
590.0, 0.3510496917536278
591.0, 0.326807610382558
592.0, 0.30459109377571036
593.0, 0.27619757701009134
594.0, 0.25739038455858176
595.0, 0.2511629490461993
596.0, 0.21708688042148255
597.0, 0.20611590235049593
598.0, 0.19826842441797785
599.0, 0.1879631996634324
600.0, 0.18093632031993112
601.0, 0.17938097972451228
602.0, 0.17460443377479795
603.0, 0.16981934392695983
604.0, 0.17741495768904134
605.0, 0.17752540505783232
606.0, 0.18025439361079015
607.0, 0.18688178503937714
608.0, 0.19763994070100263
609.0, 0.1970496571365693
610.0, 0.20900890701926333
611.0, 0.2233937233221749
612.0, 0.22996072845915203
613.0, 0.24083541133507091
614.0, 0.2629283132331391
615.0, 0.28000335186308845
616.0, 0.2867783297077676
617.0, 0.32131498691335253
618.0, 0.34156590443354834
619.0, 0.35811640584296733
620.0, 0.37964608337804656
621.0, 0.4254041370706747
622.0, 0.43813104334096753
623.0, 0.46931744089896565
624.0, 0.515504979704396
625.0, 0.5447755062180069
626.0, 0.5802421472784766
627.0, 0.6272029682480224
628.0, 0.6700003819210032
629.0, 0.6874556128977798
630.0, 0.7579944698211506
631.0, 0.7940977990304395
632.0, 0.818754977844459
633.0, 0.8531078099435426
634.0, 0.9176365221193987
635.0, 0.9235823988587106
636.0, 0.9451980977497177
637.0, 0.9974097683906118
638.0, 0.9790393314445911
639.0, 0.9899014063115829
640.0, 0.9968806249563354
641.0, 0.9864858439744697
642.0, 0.9452093038388788
643.0, 0.959713148444546
644.0, 0.9347532859866815
645.0, 0.8910556819690716
646.0, 0.8736466027807491
647.0, 0.8592074743031723
648.0, 0.8126938933429747
649.0, 0.7697781275155301
650.0, 0.7554400663094376
651.0, 0.7090893569405826
652.0, 0.6698237312700519
653.0, 0.6437545551637198
654.0, 0.6246518487359494
655.0, 0.5712604835017109
656.0, 0.5583184749480832
657.0, 0.5329546571625099
658.0, 0.4965134307903196
659.0, 0.4790332066880942
660.0, 0.4565264763146411
661.0, 0.4270676487368664
662.0, 0.40132277505333963
663.0, 0.3914946346815526
664.0, 0.3642985265475947
665.0, 0.3459773138097409
666.0, 0.3325554565039526
667.0, 0.31956635109366416
668.0, 0.2940700759594313
669.0, 0.2840487329698744
670.0, 0.26922884702060884
671.0, 0.2485808898051594
672.0, 0.23984064962077567
673.0, 0.23599349540108983
674.0, 0.22060898388854056
675.0, 0.20431153335647478
676.0, 0.20677354643054685
677.0, 0.1874305715952376
678.0, 0.17822456082944477
679.0, 0.17305140573346361
680.0, 0.16574061655428204
681.0, 0.14984969807795426
682.0, 0.147263200934636
683.0, 0.1414547954291543
684.0, 0.1297181745928634
685.0, 0.12657109891830765
686.0, 0.12319733693809644
687.0, 0.11533690390237851
688.0, 0.10823781709829072
689.0, 0.11200501912521327
690.0, 0.09963774705845448
691.0, 0.09642681897999968
692.0, 0.0947775980801923
693.0, 0.08788067737904069
694.0, 0.0815369958249526
695.0, 0.08064676625149864
696.0, 0.0767182599839961
697.0, 0.0692327922138615
698.0, 0.06925144452454976
699.0, 0.06755347786547496
700.0, 0.060527908417792056
701.0, 0.0540366749047085
702.0, 0.05855910599047101
703.0, 0.05004649458294443
704.0, 0.045702679581191966
705.0, 0.04281559868992741
706.0, 0.03880091079728922
707.0, 0.033240637658816595
708.0, 0.03461937796147757
709.0, 0.03326288962197146
710.0, 0.028608164541020213
711.0, 0.029906188054352627
712.0, 0.028012393628896053
713.0, 0.02514592321666492
714.0, 0.024542558470491256
715.0, 0.0299211057891378
716.0, 0.02314629521367282
717.0, 0.025972067427500686
718.0, 0.02855861992835533
719.0, 0.02607692901067888
720.0, 0.02882023829379306
721.0, 0.032828715797033135
722.0, 0.034926306205388426
723.0, 0.0361415013497548
724.0, 0.04077527838914073
725.0, 0.046313154560399354
726.0, 0.049981263400734666
727.0, 0.056462038808247524
728.0, 0.06939124651116063
729.0, 0.07028905484246696
730.0, 0.08424695194749328
731.0, 0.09853578341563919
732.0, 0.10958206284711292
733.0, 0.12542853845509794
734.0, 0.15481066958391862
735.0, 0.17680605941524563
736.0, 0.2005762247567489
737.0, 0.24402179200885776
738.0, 0.28912249425419395
739.0, 0.3265122683987642
740.0, 0.378926870443717
741.0, 0.452270438525291
742.0, 0.4930709870333357
743.0, 0.5356680549606982
744.0, 0.5788689018308559
745.0, 0.6008756969388415
746.0, 0.5579940941079757
747.0, 0.5510001991060908
748.0, 0.5101727135647335
749.0, 0.4542686733220532
750.0, 0.40463727364631613
751.0, 0.3741313203389016
752.0, 0.3184193589406774
753.0, 0.2775089571438267
754.0, 0.25414956900738317
755.0, 0.2171867575286053
756.0, 0.19302667123413575
757.0, 0.17529203813279412
758.0, 0.1571166628277291
759.0, 0.13308681991542917
760.0, 0.1265407900142074
761.0, 0.1150783196092408
762.0, 0.10563231769268006
763.0, 0.1005322558506799
764.0, 0.09725426042397418
765.0, 0.08877796397115209
766.0, 0.08629309233497828
767.0, 0.08431101998058331
768.0, 0.07462041595474975
769.0, 0.07300465809459605
770.0, 0.07215989640204733
771.0, 0.06581978883462046
772.0, 0.05561380669906149
773.0, 0.06030520882488638
774.0, 0.052242792307196015
775.0, 0.04632003684223365
776.0, 0.04313619605740861
777.0, 0.04012527221470394
778.0, 0.03463919202397704
779.0, 0.03275036111489701
780.0, 0.03005637649521354
781.0, 0.02557935609277131
782.0, 0.02544895795057214
783.0, 0.02594617929661382
784.0, 0.02154932030057451
785.0, 0.01680411581683808
786.0, 0.01919496539946159
787.0, 0.018186652214628625
788.0, 0.014429846754452344
789.0, 0.013465539892730407
790.0, 0.015789422503103136
791.0, 0.01099554392356012
792.0, 0.012819252647264634
793.0, 0.012160271968493742
794.0, 0.009170292879086273
795.0, 0.006426046890828072
796.0, 0.013352366106602268
797.0, 0.009807307769837278
798.0, 0.006988569407125774
799.0, 0.009089690535318613
800.0, 0.01001957965389282
801.0, 0.006301274651400086
802.0, 0.008476355916047191
803.0, 0.010713647788728992
804.0, 0.005046058019425704
805.0, 0.011316947576909746
806.0, 0.012046005409540497
807.0, 0.010982573292813642
808.0, 0.011184874787169275
809.0, 0.016812296917554155
810.0, 0.014603422301813957
811.0, 0.015115516560571094
812.0, 0.017109862821164484
813.0, 0.017880517706432345
814.0, 0.01510279979832245
815.0, 0.019296768028917933
816.0, 0.021414073904156103
817.0, 0.020108586254327758
818.0, 0.020137704718407538
819.0, 0.01902388305887884
820.0, 0.015299174908450126
821.0, 0.014049430346129549
822.0, 0.01766950733192642
823.0, 0.012404817630500387
824.0, 0.01048863141136559
825.0, 0.010541800547666352
826.0, 0.009438292501671424
827.0, 0.0023168877806791343
828.0, 0.007380127841376746
829.0, 0.005147332221723644
830.0, 0.0016811946890968076
831.0, 0.0010502505501039034
832.0, 0.0029978843418861367
833.0, 0.004949227366859705
834.0, 0.0032766042142957294
835.0, 0.0012853235035001197
836.0, 0.003869459313235282
837.0, 0.0072139668775812165
838.0, 0.004827162721417496
839.0, 0.0039353499268409845
840.0, 0.005921104919656294
841.0, 0.005727035707481459
842.0, 0.00510649436477943
843.0, 0.006931217917932839
844.0, 0.007419983604257737
845.0, 0.004395344173324828
846.0, 0.008526566813361298
847.0, 0.004262319382463014
848.0, 0.0030973357364772872
849.0, 0.005646241347691034
850.0, 0.007482773852490418
851.0, 0.0022288589151017056
852.0, 0.0017892333714500048
853.0, 0.0021722824371626505
854.0, 0.001657635188407597
855.0, 0.0028862031271263636
856.0, 0.0024396892751158464
857.0, 0.004252630611295101
858.0, 0.005722910490814045
859.0, 0.004133026563026979
860.0, 0.006643373654570483
861.0, 0.009211205790867857
862.0, 0.00989484792620376
863.0, 0.01098426874777946
864.0, 0.018269953668867515
865.0, 0.016456150116302474
866.0, 0.015608538862549202
867.0, 0.01864908777589608
868.0, 0.024484523759516843
869.0, 0.021704435010706614
870.0, 0.028706982994951273
871.0, 0.03290149873375785
872.0, 0.034707110947746006
873.0, 0.03693157490659588
874.0, 0.04134190222478174
875.0, 0.046186666982910074
876.0, 0.05084305396602134
877.0, 0.05636300911460208
878.0, 0.06516428519566975
879.0, 0.06569287815430172
880.0, 0.07249266150771194
881.0, 0.0787128403241101
882.0, 0.08041746067839418
883.0, 0.07940250249449798
884.0, 0.08920208576247336
885.0, 0.08868163184887873
886.0, 0.08727102284108867
887.0, 0.09465487292280357
888.0, 0.08676946403193611
889.0, 0.0844840561471774
890.0, 0.08635873993564235
891.0, 0.08632460727223386
892.0, 0.07558137653177177
893.0, 0.07908380049059978
894.0, 0.07702830732053244
895.0, 0.07274162799747265
896.0, 0.06941657010933672
897.0, 0.07111979243158467
898.0, 0.06388245799110802
899.0, 0.062430548864900744
900.0, 0.06132765894083597
901.0, 0.0558910249496116
902.0, 0.049246437974184445
903.0, 0.05376145714127032
904.0, 0.04954961270271035
905.0, 0.042022179996488086
906.0, 0.04180380802004475
907.0, 0.040427923753974866
908.0, 0.03498180596682969
909.0, 0.03438348256448532
910.0, 0.03523636941528669
911.0, 0.025772204037974956
912.0, 0.025694175738466853
913.0, 0.025705135839583265
914.0, 0.022326190397074855
915.0, 0.017391883640574902
916.0, 0.02178608530403497
917.0, 0.01704061962473687
918.0, 0.0145607444806739
919.0, 0.014611393277467513
920.0, 0.015277071404492757
921.0, 0.00973196518298365
922.0, 0.011358124729004408
923.0, 0.012027807227582055
924.0, 0.010215353375074164
925.0, 0.006717384876734177
926.0, 0.010197623845358113
927.0, 0.012738926035155584
928.0, 0.012721496785833048
929.0, 0.010914949513108795
930.0, 0.009354116106710176
931.0, 0.008290202620193041
932.0, 0.008813936031459128
933.0, 0.009280317854545238
934.0, 0.009362065530772835
935.0, 0.009956312212227949
936.0, 0.017004512571752624
937.0, 0.015357627289694776
938.0, 0.016547070425251383
939.0, 0.024245955686897358
940.0, 0.02653683125035692
941.0, 0.026659476491028067
942.0, 0.031319248130145694
943.0, 0.034685971122693914
944.0, 0.03411029919495998
945.0, 0.0422139289807925
946.0, 0.048785096242602737
947.0, 0.05041658783675628
948.0, 0.05389374819068234
949.0, 0.06375517129444903
950.0, 0.0553108744973126
951.0, 0.0583120545794399
952.0, 0.06082896063576322
953.0, 0.059013475697605795
954.0, 0.052547378528682805
955.0, 0.05293085532315681
956.0, 0.04742524272925334
957.0, 0.04087560968853692
958.0, 0.037126674476903564
959.0, 0.03929497224515768
960.0, 0.0272699453362074
961.0, 0.026527352104952814
962.0, 0.025309788286114476
963.0, 0.02032894908921331
964.0, 0.01570914338410514
965.0, 0.017965206432757393
966.0, 0.015700070611177015
967.0, 0.014316070326370209
968.0, 0.014873485163903587
969.0, 0.012006608443299415
970.0, 0.008347096985113807
971.0, 0.009016486359926537
972.0, 0.008224953327900337
973.0, 0.003960921350581401
974.0, 0.002831349132690122
975.0, 0.006508674306612742
976.0, 0.004364200503788199
977.0, 0.0025023280743383175
978.0, 0.004414589126104068
979.0, 0.00199399606824204
980.0, 0.0012788465291013818
981.0, 0.002882734981348683
982.0, 0.004217983342132426
983.0, 0.0032467454381410747
984.0, 0.0016262322952478232
985.0, 0.0017930385879835445
986.0, 0.003104933123931663
987.0, 0.0039000032766537207
988.0, 0.0033355946949918678
989.0, 0.005863201364071126
990.0, 0.00470364648610898
991.0, 0.003384229333658849
992.0, 0.0042824364216361415
993.0, 0.007758452058874212
994.0, 0.002892888731976391
995.0, 0.007591398272012529
996.0, 0.007807714255973114
997.0, 0.004143674305619391
998.0, 0.0016680350827375087
999.0, 0.00475030185065446
1000.0, 0.003627273332862405
1001.0, 0.0036135550002381295
1002.0, 0.0035006862711589844
1003.0, 0.0011818146984720473
1004.0, 0.008473183993502859
1005.0, 0.0053807572843988394
1006.0, 0.003913770741679656
1007.0, 0.006117540649409933
1008.0, 0.009554502524669268
1009.0, 0.005848140620972722
1010.0, 0.010902974857145017
1011.0, 0.012309787878284083
1012.0, 0.01022877993310962
1013.0, 0.010467390251232788
1014.0, 0.02037886078812251
1015.0, 0.01738502000396905
1016.0, 0.017182711788220666
1017.0, 0.021228109247679757
1018.0, 0.024547430823068647
1019.0, 0.022331222060024535
1020.0, 0.02832185643585912
1021.0, 0.029984277428146338
1022.0, 0.029381017213651918
1023.0, 0.034173138650214874
1024.0, 0.03871017909449993
1025.0, 0.03520949281806304
1026.0, 0.03451743121496242
1027.0, 0.03789693689171451
1028.0, 0.041521657272232664
1029.0, 0.03261379873223595
1030.0, 0.03751033426784883
1031.0, 0.03753688933778287
1032.0, 0.03415546515351517
1033.0, 0.035557666058045855
1034.0, 0.035480303439085585
1035.0, 0.03186932648799389
1036.0, 0.03411477245833855
1037.0, 0.03773649983891233
1038.0, 0.03508990072509785
1039.0, 0.03488308424671026
1040.0, 0.04178369839784001
1041.0, 0.04124522234049819
1042.0, 0.04020393911728788
1043.0, 0.04855759937407937
1044.0, 0.050793763229681474
1045.0, 0.049557349805056355
1046.0, 0.05490223735038397
1047.0, 0.061153210808270325
1048.0, 0.061616460142406654
1049.0, 0.06603927343902186
1050.0, 0.07463582999507247
1051.0, 0.07756669459965229
1052.0, 0.08031184204568832
1053.0, 0.088071782150184
1054.0, 0.09221684102376984
1055.0, 0.09459017978885244
1056.0, 0.10477841366520427
1057.0, 0.11008847747637082
1058.0, 0.10487602801722593
1059.0, 0.11430612492211058
1060.0, 0.11678771999072296
1061.0, 0.11088357040175253
1062.0, 0.1085093266830118
1063.0, 0.11201627271082065
1064.0, 0.09962466603874925
1065.0, 0.09729341101676234
1066.0, 0.09423067064185991
1067.0, 0.08489418242568006
1068.0, 0.07251173493436505
1069.0, 0.07334493200754953
1070.0, 0.06943665434044467
1071.0, 0.06026386633118938
1072.0, 0.05747485148260407
1073.0, 0.058743988297546096
1074.0, 0.04651644961745875
1075.0, 0.04573128911719342
1076.0, 0.0449486472756833
1077.0, 0.03933924710466992
1078.0, 0.03454818940971522
1079.0, 0.04214819631919484
1080.0, 0.034530452707206456
1081.0, 0.031351255655525635
1082.0, 0.031012337114198908
1083.0, 0.0299564543721614
1084.0, 0.025375560954647724
1085.0, 0.03063613609668896
1086.0, 0.03158149450823453
1087.0, 0.027457987829981552
1088.0, 0.025740783693252035
1089.0, 0.03152428054738764
1090.0, 0.025216241542775634
1091.0, 0.02448427874256247
1092.0, 0.02652431946306571
1093.0, 0.027058468161849897
1094.0, 0.02434936729948757
1095.0, 0.024647537345680898
1096.0, 0.024669001510862893
1097.0, 0.021967244566520817
1098.0, 0.023523482136684426
1099.0, 0.028653553087775695
1100.0, 0.022732441957495495
1101.0, 0.024945734852457345
1102.0, 0.026715232204542163
1103.0, 0.026129109502579153
1104.0, 0.026677272334684924
1105.0, 0.035961668513279664
1106.0, 0.035626868814938976
1107.0, 0.03254694543816198
1108.0, 0.037388133081162685
1109.0, 0.04271698373380036
1110.0, 0.03569180201339231
1111.0, 0.04431029232043287
1112.0, 0.049223615538444634
1113.0, 0.04843471558107085
1114.0, 0.050407760679988964
1115.0, 0.06065954121992294
1116.0, 0.060717417736020504
1117.0, 0.062378635307230534
1118.0, 0.07107875359049608
1119.0, 0.07558442063557864
1120.0, 0.07414622459480241
1121.0, 0.08854127645707059
1122.0, 0.10162240799270995
1123.0, 0.10261656220082031
1124.0, 0.1117906795210713
1125.0, 0.1278583028810212
1126.0, 0.1277090481779171
1127.0, 0.13525425045575823
1128.0, 0.150882861508803
1129.0, 0.1566535660239436
1130.0, 0.1592932965188961
1131.0, 0.17405535165200559
1132.0, 0.18434939935043002
1133.0, 0.1831975343461036
1134.0, 0.19688694077161745
1135.0, 0.20920950263079485
1136.0, 0.20665706231870232
1137.0, 0.21410512089436995
1138.0, 0.22795344995040268
1139.0, 0.22256727994339
1140.0, 0.21866789908040338
1141.0, 0.22296692236054566
1142.0, 0.21796229659618313
1143.0, 0.2112512968900555
1144.0, 0.2092360501367713
1145.0, 0.20511878030590236
1146.0, 0.19728785453314635
1147.0, 0.18836154073368067
1148.0, 0.18729749447593297
1149.0, 0.17284491296868945
1150.0, 0.17053097304411177
1151.0, 0.1710370462905963
1152.0, 0.16167004782916874
1153.0, 0.14857113252871243
1154.0, 0.1539269920926109
1155.0, 0.1481620651357343
1156.0, 0.14165974389851674
1157.0, 0.1410491675362598
1158.0, 0.14295362635812053
1159.0, 0.12840478685178836
1160.0, 0.1380480076665834
1161.0, 0.13803132054512823
1162.0, 0.1278334479990588
1163.0, 0.12458062418873969
1164.0, 0.13590792884455336
1165.0, 0.12950202044554932
1166.0, 0.12602152088259108
1167.0, 0.12863215884908058
1168.0, 0.13155786713569312
1169.0, 0.1176867293041692
1170.0, 0.12975304300402876
1171.0, 0.1278385091698368
1172.0, 0.12165946151538501
1173.0, 0.12045630678875639
1174.0, 0.12777754140868433
1175.0, 0.1106602025205858
1176.0, 0.11327519415158087
1177.0, 0.11388246546325129
1178.0, 0.10687530880181487
1179.0, 0.09703564909114389
1180.0, 0.10488601734414163
1181.0, 0.0959115321742682
1182.0, 0.08831028702986389
1183.0, 0.08753975384671617
1184.0, 0.08771558069806254
1185.0, 0.07255897771932338
1186.0, 0.07619879570454205
1187.0, 0.07469638874458574
1188.0, 0.0660987322651747
1189.0, 0.05970344906098319
1190.0, 0.06336501287715665
1191.0, 0.054430493159302304
1192.0, 0.047744394526447013
1193.0, 0.04967722134643225
1194.0, 0.046970332321836276
1195.0, 0.03771689342292757
1196.0, 0.04047023762118646
1197.0, 0.04173173984354493
1198.0, 0.03308441605712467
1199.0, 0.03371628573056078
1200.0, 0.03698451226734906
1201.0, 0.028500090986849268
1202.0, 0.027579586257168425
1203.0, 0.03217003669457918
1204.0, 0.026478506312814218
1205.0, 0.0224109263360694
1206.0, 0.025914342686672164
1207.0, 0.02661311410040408
1208.0, 0.014281485283188995
1209.0, 0.02050174445077133
1210.0, 0.021302915043422074
1211.0, 0.01604618499390329
1212.0, 0.015592691407912255
1213.0, 0.02295225632819814
1214.0, 0.011988179707532248
1215.0, 0.01435219140717134
1216.0, 0.019481594135899935
1217.0, 0.0177183747767892
1218.0, 0.010445866474943402
1219.0, 0.017647438532387857
1220.0, 0.01583623475103861
1221.0, 0.012506905021902857
1222.0, 0.01416859317645858
1223.0, 0.0207827956380955
1224.0, 0.01028517317199223
1225.0, 0.013469852906573501
1226.0, 0.016210435704123397
1227.0, 0.013965385281254574
1228.0, 0.011907743042186005
1229.0, 0.021904930096230322
1230.0, 0.016040831858589767
1231.0, 0.016026361739091215
1232.0, 0.022050558262399912
1233.0, 0.022776432429079996
1234.0, 0.01445800942253228
1235.0, 0.022676510358119618
1236.0, 0.02419566005812438
1237.0, 0.021711022187137136
1238.0, 0.023236652753566317
1239.0, 0.026928651742690556
1240.0, 0.02486665870522121
1241.0, 0.022066762781625286
1242.0, 0.03233179883179781
1243.0, 0.029729122539006905
1244.0, 0.026600128142286888
1245.0, 0.03166905551520224
1246.0, 0.034902081032302634
1247.0, 0.026356582924997183
1248.0, 0.030146460531730736
1249.0, 0.035762871453392686
1250.0, 0.03362986520799699
1251.0, 0.024156705196578632
1252.0, 0.03938268007720021
1253.0, 0.033678485787909586
1254.0, 0.02937053076690755
1255.0, 0.0333323911771984
1256.0, 0.038167041066883914
1257.0, 0.029702314202073993
1258.0, 0.03664792847437243
1259.0, 0.03545466527697192
1260.0, 0.031307402354163454
1261.0, 0.032806659460508814
1262.0, 0.038034305183838935
1263.0, 0.02731042989919105
1264.0, 0.02967989701058938
1265.0, 0.03717220561221432
1266.0, 0.032704251625246525
1267.0, 0.026558695448087224
1268.0, 0.03300025955580996
1269.0, 0.0377374072658214
1270.0, 0.027101476656964905
1271.0, 0.03156892557703572
1272.0, 0.03515897422050543
1273.0, 0.03164514749307537
1274.0, 0.027484458922731873
1275.0, 0.03936922624113767
1276.0, 0.03220797633103149
1277.0, 0.028554660946592286
1278.0, 0.03140429257243878
1279.0, 0.03318343055377938
1280.0, 0.020832385765368663
1281.0, 0.035619147253787405
1282.0, 0.030543000565988073
1283.0, 0.022679494667860366
1284.0, 0.02293188814483033
1285.0, 0.029484691941072033
1286.0, 0.019582896655672262
1287.0, 0.018941846785359404
1288.0, 0.02203618477794298
1289.0, 0.016995320745496093
1290.0, 0.013041464436010921
1291.0, 0.020575352566371392
1292.0, 0.01682583142963658
1293.0, 0.010799901179016747
1294.0, 0.017169882952286452
1295.0, 0.015959427512039628
1296.0, 0.009104201300632572
1297.0, 0.012587218072131257
1298.0, 0.015310483845772273
1299.0, 0.005343891843862466
1300.0, 0.0059736333255706086
1301.0, 0.010088066281499022
1302.0, 0.009200383000983935
1303.0, 0.0014513018069855698
1304.0, 0.011047164605331585
1305.0, 0.005451405906424331
1306.0, 0.0015748252457604408
1307.0, 0.005568581635822017
1308.0, 0.011844698322872969
1309.0, 0.00441850890039234
1310.0, 0.009023899023186137
1311.0, 0.01045943697941777
1312.0, 0.005820591011632406
1313.0, 0.00559691526053394
1314.0, 0.011311760531549307
1315.0, 0.0013375360549869291
1316.0, 0.0011805764777883458
1317.0, 0.00859727109870903
1318.0, 0.006330603535112452
1319.0, 0.0013656111094974017
1320.0, 0.00458736832889875
1321.0, 0.010913606102011413
1322.0, 0.004004140937884357
1323.0, 0.005524360269775439
1324.0, 0.005788954253202707
1325.0, 0.004084025340057691
1326.0, 0.004808701159660171
1327.0, 0.011943958544861445
1328.0, 0.0026239538917566915
1329.0, 0.001632985356883452
1330.0, 0.005452531482714655
1331.0, 0.007412846046329664
1332.0, 0.004145146349605731
1333.0, 0.006386195559474688
1334.0, 0.0079452444976997
1335.0, 0.0032383892947571947
1336.0, 0.0051797917082291155
1337.0, 0.010612528031573346
1338.0, 0.008347969112991039
1339.0, 0.002712663927233577
1340.0, 0.012521489421272687
1341.0, 0.010201564126232207
1342.0, 0.008619152977102532
1343.0, 0.01211768246701784
1344.0, 0.014554706349642612
1345.0, 0.004364758046847267
1346.0, 0.014326937487649977
1347.0, 0.01597387790122698
1348.0, 0.012862166004510593
1349.0, 0.013819854813237014
1350.0, 0.022776956050806648
1351.0, 0.01605396417205061
1352.0, 0.01457754671214192
1353.0, 0.02071848303695228
1354.0, 0.01884875692527413
1355.0, 0.0127619884706867
1356.0, 0.017221009047477115
1357.0, 0.022124642230447363
1358.0, 0.006031197728359541
1359.0, 0.011315499620382488
1360.0, 0.015667352649424284
1361.0, 0.010698726054374413
1362.0, 0.005443045696207534
1363.0, 0.014460144048130653
1364.0, 0.0073587896890180285
1365.0, 0.004929814463686298
1366.0, 0.009984863815158784
1367.0, 0.011716923473679688
1368.0, 0.0016313750902153682
1369.0, 0.010286199434060377
1370.0, 0.010206107449653331
1371.0, 0.0038135926677871257
1372.0, 0.007159835938301553
1373.0, 0.01199918065626729
1374.0, 0.004630198875340483
1375.0, 0.006308529164343076
1376.0, 0.012483338673842449
1377.0, 0.00673517410909911
1378.0, 0.004287317952045958
1379.0, 0.008601804958093784
1380.0, 0.012332695911537232
1381.0, 0.0014778925844091172
1382.0, 0.00988675725257955
1383.0, 0.013684189272210998
1384.0, 0.00742852841975474
1385.0, 0.005493134435613282
1386.0, 0.014479483386621398
1387.0, 0.005611602580767287
1388.0, 0.0008760729767440423
1389, 0.0
1390, 0.0
1391, 0.0
1392, 0.0
1393, 0.0
1394, 0.0
1395, 0.0
1396, 0.0
1397, 0.0
1398, 0.0
1399, 0.0
1400, 0.0
1401, 0.0
1402, 0.0
1403, 0.0
1404, 0.0
1405, 0.0
1406, 0.0
1407, 0.0
1408, 0.0
1409, 0.0
1410, 0.0
1411, 0.0
1412, 0.0
1413, 0.0
1414, 0.0
1415, 0.0
1416, 0.0
1417, 0.0
1418, 0.0
1419, 0.0
1420, 0.0
1421, 0.0
1422, 0.0
1423, 0.0
1424, 0.0
1425, 0.0
1426, 0.0
1427, 0.0
1428, 0.0
1429, 0.0
1430, 0.0
1431, 0.0
1432, 0.0
1433, 0.0
1434, 0.0
1435, 0.0
1436, 0.0
1437, 0.0
1438, 0.0
1439, 0.0
1440, 0.0
1441, 0.0
1442, 0.0
1443, 0.0
1444, 0.0
1445, 0.0
1446, 0.0
1447, 0.0
1448, 0.0
1449, 0.0
1450, 0.0
1451, 0.0
1452, 0.0
1453, 0.0
1454, 0.0
1455, 0.0
1456, 0.0
1457, 0.0
1458, 0.0
1459, 0.0
1460, 0.0
1461, 0.0
1462, 0.0
1463, 0.0
1464, 0.0
1465, 0.0
1466, 0.0
1467, 0.0
1468, 0.0
1469, 0.0
1470, 0.0
1471, 0.0
1472, 0.0
1473, 0.0
1474, 0.0
1475, 0.0
1476, 0.0
1477, 0.0
1478, 0.0
1479, 0.0
1480, 0.0
1481, 0.0
1482, 0.0
1483, 0.0
1484, 0.0
1485, 0.0
1486, 0.0
1487, 0.0
1488, 0.0
1489, 0.0
1490, 0.0
1491, 0.0
1492, 0.0
1493, 0.0
1494, 0.0
1495, 0.0
1496, 0.0
1497, 0.0
1498, 0.0
1499, 0.0
1500, 0.0
1501, 0.0
1502, 0.0
1503, 0.0
1504, 0.0
1505, 0.0
1506, 0.0
1507, 0.0
1508, 0.0
1509, 0.0
1510, 0.0
1511, 0.0
1512, 0.0
1513, 0.0
1514, 0.0
1515, 0.0
1516, 0.0
1517, 0.0
1518, 0.0
1519, 0.0
1520, 0.0
1521, 0.0
1522, 0.0
1523, 0.0
1524, 0.0
1525, 0.0
1526, 0.0
1527, 0.0
1528, 0.0
1529, 0.0
1530, 0.0
1531, 0.0
1532, 0.0
1533, 0.0
1534, 0.0
1535, 0.0
1536, 0.0
1537, 0.0
1538, 0.0
1539, 0.0
1540, 0.0
1541, 0.0
1542, 0.0
1543, 0.0
1544, 0.0
1545, 0.0
1546, 0.0
1547, 0.0
1548, 0.0
1549, 0.0
1550, 0.0
1551, 0.0
1552, 0.0
1553, 0.0
1554, 0.0
1555, 0.0
1556, 0.0
1557, 0.0
1558, 0.0
1559, 0.0
1560, 0.0
1561, 0.0
1562, 0.0
1563, 0.0
1564, 0.0
1565, 0.0
1566, 0.0
1567, 0.0
1568, 0.0
1569, 0.0
1570, 0.0
1571, 0.0
1572, 0.0
1573, 0.0
1574, 0.0
1575, 0.0
1576, 0.0
1577, 0.0
1578, 0.0
1579, 0.0
1580, 0.0
1581, 0.0
1582, 0.0
1583, 0.0
1584, 0.0
1585, 0.0
1586, 0.0
1587, 0.0
1588, 0.0
1589, 0.0
1590, 0.0
1591, 0.0
1592, 0.0
1593, 0.0
1594, 0.0
1595, 0.0
1596, 0.0
1597, 0.0
1598, 0.0
1599, 0.0
