30, 0.0
31, 0.0
32, 0.0
33, 0.0
34, 0.0
35, 0.0
36, 0.0
37, 0.0
38, 0.0
39, 0.0
40, 0.0
41, 0.0
42, 0.0
43, 0.0
44, 0.0
45, 0.0
46, 0.0
47, 0.0
48, 0.0
49, 0.0
50, 0.0
51, 0.0
52, 0.0
53, 0.0
54, 0.0
55, 0.0
56, 0.0
57, 0.0
58, 0.0
59, 0.0
60, 0.0
61, 0.0
62, 0.0
63, 0.0
64, 0.0
65, 0.0
66, 0.0
67, 0.0
68, 0.0
69, 0.0
70, 0.0
71, 0.0
72, 0.0
73, 0.0
74, 0.0
75, 0.0
76, 0.0
77, 0.0
78, 0.0
79, 0.0
80, 0.0
81, 0.0
82, 0.0
83, 0.0
84, 0.0
85, 0.0
86, 0.0
87, 0.0
88, 0.0
89, 0.0
90, 0.0
91, 0.0
92, 0.0
93, 0.0
94, 0.0
95, 0.0
96, 0.0
97, 0.0
98, 0.0
99, 0.0
100.0, 0.006959307578691158
101.0, 0.026507924372767742
102.0, 0.07887445085082412
103.0, 0.15198633071519044
104.0, 0.24486341202931794
105.0, 0.36124481723817525
106.0, 0.4086809125037858
107.0, 0.42603001004692576
108.0, 0.4252658263713713
109.0, 0.3221118129821964
110.0, 0.24340473947660896
111.0, 0.18086186981100347
112.0, 0.12086368647911175
113.0, 0.08812611959825564
114.0, 0.06247757396523537
115.0, 0.038827784072119585
116.0, 0.014997843492033714
117.0, 0.005501883656109206
118.0, 0.004702649097505544
119.0, 0.007522616784029741
120.0, 0.012453551940635415
121.0, 0.03050063385184673
122.0, 0.0627016492979965
123.0, 0.10278977242072175
124.0, 0.155011454941417
125.0, 0.20885280501624667
126.0, 0.2559637742935628
127.0, 0.331852990313935
128.0, 0.39526160706678914
129.0, 0.44461983425889684
130.0, 0.48263696752212193
131.0, 0.4680441637274973
132.0, 0.42985598846147316
133.0, 0.37879638767583684
134.0, 0.34720339734554473
135.0, 0.3078213593965479
136.0, 0.27292796145648807
137.0, 0.2711562716417264
138.0, 0.2564269457746237
139.0, 0.24731579629492773
140.0, 0.24766282541251994
141.0, 0.2403460414241857
142.0, 0.2384333424360655
143.0, 0.23988849756951464
144.0, 0.2432673057190006
145.0, 0.22567769230944035
146.0, 0.22083121647344114
147.0, 0.228543483844699
148.0, 0.22848782037777404
149.0, 0.24342308633863838
150.0, 0.2596930422668442
151.0, 0.2695916230362734
152.0, 0.2622384866458363
153.0, 0.2732539014046881
154.0, 0.28507938036452174
155.0, 0.25298861751117707
156.0, 0.25223722560014
157.0, 0.24979028991466037
158.0, 0.23828179557995158
159.0, 0.2439449531787295
160.0, 0.2521883131463704
161.0, 0.2594245928136624
162.0, 0.2613256089815321
163.0, 0.28987952837505043
164.0, 0.3057346178081043
165.0, 0.3123206384579998
166.0, 0.34370044001874384
167.0, 0.34578384642467214
168.0, 0.3455649156273108
169.0, 0.3560647931530751
170.0, 0.33155079433062595
171.0, 0.3035260265133505
172.0, 0.27359977320063966
173.0, 0.24447042427089247
174.0, 0.19459124662584779
175.0, 0.1543583847851196
176.0, 0.12737294319842007
177.0, 0.09008150477153544
178.0, 0.07066996065088446
179.0, 0.05741586736464021
180.0, 0.04231487728405582
181.0, 0.028208941418680203
182.0, 0.02424447347752793
183.0, 0.025639788638014197
184.0, 0.018590347814839023
185.0, 0.027739282446799223
186.0, 0.03654811064375843
187.0, 0.04047903964978157
188.0, 0.04776191707036748
189.0, 0.06202774551048851
190.0, 0.07594762162606887
191.0, 0.08150775152720896
192.0, 0.10262816480957052
193.0, 0.1073300304029678
194.0, 0.10157798668616876
195.0, 0.11678455417030273
196.0, 0.11288059702678621
197.0, 0.10626109018773737
198.0, 0.10284949336373224
199.0, 0.09694964389534251
200.0, 0.0813902228172515
201.0, 0.06507958156301845
202.0, 0.05947307327408788
203.0, 0.03179920142232691
204.0, 0.014405886508703687
205.0, 0.008594114289978366
206.0, 0.005299912301877851
207.0, 0.006894808809628454
208.0, 0.007172919758211416
209.0, 0.003625662345415165
210.0, 0.006327850306611712
211.0, 0.008041550400973702
212.0, 0.011241773139557437
213.0, 0.019666883250260045
214.0, 0.018266517829262342
215.0, 0.019790422346921237
216.0, 0.023547572143211955
217.0, 0.020029215712579703
218.0, 0.016385397257532585
219.0, 0.014589592516422787
220.0, 0.015183682294598978
221.0, 0.005063928426765974
222.0, 0.006411433265472754
223.0, 0.01158628598122753
224.0, 0.011502521279618216
225.0, 0.005827336198054175
226.0, 0.004352756238663574
227.0, 0.005712503696491474
228.0, 0.0011400951443990303
229.0, 0.0006790941232510392
230.0, 0.0009378933398418282
231.0, 0.0009211065483160871
232.0, 0.004183021781618268
233.0, 0.003691933424389629
234.0, 0.0029258118306706373
235.0, 0.005509792773832099
236.0, 0.008806074029635779
237.0, 0.011444399493599435
238.0, 0.013071263591497724
239.0, 0.012756929392334979
240.0, 0.005767365341493207
241.0, 0.0008939371270329146
242.0, 0.001167198166076206
243.0, 0.011428563294467103
244.0, 0.020255579674842657
245.0, 0.026123845214986507
246.0, 0.0274655713385532
247.0, 0.046181185270723166
248.0, 0.051232651748101384
249.0, 0.05197996689059095
250.0, 0.06840399473937336
251.0, 0.06590057915461309
252.0, 0.06255613455047797
253.0, 0.062167354827258256
254.0, 0.06781620961139607
255.0, 0.06099320586441055
256.0, 0.05784952992874484
257.0, 0.06554679067350808
258.0, 0.04700832778053637
259.0, 0.04682570855837516
260.0, 0.04985742603573126
261.0, 0.0377551489329351
262.0, 0.029633453926910087
263.0, 0.029195007355131145
264.0, 0.030920047812060425
265.0, 0.017213668494978032
266.0, 0.018538944878644936
267.0, 0.014298059467966667
268.0, 0.0010748745895639256
269.0, 0.0008853275799828117
270.0, 0.008587705998110946
271.0, 0.012436050837100341
272.0, 0.004216718863714122
273.0, 0.013178689382126053
274.0, 0.014622009704429863
275.0, 0.014929851115201068
276.0, 0.024348326287004486
277.0, 0.028773668374331228
278.0, 0.03235070274986452
279.0, 0.035241276534315975
280.0, 0.03607107578468232
281.0, 0.03377962805877663
282.0, 0.0348458292043006
283.0, 0.039470489614233835
284.0, 0.026226413376082613
285.0, 0.02811023882181734
286.0, 0.03363882247051382
287.0, 0.034922370951961684
288.0, 0.025897785360975277
289.0, 0.0273656651764076
290.0, 0.0321212365129017
291.0, 0.028645399480896238
292.0, 0.042543281807016546
293.0, 0.052434609177514725
294.0, 0.05793458695870297
295.0, 0.06614676747764234
296.0, 0.07769085285837622
297.0, 0.0873458048777799
298.0, 0.09483802873710206
299.0, 0.1116785632840196
300.0, 0.11713463792066615
301.0, 0.11963742806787972
302.0, 0.12396456580553598
303.0, 0.11623416560075223
304.0, 0.1083198575943363
305.0, 0.10115092526968858
306.0, 0.09603720379704235
307.0, 0.08515653676406848
308.0, 0.08376556304655627
309.0, 0.08616074067549118
310.0, 0.07504714890362812
311.0, 0.0824105912194303
312.0, 0.08803714621472297
313.0, 0.08826395916999427
314.0, 0.0863192625613225
315.0, 0.10131593537327958
316.0, 0.10867098724424093
317.0, 0.09992487080775027
318.0, 0.11381806692202207
319.0, 0.110093850180948
320.0, 0.10689044997186904
321.0, 0.11907815340510085
322.0, 0.13475498228924923
323.0, 0.1458668001054487
324.0, 0.1591770531558483
325.0, 0.18576001360234573
326.0, 0.1920083414943129
327.0, 0.20651004915777801
328.0, 0.2246504723500469
329.0, 0.22500213181494977
330.0, 0.217310078076548
331.0, 0.20644659638078847
332.0, 0.1918452214398385
333.0, 0.16428720337997826
334.0, 0.15719225613912635
335.0, 0.15109084043080775
336.0, 0.13909356612059043
337.0, 0.13948770079275324
338.0, 0.1389040375884554
339.0, 0.14093236320148536
340.0, 0.1484473779539648
341.0, 0.17127190782357715
342.0, 0.18425085942297195
343.0, 0.1949515677477288
344.0, 0.2132099619528589
345.0, 0.21829860896130224
346.0, 0.21666105095540017
347.0, 0.21289693233314314
348.0, 0.215939396053466
349.0, 0.19551161121296984
350.0, 0.17843219602057941
351.0, 0.16557919753080771
352.0, 0.14397359441088856
353.0, 0.12681070996102367
354.0, 0.11484395185252692
355.0, 0.1060863424243786
356.0, 0.08467138779597333
357.0, 0.08599019201743476
358.0, 0.08435414438238566
359.0, 0.06891249942920172
360.0, 0.06615560405100382
361.0, 0.06489106092768746
362.0, 0.06101397368852248
363.0, 0.05135231090679528
364.0, 0.06442264417399765
365.0, 0.059068427426320874
366.0, 0.05272772714523211
367.0, 0.0667358158729719
368.0, 0.06540385011841644
369.0, 0.06355954370423189
370.0, 0.06962271024792822
371.0, 0.09864486736619077
372.0, 0.0860220797536849
373.0, 0.08873979048004564
374.0, 0.10244395813813802
375.0, 0.09598380765440132
376.0, 0.10874855103652765
377.0, 0.119832965147295
378.0, 0.12537408338074552
379.0, 0.1272652695391969
380.0, 0.1369566250851194
381.0, 0.13858237941611562
382.0, 0.13064776566207564
383.0, 0.13940233113737574
384.0, 0.14430089949718375
385.0, 0.14417256070373394
386.0, 0.139054438603854
387.0, 0.13935113231882737
388.0, 0.12495158231278534
389.0, 0.11811052273885085
390.0, 0.13265380555979922
391.0, 0.11888124328547758
392.0, 0.11873100720211438
393.0, 0.12400068863244108
394.0, 0.1273537813023587
395.0, 0.12194328502137215
396.0, 0.11943722507805
397.0, 0.11353400785906971
398.0, 0.0955578573797905
399.0, 0.11220081207853412
400.0, 0.11685752373254493
401.0, 0.1147976350431056
402.0, 0.11910220318765424
403.0, 0.13293275376849978
404.0, 0.13391162262107303
405.0, 0.1303625631664068
406.0, 0.1466225342511305
407.0, 0.1530387117026565
408.0, 0.16867441700847405
409.0, 0.19352493270369409
410.0, 0.21906819142039838
411.0, 0.2289781535913376
412.0, 0.2562099472315634
413.0, 0.299358018151718
414.0, 0.32410452603827616
415.0, 0.37192920602988755
416.0, 0.42486418682711813
417.0, 0.478023178299031
418.0, 0.5320672306952132
419.0, 0.5984505209760413
420.0, 0.6482590829931046
421.0, 0.6772553774371997
422.0, 0.7331036675505762
423.0, 0.7489735881861278
424.0, 0.7373752392325258
425.0, 0.7070001058427242
426.0, 0.6979453914949798
427.0, 0.6461155512742393
428.0, 0.5920589900461114
429.0, 0.5551358320144784
430.0, 0.4941413441550457
431.0, 0.4559321141927464
432.0, 0.4297404150790916
433.0, 0.408882207300767
434.0, 0.3911523568082491
435.0, 0.38487601384598963
436.0, 0.3846252780380501
437.0, 0.3870893951739542
438.0, 0.4205126906111888
439.0, 0.4368523147741374
440.0, 0.45369972821137744
441.0, 0.4868049052127149
442.0, 0.5266834531315747
443.0, 0.5053203570516273
444.0, 0.4688364517192207
445.0, 0.46444243600037904
446.0, 0.40306326295952694
447.0, 0.34495336048970987
448.0, 0.2955217543868127
449.0, 0.2605453793851063
450.0, 0.21630255356304298
451.0, 0.18589258624207342
452.0, 0.1628518816693777
453.0, 0.1384775615952885
454.0, 0.1288742788426853
455.0, 0.11967158935018357
456.0, 0.10673879641900019
457.0, 0.08493584238005822
458.0, 0.08379315535076602
459.0, 0.07438195549490216
460.0, 0.06481095008986396
461.0, 0.06924740880424435
462.0, 0.0630845225345656
463.0, 0.05547537123880147
464.0, 0.05326511408911454
465.0, 0.06663586931983985
466.0, 0.05622474601353277
467.0, 0.059394299555241024
468.0, 0.06697515114306549
469.0, 0.06013558613592588
470.0, 0.0542570904182861
471.0, 0.06806553414433532
472.0, 0.08378984158060596
473.0, 0.06961386336885428
474.0, 0.09034930487999002
475.0, 0.0969862919466708
476.0, 0.09693960803869159
477.0, 0.10847871876271835
478.0, 0.12660877233307624
479.0, 0.13797563988691736
480.0, 0.14899801125327125
481.0, 0.17205816340806857
482.0, 0.2018230616151108
483.0, 0.23255119848239741
484.0, 0.267419577552903
485.0, 0.31246997891944917
486.0, 0.37780978046137076
487.0, 0.44720426925496204
488.0, 0.5189114906609262
489.0, 0.592030669530847
490.0, 0.7189288635977624
491.0, 0.8099747010810089
492.0, 0.8738055976190789
493.0, 0.9304537681998641
494.0, 0.9810412177036612
495.0, 0.9572069535849157
496.0, 0.8904457020571859
497.0, 0.8283577997292136
498.0, 0.7211994022151447
499.0, 0.6252223199933464
500.0, 0.5371258102760192
501.0, 0.44979596502056146
502.0, 0.37925164049472526
503.0, 0.31844967655358797
504.0, 0.2640498275171853
505.0, 0.21242057549756535
506.0, 0.17882713127881683
507.0, 0.1529610796094958
508.0, 0.12874044310928387
509.0, 0.09998283086852672
510.0, 0.09834237838157794
511.0, 0.08016102313352073
512.0, 0.059607630300774365
513.0, 0.049813252636671204
514.0, 0.0402299746592647
515.0, 0.02927057233361042
516.0, 0.02066041586615269
517.0, 0.01744880054760682
518.0, 0.019354469608427356
519.0, 0.014251551105749272
520.0, 0.00763958593501716
521.0, 0.0033628015817174237
522.0, 0.0013132249452826473
523.0, 0.0013885486167880287
524.0, 0.004236269536089028
525.0, 0.00942829834916164
526.0, 0.007785868853853144
527.0, 0.0036939650353800557
528.0, 0.006589354820058783
529.0, 0.017454686055445572
530.0, 0.007053048568905002
531.0, 0.01264038392665578
532.0, 0.012167647093811747
533.0, 0.001356773252437455
534.0, 0.007348530493025186
535.0, 0.007805969665550022
536.0, 0.005653533256828205
537.0, 0.004275710326404414
538.0, 0.014477926630944278
539.0, 0.008185218528695757
540.0, 0.002939885903218463
541.0, 0.0018330417927789574
542.0, 0.0004556952430421476
543.0, 0.002714946920125424
544.0, 0.0031002475933559043
545.0, 0.0015753005237598631
546.0, 0.0006921210697849204
547.0, 0.001642055223810317
548.0, 0.0037308579293184093
549.0, 0.005014877531158661
550.0, 0.0018430711986391827
551.0, 0.001960650864505411
552.0, 0.008433368936254815
553.0, 0.013625157778841832
554.0, 0.005753303132009338
555.0, 0.0157259948129272
556.0, 0.01780149692246521
557.0, 0.01598817783819513
558.0, 0.015970121208450178
559.0, 0.03901103884964172
560.0, 0.03692910353950956
561.0, 0.03393024417757852
562.0, 0.04976608447391594
563.0, 0.061160701016701256
564.0, 0.06511435305492817
565.0, 0.0745006687482604
566.0, 0.09382927991567787
567.0, 0.08719578418100704
568.0, 0.10134627029646891
569.0, 0.10977424973218336
570.0, 0.10537925579302687
571.0, 0.11708583823544651
572.0, 0.130468508751208
573.0, 0.1301264619820704
574.0, 0.12278980395970233
575.0, 0.15309156286570105
576.0, 0.15127567395548178
577.0, 0.1548777537659268
578.0, 0.16909152547265244
579.0, 0.18735906735983637
580.0, 0.18449991709248514
581.0, 0.20261363291557272
582.0, 0.22609137216387173
583.0, 0.21874159757504055
584.0, 0.22649994683093402
585.0, 0.23018227795376325
586.0, 0.22607592247997485
587.0, 0.21126127588815777
588.0, 0.2106292333967654
589.0, 0.19150663599858178
590.0, 0.17306610714977835
591.0, 0.1698293342398523
592.0, 0.15896131902670815
593.0, 0.1354637071228705
594.0, 0.12258329171430436
595.0, 0.12685174229716825
596.0, 0.10386646092575585
597.0, 0.1049734651462002
598.0, 0.10466333852109626
599.0, 0.09542173880647142
600.0, 0.08304149718039039
601.0, 0.08722896001885022
602.0, 0.08889488435360311
603.0, 0.08930775349495777
604.0, 0.10144268187345415
605.0, 0.09878516754533853
606.0, 0.0902528557128368
607.0, 0.08851124128023831
608.0, 0.11127654118256869
609.0, 0.10739785328964194
610.0, 0.1150314742072307
611.0, 0.12824909188267572
612.0, 0.13967721986015028
613.0, 0.14172902427090997
614.0, 0.16812674397595007
615.0, 0.186776210434902
616.0, 0.1832611996622802
617.0, 0.2007393599547146
618.0, 0.21980300951828158
619.0, 0.2354146893119912
620.0, 0.250379091467899
621.0, 0.2834567403486251
622.0, 0.29975713019920763
623.0, 0.3230760232631883
624.0, 0.35482269357722684
625.0, 0.38709187290327324
626.0, 0.41686983343122513
627.0, 0.4451274068157346
628.0, 0.4703316054041586
629.0, 0.4904385697919798
630.0, 0.5230188763017072
631.0, 0.55867919894622
632.0, 0.58877378028266
633.0, 0.6088107533916731
634.0, 0.6493492919050488
635.0, 0.6569684392483729
636.0, 0.6694906011989101
637.0, 0.6940620022180438
638.0, 0.6768102670258511
639.0, 0.6851595875289446
640.0, 0.6931264066692985
641.0, 0.6896671532192061
642.0, 0.6629838118943985
643.0, 0.6661079316048658
644.0, 0.6499105957554091
645.0, 0.6225310813895786
646.0, 0.6036135047929138
647.0, 0.5838112736203996
648.0, 0.5593141707963215
649.0, 0.5345290162555686
650.0, 0.5125593617442913
651.0, 0.4859404954536919
652.0, 0.4612055854625052
653.0, 0.44324720030597814
654.0, 0.42847115017827825
655.0, 0.39022608401905506
656.0, 0.38525929823692723
657.0, 0.3664785161387516
658.0, 0.33904213166916364
659.0, 0.3386634234539766
660.0, 0.3212894274237611
661.0, 0.2953318997124346
662.0, 0.2752310078111147
663.0, 0.2764220249784816
664.0, 0.2550570198382146
665.0, 0.24035271184983903
666.0, 0.23675247057489457
667.0, 0.24016439132988607
668.0, 0.19933459946981397
669.0, 0.1848580532347714
670.0, 0.18086262437044565
671.0, 0.17601108613333255
672.0, 0.15125483420589902
673.0, 0.1528303243575045
674.0, 0.1432703120582049
675.0, 0.1316691979565512
676.0, 0.13982797069847255
677.0, 0.11832829761943159
678.0, 0.1113937695619921
679.0, 0.11356967317451264
680.0, 0.11705216760005883
681.0, 0.09593280426473035
682.0, 0.09158969257294529
683.0, 0.09117898265632526
684.0, 0.08811020545343415
685.0, 0.07708993055703167
686.0, 0.08249038763385542
687.0, 0.07530318399462466
688.0, 0.06401704443966148
689.0, 0.07149310905070107
690.0, 0.05999509158822289
691.0, 0.054031772831987346
692.0, 0.05269717387979007
693.0, 0.053694317577961705
694.0, 0.048704961219768056
695.0, 0.046399959469919955
696.0, 0.044487064530505716
697.0, 0.04099431163353455
698.0, 0.032126277529494526
699.0, 0.039916647012427024
700.0, 0.03659271335619884
701.0, 0.02823366182755855
702.0, 0.03238612175786281
703.0, 0.024495670120856173
704.0, 0.01965049856816306
705.0, 0.022051274840159677
706.0, 0.031071472371289464
707.0, 0.013408651385195963
708.0, 0.02020543256689955
709.0, 0.019409245585383726
710.0, 0.006518565657672974
711.0, 0.003945437517123049
712.0, 0.015465887923478801
713.0, 0.012339036080015518
714.0, 0.006086582203060157
715.0, 0.017170137067208404
716.0, 0.013125977052405181
717.0, 0.007511486786479023
718.0, 0.006960919400413552
719.0, 0.012640303508358545
720.0, 0.005456315371811429
721.0, 0.014649871051736551
722.0, 0.019850817362942773
723.0, 0.020215118015573633
724.0, 0.02638921558336539
725.0, 0.03603283638710569
726.0, 0.031385699930250206
727.0, 0.03026715911167504
728.0, 0.049317641238397686
729.0, 0.04942100032249546
730.0, 0.06366439729293005
731.0, 0.08163488068533058
732.0, 0.09456856258012711
733.0, 0.0874515634935949
734.0, 0.12046556820917616
735.0, 0.1499537665949089
736.0, 0.17032728838810846
737.0, 0.18400049002081514
738.0, 0.24822915278619528
739.0, 0.28298945161947164
740.0, 0.320771242861157
741.0, 0.37835014473425804
742.0, 0.42586918889322106
743.0, 0.44978544396753256
744.0, 0.4691191382354733
745.0, 0.47596680169650135
746.0, 0.4444799026015153
747.0, 0.4174320620090031
748.0, 0.3863482735270599
749.0, 0.3464775403280607
750.0, 0.2974134593907696
751.0, 0.26971142377029467
752.0, 0.22401839040982147
753.0, 0.19150694693592468
754.0, 0.17523167105724133
755.0, 0.1533837772047294
756.0, 0.12544764988671406
757.0, 0.10937946497601547
758.0, 0.09793852109795181
759.0, 0.08158703963947207
760.0, 0.06629532428866225
761.0, 0.060589280164755566
762.0, 0.05587997175623834
763.0, 0.05063870763765754
764.0, 0.052737140902263224
765.0, 0.042517032343349526
766.0, 0.03978952537185481
767.0, 0.04044729375775479
768.0, 0.03575619929247008
769.0, 0.021117110613507017
770.0, 0.030832077015665708
771.0, 0.03390665995043471
772.0, 0.021771503205060737
773.0, 0.023313542628504755
774.0, 0.025708311451280778
775.0, 0.019087636808705455
776.0, 0.011272264550403881
777.0, 0.014736571372125404
778.0, 0.012760487792778854
779.0, 0.005646066166035968
780.0, 0.004967469530978632
781.0, 0.011813239034108707
782.0, 0.004311887176904747
783.0, 0.006878685045562745
784.0, 0.006474176493618101
785.0, 0.00438685718029795
786.0, 0.005552434289031566
787.0, 0.009217105203231716
788.0, 0.007642395183462061
789.0, 0.0048590084563978125
790.0, 0.004068092559263737
791.0, 0.009080796541519333
792.0, 0.01033126121965702
793.0, 0.007685122852889687
794.0, 0.003313404271390796
795.0, 0.0003621707382706128
796.0, 0.0022262110102050313
797.0, 0.005038273054998017
798.0, 0.0066178284846196474
799.0, 0.007962798849155014
800.0, 0.01691692611943728
801.0, 0.014286675432051907
802.0, 0.010983835252906912
803.0, 0.011067430606153414
804.0, 0.016414266510465573
805.0, 0.004642895432935201
806.0, 0.01943455047934289
807.0, 0.02644424185881205
808.0, 0.018466620566766127
809.0, 0.02124166867216892
810.0, 0.03526965880078594
811.0, 0.028094441769518783
812.0, 0.02123389821146719
813.0, 0.03776092148308569
814.0, 0.04040427995153261
815.0, 0.032419634977271246
816.0, 0.03209937196494281
817.0, 0.03800405293912008
818.0, 0.03053167408958297
819.0, 0.043196805535812274
820.0, 0.03718084513887531
821.0, 0.02303633529034948
822.0, 0.014014009067448697
823.0, 0.02446524172090892
824.0, 0.015736015030526882
825.0, 0.013585605119265948
826.0, 0.01810161234629291
827.0, 0.016965463108275836
828.0, 0.008427447528950917
829.0, 0.00682255081673809
830.0, 0.008805748234305537
831.0, 0.012133582757241494
832.0, 0.01764541272782754
833.0, 0.006456211498398658
834.0, 0.010444650786981253
835.0, 0.017695534422719882
836.0, 0.0072277637755919985
837.0, 0.011426804371908164
838.0, 0.013000292899503703
839.0, 0.008680735223033986
840.0, 0.0013848536921116333
841.0, 0.0031664682687829117
842.0, 0.003447793317293344
843.0, 0.006740904413309105
844.0, 0.008378948500648423
845.0, 0.005011080527756609
846.0, 0.005162234232723558
847.0, 0.010615974974226963
848.0, 0.014241086528977247
849.0, 0.01365038925250003
850.0, 0.008275138626747267
851.0, 0.008151456533964823
852.0, 0.011210640987032986
853.0, 0.012474787811730538
854.0, 0.012256396183747513
855.0, 0.022694569786905663
856.0, 0.02895643155408406
857.0, 0.029388850320568767
858.0, 0.031380334960628545
859.0, 0.040458363342600626
860.0, 0.02683533036599182
861.0, 0.038604361718174766
862.0, 0.03969620840484252
863.0, 0.02994856480509556
864.0, 0.03314028378647613
865.0, 0.04486726371303243
866.0, 0.04625068304718461
867.0, 0.04705810219949553
868.0, 0.05317434195356403
869.0, 0.06124705808948324
870.0, 0.06583372870754386
871.0, 0.07231716213224616
872.0, 0.08211349963704156
873.0, 0.09453502969541305
874.0, 0.0951637933841355
875.0, 0.10596505933389648
876.0, 0.1157735986989775
877.0, 0.12444778226055392
878.0, 0.13901142833387822
879.0, 0.13751959849894532
880.0, 0.13905477055357085
881.0, 0.14925433521220277
882.0, 0.16217621202725718
883.0, 0.1436914324738509
884.0, 0.147743757887067
885.0, 0.14333702162138498
886.0, 0.1346109843693654
887.0, 0.12986911497867004
888.0, 0.1285130487987132
889.0, 0.11762552580975749
890.0, 0.10840681987685002
891.0, 0.10326680100613957
892.0, 0.10076403292177342
893.0, 0.09667630550470652
894.0, 0.0942942084527695
895.0, 0.0848111798810866
896.0, 0.07054879769161086
897.0, 0.07039838041724296
898.0, 0.07008474361923249
899.0, 0.06290749549865968
900.0, 0.05958642199447045
901.0, 0.06322498445949071
902.0, 0.042529976956323906
903.0, 0.045316490938965275
904.0, 0.04703146498420229
905.0, 0.0441774985761747
906.0, 0.03907699996228712
907.0, 0.04334288036190009
908.0, 0.04083721211019778
909.0, 0.03530642708855264
910.0, 0.031144673186593717
911.0, 0.03397881695813282
912.0, 0.02909401380537357
913.0, 0.025664371838618447
914.0, 0.023740051370402557
915.0, 0.021109278650819185
916.0, 0.011258320022134342
917.0, 0.019289046134073628
918.0, 0.02566554372647853
919.0, 0.021722932112492203
920.0, 0.00877148130970297
921.0, 0.020818946725039977
922.0, 0.01950125631291233
923.0, 0.021522274250359786
924.0, 0.020842377664481465
925.0, 0.010063408866428434
926.0, 0.013282508944876984
927.0, 0.01594616110960701
928.0, 0.02917564410523041
929.0, 0.038820753016279796
930.0, 0.019852871181547264
931.0, 0.03567471176752885
932.0, 0.0302901186159596
933.0, 0.030287576549134863
934.0, 0.03967327572537913
935.0, 0.041108745241495895
936.0, 0.043292327797042965
937.0, 0.050486318316198785
938.0, 0.059509740305256936
939.0, 0.06782739166898666
940.0, 0.07400544606286583
941.0, 0.07906776917421644
942.0, 0.0882604399057263
943.0, 0.10697515984552065
944.0, 0.131882182902709
945.0, 0.12841662795017633
946.0, 0.14564445098172948
947.0, 0.15372140776860366
948.0, 0.15783726274118237
949.0, 0.16787848216569554
950.0, 0.17823422916816706
951.0, 0.1810512125450165
952.0, 0.17912039168213156
953.0, 0.17590555768346297
954.0, 0.17398629081350028
955.0, 0.15502921010997386
956.0, 0.14361796814325656
957.0, 0.13422418394274716
958.0, 0.12286022924938188
959.0, 0.10628578637084041
960.0, 0.09482391646956179
961.0, 0.08917062197713517
962.0, 0.07842985136710888
963.0, 0.06925991722479
964.0, 0.08544295144252352
965.0, 0.06697388318921942
966.0, 0.063326250795611
967.0, 0.06430288233279444
968.0, 0.06135180485886796
969.0, 0.0481821379201733
970.0, 0.05131739657644851
971.0, 0.03856899164453155
972.0, 0.0338235819178252
973.0, 0.04314184624263337
974.0, 0.030785810959236357
975.0, 0.025373883758468083
976.0, 0.023544976486557727
977.0, 0.01870230028023775
978.0, 0.012193375202391325
979.0, 0.02994310148984719
980.0, 0.03949555660200685
981.0, 0.02621597296268099
982.0, 0.01151265036574408
983.0, 0.011912210851188888
984.0, 0.005742912315568605
985.0, 0.003670076301707512
986.0, 0.002211001776516838
987.0, 0.0018023250011767772
988.0, 0.004441986186378222
989.0, 0.01719715281362079
990.0, 0.012686764358989279
991.0, 0.015657968085425952
992.0, 0.02067560032356977
993.0, 0.019843304645997935
994.0, 0.03876962215802309
995.0, 0.02730450464106628
996.0, 0.030957962357673452
997.0, 0.04260018774904374
998.0, 0.042772224654098384
999.0, 0.04444131585495192
1000.0, 0.04087338132795968
1001.0, 0.044952187965560074
1002.0, 0.05758980930958575
1003.0, 0.07226992414204418
1004.0, 0.054715326777157285
1005.0, 0.058797133299309905
1006.0, 0.05966081141404309
1007.0, 0.051262783060957655
1008.0, 0.037355683716407816
1009.0, 0.04790722774597266
1010.0, 0.046011725599106615
1011.0, 0.0489499361489864
1012.0, 0.05715593744511785
1013.0, 0.06229437427599728
1014.0, 0.039289363169004755
1015.0, 0.04779696950081812
1016.0, 0.05230733178940364
1017.0, 0.04776200019056395
1018.0, 0.04286713616101849
1019.0, 0.04767331176169428
1020.0, 0.04212556777762801
1021.0, 0.0393454324082273
1022.0, 0.041408249454106066
1023.0, 0.0440487526674259
1024.0, 0.027215121822540888
1025.0, 0.037626693001686334
1026.0, 0.03344104732318431
1027.0, 0.018824483791749315
1028.0, 0.01692888775597812
1029.0, 0.033764911550525745
1030.0, 0.02625007597976814
1031.0, 0.01777673389971477
1032.0, 0.015575866850525918
1033.0, 0.018574127449750285
1034.0, 0.007562599918478174
1035.0, 0.015215791013387414
1036.0, 0.011807652561216426
1037.0, 0.0047154816179898525
1038.0, 0.010181332612482174
1039.0, 0.0052567971202996475
1040.0, 0.003683944929164824
1041.0, 0.003655135015685182
1042.0, 0.00555321707281761
1043.0, 0.009305833675551864
1044.0, 0.008128965567583826
1045.0, 0.010467109052849834
1046.0, 0.012530394407618545
1047.0, 0.015642753783178292
1048.0, 0.021856587536624644
1049.0, 0.03052163251677168
1050.0, 0.032568845943317985
1051.0, 0.03544121213292802
1052.0, 0.0376856065083307
1053.0, 0.037888959612568024
1054.0, 0.041964036795502674
1055.0, 0.03928182128512006
1056.0, 0.03589306015984907
1057.0, 0.03584052383550361
1058.0, 0.04145270272991017
1059.0, 0.0515382889595294
1060.0, 0.05667153811447861
1061.0, 0.059043223479514906
1062.0, 0.05554355862020334
1063.0, 0.04621845184211283
1064.0, 0.038717714379966905
1065.0, 0.04291411225630688
1066.0, 0.03629393538310185
1067.0, 0.03106621135657332
1068.0, 0.03257885255038407
1069.0, 0.031840974267705345
1070.0, 0.013135128238511855
1071.0, 0.01636250091255441
1072.0, 0.021056309826345373
1073.0, 0.01922171262856158
1074.0, 0.01865254589096748
1075.0, 0.023213029842170704
1076.0, 0.011085089250355128
1077.0, 0.013587701089365899
1078.0, 0.024277961469195423
1079.0, 0.011152034131440591
1080.0, 0.010110875060907827
1081.0, 0.02000851436231453
1082.0, 0.014567436202563375
1083.0, 0.00452802305275078
1084.0, 0.014218262129212723
1085.0, 0.020704498069776693
1086.0, 0.008290095246928926
1087.0, 0.010816409742122196
1088.0, 0.014528530284104165
1089.0, 0.0017146440307124339
1090.0, 0.009981656747448553
1091.0, 0.0178578723548785
1092.0, 0.013612596454687717
1093.0, 0.009977506720812594
1094.0, 0.014806919303825331
1095.0, 0.008923391311847788
1096.0, 0.009990256451543977
1097.0, 0.006979653824289816
1098.0, 0.003975848046709219
1099.0, 0.005044099968861452
1100.0, 0.011864074519435365
1101.0, 0.007584741780822602
1102.0, 0.005405352848583034
1103.0, 0.009973901966449435
1104.0, 0.014401550143939245
1105.0, 0.0026662230061797717
1106.0, 0.008703757761311102
1107.0, 0.020014272092335084
1108.0, 0.0386496662032892
1109.0, 0.0438611992152696
1110.0, 0.012327409610186474
1111.0, 0.0040725629305149915
1112.0, 0.005538260328719789
1113.0, 0.011331241938585557
1114.0, 0.01342217885023356
1115.0, 0.007600747886548446
1116.0, 0.007749057712719193
1117.0, 0.01618369392814363
1118.0, 0.014514822133235695
1119.0, 0.018347818345943796
1120.0, 0.03426903784660343
1121.0, 0.04149378387595462
1122.0, 0.03944302269861594
1123.0, 0.0439570179860777
1124.0, 0.048310771069913876
1125.0, 0.048831392760311225
1126.0, 0.04689481974306255
1127.0, 0.06596490696666939
1128.0, 0.06269797133456802
1129.0, 0.06769696982675955
1130.0, 0.08145669321004119
1131.0, 0.09030266446815148
1132.0, 0.09456112567085058
1133.0, 0.09923603251480488
1134.0, 0.10602039481129324
1135.0, 0.11000114685662031
1136.0, 0.11386216940936086
1137.0, 0.14754659569233927
1138.0, 0.11522648744434169
1139.0, 0.11772492509590053
1140.0, 0.13543525103058554
1141.0, 0.13577410235664822
1142.0, 0.08666537304143798
1143.0, 0.11974678557263406
1144.0, 0.12331059750486827
1145.0, 0.11463306697913286
1146.0, 0.11144939884543692
1147.0, 0.12382822578963705
1148.0, 0.10055991216878438
1149.0, 0.10770185273011347
1150.0, 0.1117361453470343
1151.0, 0.1043449680986066
1152.0, 0.09401640307373174
1153.0, 0.11915406589540262
1154.0, 0.10355247458899275
1155.0, 0.09376718680276241
1156.0, 0.09541077416714175
1157.0, 0.10104478224183258
1158.0, 0.09271599166688844
1159.0, 0.10002407292778392
1160.0, 0.09789457616059748
1161.0, 0.09280035971449674
1162.0, 0.09743134566207631
1163.0, 0.11800524597151754
1164.0, 0.09931688240684682
1165.0, 0.10002625142207278
1166.0, 0.11501048732570705
1167.0, 0.11822160110437542
1168.0, 0.10107494853936913
1169.0, 0.10378994672408286
1170.0, 0.11517343374682056
1171.0, 0.1196198436639495
1172.0, 0.12131577998734201
1173.0, 0.12149981027809145
1174.0, 0.11822676383183582
1175.0, 0.11471090275990997
1176.0, 0.11967134843686618
1177.0, 0.11212621802229285
1178.0, 0.10785252143343194
1179.0, 0.1227109047631168
1180.0, 0.12855612229142033
1181.0, 0.10943861821024067
1182.0, 0.10989552875264164
1183.0, 0.10880613063642813
1184.0, 0.09941910503712896
1185.0, 0.10088071381603307
1186.0, 0.11540074749516747
1187.0, 0.1000569418027383
1188.0, 0.09980578239901311
1189.0, 0.10896779943678277
1190.0, 0.10316618084389123
1191.0, 0.08434715967579512
1192.0, 0.09880753186061197
1193.0, 0.09386803460493061
1194.0, 0.0984738292394488
1195.0, 0.11615271137623936
1196.0, 0.09740139111931997
1197.0, 0.08682690365407864
1198.0, 0.09785782568044912
1199.0, 0.10685214940619424
1200.0, 0.10065738915253453
1201.0, 0.0820332404053862
1202.0, 0.1015056094670624
1203.0, 0.1234819472421576
1204.0, 0.10477273266861069
1205.0, 0.08185038470236732
1206.0, 0.07758932803724737
1207.0, 0.07253072131857399
1208.0, 0.07531829783139563
1209.0, 0.06985313078863399
1210.0, 0.06671266656850154
1211.0, 0.06697408584016698
1212.0, 0.06589628374892656
1213.0, 0.05660948765515063
1214.0, 0.058434982839109605
1215.0, 0.06180984020532966
1216.0, 0.05273884776308426
1217.0, 0.038270985791395595
1218.0, 0.052332785454941716
1219.0, 0.055963494483204354
1220.0, 0.04740446579426358
1221.0, 0.046938692164707994
1222.0, 0.045408753325289264
1223.0, 0.030657845057882053
1224.0, 0.030591310847587358
1225.0, 0.047512627306668484
1226.0, 0.02812374207546935
1227.0, 0.021499642618387077
1228.0, 0.03925120827116813
1229.0, 0.04152697504086306
1230.0, 0.02864537372345983
1231.0, 0.031512730284864524
1232.0, 0.033682030573653425
1233.0, 0.027631644856496305
1234.0, 0.021884335712526
1235.0, 0.05769266277377076
1236.0, 0.024972597803792837
1237.0, 0.03551186123146634
1238.0, 0.05339781185873018
1239.0, 0.05117222787589298
1240.0, 0.026539630967975708
1241.0, 0.055294937619414404
1242.0, 0.0378430707003684
1243.0, 0.02410390840932679
1244.0, 0.03529210106481173
1245.0, 0.05478394330766656
1246.0, 0.020192531336887976
1247.0, 0.049427605236530156
1248.0, 0.04841168062910627
1249.0, 0.036062320498633275
1250.0, 0.034833894088471776
1251.0, 0.052221197103008585
1252.0, 0.04115286555576252
1253.0, 0.03771141174659025
1254.0, 0.04917300107211024
1255.0, 0.048496671397437845
1256.0, 0.03659410392003619
1257.0, 0.041004959490441
1258.0, 0.07094360535099468
1259.0, 0.04102891440838272
1260.0, 0.03827340623024734
1261.0, 0.05554014555945906
1262.0, 0.06256795799332254
1263.0, 0.03236687302745839
1264.0, 0.05283239317511657
1265.0, 0.03753810621581652
1266.0, 0.0257253680679204
1267.0, 0.036560343993564504
1268.0, 0.059950692196628935
1269.0, 0.027598450910292532
1270.0, 0.05212075376636576
1271.0, 0.04732801024686627
1272.0, 0.030615053816214637
1273.0, 0.033697181355125345
1274.0, 0.07235792934681487
1275.0, 0.03406967556666973
1276.0, 0.03310456618979582
1277.0, 0.04944233935207531
1278.0, 0.0466308845011177
1279.0, 0.029364040146262045
1280.0, 0.05248303697789886
1281.0, 0.05358942572391468
1282.0, 0.027453125809646622
1283.0, 0.03505112153146292
1284.0, 0.04632993523473799
1285.0, 0.03009471293470917
1286.0, 0.01635474797895436
1287.0, 0.03892743664571962
1288.0, 0.025200833580700036
1289.0, 0.022629929032806362
1290.0, 0.03245350003645281
1291.0, 0.03172034429295529
1292.0, 0.0044740241894866
1293.0, 0.020186421900449194
1294.0, 0.028585895946068984
1295.0, 0.018370588352851085
1296.0, 0.010316119054595329
1297.0, 0.030198921163835293
1298.0, 0.012153208329133757
1299.0, 0.013511750308513171
1300.0, 0.0314599916560383
1301.0, 0.028188699851562606
1302.0, 0.006503557526544669
1303.0, 0.010669553962071534
1304.0, 0.01735948621140359
1305.0, 0.00950139734405729
1306.0, 0.010491878350091173
1307.0, 0.01613641427688169
1308.0, 0.017227618317837166
1309.0, 0.009380956262395925
1310.0, 0.03111359619110341
1311.0, 0.01949094224809692
1312.0, 0.013214749826938774
1313.0, 0.01051972514346626
1314.0, 0.008400669629701282
1315.0, 0.024902919630345216
1316.0, 0.039738918190246914
1317.0, 0.04722052959936969
1318.0, 0.030983497918589696
1319.0, 0.01868305333303951
1320.0, 0.027371511809668018
1321.0, 0.0066148492473285195
1322.0, 0.012403585327218558
1323.0, 0.02598556135235161
1324.0, 0.020733287325646138
1325.0, 0.01429087841771536
1326.0, 0.029030968864347553
1327.0, 0.033334556076838356
1328.0, 0.014091725682841503
1329.0, 0.030110077256765823
1330.0, 0.03707156505664319
1331.0, 0.029152055249713277
1332.0, 0.028444432196697685
1333.0, 0.05807929239701551
1334.0, 0.028219291798002498
1335.0, 0.03821403103971226
1336.0, 0.05870620635785488
1337.0, 0.05940994088602208
1338.0, 0.038315991064860125
1339.0, 0.07665740766655041
1340.0, 0.08537259165578007
1341.0, 0.0639328306773105
1342.0, 0.07753590192944468
1343.0, 0.10516564098608783
1344.0, 0.08752412539436387
1345.0, 0.09396317046104256
1346.0, 0.12484329675393323
1347.0, 0.11249545362172175
1348.0, 0.11148348984926425
1349.0, 0.1288503875612458
1350.0, 0.13120790492550588
1351.0, 0.11454498030781002
1352.0, 0.1508220443610291
1353.0, 0.13433369241800924
1354.0, 0.12064750625947677
1355.0, 0.12997695461980893
1356.0, 0.13642212228854497
1357.0, 0.09591186738203065
1358.0, 0.0966628051657789
1359.0, 0.10900657256583066
1360.0, 0.09139427707969965
1361.0, 0.068167001366363
1362.0, 0.08670950769805547
1363.0, 0.08052310289441358
1364.0, 0.04003042150897922
1365.0, 0.06575238986714535
1366.0, 0.0657398353684915
1367.0, 0.03564278390477298
1368.0, 0.034469843922581136
1369.0, 0.07184185162473689
1370.0, 0.03213797393598162
1371.0, 0.03515086116717044
1372.0, 0.04984336035961332
1373.0, 0.041199357748886646
1374.0, 0.00832316420346518
1375.0, 0.03862053216790297
1376.0, 0.029798622273938286
1377.0, 0.023713313868042818
1378.0, 0.04009187268596603
1379.0, 0.04472026670452485
1380.0, 0.011671770169984812
1381.0, 0.014218781607519451
1382.0, 0.02519618220866066
1383.0, 0.009356517080674608
1384, 0.0
1385, 0.0
1386, 0.0
1387, 0.0
1388, 0.0
1389, 0.0
1390, 0.0
1391, 0.0
1392, 0.0
1393, 0.0
1394, 0.0
1395, 0.0
1396, 0.0
1397, 0.0
1398, 0.0
1399, 0.0
1400, 0.0
1401, 0.0
1402, 0.0
1403, 0.0
1404, 0.0
1405, 0.0
1406, 0.0
1407, 0.0
1408, 0.0
1409, 0.0
1410, 0.0
1411, 0.0
1412, 0.0
1413, 0.0
1414, 0.0
1415, 0.0
1416, 0.0
1417, 0.0
1418, 0.0
1419, 0.0
1420, 0.0
1421, 0.0
1422, 0.0
1423, 0.0
1424, 0.0
1425, 0.0
1426, 0.0
1427, 0.0
1428, 0.0
1429, 0.0
1430, 0.0
1431, 0.0
1432, 0.0
1433, 0.0
1434, 0.0
1435, 0.0
1436, 0.0
1437, 0.0
1438, 0.0
1439, 0.0
1440, 0.0
1441, 0.0
1442, 0.0
1443, 0.0
1444, 0.0
1445, 0.0
1446, 0.0
1447, 0.0
1448, 0.0
1449, 0.0
1450, 0.0
1451, 0.0
1452, 0.0
1453, 0.0
1454, 0.0
1455, 0.0
1456, 0.0
1457, 0.0
1458, 0.0
1459, 0.0
1460, 0.0
1461, 0.0
1462, 0.0
1463, 0.0
1464, 0.0
1465, 0.0
1466, 0.0
1467, 0.0
1468, 0.0
1469, 0.0
1470, 0.0
1471, 0.0
1472, 0.0
1473, 0.0
1474, 0.0
1475, 0.0
1476, 0.0
1477, 0.0
1478, 0.0
1479, 0.0
1480, 0.0
1481, 0.0
1482, 0.0
1483, 0.0
1484, 0.0
1485, 0.0
1486, 0.0
1487, 0.0
1488, 0.0
1489, 0.0
1490, 0.0
1491, 0.0
1492, 0.0
1493, 0.0
1494, 0.0
1495, 0.0
1496, 0.0
1497, 0.0
1498, 0.0
1499, 0.0
1500, 0.0
1501, 0.0
1502, 0.0
1503, 0.0
1504, 0.0
1505, 0.0
1506, 0.0
1507, 0.0
1508, 0.0
1509, 0.0
1510, 0.0
1511, 0.0
1512, 0.0
1513, 0.0
1514, 0.0
1515, 0.0
1516, 0.0
1517, 0.0
1518, 0.0
1519, 0.0
1520, 0.0
1521, 0.0
1522, 0.0
1523, 0.0
1524, 0.0
1525, 0.0
1526, 0.0
1527, 0.0
1528, 0.0
1529, 0.0
1530, 0.0
1531, 0.0
1532, 0.0
1533, 0.0
1534, 0.0
1535, 0.0
1536, 0.0
1537, 0.0
1538, 0.0
1539, 0.0
1540, 0.0
1541, 0.0
1542, 0.0
1543, 0.0
1544, 0.0
1545, 0.0
1546, 0.0
1547, 0.0
1548, 0.0
1549, 0.0
1550, 0.0
1551, 0.0
1552, 0.0
1553, 0.0
1554, 0.0
1555, 0.0
1556, 0.0
1557, 0.0
1558, 0.0
1559, 0.0
1560, 0.0
1561, 0.0
1562, 0.0
1563, 0.0
1564, 0.0
1565, 0.0
1566, 0.0
1567, 0.0
1568, 0.0
1569, 0.0
1570, 0.0
1571, 0.0
1572, 0.0
1573, 0.0
1574, 0.0
1575, 0.0
1576, 0.0
1577, 0.0
1578, 0.0
1579, 0.0
1580, 0.0
1581, 0.0
1582, 0.0
1583, 0.0
1584, 0.0
1585, 0.0
1586, 0.0
1587, 0.0
1588, 0.0
1589, 0.0
1590, 0.0
1591, 0.0
1592, 0.0
1593, 0.0
1594, 0.0
1595, 0.0
1596, 0.0
1597, 0.0
1598, 0.0
1599, 0.0
