30, 0.0
31, 0.0
32, 0.0
33, 0.0
34, 0.0
35, 0.0
36, 0.0
37, 0.0
38, 0.0
39, 0.0
40, 0.0
41, 0.0
42, 0.0
43, 0.0
44, 0.0
45, 0.0
46, 0.0
47, 0.0
48, 0.0
49, 0.0
50, 0.0
51, 0.0
52, 0.0
53, 0.0
54, 0.0
55, 0.0
56, 0.0
57, 0.0
58, 0.0
59, 0.0
60, 0.0
61, 0.0
62, 0.0
63, 0.0
64, 0.0
65, 0.0
66, 0.0
67, 0.0
68, 0.0
69, 0.0
70, 0.0
71, 0.0
72, 0.0
73, 0.0
74, 0.0
75, 0.0
76, 0.0
77, 0.0
78, 0.0
79, 0.0
80, 0.0
81, 0.0
82, 0.0
83, 0.0
84, 0.0
85, 0.0
86, 0.0
87, 0.0
88, 0.0
89, 0.0
90, 0.0
91, 0.0
92, 0.0
93, 0.0
94, 0.0
95, 0.0
96, 0.0
97, 0.0
98, 0.0
99, 0.0
100, 0.0
101, 0.0
102, 0.0
103, 0.0
104, 0.0
105, 0.0
106, 0.0
107, 0.0
108, 0.0
109, 0.0
110, 0.0
111, 0.0
112, 0.0
113.0, 2.2384051930615164e-05
114.0, 0.0010989412614608512
115.0, 0.0014525316202841595
116.0, 0.0008407545237628627
117.0, 0.0003606583313589374
118.0, 0.0009036815894214566
119.0, 0.0011004494662126597
120.0, 0.002131463783055007
121.0, 0.003820001789257433
122.0, 0.00506440166751346
123.0, 0.00323455612343222
124.0, 0.0035941595894626124
125.0, 0.004700220162162669
126.0, 0.0040673819701729395
127.0, 0.004118094225220961
128.0, 0.005142667309947834
129.0, 0.004759567691318722
130.0, 0.0025412358293234786
131.0, 0.004838255551365301
132.0, 0.0038726400040897165
133.0, 0.0038973832363080074
134.0, 0.005949038649749013
135.0, 0.005335299131147476
136.0, 0.0064155646779255095
137.0, 0.006586054933197215
138.0, 0.006471682792819275
139.0, 0.008837359656120824
140.0, 0.008354197656284403
141.0, 0.008404006131056074
142.0, 0.009412825133460886
143.0, 0.011107599170813142
144.0, 0.012251391910892395
145.0, 0.012235165617512022
146.0, 0.011243211709156632
147.0, 0.010195736707654673
148.0, 0.011654971515162408
149.0, 0.011252966778088347
150.0, 0.011299673376653926
151.0, 0.012219692910754976
152.0, 0.010704757240371452
153.0, 0.010355742055294326
154.0, 0.009273470082142646
155.0, 0.007671565203684774
156.0, 0.007316982210464265
157.0, 0.006277914013300934
158.0, 0.0051227360164352136
159.0, 0.004608424569186943
160.0, 0.0051561926186691025
161.0, 0.005318398821210334
162.0, 0.0033499847658891796
163.0, 0.002212214012847754
164.0, 0.0028267635011005056
165.0, 0.00111287167001259
166.0, 0.0014405697703723454
167.0, 0.0012065257580974123
168.0, 0.00026756542447725715
169.0, 0.0004710505084648532
170.0, 0.00134183559484738
171.0, 0.0016267804423345912
172.0, 0.0005534778656899361
173.0, 0.0004119829334717331
174.0, 0.00019932822818937573
175.0, 0.0013536922088942696
176.0, 0.0026291565963650373
177.0, 0.0036102664983006134
178.0, 0.004754383432033759
179.0, 0.006648636251422633
180.0, 0.008541816450090813
181.0, 0.009535922186393498
182.0, 0.009595846339132743
183.0, 0.011351729708850929
184.0, 0.011493590611698424
185.0, 0.010987825623999244
186.0, 0.01080767293893712
187.0, 0.008902626189862574
188.0, 0.011374411160115717
189.0, 0.013326732307256688
190.0, 0.01314575733785488
191.0, 0.013791805469243301
192.0, 0.014390479545745596
193.0, 0.01565016503845945
194.0, 0.016907411621156325
195.0, 0.017405053427004612
196.0, 0.019988613352813572
197.0, 0.02130989907084287
198.0, 0.022925626526446276
199.0, 0.026431466697493723
200.0, 0.03051648097064063
201.0, 0.0342224410118502
202.0, 0.03952845127046839
203.0, 0.04498081008408942
204.0, 0.04755811221006619
205.0, 0.05295806202179542
206.0, 0.05904946236102342
207.0, 0.06371872256859612
208.0, 0.06647934356813755
209.0, 0.06822816851486523
210.0, 0.06590551737930656
211.0, 0.06106073838482995
212.0, 0.054516321963912935
213.0, 0.04636845146889509
214.0, 0.039333515066817946
215.0, 0.0335465866549697
216.0, 0.027506026845972916
217.0, 0.02094915632256135
218.0, 0.01764018066795498
219.0, 0.014188024254941697
220.0, 0.010488002771846115
221.0, 0.007683062675240342
222.0, 0.00604944234281745
223.0, 0.004284703315775712
224.0, 0.002772541530360602
225.0, 0.0015142935751558564
226.0, 0.0007456568727727338
227.0, 0.0016436431759388184
228.0, 0.0018049921788865367
229.0, 0.0006800994954657337
230.0, 0.0024683307503098155
231.0, 0.0020442191300994936
232.0, 0.002350461165410756
233.0, 0.0012134377281641448
234.0, 0.0010178659024511869
235.0, 0.0032010503009741583
236.0, 0.0017040281241781775
237.0, 0.00016973948691178685
238.0, 0.0006427885433312615
239.0, 0.00018960369800787412
240.0, 0.0010283948200778476
241.0, 0.000421098805812491
242.0, 0.0011041970067965363
243.0, 0.0012518235535787041
244.0, 0.00044262799419865484
245.0, 0.00017865782345817148
246.0, 0.00018638245346550486
247.0, 0.0006464431562442352
248.0, 0.0019658692661802778
249.0, 0.001764812796414441
250.0, 0.00172157824888012
251.0, 0.001887848568155755
252.0, 0.0014260171469529957
253.0, 0.0007696461230147334
254.0, 0.002409298240401526
255.0, 0.001713567630861366
256.0, 0.001576047200318562
257.0, 0.0017432458646183889
258.0, 0.0005758157420268526
259.0, 0.0015892867719501877
260.0, 0.002386843041517357
261.0, 0.002988545287989442
262.0, 0.0032671409646915436
263.0, 0.002358705892755293
264.0, 0.001322596801733532
265.0, 0.00195641364391533
266.0, 0.0026253681514695646
267.0, 0.0021555962002373992
268.0, 0.002162998261668387
269.0, 0.0036563065477444863
270.0, 0.0050714401436708955
271.0, 0.004438186071328264
272.0, 0.0016173375688623062
273.0, 0.0032377134902518076
274.0, 0.0039455884108899305
275.0, 0.004720798642988129
276.0, 0.006096042082115723
277.0, 0.005116797485733403
278.0, 0.004391989265266827
279.0, 0.003925145442579223
280.0, 0.003817289234176223
281.0, 0.004259882533352702
282.0, 0.004912143547713041
283.0, 0.005742727128578399
284.0, 0.005593898481792923
285.0, 0.004756774683909167
286.0, 0.00473544725878496
287.0, 0.0047252987127573975
288.0, 0.005024231998043446
289.0, 0.004992136782651221
290.0, 0.003629610348593441
291.0, 0.0015734382561770543
292.0, 0.0030277968956836905
293.0, 0.002737901296228802
294.0, 0.0023846662285041714
295.0, 0.003100827688104974
296.0, 0.0018297728899727076
297.0, 0.0033595758867695927
298.0, 0.004933871661882241
299.0, 0.0060935271760177885
300.0, 0.007454823410185565
301.0, 0.006789173311535012
302.0, 0.006471444489231703
303.0, 0.007109619847444507
304.0, 0.008426645741650356
305.0, 0.010041564264484073
306.0, 0.01027828439767588
307.0, 0.012837838218986002
308.0, 0.014986663839481527
309.0, 0.014970178762668417
310.0, 0.017663266146966804
311.0, 0.022659832513919856
312.0, 0.02576226048292297
313.0, 0.02945489601525704
314.0, 0.03567530604841926
315.0, 0.03889597942272392
316.0, 0.04188266394185399
317.0, 0.045315545893603544
318.0, 0.046695348828860325
319.0, 0.04429021068035469
320.0, 0.04011187700598048
321.0, 0.03556731313252724
322.0, 0.03381578271120428
323.0, 0.03448164074217115
324.0, 0.035213481903552134
325.0, 0.034084320487427745
326.0, 0.036903413455028664
327.0, 0.04028484239338545
328.0, 0.04238907823102345
329.0, 0.044502257942977484
330.0, 0.046960869719753114
331.0, 0.052837642004566636
332.0, 0.059839839835208665
333.0, 0.06609322980505228
334.0, 0.0727356963437339
335.0, 0.08185322730569893
336.0, 0.09130709375796246
337.0, 0.09930916193378318
338.0, 0.10560777668508936
339.0, 0.11296189334599183
340.0, 0.12356048799860239
341.0, 0.13098448626055553
342.0, 0.1379418580941078
343.0, 0.14756758322470326
344.0, 0.15550908745161568
345.0, 0.16435545619271869
346.0, 0.17851444395277405
347.0, 0.1962848663344087
348.0, 0.2156512087393786
349.0, 0.23758744531294915
350.0, 0.2587828622205933
351.0, 0.28539073877039284
352.0, 0.315669284061232
353.0, 0.34529579742727873
354.0, 0.3739084469334491
355.0, 0.38581977161912906
356.0, 0.39246456021710996
357.0, 0.38875216011392083
358.0, 0.3645902173011047
359.0, 0.3326583049166668
360.0, 0.2943304374029257
361.0, 0.25755871636245253
362.0, 0.22600988950685102
363.0, 0.1987307734310097
364.0, 0.17337196186146175
365.0, 0.1542506061107482
366.0, 0.14006925030282844
367.0, 0.12912382331316008
368.0, 0.12111893147310819
369.0, 0.11494062814163665
370.0, 0.10829456044676489
371.0, 0.1039752338258271
372.0, 0.1018964073484381
373.0, 0.09907064894863235
374.0, 0.09240672372764865
375.0, 0.0871263961244666
376.0, 0.08128789489201804
377.0, 0.07389840200420705
378.0, 0.06582698862030571
379.0, 0.05767756509574712
380.0, 0.05035077744457879
381.0, 0.042239332891872185
382.0, 0.03498590271353003
383.0, 0.03038369158867162
384.0, 0.025374809940892362
385.0, 0.021600242925624274
386.0, 0.01763187758572705
387.0, 0.015060830043743237
388.0, 0.01490941617692788
389.0, 0.012884047281785918
390.0, 0.01056660228083364
391.0, 0.007519514245863245
392.0, 0.006347420107080208
393.0, 0.007494784521185105
394.0, 0.005525508950753794
395.0, 0.004412377462784126
396.0, 0.0027585539656862744
397.0, 0.002284063269649374
398.0, 0.003758174035827186
399.0, 0.0013404670727513919
400.0, 0.0019340983778695967
401.0, 0.001004791797044019
402.0, 0.0006748597813041692
403.0, 0.0006696070599109927
404.0, 0.0006171795950024736
405.0, 0.00048084629748521165
406.0, 0.0008997865293858473
407.0, 0.00166593674070124
408.0, 0.0010548582755279113
409.0, 0.0007054047329707074
410.0, 0.00031827103995175443
411.0, 0.00045261177757766687
412.0, 0.00023726388141039837
413.0, 0.0005293016343873879
414.0, 0.000572030933241769
415.0, 0.0008547065297235591
416.0, 0.0002143336515350149
417.0, 0.0006339865075257283
418.0, 0.0003929520161231824
419.0, 0.0008632248112441691
420.0, 0.00024370878101092984
421.0, 0.00025289267123776486
422.0, 0.0015735655465568999
423.0, 0.0015202272828602563
424.0, 0.00021179358548243464
425.0, 0.001716930525597309
426.0, 0.0015091167145855054
427.0, 0.000688813359608545
428.0, 0.0001522439142683726
429.0, 0.0004570345841374933
430.0, 0.0012947477342988157
431.0, 0.0003606098440158797
432.0, 8.602440932270323e-05
433.0, 0.00038544360401282995
434.0, 0.0004048585804463488
435.0, 5.336158049329146e-05
436.0, 0.000346031273063217
437.0, 0.000772472997550327
438.0, 0.002074950651662088
439.0, 0.0015174082644635652
440.0, 0.0019645251758328695
441.0, 0.0015313121604627286
442.0, 0.0012518465771602638
443.0, 0.0001463612622239378
444.0, 0.0005783729728335489
445.0, 0.0014910355855310457
446.0, 0.00013767772508666473
447.0, 0.0014355339676287917
448.0, 0.0018716038381430408
449.0, 0.0009172062925395222
450.0, 0.00022980815716250203
451.0, 0.00026436817894624293
452.0, 0.0010893054582859396
453.0, 0.001180850407129806
454.0, 0.0008239379066551671
455.0, 0.002322075865883111
456.0, 0.0006827081159417765
457.0, 0.001899165085172504
458.0, 0.0020599013852064733
459.0, 0.002059277748439261
460.0, 0.0027146177702514285
461.0, 0.0028136112713584354
462.0, 0.001091572452873766
463.0, 0.001547342826752159
464.0, 0.0021172286302311044
465.0, 0.002836428675776473
466.0, 0.003471045150221815
467.0, 0.0029039967063373387
468.0, 0.0027913094860276336
469.0, 0.002990241866770656
470.0, 0.004432121011184617
471.0, 0.006131944651686704
472.0, 0.006777596093579424
473.0, 0.007215354657810853
474.0, 0.007881524513506722
475.0, 0.00917365734137445
476.0, 0.00956028180985295
477.0, 0.010044046860915614
478.0, 0.013695843184057276
479.0, 0.01489130593577157
480.0, 0.015559710362171962
481.0, 0.017505739892600475
482.0, 0.021270368379749147
483.0, 0.02521290487136645
484.0, 0.027118355586198288
485.0, 0.02991825382605913
486.0, 0.03079791321655658
487.0, 0.03033610167365678
488.0, 0.02842845504062999
489.0, 0.02412392024266701
490.0, 0.022198781618276098
491.0, 0.018659003518378823
492.0, 0.016200970396038794
493.0, 0.01624005357784551
494.0, 0.017645646196673536
495.0, 0.01811274669030011
496.0, 0.016148568828903358
497.0, 0.018179844416669488
498.0, 0.022010482744258944
499.0, 0.025465211725634523
500.0, 0.029885212755436246
501.0, 0.03593899990612997
502.0, 0.042480618280725156
503.0, 0.047333335878998704
504.0, 0.05297327259628152
505.0, 0.06007235295136433
506.0, 0.06080796356755434
507.0, 0.05868658216089052
508.0, 0.05535686843916196
509.0, 0.048033363412745535
510.0, 0.03810651419609191
511.0, 0.031692040360744286
512.0, 0.025612458234330938
513.0, 0.02093316757589145
514.0, 0.01731792527372735
515.0, 0.014653676777465034
516.0, 0.013023934128889296
517.0, 0.011835270612110338
518.0, 0.009585584771711252
519.0, 0.011046936008568164
520.0, 0.010154467894785309
521.0, 0.007547017538946735
522.0, 0.007533728482279811
523.0, 0.007506837220713275
524.0, 0.00915835704925825
525.0, 0.009296744826112275
526.0, 0.008777184360186886
527.0, 0.00897142156864761
528.0, 0.009174405388902959
529.0, 0.008837199667628432
530.0, 0.010745200712646816
531.0, 0.008786881958238619
532.0, 0.009089000954908577
533.0, 0.012887205251323579
534.0, 0.012047401342894183
535.0, 0.013132991574831387
536.0, 0.013930447591942353
537.0, 0.013603160584445724
538.0, 0.015638134320854983
539.0, 0.020651575684242484
540.0, 0.021147975259091033
541.0, 0.024674681749092722
542.0, 0.02884913132926186
543.0, 0.033744295838115015
544.0, 0.04022172499861571
545.0, 0.044677698380938345
546.0, 0.04723356949927854
547.0, 0.054098089606512745
548.0, 0.06118018176790274
549.0, 0.06732498744556892
550.0, 0.07486411855927108
551.0, 0.08605809885720092
552.0, 0.09916201674407446
553.0, 0.11327533761066158
554.0, 0.12924954772906294
555.0, 0.14714022223421305
556.0, 0.16570990286007903
557.0, 0.183170419906571
558.0, 0.19769994868624172
559.0, 0.20495903320376802
560.0, 0.20508418292575367
561.0, 0.19491213495098958
562.0, 0.17589069857983236
563.0, 0.1541723921994165
564.0, 0.13057491491717432
565.0, 0.10698431912991256
566.0, 0.08640545341689876
567.0, 0.07072020257416901
568.0, 0.05846196706850061
569.0, 0.04687977026573114
570.0, 0.038327246326292495
571.0, 0.03179519446848459
572.0, 0.026373789343770142
573.0, 0.021768369514630043
574.0, 0.01807954439241039
575.0, 0.015230008676159597
576.0, 0.012720269986029441
577.0, 0.009529274237998545
578.0, 0.0070919227281769255
579.0, 0.006337953023155559
580.0, 0.006349342570305555
581.0, 0.005349999221228852
582.0, 0.00417419790193131
583.0, 0.004254717721392399
584.0, 0.004173671544030015
585.0, 0.003879603563977707
586.0, 0.0038615505281458904
587.0, 0.0044108505172212875
588.0, 0.006367283510088967
589.0, 0.007663790803399838
590.0, 0.009234354456147446
591.0, 0.00961039089579575
592.0, 0.00830826009052318
593.0, 0.006978225549056169
594.0, 0.006261323747832581
595.0, 0.0034297513299508006
596.0, 0.003570739885510491
597.0, 0.0029278120214639917
598.0, 0.0006119064354022867
599.0, 8.932694761274465e-05
600.0, 0.0006533029995800564
601.0, 0.0017674339165812847
602.0, 0.0019251621926599748
603.0, 0.0020870695409392656
604.0, 0.0018306443158138826
605.0, 0.0006988150212263588
606.0, 0.000689722443100797
607.0, 0.0008758930433522352
608.0, 0.00027622173482188156
609.0, 0.0001809222451329439
610.0, 0.00011859530602938156
611.0, 0.0003170705323852919
612.0, 0.001382449363342541
613.0, 0.0009326968431856949
614.0, 0.00015644561234745167
615.0, 0.0012348390312939884
616.0, 0.0016209156129830238
617.0, 0.00022804821882151707
618.0, 0.0014419620673431395
619.0, 0.0018852718910396806
620.0, 0.002318789806551098
621.0, 0.0025442506144093854
622.0, 0.002541183314440022
623.0, 0.001884598146065273
624.0, 0.001424114287606109
625.0, 0.0035774237741450733
626.0, 0.003733616823284899
627.0, 0.003601432991727119
628.0, 0.005875344443884977
629.0, 0.008250535907885537
630.0, 0.00877556342491336
631.0, 0.011788921535171864
632.0, 0.014728801411980408
633.0, 0.017317158608511685
634.0, 0.02016400307797945
635.0, 0.023392263613056994
636.0, 0.026745123089335812
637.0, 0.03098301827942985
638.0, 0.03804862188623088
639.0, 0.042696688657243416
640.0, 0.04534254103921481
641.0, 0.047808774910041374
642.0, 0.05011334788669176
643.0, 0.05025031164809915
644.0, 0.04482447533098706
645.0, 0.03979377239522837
646.0, 0.03411353282095232
647.0, 0.027728986747115252
648.0, 0.021737905368339146
649.0, 0.01720811890476329
650.0, 0.014133486130023253
651.0, 0.012171046222002352
652.0, 0.01066710492885471
653.0, 0.008870762740379238
654.0, 0.008140723619442217
655.0, 0.007716275471171904
656.0, 0.006010194418667401
657.0, 0.005587718744364651
658.0, 0.004927412001213983
659.0, 0.0043752288593123774
660.0, 0.003366046428962876
661.0, 0.0027416819449819045
662.0, 0.002586029229935712
663.0, 0.002097194752207732
664.0, 0.0026124729329751787
665.0, 0.0012825723628130962
666.0, 0.0014711100246897976
667.0, 0.0010235320700966392
668.0, 0.00011139533874452656
669.0, 0.0004107947856928515
670.0, 0.0007374508322979024
671.0, 6.232871883841629e-05
672.0, 0.0004029372659888794
673.0, 0.000706995493159089
674.0, 0.0006348519251494914
675.0, 0.0007345488569553401
676.0, 0.0009730760576628566
677.0, 0.000711692380724969
678.0, 0.0005348790367709207
679.0, 0.0004982504109067913
680.0, 0.001059165992974249
681.0, 0.000913985368350069
682.0, 0.00033546152170056914
683.0, 0.0008993930862974365
684.0, 0.0008933638699438711
685.0, 0.00040270515396191966
686.0, 0.00011943280003804833
687.0, 0.000306669791835002
688.0, 0.0008156012050741573
689.0, 0.0005960336970242346
690.0, 0.000530553869018353
691.0, 0.0004169471501613218
692.0, 0.0005548413175724825
693.0, 0.00024033567658438704
694.0, 0.0010662427166765423
695.0, 0.0016012957066219222
696.0, 0.00045389934165367195
697.0, 4.5218752842831884e-05
698.0, 0.000819545829140911
699.0, 0.0004635228542912738
700.0, 0.0011705618672689872
701.0, 0.0014656490275887447
702.0, 0.000635980087494378
703.0, 0.00025655427910216
704.0, 7.369320712159399e-05
705.0, 0.0009041702085389385
706.0, 0.002205997715870459
707.0, 0.0019031985821424317
708.0, 0.0016355970842885778
709.0, 0.0020421881263346666
710.0, 0.0019529082415598352
711.0, 0.001701006604358272
712.0, 0.0023882528527558525
713.0, 0.0030535149184020105
714.0, 0.0027867100917071115
715.0, 0.0028021036644522413
716.0, 0.0024111805221341794
717.0, 0.0015716350521093464
718.0, 0.003918366753947603
719.0, 0.002844344578572546
720.0, 0.0036572971478759024
721.0, 0.004293520034793635
722.0, 0.0034281356720040354
723.0, 0.0021738835090057283
724.0, 0.002340977251156258
725.0, 0.0035874883695441676
726.0, 0.0033963870844882526
727.0, 0.0038434908944218124
728.0, 0.0020480642578687347
729.0, 0.002100270559556825
730.0, 0.0035404656899861546
731.0, 0.003411623923046257
732.0, 0.0031723682777339813
733.0, 0.0033268466652417754
734.0, 0.004512340866709458
735.0, 0.003252643466391738
736.0, 0.0037538053616020476
737.0, 0.0041970242828887235
738.0, 0.003300543109847636
739.0, 0.004526315937466672
740.0, 0.00509504434948383
741.0, 0.005013713950816453
742.0, 0.004146646964478974
743.0, 0.004400726538080019
744.0, 0.004618891818383627
745.0, 0.003993554820955807
746.0, 0.00368986030671345
747.0, 0.0022940054263116644
748.0, 0.002369669654795341
749.0, 0.0030076786203580242
750.0, 0.0028682922502314997
751.0, 0.003621756674190041
752.0, 0.005270919199864636
753.0, 0.005189543246435718
754.0, 0.003266828911067411
755.0, 0.0034220449511383633
756.0, 0.002455918677826058
757.0, 0.003977579426085447
758.0, 0.004346045711496122
759.0, 0.003591386189788985
760.0, 0.0036208618234644272
761.0, 0.002247043691638585
762.0, 0.003621107944739835
763.0, 0.0030608521734080867
764.0, 0.004111198975995443
765.0, 0.003859210727892312
766.0, 0.003934971646788941
767.0, 0.004297172181452896
768.0, 0.0024575695429942205
769.0, 0.0025363245310836154
770.0, 0.004279593721831354
771.0, 0.00277852502189634
772.0, 0.002768005868034863
773.0, 0.003574513221846151
774.0, 0.003735006921707942
775.0, 0.0036047895346972853
776.0, 0.003406521068627107
777.0, 0.0025771865765043265
778.0, 0.0018370270700076175
779.0, 0.0019798756553167317
780.0, 0.0028155402849230193
781.0, 0.002373026421415876
782.0, 0.002039442382878546
783.0, 0.0035459220860309297
784.0, 0.0022561343712260242
785.0, 0.0006373634270772828
786.0, 0.0018912857032335473
787.0, 0.0021228367097177797
788.0, 0.0018399298281477968
789.0, 0.0015432100743025903
790.0, 0.0011621240238630663
791.0, 0.0012880094434104675
792.0, 0.00020608371283004263
793.0, 0.0002303270885290481
794.0, 0.0001531381845039321
795.0, 0.0009553199457667616
796.0, 0.0009969055444381785
797.0, 0.0005054017942364125
798.0, 0.0004936897274684435
799.0, 8.025758220480349e-05
800.0, 0.00039563846927525415
801.0, 0.0012105388711643999
802.0, 0.00019941417471537848
803.0, 0.001624391236717787
804.0, 0.0018658836494743476
805.0, 0.00015958283735411228
806.0, 0.0009263492621581576
807.0, 0.00040499538432951435
808.0, 0.00032275388129287776
809.0, 0.0007662800347095788
810.0, 0.0009748642344725212
811.0, 0.0006062611631954487
812.0, 0.0002742087567241625
813.0, 0.0004646983630533027
814.0, 0.0005418923461307758
815.0, 0.0008789592418157475
816.0, 0.0015348153855909467
817.0, 0.00046128986067389254
818.0, 0.00031255634993676096
819.0, 0.00020187266190713869
820.0, 0.0006366742846543184
821.0, 0.0010827456482530335
822.0, 0.002121786365346521
823.0, 0.00025698792388215787
824.0, 0.0006733504135708736
825.0, 0.00016802573530141983
826.0, 0.000563009294956491
827.0, 0.00021319457558845512
828.0, 0.0003972055703519007
829.0, 0.00047247726390198654
830.0, 0.0013175310284849618
831.0, 0.00072375867876269
832.0, 0.00018735426443667902
833.0, 0.0008919306224201933
834.0, 0.0005465549211593108
835.0, 0.0004948372009785379
836.0, 0.0005045834705099482
837.0, 0.0010675337458056708
838.0, 0.000845491863753496
839.0, 0.0006509903672391418
840.0, 0.002607711227353791
841.0, 0.0028701323481607065
842.0, 0.0025259266161387173
843.0, 0.0063359467459430455
844.0, 0.007908949226204809
845.0, 0.00793194528001144
846.0, 0.009511156003184747
847.0, 0.011926106044780851
848.0, 0.01390797730729484
849.0, 0.016289890639829153
850.0, 0.01999332400908071
851.0, 0.02279212130802252
852.0, 0.025957341855838867
853.0, 0.028993965698610093
854.0, 0.03280243571013467
855.0, 0.03862258460228592
856.0, 0.04569718817814885
857.0, 0.05251106062428576
858.0, 0.05810429650075197
859.0, 0.06668147662423353
860.0, 0.07535213862441174
861.0, 0.08490143689161182
862.0, 0.09355689683461145
863.0, 0.10186333719058716
864.0, 0.11013148139185644
865.0, 0.11518927326924286
866.0, 0.11766364409666073
867.0, 0.11225694644906695
868.0, 0.10977805202976117
869.0, 0.09941875365423271
870.0, 0.08620279763844187
871.0, 0.07764349597893044
872.0, 0.06963775315917164
873.0, 0.056990786682669485
874.0, 0.04948563086668312
875.0, 0.045662508972394024
876.0, 0.03840756052838507
877.0, 0.033749399976554115
878.0, 0.0318828353218411
879.0, 0.02801422405023394
880.0, 0.026502290412243015
881.0, 0.027357809254781932
882.0, 0.02501803606872492
883.0, 0.026244257490944976
884.0, 0.02667805331532625
885.0, 0.028313610715046136
886.0, 0.029366664858557878
887.0, 0.028398679968231883
888.0, 0.029800211869926874
889.0, 0.03401766781010335
890.0, 0.03664745346320664
891.0, 0.03811046514015834
892.0, 0.044600014456159374
893.0, 0.04922638171853235
894.0, 0.053506002552401385
895.0, 0.056979991818435945
896.0, 0.06240264376489391
897.0, 0.06979406759048985
898.0, 0.07724595776854676
899.0, 0.08360818104304223
900.0, 0.09082143907417004
901.0, 0.10107525379222018
902.0, 0.10652785058083328
903.0, 0.11863935459534997
904.0, 0.12767067107275562
905.0, 0.1438962910474463
906.0, 0.1613301159811365
907.0, 0.17958544685457672
908.0, 0.2028918782579987
909.0, 0.23147276646008774
910.0, 0.26403164454008643
911.0, 0.2960500779256544
912.0, 0.3404544687935259
913.0, 0.3880868552960956
914.0, 0.4442926359003273
915.0, 0.502860352769015
916.0, 0.5720431420092352
917.0, 0.6550951162360552
918.0, 0.7440732513768304
919.0, 0.8329389466143684
920.0, 0.902292086448985
921.0, 0.9611325869966694
922.0, 0.9976856160739443
923.0, 0.9869212177422031
924.0, 0.9255434725623308
925.0, 0.8380893061310996
926.0, 0.7394116025386746
927.0, 0.6367582905992635
928.0, 0.5391852281276356
929.0, 0.4529309437910454
930.0, 0.3806596553425482
931.0, 0.3192098740942955
932.0, 0.26963279927643513
933.0, 0.2283117724936111
934.0, 0.19621813245143302
935.0, 0.16875170546875762
936.0, 0.14470794140744225
937.0, 0.12505191644547414
938.0, 0.10662230308052417
939.0, 0.09023257913886316
940.0, 0.08131366718112254
941.0, 0.0698722732579026
942.0, 0.06123199957823121
943.0, 0.05287516079758462
944.0, 0.04554147348497154
945.0, 0.039093284014203325
946.0, 0.032661269626034814
947.0, 0.028400625294627557
948.0, 0.02659689816954164
949.0, 0.0221338584954477
950.0, 0.02058900704358132
951.0, 0.01769220661288241
952.0, 0.01395400067167399
953.0, 0.012374380875547672
954.0, 0.010329202895891676
955.0, 0.008708360902095482
956.0, 0.006348740766726318
957.0, 0.0036931786802234744
958.0, 0.004563848862535334
959.0, 0.004087506061751676
960.0, 0.003895355114869174
961.0, 0.0038149960059317483
962.0, 0.001532477452178175
963.0, 0.0018529709152362885
964.0, 0.0009310698182894294
965.0, 7.346058059912462e-05
966.0, 0.0009245143220184282
967.0, 0.0019260857233164284
968.0, 0.0008797751028407144
969.0, 0.0002793045784039021
970.0, 0.0016232424115207346
971.0, 0.0013672457048146548
972.0, 0.0010611690780764984
973.0, 0.0009091823619107674
974.0, 0.001101633006229471
975.0, 0.0008785376042392516
976.0, 0.0010027213503888514
977.0, 0.0009778147119107166
978.0, 0.0005299980796064026
979.0, 0.0018076606594567284
980.0, 0.0011901398798996904
981.0, 0.0011463752143228056
982.0, 0.0024475255084428207
983.0, 0.0015873482792763912
984.0, 0.0025580065940312927
985.0, 0.0035681354222234026
986.0, 0.004357816589288763
987.0, 0.004208159563384748
988.0, 0.003525837928622198
989.0, 0.004154072350008823
990.0, 0.00437100838320048
991.0, 0.003969701748272111
992.0, 0.004193954919908876
993.0, 0.004270183886822819
994.0, 0.0026208665241993184
995.0, 0.0025707532924382406
996.0, 0.0016429264346605483
997.0, 0.0009629513363856235
998.0, 0.0013402369054655173
999.0, 0.000982038436813563
1000.0, 0.0005755830525649276
1001.0, 0.0006862437360352223
1002.0, 0.0005828995521097887
1003.0, 0.0004411035086517106
1004.0, 0.0009682334442341468
1005.0, 0.00018602770590704008
1006.0, 0.0010193345821861632
1007.0, 0.0013435510997589525
1008.0, 0.0011322412586622851
1009.0, 0.0002858513082358759
1010.0, 0.0007105724260587521
1011.0, 0.0012827988431154
1012.0, 0.00022099738649280647
1013.0, 0.00012824349527094784
1014.0, 0.0007224785670949405
1015.0, 0.0019131893740745862
1016.0, 0.00267369223636528
1017.0, 0.0030056277449556426
1018.0, 0.00301954317427895
1019.0, 0.002974255784135132
1020.0, 0.0044299227931422274
1021.0, 0.0058659645178487044
1022.0, 0.005214809947606581
1023.0, 0.004723683919754035
1024.0, 0.0055340005812031644
1025.0, 0.005597716816798848
1026.0, 0.005953271160039166
1027.0, 0.006477157201910013
1028.0, 0.007720305680159092
1029.0, 0.007583058120240242
1030.0, 0.008227023833418093
1031.0, 0.009229384908575035
1032.0, 0.010022802029949911
1033.0, 0.011762328903538783
1034.0, 0.012446594503013478
1035.0, 0.014828006607080939
1036.0, 0.014196886926860464
1037.0, 0.014488645627040128
1038.0, 0.015750362931089806
1039.0, 0.017681036391337734
1040.0, 0.019167773420752127
1041.0, 0.020933939996946097
1042.0, 0.0235578506956873
1043.0, 0.025866118818765337
1044.0, 0.02740518470658507
1045.0, 0.029481349745172195
1046.0, 0.03247428894559617
1047.0, 0.03586022235063666
1048.0, 0.03916739913821267
1049.0, 0.03968044445666712
1050.0, 0.040966327063769625
1051.0, 0.04622576423832543
1052.0, 0.04599878210626607
1053.0, 0.04960878909110689
1054.0, 0.0490601721562798
1055.0, 0.04917538371053377
1056.0, 0.04870730154720355
1057.0, 0.04708320351628429
1058.0, 0.044507921622218324
1059.0, 0.04081195389623045
1060.0, 0.03856936488497684
1061.0, 0.03526305282228268
1062.0, 0.02873222989808535
1063.0, 0.027287352575425427
1064.0, 0.023278476035150746
1065.0, 0.020336725259793735
1066.0, 0.016449514725195534
1067.0, 0.014186043837395149
1068.0, 0.01199198955244601
1069.0, 0.01049404694065211
1070.0, 0.008806659842439758
1071.0, 0.007713503721040445
1072.0, 0.007078881384623402
1073.0, 0.0052537255019572
1074.0, 0.0063241401459810925
1075.0, 0.004760189556792533
1076.0, 0.004471178557754035
1077.0, 0.005264831273628155
1078.0, 0.004419940828710985
1079.0, 0.0025317377184020285
1080.0, 0.0018329736942333916
1081.0, 0.0020755238088609445
1082.0, 0.002027165271964777
1083.0, 0.0024882745048838734
1084.0, 0.002373298434835742
1085.0, 0.0020177281131490915
1086.0, 0.0026476640580709743
1087.0, 0.001745028894118542
1088.0, 0.002112388831469768
1089.0, 0.003020124856747777
1090.0, 0.0003968553978874969
1091.0, 0.0009540739326032647
1092.0, 0.0013974698871987371
1093.0, 0.0002809834800757196
1094.0, 0.0005962427153542984
1095.0, 0.001384211853836525
1096.0, 0.0008751111349941166
1097.0, 0.000847339498506816
1098.0, 0.00030763442825315894
1099.0, 0.0004126366599655994
1100.0, 0.0021082331457667287
1101.0, 0.0005595735844864988
1102.0, 0.0007562219537012027
1103.0, 0.000985137543776298
1104.0, 0.0012078237585753044
1105.0, 0.0019635559553788763
1106.0, 0.001874840615378389
1107.0, 0.0010666805415296594
1108.0, 0.0017972546332070134
1109.0, 0.0015377833014336155
1110.0, 0.0008053969450335737
1111.0, 0.0017541866611427304
1112.0, 0.002097115880565175
1113.0, 0.0007497616703277395
1114.0, 0.00039216780813569347
1115.0, 0.0010197809530578573
1116.0, 0.0007328076248126757
1117.0, 0.0006617140994048407
1118.0, 0.001596502822476015
1119.0, 0.0019451441698505709
1120.0, 0.0018335300136052717
1121.0, 0.0007776071214489742
1122.0, 0.00020285176274472224
1123.0, 0.00016296449476095219
1124.0, 0.0007184840875156288
1125.0, 0.0005862368590580795
1126.0, 0.0010161967443332231
1127.0, 0.0015091991403853907
1128.0, 0.0011668097224795477
1129.0, 0.000874647084761063
1130.0, 0.0003050669665064415
1131.0, 0.0007744436226277536
1132.0, 0.0006383866695023705
1133.0, 0.0006712877020682549
1134.0, 0.0009455699804679512
1135.0, 0.0005908116146778977
1136.0, 0.00015022605751974073
1137.0, 0.0011760001706188955
1138.0, 0.0016073517153618157
1139.0, 0.0007249271738767624
1140.0, 0.0004656631372372098
1141.0, 0.00063377429065807
1142.0, 7.613289992497167e-05
1143.0, 0.0006648624321571241
1144.0, 0.00016362999709762662
1145.0, 0.0006766478742333043
1146.0, 0.0014300795606397173
1147.0, 0.0017764796453106674
1148.0, 9.966770807616683e-05
1149.0, 0.000864688155073936
1150.0, 0.0014553829003498488
1151.0, 0.0011457847876534873
1152.0, 0.0006537729283419142
1153.0, 0.0006430139910119719
1154.0, 0.00019085194535295016
1155.0, 0.0003789002141079334
1156.0, 0.00024636636463505255
1157.0, 0.0003976266262475692
1158.0, 0.0009953077004906797
1159.0, 0.0006834888833140363
1160.0, 0.0009633841812414359
1161.0, 0.001379833155327593
1162.0, 0.0009631963849924096
1163.0, 0.0008405136605724525
1164.0, 0.0012042988026214365
1165.0, 0.0006979654166467335
1166.0, 0.000884289918055416
1167.0, 0.001807202156088313
1168.0, 0.0020603452698241286
1169.0, 0.0015354154703437573
1170.0, 0.002341071330183121
1171.0, 0.0019107432044246845
1172.0, 0.0017519899217932266
1173.0, 0.0023400307053036353
1174.0, 0.0019495867009072226
1175.0, 0.0011703810595332937
1176.0, 0.0005068881924274723
1177.0, 0.0009575734131370816
1178.0, 0.002671961782295815
1179.0, 0.0020710865227153343
1180.0, 0.002286928453537747
1181.0, 0.003534337459860072
1182.0, 0.0036075002139450653
1183.0, 0.0029338953456423404
1184.0, 0.0025445190132128382
1185.0, 0.00281781487768686
1186.0, 0.0029578287300565226
1187.0, 0.0025742779277129375
1188.0, 0.0028489889737833905
1189.0, 0.003258913776097342
1190.0, 0.0023771494536582397
1191.0, 0.003413373624296556
1192.0, 0.0030906793799601495
1193.0, 0.0025934284180906143
1194.0, 0.0030898946539356354
1195.0, 0.0032252040676081827
1196.0, 0.0030660701557393734
1197.0, 0.002585119834153736
1198.0, 0.0018837451948567473
1199.0, 0.0024772981361734746
1200.0, 0.0027139997586305147
1201.0, 0.0024131120570788406
1202.0, 0.0017576313694497006
1203.0, 0.0018240204228895513
1204.0, 0.0020198401672406113
1205.0, 0.003345896366053241
1206.0, 0.0015219653757517207
1207.0, 0.0029445990935390875
1208.0, 0.0018843672169365031
1209.0, 0.0013556627113280738
1210.0, 0.0022046507163515786
1211.0, 0.0020055431103850104
1212.0, 0.00222538165125877
1213.0, 0.002238278902776966
1214.0, 0.0012394365079591684
1215.0, 0.0017760918509430541
1216.0, 0.0023113871594736017
1217.0, 0.0022596835168067772
1218.0, 0.0024716406592970057
1219.0, 0.0013857004337236437
1220.0, 0.0015456474845135415
1221.0, 0.001827913081126796
1222.0, 0.0006080523379935264
1223.0, 0.0008891369106175365
1224.0, 4.756862688892689e-05
1225.0, 0.00041409973120488995
1226.0, 0.0009596088404435866
1227.0, 0.00019692684566525757
1228.0, 0.0018578618278966771
1229.0, 0.00039886335062495394
1230.0, 0.0005818887820966717
1231.0, 0.0007531532846997293
1232.0, 0.0009442459882254431
1233.0, 0.0007912390260848531
1234.0, 0.00026140503167297656
1235.0, 0.0013380430139938945
1236.0, 0.0009753231270892104
1237.0, 0.0008485272652278613
1238.0, 0.0017616035645037142
1239.0, 0.0014193939149758719
1240.0, 0.0009227601396489093
1241.0, 0.0018676395911346217
1242.0, 0.0006830079204005344
1243.0, 0.0005913632341084625
1244.0, 0.0010939266069794075
1245.0, 0.0008743710186390708
1246.0, 0.0017012536072624205
1247.0, 0.0015260246830409198
1248.0, 6.219603392152936e-05
1249.0, 0.0004296233023743103
1250.0, 0.000561382835087586
1251.0, 0.0003908687761862036
1252.0, 0.0006982421174383745
1253.0, 0.000892753411340409
1254.0, 0.0005879347682704467
1255.0, 0.0017105253203600504
1256.0, 0.0008078881813151031
1257.0, 0.00098344649407483
1258.0, 0.0011507745259164497
1259.0, 0.0005644537279719504
1260.0, 0.0001502602189201714
1261.0, 0.00026353233814850304
1262.0, 0.0006921290542850235
1263.0, 0.0010282797297567815
1264.0, 0.0006445594673692689
1265.0, 0.0005737124379551369
1266.0, 0.0018210153477999573
1267.0, 0.0026545180550340266
1268.0, 0.002104368275911127
1269.0, 0.00041746571463098167
1270.0, 0.0001372161735676197
1271.0, 3.7492269290512205e-05
1272.0, 0.0006871281126483273
1273.0, 0.0018815107306726219
1274.0, 0.0012777721315298063
1275.0, 0.0012573831008486445
1276.0, 0.0022036060092760195
1277.0, 0.00134748309736779
1278.0, 0.0016768898936218165
1279.0, 0.0013020743634395587
1280.0, 0.0010973261354075897
1281.0, 0.00019292784356595653
1282.0, 1.2368586836338684e-05
1283.0, 8.755902631535325e-05
1284.0, 0.0009270267167482703
1285.0, 0.0005057582431434353
1286.0, 1.7249147648126805e-05
1287, 0.0
1288, 0.0
1289, 0.0
1290, 0.0
1291, 0.0
1292, 0.0
1293, 0.0
1294, 0.0
1295, 0.0
1296, 0.0
1297, 0.0
1298, 0.0
1299, 0.0
1300, 0.0
1301, 0.0
1302, 0.0
1303, 0.0
1304, 0.0
1305, 0.0
1306, 0.0
1307, 0.0
1308, 0.0
1309, 0.0
1310, 0.0
1311, 0.0
1312, 0.0
1313, 0.0
1314, 0.0
1315, 0.0
1316, 0.0
1317, 0.0
1318, 0.0
1319, 0.0
1320, 0.0
1321, 0.0
1322, 0.0
1323, 0.0
1324, 0.0
1325, 0.0
1326, 0.0
1327, 0.0
1328, 0.0
1329, 0.0
1330, 0.0
1331, 0.0
1332, 0.0
1333, 0.0
1334, 0.0
1335, 0.0
1336, 0.0
1337, 0.0
1338, 0.0
1339, 0.0
1340, 0.0
1341, 0.0
1342, 0.0
1343, 0.0
1344, 0.0
1345, 0.0
1346, 0.0
1347, 0.0
1348, 0.0
1349, 0.0
1350, 0.0
1351, 0.0
1352, 0.0
1353, 0.0
1354, 0.0
1355, 0.0
1356, 0.0
1357, 0.0
1358, 0.0
1359, 0.0
1360, 0.0
1361, 0.0
1362, 0.0
1363, 0.0
1364, 0.0
1365, 0.0
1366, 0.0
1367, 0.0
1368, 0.0
1369, 0.0
1370, 0.0
1371, 0.0
1372, 0.0
1373, 0.0
1374, 0.0
1375, 0.0
1376, 0.0
1377, 0.0
1378, 0.0
1379, 0.0
1380, 0.0
1381, 0.0
1382, 0.0
1383, 0.0
1384, 0.0
1385, 0.0
1386, 0.0
1387, 0.0
1388, 0.0
1389, 0.0
1390, 0.0
1391, 0.0
1392, 0.0
1393, 0.0
1394, 0.0
1395, 0.0
1396, 0.0
1397, 0.0
1398, 0.0
1399, 0.0
1400, 0.0
1401, 0.0
1402, 0.0
1403, 0.0
1404, 0.0
1405, 0.0
1406, 0.0
1407, 0.0
1408, 0.0
1409, 0.0
1410, 0.0
1411, 0.0
1412, 0.0
1413, 0.0
1414, 0.0
1415, 0.0
1416, 0.0
1417, 0.0
1418, 0.0
1419, 0.0
1420, 0.0
1421, 0.0
1422, 0.0
1423, 0.0
1424, 0.0
1425, 0.0
1426, 0.0
1427, 0.0
1428, 0.0
1429, 0.0
1430, 0.0
1431, 0.0
1432, 0.0
1433, 0.0
1434, 0.0
1435, 0.0
1436, 0.0
1437, 0.0
1438, 0.0
1439, 0.0
1440, 0.0
1441, 0.0
1442, 0.0
1443, 0.0
1444, 0.0
1445, 0.0
1446, 0.0
1447, 0.0
1448, 0.0
1449, 0.0
1450, 0.0
1451, 0.0
1452, 0.0
1453, 0.0
1454, 0.0
1455, 0.0
1456, 0.0
1457, 0.0
1458, 0.0
1459, 0.0
1460, 0.0
1461, 0.0
1462, 0.0
1463, 0.0
1464, 0.0
1465, 0.0
1466, 0.0
1467, 0.0
1468, 0.0
1469, 0.0
1470, 0.0
1471, 0.0
1472, 0.0
1473, 0.0
1474, 0.0
1475, 0.0
1476, 0.0
1477, 0.0
1478, 0.0
1479, 0.0
1480, 0.0
1481, 0.0
1482, 0.0
1483, 0.0
1484, 0.0
1485, 0.0
1486, 0.0
1487, 0.0
1488, 0.0
1489, 0.0
1490, 0.0
1491, 0.0
1492, 0.0
1493, 0.0
1494, 0.0
1495, 0.0
1496, 0.0
1497, 0.0
1498, 0.0
1499, 0.0
1500, 0.0
1501, 0.0
1502, 0.0
1503, 0.0
1504, 0.0
1505, 0.0
1506, 0.0
1507, 0.0
1508, 0.0
1509, 0.0
1510, 0.0
1511, 0.0
1512, 0.0
1513, 0.0
1514, 0.0
1515, 0.0
1516, 0.0
1517, 0.0
1518, 0.0
1519, 0.0
1520, 0.0
1521, 0.0
1522, 0.0
1523, 0.0
1524, 0.0
1525, 0.0
1526, 0.0
1527, 0.0
1528, 0.0
1529, 0.0
1530, 0.0
1531, 0.0
1532, 0.0
1533, 0.0
1534, 0.0
1535, 0.0
1536, 0.0
1537, 0.0
1538, 0.0
1539, 0.0
1540, 0.0
1541, 0.0
1542, 0.0
1543, 0.0
1544, 0.0
1545, 0.0
1546, 0.0
1547, 0.0
1548, 0.0
1549, 0.0
1550, 0.0
1551, 0.0
1552, 0.0
1553, 0.0
1554, 0.0
1555, 0.0
1556, 0.0
1557, 0.0
1558, 0.0
1559, 0.0
1560, 0.0
1561, 0.0
1562, 0.0
1563, 0.0
1564, 0.0
1565, 0.0
1566, 0.0
1567, 0.0
1568, 0.0
1569, 0.0
1570, 0.0
1571, 0.0
1572, 0.0
1573, 0.0
1574, 0.0
1575, 0.0
1576, 0.0
1577, 0.0
1578, 0.0
1579, 0.0
1580, 0.0
1581, 0.0
1582, 0.0
1583, 0.0
1584, 0.0
1585, 0.0
1586, 0.0
1587, 0.0
1588, 0.0
1589, 0.0
1590, 0.0
1591, 0.0
1592, 0.0
1593, 0.0
1594, 0.0
1595, 0.0
1596, 0.0
1597, 0.0
1598, 0.0
1599, 0.0
