30, 0.0
31, 0.0
32, 0.0
33, 0.0
34, 0.0
35, 0.0
36, 0.0
37, 0.0
38, 0.0
39, 0.0
40, 0.0
41, 0.0
42, 0.0
43, 0.0
44, 0.0
45, 0.0
46, 0.0
47, 0.0
48, 0.0
49, 0.0
50, 0.0
51, 0.0
52, 0.0
53, 0.0
54, 0.0
55, 0.0
56, 0.0
57, 0.0
58, 0.0
59, 0.0
60, 0.0
61, 0.0
62, 0.0
63, 0.0
64, 0.0
65, 0.0
66, 0.0
67, 0.0
68, 0.0
69, 0.0
70, 0.0
71, 0.0
72, 0.0
73, 0.0
74, 0.0
75, 0.0
76, 0.0
77, 0.0
78, 0.0
79, 0.0
80, 0.0
81, 0.0
82, 0.0
83, 0.0
84, 0.0
85, 0.0
86, 0.0
87, 0.0
88, 0.0
89, 0.0
90, 0.0
91, 0.0
92, 0.0
93, 0.0
94, 0.0
95, 0.0
96, 0.0
97, 0.0
98, 0.0
99, 0.0
100, 0.0
101, 0.0
102, 0.0
103, 0.0
104, 0.0
105, 0.0
106, 0.0
107, 0.0
108, 0.0
109, 0.0
110, 0.0
111, 0.0
112, 0.0
113, 0.0
114, 0.0
115, 0.0
116, 0.0
117, 0.0
118, 0.0
119, 0.0
120, 0.0
121, 0.0
122, 0.0
123, 0.0
124, 0.0
125, 0.0
126, 0.0
127, 0.0
128, 0.0
129, 0.0
130, 0.0
131, 0.0
132, 0.0
133, 0.0
134, 0.0
135, 0.0
136, 0.0
137.0, 0.0007242777779814097
138.0, 0.0019373243441645706
139.0, 0.009301093930033895
140.0, 0.0012300186254706068
141.0, 0.0025889834958856884
142.0, 0.013575794459349403
143.0, 0.02176978398820635
144.0, 0.015603888568150173
145.0, 0.009596213117614577
146.0, 0.0064893446278915115
147.0, 0.0034848318210235
148.0, 0.005975407602973499
149.0, 0.010493293205952929
150.0, 0.006614368692154265
151.0, 0.0008229508350482559
152.0, 0.010035752637190965
153.0, 0.012399019650133517
154.0, 0.008138690124924235
155.0, 0.0035417014703963945
156.0, 0.00237259220822202
157.0, 0.0006459832809709233
158.0, 0.004637263999189554
159.0, 0.012198265426952773
160.0, 0.01259539537241575
161.0, 0.009941581958525934
162.0, 0.012999872043618483
163.0, 0.019988247625423273
164.0, 0.023900529519044544
165.0, 0.01958850869151639
166.0, 0.032269834069945894
167.0, 0.03782090821579898
168.0, 0.040197998344626576
169.0, 0.06084891594075511
170.0, 0.062156441854413116
171.0, 0.05527276674927584
172.0, 0.054930267942444606
173.0, 0.06623336581377931
174.0, 0.07659816572803978
175.0, 0.07125573192136499
176.0, 0.0716385638901828
177.0, 0.08243780729642824
178.0, 0.07754068203675081
179.0, 0.07110753683409675
180.0, 0.066527981433036
181.0, 0.058207957848594526
182.0, 0.04198949127222598
183.0, 0.030918299584836863
184.0, 0.021474101215723268
185.0, 0.014391268150832503
186.0, 0.011271394267951795
187.0, 0.012272153327264796
188.0, 0.013985949406591003
189.0, 0.009985987972282484
190.0, 0.0029143694532873412
191.0, 0.0013879316246099588
192.0, 0.006497026053205249
193.0, 0.0016808376740239579
194.0, 0.004634389280344959
195.0, 0.0018591377541265527
196.0, 0.0012030492150103202
197.0, 0.006597904548707707
198.0, 0.005629957408211743
199.0, 0.003755002156781617
200.0, 0.007477021809073311
201.0, 0.01405658526436986
202.0, 0.015376209067742752
203.0, 0.010313855670872459
204.0, 0.00729130186602547
205.0, 0.011612505078292094
206.0, 0.021529085522993846
207.0, 0.024495243483686646
208.0, 0.017300953089238794
209.0, 0.018913916012989928
210.0, 0.019092421136486157
211.0, 0.022723543787387408
212.0, 0.030150241704914562
213.0, 0.03381847628958282
214.0, 0.032101146520091925
215.0, 0.027907499883592736
216.0, 0.03331665054614064
217.0, 0.04845792947012104
218.0, 0.04129524903792786
219.0, 0.04271998786297258
220.0, 0.048169096633874094
221.0, 0.04830430569843019
222.0, 0.046101335479050605
223.0, 0.048122655438716855
224.0, 0.05302608001833884
225.0, 0.054449201512386865
226.0, 0.05320669023301151
227.0, 0.06163093843221306
228.0, 0.06785579837974395
229.0, 0.0701705526430329
230.0, 0.0731702168276771
231.0, 0.08074522635997851
232.0, 0.07762067923262513
233.0, 0.0830710960641454
234.0, 0.08820170623203911
235.0, 0.0839603814952464
236.0, 0.08952840216934288
237.0, 0.09459181357555098
238.0, 0.09785916233897062
239.0, 0.09818127044075348
240.0, 0.09368137527330246
241.0, 0.10316234358406369
242.0, 0.1033352342660669
243.0, 0.1048388013176102
244.0, 0.11837392642342101
245.0, 0.11588185368452551
246.0, 0.1183535157704797
247.0, 0.10531251525416567
248.0, 0.07673469544958855
249.0, 0.053367643288520256
250.0, 0.04199881650123786
251.0, 0.03549707843966274
252.0, 0.02786300679447773
253.0, 0.01952571411767816
254.0, 0.014244790080193727
255.0, 0.014274585596202184
256.0, 0.01917302907691168
257.0, 0.021430399758451957
258.0, 0.01626583663638981
259.0, 0.02278212130173823
260.0, 0.015392960126893403
261.0, 0.011466218895204354
262.0, 0.02108887833812509
263.0, 0.027497631462905132
264.0, 0.017431251468847015
265.0, 0.02600930507120767
266.0, 0.03812728634232683
267.0, 0.038123185211279505
268.0, 0.04577153038445408
269.0, 0.04906488609016401
270.0, 0.057983298170966535
271.0, 0.06878280419836329
272.0, 0.07031685533345812
273.0, 0.06562541305754277
274.0, 0.07449270123210666
275.0, 0.07880166681284202
276.0, 0.07039443572617286
277.0, 0.06581508857446161
278.0, 0.0599593499915558
279.0, 0.06072630000325108
280.0, 0.05609883379983155
281.0, 0.032539866432980305
282.0, 0.01734356638523022
283.0, 0.013326260426930789
284.0, 0.01748956574658307
285.0, 0.020472202890552012
286.0, 0.014539970782120312
287.0, 0.01131806129908354
288.0, 0.0051529331175306625
289.0, 0.0017109525890013453
290.0, 0.0026987860330930763
291.0, 0.0010103624246163901
292.0, 0.006630686106997542
293.0, 0.0028364957644144116
294.0, 0.0016397003109625548
295.0, 0.003075394593717922
296.0, 0.005424734648299506
297.0, 0.0011749429714626083
298.0, 0.0025101128073648227
299.0, 0.008370782044255176
300.0, 0.009403256657856712
301.0, 0.008024600908942274
302.0, 0.005695370105594152
303.0, 0.002781736553415225
304.0, 0.011108479815837062
305.0, 0.006589623298766768
306.0, 0.005477103468551392
307.0, 0.0016160262301926792
308.0, 0.0018126576839549904
309.0, 0.007692546643326142
310.0, 0.003576677183549874
311.0, 0.007645085599807408
312.0, 0.011323976228750272
313.0, 0.014921085856368595
314.0, 0.018827954780044367
315.0, 0.01381510329441132
316.0, 0.01769184323807957
317.0, 0.020403711115571294
318.0, 0.022327343213724635
319.0, 0.028939290517470333
320.0, 0.034540261289360503
321.0, 0.03320245846818215
322.0, 0.030515268853116367
323.0, 0.030709594216829648
324.0, 0.03424453969458462
325.0, 0.03801350263780967
326.0, 0.04841690209785674
327.0, 0.055493225360725866
328.0, 0.057370961275600915
329.0, 0.060852589186528014
330.0, 0.06488541586557905
331.0, 0.0633324229162343
332.0, 0.06871751881280998
333.0, 0.0804676954012103
334.0, 0.0677544236999881
335.0, 0.07488110529862425
336.0, 0.08626343556837592
337.0, 0.09431800825860316
338.0, 0.10086543328308017
339.0, 0.11258437502898871
340.0, 0.12607692941042453
341.0, 0.13355275327132024
342.0, 0.13960489976685092
343.0, 0.15341375495673049
344.0, 0.1746684887967665
345.0, 0.18222329884332866
346.0, 0.19613860978505743
347.0, 0.21646121226062767
348.0, 0.23607231468974413
349.0, 0.25586088753903413
350.0, 0.26365389248305715
351.0, 0.27830188640474707
352.0, 0.2990630331786463
353.0, 0.31783531461424624
354.0, 0.33715638810951865
355.0, 0.3598840756294753
356.0, 0.3799873741197566
357.0, 0.40163909281851184
358.0, 0.43070270253675563
359.0, 0.4481807142899402
360.0, 0.47761007192228877
361.0, 0.49571968527890853
362.0, 0.510558748048601
363.0, 0.5448576544307067
364.0, 0.5647561669006693
365.0, 0.5730467166219446
366.0, 0.5748332921515485
367.0, 0.5738286437278275
368.0, 0.5715086518380552
369.0, 0.5671464414399532
370.0, 0.5546110972094209
371.0, 0.5263122127492282
372.0, 0.48902114085043097
373.0, 0.45141016445950977
374.0, 0.40307776569646486
375.0, 0.3532857569891144
376.0, 0.31054522613860647
377.0, 0.27673112713287934
378.0, 0.2478318218738923
379.0, 0.22002679015623477
380.0, 0.20669507785786967
381.0, 0.19533886995072183
382.0, 0.182784446268024
383.0, 0.17234608321552805
384.0, 0.1626676512778792
385.0, 0.1481789057179492
386.0, 0.14504662388041126
387.0, 0.14600027704290638
388.0, 0.14118353199625655
389.0, 0.14433982298634032
390.0, 0.13304419455390226
391.0, 0.13372388566187693
392.0, 0.1415213024417348
393.0, 0.13986999458672295
394.0, 0.13012862827042482
395.0, 0.12420420021179082
396.0, 0.12849386907055627
397.0, 0.13684123180692315
398.0, 0.1406929776554841
399.0, 0.13699869990304644
400.0, 0.13089595602022772
401.0, 0.12559492760515104
402.0, 0.12132658311352632
403.0, 0.12261795426419772
404.0, 0.13905396104186568
405.0, 0.13538279036545037
406.0, 0.13372218556139087
407.0, 0.13235246110141988
408.0, 0.1274437849179919
409.0, 0.12839889377255806
410.0, 0.12023323200825924
411.0, 0.11666688576098103
412.0, 0.11459495126467854
413.0, 0.1089807834748505
414.0, 0.10106742546838925
415.0, 0.09144544162751181
416.0, 0.08280241072719888
417.0, 0.06537118868745699
418.0, 0.0504250640116443
419.0, 0.049543027313696884
420.0, 0.038922225956188085
421.0, 0.026864661765092394
422.0, 0.029449875031454447
423.0, 0.030519729302151317
424.0, 0.0188442305979397
425.0, 0.022435150938276256
426.0, 0.010202871858221819
427.0, 0.008698042894651413
428.0, 0.014080968275457935
429.0, 0.013598763718341083
430.0, 0.008427050317310692
431.0, 0.0059655158841688365
432.0, 0.005464357748596835
433.0, 0.008223776500979598
434.0, 0.011446104398233514
435.0, 0.009546396224698422
436.0, 0.004817615144862978
437.0, 0.00581852919489269
438.0, 0.0013642069420912795
439.0, 0.00948870302843998
440.0, 0.0042449292926791836
441.0, 0.005368587211911009
442.0, 0.0066678037548578385
443.0, 0.008846803895852096
444.0, 0.008964448210837027
445.0, 0.001418805807686962
446.0, 0.0008372491798339768
447.0, 0.005653592132125916
448.0, 0.003758651382679831
449.0, 0.0002614549244316122
450.0, 0.0011461367496747685
451.0, 0.0023573655906903848
452.0, 0.00462809765216691
453.0, 0.003763612854157377
454.0, 0.0033725000112739822
455.0, 0.0038687844697076275
456.0, 0.003601016646116174
457.0, 0.00104454804973985
458.0, 0.003502812782567889
459.0, 0.0037752153089601554
460.0, 0.001224116303879031
461.0, 0.0003668709063382887
462.0, 0.0014505988186814707
463.0, 0.0037686127227382583
464.0, 0.002931621279478169
465.0, 0.0010043821930399751
466.0, 0.0049407407210272265
467.0, 0.010582038416820205
468.0, 0.008540531929472848
469.0, 0.009383996352967647
470.0, 0.00970794962046833
471.0, 0.00996803419182007
472.0, 0.00888019689625501
473.0, 0.002978820084949202
474.0, 0.002728700995832332
475.0, 0.004906334582708429
476.0, 0.0034902805665832457
477.0, 0.005891849461022022
478.0, 0.01067956333737745
479.0, 0.008580945401063049
480.0, 0.004608116949921651
481.0, 0.0040283681116953145
482.0, 0.004917524349635666
483.0, 0.0038194514704705633
484.0, 0.002726027845373649
485.0, 0.012186880823082563
486.0, 0.010079553684539787
487.0, 0.0038722468633600356
488.0, 0.004195712997629193
489.0, 0.009695634132711411
490.0, 0.017992741099051038
491.0, 0.014968088792279231
492.0, 0.011181592876524435
493.0, 0.01072521736203661
494.0, 0.01127380712206475
495.0, 0.014736374198159234
496.0, 0.016575266959675643
497.0, 0.024999650764901543
498.0, 0.028720968060501104
499.0, 0.025404326644796915
500.0, 0.030370313058817447
501.0, 0.04034757460780575
502.0, 0.04724146093265391
503.0, 0.053697652348452196
504.0, 0.05678173414039243
505.0, 0.04945868818866538
506.0, 0.06074742874900543
507.0, 0.05446272031900065
508.0, 0.05933506634928915
509.0, 0.06497005880269303
510.0, 0.06636475064636291
511.0, 0.06738126697714966
512.0, 0.07224870000700234
513.0, 0.0699679011845051
514.0, 0.06998683326706559
515.0, 0.0714661154157821
516.0, 0.07005152869712677
517.0, 0.0695794997418862
518.0, 0.08293726033212592
519.0, 0.08731568939580883
520.0, 0.08833683812169453
521.0, 0.0948564819391968
522.0, 0.10599516978194568
523.0, 0.10769958975534985
524.0, 0.11261948990786111
525.0, 0.11501581925884541
526.0, 0.12280348692118899
527.0, 0.13272359231245562
528.0, 0.13188909266148363
529.0, 0.13546928388835905
530.0, 0.1400601906173775
531.0, 0.14825464894345275
532.0, 0.1550683759111916
533.0, 0.15738578247343776
534.0, 0.15953141014867855
535.0, 0.15967951063826405
536.0, 0.1661238307520723
537.0, 0.17569623188780809
538.0, 0.1794397505037075
539.0, 0.1749470804538264
540.0, 0.17704184574488557
541.0, 0.18522832953401785
542.0, 0.18796419489264696
543.0, 0.18580901493050345
544.0, 0.17789717471074157
545.0, 0.1627250234315112
546.0, 0.14457003031772953
547.0, 0.1250680862429235
548.0, 0.10706466486528335
549.0, 0.08635391842646463
550.0, 0.06852077233217821
551.0, 0.059892026046543485
552.0, 0.04821308171071274
553.0, 0.03459184690237091
554.0, 0.031688774566744175
555.0, 0.02744159363511483
556.0, 0.02010544458394952
557.0, 0.018102588250465963
558.0, 0.007179780795111516
559.0, 0.0011901403548994056
560.0, 0.0016185998389729125
561.0, 0.0002294679673221652
562.0, 0.0018407410456339902
563.0, 0.00462020567647245
564.0, 0.007433259325080432
565.0, 0.002387765022583848
566.0, 0.0023637509451080677
567.0, 0.0021749252912953787
568.0, 0.001991088799415404
569.0, 0.005787086889869055
570.0, 0.0015377977968027636
571.0, 0.000918710846369245
572.0, 0.003261071012932258
573.0, 0.005893245488232448
574.0, 0.0049132537971176785
575.0, 0.0007904945115320913
576.0, 0.0077353785686743734
577.0, 0.00784160134526097
578.0, 0.012342375721081298
579.0, 0.010746827629869993
580.0, 0.003632760475379919
581.0, 0.006322356175308562
582.0, 0.0010341657053497485
583.0, 0.002010074310998098
584.0, 0.004704581139895976
585.0, 0.0071331116559813
586.0, 0.010224300653253152
587.0, 0.011001665516225688
588.0, 0.009624281653067276
589.0, 0.0015256370120012826
590.0, 0.0046142934188935685
591.0, 0.007613694804150768
592.0, 0.004968086638706752
593.0, 0.006428857612867451
594.0, 0.009936410999238213
595.0, 0.0030504056939934998
596.0, 0.003915850805096851
597.0, 0.010114173089634023
598.0, 0.008808242311056985
599.0, 0.0006612703757462055
600.0, 0.0025588416125308664
601.0, 0.0010960617489619755
602.0, 0.0010793275115857453
603.0, 0.0004769945804914196
604.0, 0.0006961944505336696
605.0, 0.0022124622599032327
606.0, 0.0008732113617308346
607.0, 0.0027008960875521716
608.0, 0.0013113850817489039
609.0, 0.0015158769717347976
610.0, 0.004535567525308122
611.0, 0.015479463962277035
612.0, 0.016970320987154078
613.0, 0.014206069123797724
614.0, 0.015295200911727267
615.0, 0.01367102536882345
616.0, 0.015888051361535867
617.0, 0.024121118371255273
618.0, 0.027413435735319684
619.0, 0.02686903367381911
620.0, 0.030615137162179253
621.0, 0.03605638372406969
622.0, 0.041361132489205026
623.0, 0.04518619466169173
624.0, 0.045092157443873064
625.0, 0.04368599578496058
626.0, 0.05124003396927122
627.0, 0.04849314374497043
628.0, 0.048793439196996725
629.0, 0.0482784853861374
630.0, 0.040556588465501725
631.0, 0.04906653605173021
632.0, 0.048493426163247616
633.0, 0.04756107848979944
634.0, 0.045629635992929976
635.0, 0.04644829092556577
636.0, 0.04674879993153631
637.0, 0.0399761525562181
638.0, 0.04181665262726085
639.0, 0.03934462680971139
640.0, 0.03627563240002403
641.0, 0.03499485858137527
642.0, 0.034008868123545366
643.0, 0.03231622201610848
644.0, 0.0334086958377836
645.0, 0.026567331675923324
646.0, 0.020885226210575845
647.0, 0.021760598256694328
648.0, 0.02200631438714514
649.0, 0.02015971977588974
650.0, 0.022518326307588852
651.0, 0.012608585495392476
652.0, 0.012536448788165714
653.0, 0.011615235778370606
654.0, 0.01651459627176069
655.0, 0.02053327954783917
656.0, 0.011518021777428918
657.0, 0.013093531374943892
658.0, 0.013017930319437241
659.0, 0.012179319487504362
660.0, 0.012520829612297772
661.0, 0.01436992430963938
662.0, 0.01258610235784093
663.0, 0.005329014028734446
664.0, 0.006966920858607878
665.0, 0.009284241094514725
666.0, 0.01613105437577933
667.0, 0.009615999800761879
668.0, 0.0030737733816801403
669.0, 0.013912265595574205
670.0, 0.01943774016079102
671.0, 0.00889616761269627
672.0, 0.0008858077884639176
673.0, 0.00451101849803196
674.0, 0.0074070004603307635
675.0, 0.0061453563960766925
676.0, 0.007627028257792605
677.0, 0.010060431666910608
678.0, 0.010178520611002481
679.0, 0.006944608185407158
680.0, 0.0007449997881558415
681.0, 0.0020209871799526965
682.0, 0.00876552740911161
683.0, 0.012087335060770806
684.0, 0.019081768277513317
685.0, 0.007420122383633293
686.0, 0.01058063765984641
687.0, 0.013807238632318995
688.0, 0.00788690066029966
689.0, 0.0015366164714669883
690.0, 0.0029407220820477148
691.0, 0.0014114504837955256
692.0, 0.0047314618733931306
693.0, 0.00838599718554404
694.0, 0.005531661133309799
695.0, 0.0010971557320146959
696.0, 0.0019167909730045396
697.0, 0.016341418669235167
698.0, 0.010171281501716959
699.0, 0.011964388565276924
700.0, 0.015951287593248775
701.0, 0.011362346136439657
702.0, 0.007513372233354488
703.0, 0.014530546562986186
704.0, 0.01174238567496145
705.0, 0.010017676723875841
706.0, 0.013657252287416651
707.0, 0.012717700094844471
708.0, 0.005981420140185017
709.0, 0.0048406181998174105
710.0, 0.015310271683185004
711.0, 0.014624042290161532
712.0, 0.00796708774572834
713.0, 0.010563877343562655
714.0, 0.02106527123235621
715.0, 0.022223127336267526
716.0, 0.014571149345595646
717.0, 0.013854851124652979
718.0, 0.017173062178607253
719.0, 0.0132463135836184
720.0, 0.010611933693977133
721.0, 0.018729408896515636
722.0, 0.02159331639051231
723.0, 0.01813463529540891
724.0, 0.01868472615182919
725.0, 0.01292812834839705
726.0, 0.01636663742450166
727.0, 0.01733654863514861
728.0, 0.01912880695544686
729.0, 0.018357637416159166
730.0, 0.01710277159475466
731.0, 0.019445968182613484
732.0, 0.02041462651859257
733.0, 0.009358416149168887
734.0, 0.01055105311254429
735.0, 0.023353116954542938
736.0, 0.01917439009953455
737.0, 0.01512812276229662
738.0, 0.02075071411271598
739.0, 0.013154029574666543
740.0, 0.0039500138229354295
741.0, 0.005352683537024543
742.0, 0.00972177456061343
743.0, 0.009188628946284428
744.0, 0.01019325760523125
745.0, 0.012214031755472357
746.0, 0.006805207282773978
747.0, 0.006518396612042049
748.0, 0.008411341702407017
749.0, 0.008535931642794838
750.0, 0.0053566407758302145
751.0, 0.0009394088021522083
752.0, 0.001461563644349839
753.0, 0.008278259323191891
754.0, 0.0014603432219118984
755.0, 0.001367587849907688
756.0, 0.0002774947578483698
757.0, 0.0034724542815430096
758.0, 0.0018489416027659992
759.0, 0.0018321683718954785
760.0, 0.002498059459550078
761.0, 0.001637207075435685
762.0, 0.006527548324024263
763.0, 0.004318768612559652
764.0, 0.002401131447922513
765.0, 0.0046504435205566436
766.0, 0.003186785629252338
767.0, 0.004644789296522633
768.0, 0.005859398945313386
769.0, 0.0014803527932456156
770.0, 0.007797969405636414
771.0, 0.003206142564098299
772.0, 0.00046604567842398247
773.0, 0.005773812968394999
774.0, 0.008151853951089885
775.0, 0.0004339113648333221
776.0, 0.0016057665750951078
777.0, 0.0054493864126632045
778.0, 0.003893104287415103
779.0, 0.004677529836134517
780.0, 0.0017949243489188973
781.0, 0.0012347460284477462
782.0, 0.001252784604580336
783.0, 0.002589619291273281
784.0, 0.0006141631575881533
785.0, 0.0011029227444311006
786.0, 0.002703560613318716
787.0, 0.002499478266951229
788.0, 0.0008762917484905885
789.0, 0.004198876932811056
790.0, 0.005610681171844021
791.0, 0.008549748132975266
792.0, 0.018321509573058024
793.0, 0.023461402308121614
794.0, 0.022141591277909618
795.0, 0.029150555109270233
796.0, 0.03459351008418869
797.0, 0.039098680311507726
798.0, 0.04402800694183447
799.0, 0.04235605287815837
800.0, 0.05275185527279254
801.0, 0.0678644417373065
802.0, 0.07370766877254778
803.0, 0.08942746848041412
804.0, 0.10386140901593387
805.0, 0.11344752188107848
806.0, 0.1253823546211465
807.0, 0.13751181849332378
808.0, 0.14770124168180904
809.0, 0.1699446294880079
810.0, 0.19048460568642134
811.0, 0.20266476148432613
812.0, 0.2174583513414965
813.0, 0.23533412388757124
814.0, 0.24908706221162008
815.0, 0.26341259810449746
816.0, 0.27630401029575224
817.0, 0.28754939873528623
818.0, 0.29404349357589443
819.0, 0.29849129045690076
820.0, 0.3042866295555281
821.0, 0.30717279690030724
822.0, 0.300145848114932
823.0, 0.2864648816864481
824.0, 0.27509084312127036
825.0, 0.2679345037359943
826.0, 0.24818650167019315
827.0, 0.2299917636753444
828.0, 0.2222499131371676
829.0, 0.21379369909473908
830.0, 0.204098986150362
831.0, 0.20819115602941812
832.0, 0.202412336798272
833.0, 0.2009874822392622
834.0, 0.19918018579096758
835.0, 0.20203036128674906
836.0, 0.20312991617504542
837.0, 0.20090350202071947
838.0, 0.20520758539260436
839.0, 0.21633851409559227
840.0, 0.21876631546641015
841.0, 0.22885645651853273
842.0, 0.230441730981717
843.0, 0.24431589517223595
844.0, 0.24915105846792246
845.0, 0.24753933598793854
846.0, 0.2548950958947053
847.0, 0.2701934980348039
848.0, 0.2804402974729971
849.0, 0.29429129707376067
850.0, 0.3079320458857578
851.0, 0.30747765023877155
852.0, 0.32520474879059835
853.0, 0.3480661091095298
854.0, 0.36778107947455246
855.0, 0.38805907664055816
856.0, 0.4091656529591666
857.0, 0.44634791200683055
858.0, 0.47089747167436397
859.0, 0.49771676989104496
860.0, 0.5347275576098675
861.0, 0.5661939989727555
862.0, 0.5982356791721698
863.0, 0.6384691203925976
864.0, 0.6794573996105314
865.0, 0.7151855140927957
866.0, 0.7593944920636588
867.0, 0.8075989606771738
868.0, 0.8457576134367909
869.0, 0.8853532613040407
870.0, 0.919725439122221
871.0, 0.945483196953903
872.0, 0.9691635727930373
873.0, 0.9921484772056469
874.0, 0.9984732987925496
875.0, 0.979288809465835
876.0, 0.9530684846288692
877.0, 0.9195997114508002
878.0, 0.8610979647710966
879.0, 0.8022859379624976
880.0, 0.7282404972168751
881.0, 0.6442161436637548
882.0, 0.5863123649854514
883.0, 0.5263467549866476
884.0, 0.4655900807609263
885.0, 0.4218209019269261
886.0, 0.3785097413068529
887.0, 0.34289976597958843
888.0, 0.30572808476041297
889.0, 0.2704921923198506
890.0, 0.24691667749294635
891.0, 0.2257939408031546
892.0, 0.2013932084736515
893.0, 0.18367320177234073
894.0, 0.1638844096995004
895.0, 0.15225536596290132
896.0, 0.1419974813850944
897.0, 0.12456533617162488
898.0, 0.11098834031221799
899.0, 0.108042575682058
900.0, 0.10253800474837016
901.0, 0.09132579648694392
902.0, 0.0780994875393314
903.0, 0.0767845415685933
904.0, 0.06189752216022726
905.0, 0.05938838007174914
906.0, 0.05845746471434006
907.0, 0.050042588253671284
908.0, 0.040326090770476976
909.0, 0.034394186018071655
910.0, 0.0351850858508579
911.0, 0.041995473912447276
912.0, 0.03145827260216177
913.0, 0.02290012240667374
914.0, 0.024870847862831807
915.0, 0.020234224629759004
916.0, 0.018618072977898904
917.0, 0.021410717452971892
918.0, 0.011610802729612889
919.0, 0.004666543751698739
920.0, 0.013757873103563831
921.0, 0.0015709401035354587
922.0, 0.009456315613994832
923.0, 0.008760816799797446
924.0, 0.007133300287257736
925.0, 0.006147428859002111
926.0, 0.004010082344589433
927.0, 0.0009679460096486877
928.0, 0.002689897404877861
929.0, 0.0021244762390430828
930.0, 0.0016934174082840043
931.0, 0.004674291788854495
932.0, 0.0022200173186097245
933.0, 0.006038483463652622
934.0, 0.004126921992211124
935.0, 0.0030537485917233502
936.0, 0.00345718510916901
937.0, 0.0003749597458502132
938.0, 0.007584657491995064
939.0, 0.009407690383606553
940.0, 0.0015762993123441707
941.0, 0.0009439221339074653
942.0, 0.001397959633284525
943.0, 0.005971026572043551
944.0, 0.006900686937385418
945.0, 0.0018407995607159183
946.0, 0.0008731391805796038
947.0, 0.0038884710706911718
948.0, 0.004581461066931218
949.0, 0.0014725336963446224
950.0, 0.0005574185730041727
951.0, 0.0008536841162876881
952.0, 0.001000496623296356
953.0, 0.0017357002231837896
954.0, 0.003015162767264292
955.0, 0.001284386949471779
956.0, 0.0038401526749859255
957.0, 0.002125178548415413
958.0, 0.003177079419074342
959.0, 0.0042138551156901466
960.0, 0.0015635065754547586
961.0, 0.0012077408965233526
962.0, 0.004941565887690012
963.0, 0.008507392974135247
964.0, 0.011064779445440421
965.0, 0.007518229435208812
966.0, 0.007224754900949627
967.0, 0.013114356555648268
968.0, 0.01775381045468637
969.0, 0.02319288424289304
970.0, 0.015237097177143562
971.0, 0.020335213136239302
972.0, 0.02932938309756572
973.0, 0.03882627265297246
974.0, 0.036499125849971975
975.0, 0.04424292106794396
976.0, 0.050764022218117384
977.0, 0.046415328564134245
978.0, 0.047070789143493254
979.0, 0.056541975609087886
980.0, 0.061325767621314135
981.0, 0.060589506335949034
982.0, 0.07218335460428982
983.0, 0.07721398335840088
984.0, 0.07140266507892096
985.0, 0.07092189775000882
986.0, 0.0722145693385304
987.0, 0.07571583541249315
988.0, 0.08107675800865706
989.0, 0.08354976876394873
990.0, 0.08933577109102406
991.0, 0.08456675284980801
992.0, 0.08559409014977659
993.0, 0.08674589823044766
994.0, 0.08401424541184534
995.0, 0.08984165535121087
996.0, 0.08768929632564663
997.0, 0.08507992700697756
998.0, 0.08928481849770073
999.0, 0.09287518225352143
1000.0, 0.08861056950443927
1001.0, 0.08116573647368128
1002.0, 0.08354078489344616
1003.0, 0.08055172074949889
1004.0, 0.0736388839725503
1005.0, 0.06447012811525328
1006.0, 0.061547317535989916
1007.0, 0.053353663210431765
1008.0, 0.04770305656471667
1009.0, 0.04280384987415552
1010.0, 0.03814275687943312
1011.0, 0.03628428279156052
1012.0, 0.02893570917246799
1013.0, 0.024376538980854838
1014.0, 0.024705831025400526
1015.0, 0.017839616836324245
1016.0, 0.012238346823478588
1017.0, 0.015166172190758956
1018.0, 0.01567120537918607
1019.0, 0.011819195736903088
1020.0, 0.01581040474131904
1021.0, 0.016213953623840517
1022.0, 0.006994187033175889
1023.0, 0.006147473291874502
1024.0, 0.004734838970083876
1025.0, 0.010483333211565828
1026.0, 0.002505474303590168
1027.0, 0.0034380596036861217
1028.0, 0.007598430238479766
1029.0, 0.005699388790067475
1030.0, 0.0042534174470033395
1031.0, 0.0013089091778341936
1032.0, 0.006616608614876105
1033.0, 0.0131856628743962
1034.0, 0.007263146535571173
1035.0, 0.0013516156408776342
1036.0, 0.006751432893478379
1037.0, 0.014283038423111455
1038.0, 0.010486253765751246
1039.0, 0.011243007295042108
1040.0, 0.012080435521507607
1041.0, 0.01500723785659483
1042.0, 0.014371007489257332
1043.0, 0.012575139424355748
1044.0, 0.010870875402906651
1045.0, 0.0056973861217656935
1046.0, 0.0012484666452798735
1047.0, 0.00480564446091818
1048.0, 0.012159250647919931
1049.0, 0.013521577317100434
1050.0, 0.006629676797694934
1051.0, 0.0014113613103808138
1052.0, 0.005617392984435589
1053.0, 0.0031800512335769062
1054.0, 0.004099587165650667
1055.0, 0.003497850242981127
1056.0, 0.008338282090982889
1057.0, 0.015325333965456331
1058.0, 0.012628811763861002
1059.0, 0.007271332242582357
1060.0, 0.012169048953336115
1061.0, 0.020036101661770504
1062.0, 0.013168229532377248
1063.0, 0.008568880963546415
1064.0, 0.015021753362988659
1065.0, 0.018645068456366272
1066.0, 0.01720122130309479
1067.0, 0.011078014648701862
1068.0, 0.011630785758533584
1069.0, 0.01425243986254144
1070.0, 0.019223205083097477
1071.0, 0.01802613162477179
1072.0, 0.009351791053911415
1073.0, 0.011003333682452604
1074.0, 0.011988821018843115
1075.0, 0.01199621529608543
1076.0, 0.012010722391731067
1077.0, 0.016943779430022992
1078.0, 0.008262596919890489
1079.0, 0.0040226391290661065
1080.0, 0.0040474331488408455
1081.0, 0.008526519853848093
1082.0, 0.01133172271623542
1083.0, 0.009444567901827499
1084.0, 0.006035299617587478
1085.0, 0.005042164259617537
1086.0, 0.006623796141935253
1087.0, 0.01004409429269363
1088.0, 0.012162807695760657
1089.0, 0.004581389172690275
1090.0, 0.004713051130254709
1091.0, 0.0021633139686391203
1092.0, 0.0013617057297475037
1093.0, 0.0035836279992972815
1094.0, 0.00681370713771456
1095.0, 0.004534956176109319
1096.0, 0.0022056336475396736
1097.0, 0.003356076010846998
1098.0, 0.0024914303121824706
1099.0, 0.0016157034391037135
1100.0, 0.005159495506265186
1101.0, 0.005131823901833387
1102.0, 0.010359897906176892
1103.0, 0.008846258034883439
1104.0, 0.011267382657144663
1105.0, 0.010708979068890965
1106.0, 0.005089676362494753
1107.0, 0.011132422625683166
1108.0, 0.010388387599388328
1109.0, 0.01104608298796999
1110.0, 0.009367626324874805
1111.0, 0.006139728269538991
1112.0, 0.008436205837446187
1113.0, 0.011862639688330219
1114.0, 0.013676782430532216
1115.0, 0.01512097402628588
1116.0, 0.012246373690246079
1117.0, 0.013764730617921302
1118.0, 0.007767719331464553
1119.0, 0.006196808478770565
1120.0, 0.004592893509879956
1121.0, 0.002840908587556859
1122.0, 0.013744322333685563
1123.0, 0.01437700647388918
1124.0, 0.006998770288763648
1125.0, 0.00542549907631151
1126.0, 0.00993881943265733
1127.0, 0.008374665062174247
1128.0, 0.007017340394369202
1129.0, 0.012338718289284227
1130.0, 0.003943835811441437
1131.0, 0.00776959136170362
1132.0, 0.01249025843701444
1133.0, 0.006456721509932041
1134.0, 0.0033881665359218466
1135.0, 0.007606586254825217
1136.0, 0.005664969047562617
1137.0, 0.007897678002958505
1138.0, 0.012106559066176062
1139.0, 0.010056211313814744
1140.0, 0.006188763079436366
1141.0, 0.0077859749942067544
1142.0, 0.009598058091043218
1143.0, 0.004080173593223482
1144.0, 0.0007200843455238814
1145.0, 0.00357779404849863
1146.0, 0.003165933090381395
1147.0, 0.0015392169157278862
1148.0, 0.006295898233221334
1149.0, 0.007132729730167267
1150.0, 0.006738101808486463
1151.0, 0.0032779094760722093
1152.0, 0.005258798879274994
1153.0, 0.0016258847597990199
1154.0, 6.0888808348338235e-05
1155.0, 0.000643962400006507
1156.0, 0.00536287979857918
1157.0, 0.007033588448348238
1158.0, 0.005480039890104027
1159.0, 0.0017698464132010923
1160.0, 0.002122457294847311
1161.0, 0.0015593888498735187
1162.0, 0.0013749026284242069
1163.0, 0.008836217070933048
1164.0, 0.018096314238206075
1165.0, 0.003385836469319348
1166.0, 0.007191462562243081
1167.0, 0.007456905942951202
1168.0, 0.013380949862846549
1169.0, 0.0030454734453425818
1170.0, 0.004264090904082575
1171.0, 0.0050573918600078606
1172.0, 0.0006662528564457264
1173.0, 0.0016109251021031506
1174.0, 0.0012106643366463134
1175.0, 0.0032291115890147825
1176.0, 0.005213379052576214
1177.0, 0.009711286555164695
1178.0, 0.01003126645789685
1179.0, 0.0025936160415645764
1180.0, 0.008533667158731975
1181.0, 0.013857347758958005
1182.0, 0.00860060193354162
1183.0, 0.012016040129811995
1184.0, 0.014640544176274075
1185.0, 0.012116254153147356
1186.0, 0.006240980913395532
1187.0, 0.006259166637698358
1188.0, 0.008946337438039147
1189.0, 0.008813754250439357
1190.0, 0.015592300048096025
1191.0, 0.014249223727171549
1192.0, 0.01404401473616768
1193.0, 0.014652130115245434
1194.0, 0.014204134474228528
1195.0, 0.012249608068988576
1196.0, 0.009798896866628425
1197.0, 0.011290752199733326
1198.0, 0.01385139723855449
1199.0, 0.011683354480687047
1200.0, 0.009406600987564817
1201.0, 0.006151911299373936
1202.0, 0.007175584591936464
1203.0, 0.006720469119542532
1204.0, 0.0011402049222400139
1205.0, 0.010916332463435329
1206.0, 0.0033038849771027117
1207.0, 0.00926909060713764
1208.0, 0.011905436397695767
1209.0, 0.013022924483359056
1210.0, 0.013372008345224926
1211.0, 0.005066372010480917
1212.0, 0.006349498079433203
1213.0, 0.00936758725947722
1214.0, 0.005799274173299781
1215.0, 0.005369585429456332
1216.0, 0.007573996748222361
1217.0, 0.0057038572169078984
1218.0, 0.0055165200789479285
1219.0, 0.008946561515809845
1220.0, 0.010189109386353113
1221.0, 0.009681936560510964
1222.0, 0.011021045658971398
1223.0, 0.006868323672345245
1224.0, 0.013734493156726053
1225.0, 0.00861809844815803
1226.0, 0.0011076727253465505
1227.0, 0.009364703794525125
1228.0, 0.015478207879605781
1229.0, 0.012441921164975448
1230.0, 0.01102523609162172
1231.0, 0.009878424954620787
1232.0, 0.005627741241962097
1233.0, 0.008089450426164886
1234.0, 0.010146110770818268
1235.0, 0.007776556425663597
1236.0, 0.012351258402396679
1237.0, 0.010645632008345141
1238.0, 0.011107536882958131
1239.0, 0.011191245763774125
1240.0, 0.005037166619016052
1241.0, 0.008399677833715329
1242.0, 0.004473804537886254
1243.0, 0.0013622059785505592
1244.0, 0.006966312571863586
1245.0, 0.010275708865593916
1246.0, 0.013714268679885618
1247.0, 0.011553798198659924
1248.0, 0.008446971859613685
1249.0, 0.018801637725767213
1250.0, 0.0022460503078012306
1251.0, 0.001253830202939766
1252.0, 0.003718689176640342
1253.0, 0.01045465185938953
1254.0, 0.019000420229927647
1255.0, 0.01566434208769581
1256.0, 0.011018818666214087
1257.0, 0.0024453394571504433
1258.0, 0.012005413160797089
1259.0, 0.01652456607016719
1260.0, 0.010713750301099185
1261.0, 0.011838021065201694
1262.0, 0.016791243367699275
1263.0, 0.01104576897061582
1264.0, 0.008042396528348636
1265.0, 0.010381567103839268
1266.0, 0.007623809299334587
1267.0, 0.008958441614091664
1268.0, 0.012081030491609445
1269.0, 0.011251225104073307
1270.0, 0.008787430968562762
1271.0, 0.004597819775248542
1272.0, 0.004786605514061208
1273.0, 0.002102841142861447
1274.0, 0.012948862442180097
1275.0, 0.012605357822793763
1276.0, 0.002931315364537585
1277.0, 0.0038489506119865637
1278.0, 0.014863719056830007
1279.0, 0.00973216000923464
1280.0, 0.003372778986707499
1281.0, 0.0003305774207202272
1282.0, 0.004565967329792624
1283.0, 0.0072656507938416
1284.0, 0.006651894597892374
1285.0, 0.002846045940381463
1286.0, 9.41396528976261e-05
1287, 0.0
1288, 0.0
1289, 0.0
1290, 0.0
1291, 0.0
1292, 0.0
1293, 0.0
1294, 0.0
1295, 0.0
1296, 0.0
1297, 0.0
1298, 0.0
1299, 0.0
1300, 0.0
1301, 0.0
1302, 0.0
1303, 0.0
1304, 0.0
1305, 0.0
1306, 0.0
1307, 0.0
1308, 0.0
1309, 0.0
1310, 0.0
1311, 0.0
1312, 0.0
1313, 0.0
1314, 0.0
1315, 0.0
1316, 0.0
1317, 0.0
1318, 0.0
1319, 0.0
1320, 0.0
1321, 0.0
1322, 0.0
1323, 0.0
1324, 0.0
1325, 0.0
1326, 0.0
1327, 0.0
1328, 0.0
1329, 0.0
1330, 0.0
1331, 0.0
1332, 0.0
1333, 0.0
1334, 0.0
1335, 0.0
1336, 0.0
1337, 0.0
1338, 0.0
1339, 0.0
1340, 0.0
1341, 0.0
1342, 0.0
1343, 0.0
1344, 0.0
1345, 0.0
1346, 0.0
1347, 0.0
1348, 0.0
1349, 0.0
1350, 0.0
1351, 0.0
1352, 0.0
1353, 0.0
1354, 0.0
1355, 0.0
1356, 0.0
1357, 0.0
1358, 0.0
1359, 0.0
1360, 0.0
1361, 0.0
1362, 0.0
1363, 0.0
1364, 0.0
1365, 0.0
1366, 0.0
1367, 0.0
1368, 0.0
1369, 0.0
1370, 0.0
1371, 0.0
1372, 0.0
1373, 0.0
1374, 0.0
1375, 0.0
1376, 0.0
1377, 0.0
1378, 0.0
1379, 0.0
1380, 0.0
1381, 0.0
1382, 0.0
1383, 0.0
1384, 0.0
1385, 0.0
1386, 0.0
1387, 0.0
1388, 0.0
1389, 0.0
1390, 0.0
1391, 0.0
1392, 0.0
1393, 0.0
1394, 0.0
1395, 0.0
1396, 0.0
1397, 0.0
1398, 0.0
1399, 0.0
1400, 0.0
1401, 0.0
1402, 0.0
1403, 0.0
1404, 0.0
1405, 0.0
1406, 0.0
1407, 0.0
1408, 0.0
1409, 0.0
1410, 0.0
1411, 0.0
1412, 0.0
1413, 0.0
1414, 0.0
1415, 0.0
1416, 0.0
1417, 0.0
1418, 0.0
1419, 0.0
1420, 0.0
1421, 0.0
1422, 0.0
1423, 0.0
1424, 0.0
1425, 0.0
1426, 0.0
1427, 0.0
1428, 0.0
1429, 0.0
1430, 0.0
1431, 0.0
1432, 0.0
1433, 0.0
1434, 0.0
1435, 0.0
1436, 0.0
1437, 0.0
1438, 0.0
1439, 0.0
1440, 0.0
1441, 0.0
1442, 0.0
1443, 0.0
1444, 0.0
1445, 0.0
1446, 0.0
1447, 0.0
1448, 0.0
1449, 0.0
1450, 0.0
1451, 0.0
1452, 0.0
1453, 0.0
1454, 0.0
1455, 0.0
1456, 0.0
1457, 0.0
1458, 0.0
1459, 0.0
1460, 0.0
1461, 0.0
1462, 0.0
1463, 0.0
1464, 0.0
1465, 0.0
1466, 0.0
1467, 0.0
1468, 0.0
1469, 0.0
1470, 0.0
1471, 0.0
1472, 0.0
1473, 0.0
1474, 0.0
1475, 0.0
1476, 0.0
1477, 0.0
1478, 0.0
1479, 0.0
1480, 0.0
1481, 0.0
1482, 0.0
1483, 0.0
1484, 0.0
1485, 0.0
1486, 0.0
1487, 0.0
1488, 0.0
1489, 0.0
1490, 0.0
1491, 0.0
1492, 0.0
1493, 0.0
1494, 0.0
1495, 0.0
1496, 0.0
1497, 0.0
1498, 0.0
1499, 0.0
1500, 0.0
1501, 0.0
1502, 0.0
1503, 0.0
1504, 0.0
1505, 0.0
1506, 0.0
1507, 0.0
1508, 0.0
1509, 0.0
1510, 0.0
1511, 0.0
1512, 0.0
1513, 0.0
1514, 0.0
1515, 0.0
1516, 0.0
1517, 0.0
1518, 0.0
1519, 0.0
1520, 0.0
1521, 0.0
1522, 0.0
1523, 0.0
1524, 0.0
1525, 0.0
1526, 0.0
1527, 0.0
1528, 0.0
1529, 0.0
1530, 0.0
1531, 0.0
1532, 0.0
1533, 0.0
1534, 0.0
1535, 0.0
1536, 0.0
1537, 0.0
1538, 0.0
1539, 0.0
1540, 0.0
1541, 0.0
1542, 0.0
1543, 0.0
1544, 0.0
1545, 0.0
1546, 0.0
1547, 0.0
1548, 0.0
1549, 0.0
1550, 0.0
1551, 0.0
1552, 0.0
1553, 0.0
1554, 0.0
1555, 0.0
1556, 0.0
1557, 0.0
1558, 0.0
1559, 0.0
1560, 0.0
1561, 0.0
1562, 0.0
1563, 0.0
1564, 0.0
1565, 0.0
1566, 0.0
1567, 0.0
1568, 0.0
1569, 0.0
1570, 0.0
1571, 0.0
1572, 0.0
1573, 0.0
1574, 0.0
1575, 0.0
1576, 0.0
1577, 0.0
1578, 0.0
1579, 0.0
1580, 0.0
1581, 0.0
1582, 0.0
1583, 0.0
1584, 0.0
1585, 0.0
1586, 0.0
1587, 0.0
1588, 0.0
1589, 0.0
1590, 0.0
1591, 0.0
1592, 0.0
1593, 0.0
1594, 0.0
1595, 0.0
1596, 0.0
1597, 0.0
1598, 0.0
1599, 0.0
