30, 0.0
31, 0.0
32, 0.0
33, 0.0
34, 0.0
35, 0.0
36, 0.0
37, 0.0
38, 0.0
39, 0.0
40, 0.0
41, 0.0
42, 0.0
43, 0.0
44, 0.0
45, 0.0
46, 0.0
47, 0.0
48, 0.0
49, 0.0
50, 0.0
51, 0.0
52, 0.0
53, 0.0
54, 0.0
55, 0.0
56, 0.0
57, 0.0
58, 0.0
59, 0.0
60, 0.0
61, 0.0
62, 0.0
63, 0.0
64, 0.0
65, 0.0
66, 0.0
67, 0.0
68, 0.0
69, 0.0
70, 0.0
71, 0.0
72, 0.0
73, 0.0
74, 0.0
75, 0.0
76, 0.0
77, 0.0
78, 0.0
79, 0.0
80, 0.0
81, 0.0
82, 0.0
83, 0.0
84, 0.0
85, 0.0
86, 0.0
87, 0.0
88, 0.0
89, 0.0
90, 0.0
91, 0.0
92, 0.0
93, 0.0
94, 0.0
95, 0.0
96, 0.0
97, 0.0
98, 0.0
99, 0.0
100, 0.0
101, 0.0
102, 0.0
103, 0.0
104, 0.0
105, 0.0
106, 0.0
107, 0.0
108, 0.0
109, 0.0
110, 0.0
111, 0.0
112, 0.0
113, 0.0
114, 0.0
115, 0.0
116, 0.0
117, 0.0
118, 0.0
119, 0.0
120, 0.0
121, 0.0
122, 0.0
123, 0.0
124, 0.0
125, 0.0
126, 0.0
127, 0.0
128, 0.0
129, 0.0
130, 0.0
131, 0.0
132, 0.0
133, 0.0
134, 0.0
135, 0.0
136, 0.0
137, 0.0
138, 0.0
139, 0.0
140, 0.0
141, 0.0
142, 0.0
143, 0.0
144, 0.0
145, 0.0
146, 0.0
147, 0.0
148, 0.0
149, 0.0
150, 0.0
151, 0.0
152, 0.0
153, 0.0
154, 0.0
155, 0.0
156, 0.0
157, 0.0
158, 0.0
159, 0.0
160, 0.0
161, 0.0
162, 0.0
163, 0.0
164, 0.0
165, 0.0
166, 0.0
167, 0.0
168, 0.0
169, 0.0
170, 0.0
171, 0.0
172, 0.0
173, 0.0
174, 0.0
175, 0.0
176, 0.0
177, 0.0
178, 0.0
179, 0.0
180, 0.0
181, 0.0
182, 0.0
183, 0.0
184, 0.0
185, 0.0
186, 0.0
187, 0.0
188, 0.0
189, 0.0
190, 0.0
191, 0.0
192, 0.0
193, 0.0
194, 0.0
195, 0.0
196, 0.0
197, 0.0
198.0, 4.7753619340996635e-05
199.0, 0.0003599638632914989
200.0, 0.0012550592906487388
201.0, 0.00120925427170042
202.0, 0.002496827050408072
203.0, 0.0040658020666847474
204.0, 0.004422238870078525
205.0, 0.002935962505335011
206.0, 0.0028956037178387143
207.0, 0.0019862023875239785
208.0, 0.0010037240635550376
209.0, 0.0006737205259097314
210.0, 0.0008370167034713179
211.0, 0.00031889751883626606
212.0, 0.00010937908267395386
213.0, 0.000666568564464358
214.0, 0.0010574103766804873
215.0, 0.0011139849606238996
216.0, 0.001164091909265926
217.0, 0.002088906140031676
218.0, 0.002888388248209812
219.0, 0.0037098068312174507
220.0, 0.005075109733152796
221.0, 0.007031753288181459
222.0, 0.009077226904603311
223.0, 0.012306140187657228
224.0, 0.015368441757285977
225.0, 0.01881773862830845
226.0, 0.02301587639163748
227.0, 0.02781298625819066
228.0, 0.0317095383146435
229.0, 0.038246520858515654
230.0, 0.04227541843986706
231.0, 0.04681916664958194
232.0, 0.05248699362509378
233.0, 0.05692620848515703
234.0, 0.06160228836154581
235.0, 0.06767506133786601
236.0, 0.07341688021815834
237.0, 0.07918638281578631
238.0, 0.08520352121354455
239.0, 0.089693374621621
240.0, 0.08622723315894723
241.0, 0.08102626727678273
242.0, 0.07151421865751963
243.0, 0.05958264956041471
244.0, 0.04990992197520977
245.0, 0.04063510343884488
246.0, 0.031929979301978946
247.0, 0.025415451529469193
248.0, 0.019320471775082566
249.0, 0.013554260295232974
250.0, 0.011955052240058148
251.0, 0.01016301070428956
252.0, 0.008001565535119338
253.0, 0.007105865336960314
254.0, 0.0072579042627767395
255.0, 0.007500517087503722
256.0, 0.008003400062947644
257.0, 0.007708929594825209
258.0, 0.009073454986383917
259.0, 0.010412033523962074
260.0, 0.011081039879646327
261.0, 0.012098741389544167
262.0, 0.01450515308096973
263.0, 0.015267405447277544
264.0, 0.017425519535774432
265.0, 0.0209471716842492
266.0, 0.024831540562837897
267.0, 0.02811925481129096
268.0, 0.03513183656496216
269.0, 0.03881871442198612
270.0, 0.04053172685357816
271.0, 0.04113037694415054
272.0, 0.040879863988517354
273.0, 0.03941562380024743
274.0, 0.0372277142362451
275.0, 0.03635531423160651
276.0, 0.035127069341968596
277.0, 0.03326924599600512
278.0, 0.03237727733071337
279.0, 0.030362885053114342
280.0, 0.02641282052616064
281.0, 0.024387279390043072
282.0, 0.023043061919970992
283.0, 0.021108612402022938
284.0, 0.02035197009169003
285.0, 0.016969296238650733
286.0, 0.014894884078705555
287.0, 0.0137067460274237
288.0, 0.011876958625119238
289.0, 0.009037135819002454
290.0, 0.011192979321828547
291.0, 0.009569715469320011
292.0, 0.008767553566225958
293.0, 0.009761726958770804
294.0, 0.011296861176455215
295.0, 0.010920403894351777
296.0, 0.009735172211529598
297.0, 0.011031650234996953
298.0, 0.010990752410313878
299.0, 0.012251976669466808
300.0, 0.014863508547569628
301.0, 0.013757313148272896
302.0, 0.015153363268198237
303.0, 0.015667469245371303
304.0, 0.016981787688534644
305.0, 0.018410944176197316
306.0, 0.019399454379991476
307.0, 0.02166257397885577
308.0, 0.02356192044986547
309.0, 0.02681190157708905
310.0, 0.029707184343443098
311.0, 0.032276790978125545
312.0, 0.0358088297103521
313.0, 0.042307808349385564
314.0, 0.04675846689445564
315.0, 0.052726974453385964
316.0, 0.058994221078633335
317.0, 0.06467800291876981
318.0, 0.06943643168945572
319.0, 0.07187914464500524
320.0, 0.07238163238872565
321.0, 0.06974380539813822
322.0, 0.06668188323959418
323.0, 0.0641153423022503
324.0, 0.060340532744298056
325.0, 0.05657946543430782
326.0, 0.05341475856324442
327.0, 0.05222367776672909
328.0, 0.05165379100793887
329.0, 0.05071343938969091
330.0, 0.05011394558178773
331.0, 0.050541478842012856
332.0, 0.05236738959074355
333.0, 0.05422153075090962
334.0, 0.05488393435052693
335.0, 0.0545369596466755
336.0, 0.055890057695147086
337.0, 0.0550838591437675
338.0, 0.056240093759300405
339.0, 0.057550910247554966
340.0, 0.059153282354513184
341.0, 0.06145632403187444
342.0, 0.0631186447661025
343.0, 0.06729934719209973
344.0, 0.07222918449241635
345.0, 0.07859971563108022
346.0, 0.08762120288582315
347.0, 0.10006149280992248
348.0, 0.1146920844237716
349.0, 0.11861313663562895
350.0, 0.12893441406625877
351.0, 0.14454480298503516
352.0, 0.16247801907013032
353.0, 0.18097021236656197
354.0, 0.20480804581666584
355.0, 0.23614461679423587
356.0, 0.2674053782471003
357.0, 0.2964823383417566
358.0, 0.32622890930768933
359.0, 0.3608954715200295
360.0, 0.39498315284889857
361.0, 0.4350633801307978
362.0, 0.4792351524908457
363.0, 0.5310156271052907
364.0, 0.592592146017903
365.0, 0.6644704056772268
366.0, 0.7492483067630701
367.0, 0.8313121456423044
368.0, 0.9053539122499868
369.0, 0.9628894084366042
370.0, 0.9954002530081474
371.0, 0.9967143585257734
372.0, 0.9654225349617159
373.0, 0.9032614809927818
374.0, 0.8269863592740498
375.0, 0.7428752887741975
376.0, 0.6545905426496225
377.0, 0.5654296313983193
378.0, 0.48771470510638315
379.0, 0.42213291190030044
380.0, 0.3631355660089391
381.0, 0.3131322252237353
382.0, 0.2722877298054507
383.0, 0.23800558072748834
384.0, 0.2114717800031498
385.0, 0.1893640134817438
386.0, 0.16834223151682182
387.0, 0.1509266642480003
388.0, 0.13695558647350517
389.0, 0.12357214394008184
390.0, 0.11203976664188905
391.0, 0.10117432173136928
392.0, 0.09388133970633873
393.0, 0.0869989674927175
394.0, 0.07976574091687186
395.0, 0.07382932149325025
396.0, 0.06741557603224571
397.0, 0.06421271845383027
398.0, 0.05768414278769845
399.0, 0.05318536055840496
400.0, 0.05025428614989829
401.0, 0.044324964472031464
402.0, 0.04011142083768105
403.0, 0.03526484940003918
404.0, 0.031267852046916615
405.0, 0.02726489213202881
406.0, 0.022623034422629196
407.0, 0.017506973622454864
408.0, 0.013637675534867185
409.0, 0.011124683396499196
410.0, 0.009359185161511012
411.0, 0.006963372588560827
412.0, 0.004404723776891279
413.0, 0.002891641999572989
414.0, 0.0020528299730608887
415.0, 0.0011108799994923183
416.0, 0.0009324444623959849
417.0, 0.0023328398720427984
418.0, 0.004045745767344032
419.0, 0.004617952437175707
420.0, 0.0048870989012425375
421.0, 0.004073330113542724
422.0, 0.0038741067953256196
423.0, 0.004194353358684583
424.0, 0.004591441554971575
425.0, 0.00470450851732196
426.0, 0.00460888205126426
427.0, 0.004011879026564396
428.0, 0.004096686061019827
429.0, 0.00325032055613116
430.0, 0.002096724895118231
431.0, 0.001215910675849603
432.0, 9.89375900808779e-05
433.0, 0.00028026474899486267
434.0, 0.0013846887549611182
435.0, 0.0033251520531264096
436.0, 0.005812297580724297
437.0, 0.007857828702109972
438.0, 0.008405154437135035
439.0, 0.010488313625032936
440.0, 0.011422270713318108
441.0, 0.012588127803136194
442.0, 0.012745034718726166
443.0, 0.012435663820624627
444.0, 0.013297855014667992
445.0, 0.013758797876924623
446.0, 0.014544817915179888
447.0, 0.015514967083628588
448.0, 0.015733675297104874
449.0, 0.01623132898901545
450.0, 0.017773601941267876
451.0, 0.01715143489085532
452.0, 0.017794745429605564
453.0, 0.01821234107554296
454.0, 0.018038151098784778
455.0, 0.017688552354836396
456.0, 0.017539081907470187
457.0, 0.017316590673490097
458.0, 0.017348235407311563
459.0, 0.016969240014811166
460.0, 0.016725698479969357
461.0, 0.016358831716105585
462.0, 0.01568114160739939
463.0, 0.01489497812856966
464.0, 0.014415274077926338
465.0, 0.012948302210225728
466.0, 0.012107634001448191
467.0, 0.011222097648745415
468.0, 0.010316318327576996
469.0, 0.009883386795830286
470.0, 0.0091435696572835
471.0, 0.009323954132900934
472.0, 0.009283381084437872
473.0, 0.00905093713623647
474.0, 0.009163547967969969
475.0, 0.009980937363821663
476.0, 0.011074368744585209
477.0, 0.012775657346712455
478.0, 0.014517018392195666
479.0, 0.017912815685449095
480.0, 0.021535556743644643
481.0, 0.024931725780489227
482.0, 0.02928982399947402
483.0, 0.030480839291390265
484.0, 0.03572081185865375
485.0, 0.03809025157099476
486.0, 0.040581344764918224
487.0, 0.04379428542639163
488.0, 0.046006899541678914
489.0, 0.047514928232360684
490.0, 0.04813622912612703
491.0, 0.049349483011955006
492.0, 0.04918469852790191
493.0, 0.049075637610080915
494.0, 0.04944263439887625
495.0, 0.047030687725937145
496.0, 0.04727921688794176
497.0, 0.04572939641468223
498.0, 0.04509677031683806
499.0, 0.043602382120666194
500.0, 0.0404943377320848
501.0, 0.03701055895200119
502.0, 0.034256873251300946
503.0, 0.032087409195823834
504.0, 0.030223399392528084
505.0, 0.027930057049949695
506.0, 0.02603537437157481
507.0, 0.025298969486633936
508.0, 0.024596939076687387
509.0, 0.02250459761015754
510.0, 0.023290907221783137
511.0, 0.023539584196110998
512.0, 0.023889436072835384
513.0, 0.025368670077208062
514.0, 0.027973587851515543
515.0, 0.03062034978967058
516.0, 0.03288338127947767
517.0, 0.03791585663734709
518.0, 0.0454278601896264
519.0, 0.052337807560583496
520.0, 0.05824684117974343
521.0, 0.07023016810096969
522.0, 0.08330341231710349
523.0, 0.09840321166419977
524.0, 0.11752920179879915
525.0, 0.13848998090600578
526.0, 0.16060771566340962
527.0, 0.18611359334978161
528.0, 0.21793840093915604
529.0, 0.2501678156758604
530.0, 0.27913981614386973
531.0, 0.3011610214221889
532.0, 0.31306708337382844
533.0, 0.31107893926738595
534.0, 0.29109121434696367
535.0, 0.2632608273651577
536.0, 0.2252685738526999
537.0, 0.18919093412371363
538.0, 0.15648471795122557
539.0, 0.12733190275576878
540.0, 0.10244888837910973
541.0, 0.08180491480053581
542.0, 0.06687597231343174
543.0, 0.0555306707550698
544.0, 0.04679667596364459
545.0, 0.04082756576745574
546.0, 0.03684033637362578
547.0, 0.032754132805715944
548.0, 0.03103140329067518
549.0, 0.03009032674435951
550.0, 0.029445439034023666
551.0, 0.029284650840980444
552.0, 0.029231132639452748
553.0, 0.028932029281214418
554.0, 0.028983100933584947
555.0, 0.0292706610352379
556.0, 0.029142537985044226
557.0, 0.029345211436791876
558.0, 0.02950073847615193
559.0, 0.029131452156693206
560.0, 0.02835510481483283
561.0, 0.02864925230742626
562.0, 0.026154170804968613
563.0, 0.02627302596973165
564.0, 0.024825189265155763
565.0, 0.0226510432873959
566.0, 0.021013050727608985
567.0, 0.01869741896910398
568.0, 0.01569987111349011
569.0, 0.013877910356783216
570.0, 0.012589814382378205
571.0, 0.011005890271848815
572.0, 0.009330483643242347
573.0, 0.007869916809093972
574.0, 0.006018202582935106
575.0, 0.00520811863977446
576.0, 0.004012950442109756
577.0, 0.0030814434162494625
578.0, 0.001964748294266901
579.0, 0.0015935784753855517
580.0, 0.002733389320022528
581.0, 0.002544140435947503
582.0, 0.0027383761457454004
583.0, 0.004514055841607949
584.0, 0.004263641162191618
585.0, 0.003968054081602936
586.0, 0.005346655385158012
587.0, 0.0077222549788015715
588.0, 0.0092445689363974
589.0, 0.010022170205181376
590.0, 0.012561691678681902
591.0, 0.015602301219996407
592.0, 0.018078085209923572
593.0, 0.01962892338186004
594.0, 0.020668507886070237
595.0, 0.021888295480217423
596.0, 0.024735024346964687
597.0, 0.02768828252253812
598.0, 0.03000240348559306
599.0, 0.030370649252502515
600.0, 0.02988687669874657
601.0, 0.03222304677995185
602.0, 0.03304614721801174
603.0, 0.034310402926981474
604.0, 0.03512767100657381
605.0, 0.03568897081781927
606.0, 0.03642553704140558
607.0, 0.03740279494768174
608.0, 0.03809697685239264
609.0, 0.038982246097150265
610.0, 0.03933221636621339
611.0, 0.039724792100195895
612.0, 0.03978491756527208
613.0, 0.04000662728655815
614.0, 0.04047437598602765
615.0, 0.03968052050811719
616.0, 0.03850164738094382
617.0, 0.04013882022530834
618.0, 0.039374060604710215
619.0, 0.038241994989412186
620.0, 0.03682040480652641
621.0, 0.03406225558724427
622.0, 0.030826468270896728
623.0, 0.029358347622870578
624.0, 0.02559896398775793
625.0, 0.023703510700964405
626.0, 0.021991636587842454
627.0, 0.020296859321466507
628.0, 0.01881578598309218
629.0, 0.01563043712550821
630.0, 0.013904196448767657
631.0, 0.0126623045493977
632.0, 0.011394361300022126
633.0, 0.010401440152314123
634.0, 0.009876103806798663
635.0, 0.009796184296286667
636.0, 0.010015802071717464
637.0, 0.010082915201154681
638.0, 0.010505589924900926
639.0, 0.01094318170931974
640.0, 0.01159608823040574
641.0, 0.012289743432407064
642.0, 0.012889821338798004
643.0, 0.01378468396405302
644.0, 0.014899740041094291
645.0, 0.016436815700077666
646.0, 0.016721325771911436
647.0, 0.017409042582072907
648.0, 0.01853373810007217
649.0, 0.019282276277609825
650.0, 0.019542607629285166
651.0, 0.019874702737191045
652.0, 0.020117100470320802
653.0, 0.019579622545251543
654.0, 0.019507243165450317
655.0, 0.019743819561363972
656.0, 0.01931425219434146
657.0, 0.017805168337776785
658.0, 0.017560402769714756
659.0, 0.017635123820097392
660.0, 0.015862563626684513
661.0, 0.01449360887917831
662.0, 0.013887937652273339
663.0, 0.013930322908469324
664.0, 0.014625483079933919
665.0, 0.014313200532577319
666.0, 0.01494474587252745
667.0, 0.015075636485131693
668.0, 0.015658884110210883
669.0, 0.016654404186803976
670.0, 0.016821018787862414
671.0, 0.01551893101688286
672.0, 0.015906840942978267
673.0, 0.0170762586999084
674.0, 0.017736234214434793
675.0, 0.017742394426940953
676.0, 0.017314304431603332
677.0, 0.016127870267762266
678.0, 0.014257614657420335
679.0, 0.013375585690927918
680.0, 0.012208045224017989
681.0, 0.011214020427934132
682.0, 0.008859403912786163
683.0, 0.007409233167978608
684.0, 0.006404942286033918
685.0, 0.004756418408955134
686.0, 0.0033645418778281977
687.0, 0.002256566140135169
688.0, 0.0008741975943041368
689.0, 0.0007692768352373488
690.0, 0.000526011698167558
691.0, 0.0002319729268255466
692.0, 0.0006873956846981644
693.0, 0.0021652896763041897
694.0, 0.0033552127381210324
695.0, 0.0026024726188963103
696.0, 0.003464061290551999
697.0, 0.0037830215568323304
698.0, 0.0039051942965793924
699.0, 0.003826090827637916
700.0, 0.0034233191430429258
701.0, 0.0039464288005675585
702.0, 0.003691276415993343
703.0, 0.0042373792062609964
704.0, 0.004219712786985013
705.0, 0.0039404063036164744
706.0, 0.0038773240007424323
707.0, 0.00406665817970026
708.0, 0.003980370328599838
709.0, 0.0031224488004003357
710.0, 0.0041954452024425045
711.0, 0.004723759333059621
712.0, 0.004620565165249961
713.0, 0.004012866582529334
714.0, 0.003678879090731182
715.0, 0.003933101908583524
716.0, 0.00283907144499539
717.0, 0.00400462677489082
718.0, 0.003643844085547559
719.0, 0.0033449182922719416
720.0, 0.0032123538360610323
721.0, 0.0023998564014563505
722.0, 0.001326272829265547
723.0, 0.0018991214378538224
724.0, 0.0006403877834808542
725.0, 0.0007670365942282652
726.0, 0.0010732693445514483
727.0, 0.0016247592998146728
728.0, 0.0029738759576030294
729.0, 0.004300898869539669
730.0, 0.00471090053996312
731.0, 0.006285113344708782
732.0, 0.006959395955412248
733.0, 0.007054582577532338
734.0, 0.00830201561503982
735.0, 0.009591861727282701
736.0, 0.010678282697337126
737.0, 0.01178997087206223
738.0, 0.012918526082685008
739.0, 0.01455913428076689
740.0, 0.01646458083141643
741.0, 0.018078696854720498
742.0, 0.020246631718400382
743.0, 0.02241142511688729
744.0, 0.024012673282416224
745.0, 0.025388782835667933
746.0, 0.027622377962721135
747.0, 0.029194133004093632
748.0, 0.03230731126038963
749.0, 0.03426588072933171
750.0, 0.036235347554152274
751.0, 0.0384341728515627
752.0, 0.04038134424196584
753.0, 0.041928586593328585
754.0, 0.044139391038570674
755.0, 0.04661243455136634
756.0, 0.04842250175011508
757.0, 0.050380815038429345
758.0, 0.05309062313534829
759.0, 0.05620792577134051
760.0, 0.05919961845479886
761.0, 0.06209012974052006
762.0, 0.06523614457656902
763.0, 0.06686877126547482
764.0, 0.06842275111963993
765.0, 0.06929734725495917
766.0, 0.0697578872251453
767.0, 0.0696771842885649
768.0, 0.06880221940914534
769.0, 0.06750764420069164
770.0, 0.06679634744192722
771.0, 0.06298741848894657
772.0, 0.06224149936437034
773.0, 0.05995223599368732
774.0, 0.05658481905434091
775.0, 0.05450757496647798
776.0, 0.053945196934048506
777.0, 0.05165697410369805
778.0, 0.05023207188808571
779.0, 0.04949693445799263
780.0, 0.04866934655146825
781.0, 0.04764996696231122
782.0, 0.04676329321574596
783.0, 0.046820311242728764
784.0, 0.048160643071894285
785.0, 0.049441038054659416
786.0, 0.04942357338255909
787.0, 0.05179681004518054
788.0, 0.05377596870196379
789.0, 0.05496710406485995
790.0, 0.05666235848663044
791.0, 0.05914684975389824
792.0, 0.061659273249959005
793.0, 0.06473185165436618
794.0, 0.06881748273567813
795.0, 0.07315319389829081
796.0, 0.07838680791201634
797.0, 0.08388337217381736
798.0, 0.09007257952384842
799.0, 0.09705185362586946
800.0, 0.10410399184885819
801.0, 0.11100260636977052
802.0, 0.12156882029838008
803.0, 0.1311786229782139
804.0, 0.1394269786268877
805.0, 0.1493774424208638
806.0, 0.16073268652860095
807.0, 0.17132357421253863
808.0, 0.18166475974545462
809.0, 0.1973927900524529
810.0, 0.21000055394831724
811.0, 0.22327741017352085
812.0, 0.23560584715256433
813.0, 0.24981126339644308
814.0, 0.26508832572754126
815.0, 0.2782972116771924
816.0, 0.28810122179849573
817.0, 0.29790487426644124
818.0, 0.3083130747091173
819.0, 0.30812398126505064
820.0, 0.31095451708583577
821.0, 0.30746621447056893
822.0, 0.3000403209233139
823.0, 0.29314365756048866
824.0, 0.2867848400008662
825.0, 0.27756451316977604
826.0, 0.26683216342970656
827.0, 0.25439327017552876
828.0, 0.24673100931760378
829.0, 0.23511677836448702
830.0, 0.22435059841243493
831.0, 0.21521331791077755
832.0, 0.20544956632064254
833.0, 0.196840347285873
834.0, 0.19054942065220196
835.0, 0.18492367789224698
836.0, 0.178851951175334
837.0, 0.17663414962217305
838.0, 0.1723736991436417
839.0, 0.16770304526789515
840.0, 0.16646230845246773
841.0, 0.16654355135594254
842.0, 0.1620727917747263
843.0, 0.16405589864919776
844.0, 0.16248112975197826
845.0, 0.1604131678768925
846.0, 0.1604139104999
847.0, 0.16088490184935733
848.0, 0.16053786067502795
849.0, 0.15925926293742487
850.0, 0.1559483193087803
851.0, 0.15655038698539994
852.0, 0.15545184693291578
853.0, 0.15528000645488657
854.0, 0.15482697621309835
855.0, 0.15541033350932643
856.0, 0.15719507062608837
857.0, 0.1595825304792157
858.0, 0.16311373503202078
859.0, 0.16847230931236354
860.0, 0.17624083357348055
861.0, 0.18208822695138832
862.0, 0.19125031587714736
863.0, 0.20060404907323964
864.0, 0.21197390796381055
865.0, 0.225594246124983
866.0, 0.23850085025528395
867.0, 0.2527541992112705
868.0, 0.2680429806313007
869.0, 0.2790122359696544
870.0, 0.29362791111893105
871.0, 0.3104581424459717
872.0, 0.325051613863804
873.0, 0.3345768052163483
874.0, 0.3404739417246669
875.0, 0.3455346915846673
876.0, 0.3437519059302095
877.0, 0.34011604301798953
878.0, 0.328190278054759
879.0, 0.3164159708846175
880.0, 0.3008654127777615
881.0, 0.2823270411563733
882.0, 0.2632560601741263
883.0, 0.24417404550748364
884.0, 0.22521662784582933
885.0, 0.20847224973133074
886.0, 0.19446432426445467
887.0, 0.17855922364193583
888.0, 0.16442452222255
889.0, 0.15247761840367935
890.0, 0.1404589040204398
891.0, 0.12980301275125097
892.0, 0.12334261080063012
893.0, 0.1122821401302715
894.0, 0.10536183275146427
895.0, 0.099877002359431
896.0, 0.09596897270128196
897.0, 0.09082029393316671
898.0, 0.08511607444903957
899.0, 0.08014234754859757
900.0, 0.07613501522831387
901.0, 0.07235927965069994
902.0, 0.06754433175501512
903.0, 0.0654858109814297
904.0, 0.06261374701225902
905.0, 0.060146881098480307
906.0, 0.058480401285904704
907.0, 0.05704334696012178
908.0, 0.05588670946923789
909.0, 0.05531634903753588
910.0, 0.054716494481734025
911.0, 0.05405072722944334
912.0, 0.05422295043390259
913.0, 0.053228153332402835
914.0, 0.05427424676919408
915.0, 0.05413222961513361
916.0, 0.054836740394933574
917.0, 0.05647636048179694
918.0, 0.0566283314846494
919.0, 0.056855938578025546
920.0, 0.0587454442050218
921.0, 0.05659870023249884
922.0, 0.057708674827587916
923.0, 0.05911983502217892
924.0, 0.059297832493626135
925.0, 0.05964392254018987
926.0, 0.06117665506845394
927.0, 0.06300650120946014
928.0, 0.06425907131155804
929.0, 0.06676390328936961
930.0, 0.06789240145858749
931.0, 0.06916028453536865
932.0, 0.07185575868740965
933.0, 0.0738232413697181
934.0, 0.07555190996737202
935.0, 0.0772565234251328
936.0, 0.07846375048393855
937.0, 0.08004930134497301
938.0, 0.0810508772217348
939.0, 0.08208959690300817
940.0, 0.08141934676076606
941.0, 0.08091335839592947
942.0, 0.0793429797346528
943.0, 0.07711230522664157
944.0, 0.07450168444268299
945.0, 0.07091941868934179
946.0, 0.06636606905404799
947.0, 0.06283550954990585
948.0, 0.058824596658427715
949.0, 0.056283592606855865
950.0, 0.05318333353597348
951.0, 0.05022226928418726
952.0, 0.04734853296886798
953.0, 0.04427081366414032
954.0, 0.041531917104640034
955.0, 0.04008052841707026
956.0, 0.03928113962371671
957.0, 0.04057107239629704
958.0, 0.04031724466603261
959.0, 0.041902795382606384
960.0, 0.04471454797187894
961.0, 0.046880843090620954
962.0, 0.049946655521273836
963.0, 0.05363654182944329
964.0, 0.05566202746167196
965.0, 0.05883910288279092
966.0, 0.06229335266671806
967.0, 0.06398075822417106
968.0, 0.06642578468009219
969.0, 0.06927749231198886
970.0, 0.07171495969556194
971.0, 0.07492055674998417
972.0, 0.07814695038981849
973.0, 0.08012550643498324
974.0, 0.08210480475947715
975.0, 0.08275914244648731
976.0, 0.08557062531270021
977.0, 0.08640406660938132
978.0, 0.08793092533215259
979.0, 0.0885583244805965
980.0, 0.08897302690571797
981.0, 0.08963125622894666
982.0, 0.08948509089738091
983.0, 0.08855096018386757
984.0, 0.09018314012763434
985.0, 0.09032115002123876
986.0, 0.08823566209999179
987.0, 0.0896309569783189
988.0, 0.08834511725682384
989.0, 0.08752357377542704
990.0, 0.08764074525622965
991.0, 0.08747228746550169
992.0, 0.0871380931283866
993.0, 0.0878006961553231
994.0, 0.08819642154072062
995.0, 0.08631873790597958
996.0, 0.08952829749433192
997.0, 0.08881461424209858
998.0, 0.08602794429255191
999.0, 0.08534619856647946
1000.0, 0.08485758863806349
1001.0, 0.08193831147164542
1002.0, 0.07774277446413473
1003.0, 0.07414652833860642
1004.0, 0.06878687004456698
1005.0, 0.0629320407459178
1006.0, 0.05604877617021685
1007.0, 0.05093522895748184
1008.0, 0.044640001935746514
1009.0, 0.03954026765639379
1010.0, 0.03408089600755805
1011.0, 0.027954459440582047
1012.0, 0.024156957118083744
1013.0, 0.021979798597374246
1014.0, 0.019895116097738412
1015.0, 0.018003632218236774
1016.0, 0.018373738833306272
1017.0, 0.018689582656114836
1018.0, 0.01983545919210186
1019.0, 0.021244559051282676
1020.0, 0.022556110688243695
1021.0, 0.024058063831630946
1022.0, 0.025447589364032668
1023.0, 0.025659787831219073
1024.0, 0.026970204991519565
1025.0, 0.02536287638203762
1026.0, 0.023939278679947038
1027.0, 0.022979185567350492
1028.0, 0.01998605333979748
1029.0, 0.016664806619987264
1030.0, 0.013955684623783106
1031.0, 0.011385542137466665
1032.0, 0.008842238654004998
1033.0, 0.006660652232900557
1034.0, 0.003742360071778272
1035.0, 0.0031197416310562182
1036.0, 0.0014633749229876357
1037.0, 0.0012597459596506628
1038.0, 0.0009761120152586071
1039.0, 0.0004618399990798959
1040.0, 0.0002333516335031581
1041.0, 0.0004230831339043377
1042.0, 0.0007314589131274484
1043.0, 0.0010210043874697753
1044.0, 0.0014542384574009284
1045.0, 0.0026977966738095313
1046.0, 0.0012191855428988925
1047.0, 0.0005654728718733052
1048.0, 0.001371861942775255
1049.0, 0.001769770939233589
1050.0, 0.0020511550148282617
1051.0, 0.002359448419060355
1052.0, 0.00226348986625805
1053.0, 0.0021947595651242656
1054.0, 0.002285318023831539
1055.0, 0.001512101386527552
1056.0, 0.0017932103294797611
1057.0, 0.001474604600988439
1058.0, 0.0013782121508781528
1059.0, 0.0019682618867970783
1060.0, 0.0018489269868281288
1061.0, 0.0018214284686167742
1062.0, 0.0021376473346206705
1063.0, 0.001980691779655886
1064.0, 0.0028085575029654433
1065.0, 0.0018353749865394249
1066.0, 0.001656360486243705
1067.0, 0.0020205665062395742
1068.0, 0.0021020092087311636
1069.0, 0.0015672369402783312
1070.0, 0.0012133157364481065
1071.0, 0.001314913465078653
1072.0, 0.0017873753809742982
1073.0, 0.0020662518364999265
1074.0, 0.001658639370179503
1075.0, 0.001776334906866641
1076.0, 0.0019062342550813603
1077.0, 0.0018227397174276538
1078.0, 0.0006347222318939044
1079.0, 0.0009790413146862794
1080.0, 0.0004898065393708465
1081.0, 0.00020493762866934608
1082.0, 0.0003190752131141874
1083.0, 0.0005099265345379858
1084.0, 0.0008240596625995433
1085.0, 0.0008628802696315442
1086.0, 0.0005337230182948423
1087.0, 0.0004886201829153057
1088.0, 0.0003687661444901025
1089.0, 0.00014598863426794621
1090.0, 0.00016396863425107762
1091.0, 0.0005446905341583365
1092.0, 0.0006791851587286308
1093.0, 0.0005930678371788993
1094.0, 0.0007006108172834261
1095.0, 0.0010588394810262674
1096.0, 0.0014137284184677437
1097.0, 0.0016347184161352416
1098.0, 0.0021825051476102083
1099.0, 0.002210228666910315
1100.0, 0.002037369808890505
1101.0, 0.00208017596224239
1102.0, 0.002594058337201093
1103.0, 0.002840851987157964
1104.0, 0.0029523619858183156
1105.0, 0.0033563079320252038
1106.0, 0.003549517857683411
1107.0, 0.0030663735690925663
1108.0, 0.0036224879790749285
1109.0, 0.004792457420075478
1110.0, 0.003984898611973555
1111.0, 0.004411590470268877
1112.0, 0.005011340840117992
1113.0, 0.005370029886830829
1114.0, 0.005830432575202556
1115.0, 0.0064659416391606725
1116.0, 0.006728657554638347
1117.0, 0.0063864068426415545
1118.0, 0.006244115144889404
1119.0, 0.006867384537222751
1120.0, 0.00676463262419659
1121.0, 0.006644907420774773
1122.0, 0.007374873118982365
1123.0, 0.007280260117605039
1124.0, 0.007945035319954689
1125.0, 0.0071673597580669155
1126.0, 0.00697768007012848
1127.0, 0.0074185244422538404
1128.0, 0.00759061280148114
1129.0, 0.008472239225787525
1130.0, 0.008290429011517572
1131.0, 0.006922667161735066
1132.0, 0.007443204104150458
1133.0, 0.007268662153557304
1134.0, 0.0068621682932991455
1135.0, 0.007461187086563096
1136.0, 0.0072795740744758695
1137.0, 0.0072859353102471824
1138.0, 0.00735342862964168
1139.0, 0.00720495436610497
1140.0, 0.007094187603503917
1141.0, 0.006748087458847338
1142.0, 0.007029507069933257
1143.0, 0.007178137355589595
1144.0, 0.0066246448811865125
1145.0, 0.007111647831767912
1146.0, 0.006450558714831565
1147.0, 0.0062363718060852455
1148.0, 0.0066506920747965185
1149.0, 0.0077205508916659
1150.0, 0.007632070870086213
1151.0, 0.0062557960704814584
1152.0, 0.006190619349004177
1153.0, 0.0072842390516009384
1154.0, 0.005783583387522195
1155.0, 0.006201416249536452
1156.0, 0.006596847500298485
1157.0, 0.005742427829166935
1158.0, 0.0061579522952628
1159.0, 0.006435770251917997
1160.0, 0.006140178870208591
1161.0, 0.006074839656257132
1162.0, 0.006102240170109723
1163.0, 0.005953256939597304
1164.0, 0.006053801392686001
1165.0, 0.006309908758664507
1166.0, 0.0063983399213255005
1167.0, 0.006088275077896334
1168.0, 0.0051778819340278295
1169.0, 0.005272615953863799
1170.0, 0.005248987050906544
1171.0, 0.00577111258778369
1172.0, 0.005841437372301234
1173.0, 0.006070372513701594
1174.0, 0.006273732564088816
1175.0, 0.005884515121137531
1176.0, 0.005503921421433051
1177.0, 0.005688620018878075
1178.0, 0.0054556703115013275
1179.0, 0.005532694901267446
1180.0, 0.005595940500171857
1181.0, 0.005458988552152454
1182.0, 0.005546168004045139
1183.0, 0.005816573251439378
1184.0, 0.005911360478674691
1185.0, 0.005998742823097621
1186.0, 0.005891049810230318
1187.0, 0.005722365112359447
1188.0, 0.005732797791856253
1189.0, 0.005692382166687357
1190.0, 0.005620242835747426
1191.0, 0.005452423675089593
1192.0, 0.00595202492867146
1193.0, 0.005790146635500785
1194.0, 0.00522370643131822
1195.0, 0.005728499240388765
1196.0, 0.005403342625508043
1197.0, 0.004889455345322588
1198.0, 0.0051119230840143475
1199.0, 0.005289597149865747
1200.0, 0.005591365675014233
1201.0, 0.00612096204326944
1202.0, 0.005323386541383646
1203.0, 0.004795236978451451
1204.0, 0.0036781215200888556
1205.0, 0.004746643352689269
1206.0, 0.005283452651749952
1207.0, 0.0059113752940347245
1208.0, 0.00450374943656672
1209.0, 0.004489855510555279
1210.0, 0.004681127854015333
1211.0, 0.00432127112163921
1212.0, 0.004303197737197784
1213.0, 0.004600449382645206
1214.0, 0.004712479798925503
1215.0, 0.005110686274004553
1216.0, 0.004844759327617903
1217.0, 0.00481799544923732
1218.0, 0.0048009218435708335
1219.0, 0.005239797272295294
1220.0, 0.005218506148599357
1221.0, 0.005178619436789898
1222.0, 0.004495782887228931
1223.0, 0.0045147281050170835
1224.0, 0.004938284442074513
1225.0, 0.004655995260253603
1226.0, 0.004374108303382235
1227.0, 0.00454063493752046
1228.0, 0.0041509920997740675
1229.0, 0.00450042927967542
1230.0, 0.0043529393703157955
1231.0, 0.004167116188633633
1232.0, 0.004434510093114481
1233.0, 0.004913420341988174
1234.0, 0.004296973133240124
1235.0, 0.004988819292868966
1236.0, 0.004966353299465074
1237.0, 0.00454653582774051
1238.0, 0.004476734651027734
1239.0, 0.004219406839129793
1240.0, 0.003759541608630003
1241.0, 0.0036852689195422967
1242.0, 0.0037207985435427746
1243.0, 0.00455598576351168
1244.0, 0.0035790240881971433
1245.0, 0.00434360957471908
1246.0, 0.0031605168013499807
1247.0, 0.0030330137723340563
1248.0, 0.0027308354819041442
1249.0, 0.002780289769905126
1250.0, 0.002358955311536782
1251.0, 0.0027513637782918955
1252.0, 0.0022580133379851903
1253.0, 0.001762780698832923
1254.0, 0.0024004909405473695
1255.0, 0.002260472050868105
1256.0, 0.0024446451056577907
1257.0, 0.0018524611636864625
1258.0, 0.0015352258752215793
1259.0, 0.0015543756108517802
1260.0, 0.0013336902211638273
1261.0, 0.0014268460954529971
1262.0, 0.001504834605862927
1263.0, 0.0006876057495797642
1264.0, 0.0004118541847747227
1265.0, 0.0003078648843707077
1266.0, 0.0007436107114363224
1267.0, 0.0010124982572565081
1268.0, 0.0005559024316928073
1269.0, 0.00042477280432956564
1270.0, 0.000641092923384766
1271.0, 0.0010320084400957938
1272.0, 0.0017337507119291496
1273.0, 0.0013998947096832595
1274.0, 0.0009467765972832642
1275.0, 0.0008691669784722766
1276.0, 0.00026337983818388086
1277.0, 0.00018269155189930064
1278.0, 0.00022322636844423807
1279.0, 0.0002629224239167898
1280.0, 0.00048172073090058776
1281.0, 0.000574961185636081
1282.0, 0.00048588608882771666
1283.0, 0.0005782969611224374
1284.0, 0.0006468272826410842
1285.0, 0.0003382095928540714
1286.0, 0.0004154728177449661
1287.0, 0.0002871766997433489
1288.0, 0.00011555641630642906
1289.0, 0.00024299348774103825
1290.0, 0.0008387284189726732
1291.0, 0.0006182913215033407
1292.0, 0.00019121083212506079
1293.0, 0.0003165791626057985
1294.0, 0.00021974763080397542
1295.0, 0.00040520899914103857
1296.0, 0.0010237883905398132
1297.0, 0.001248938873096934
1298.0, 0.000829925614709928
1299.0, 0.0003548398614142811
1300.0, 0.000156044867129586
1301.0, 0.0002418607653069189
1302.0, 0.00016577644901101017
1303.0, 0.00055340111311161
1304.0, 7.468945179429492e-05
1305.0, 0.0005542044266037025
1306.0, 0.0013672109639382914
1307.0, 0.0012088037034806715
1308.0, 0.0007090677385070653
1309.0, 0.00024286104065858577
1310.0, 0.0006689008476708213
1311.0, 0.0009454016706438043
1312.0, 0.0007545345126545655
1313.0, 0.0005808527304845823
1314.0, 0.0002934713694486936
1315.0, 0.00031226011718825234
1316.0, 0.00048215372737552643
1317.0, 0.0005997803907296225
1318.0, 0.00011806345424322108
1319.0, 0.0002881765040998836
1320.0, 0.0004407127019098319
1321.0, 0.00091055043447163
1322.0, 0.0006390902606357428
1323.0, 0.0008373291735368466
1324.0, 0.00045234405072245817
1325.0, 0.00021274205264578834
1326.0, 0.0007863047001957614
1327.0, 0.001102176637294445
1328.0, 0.0006933795826239551
1329.0, 0.00032020389413943857
1330.0, 0.000294287584077329
1331.0, 0.0004312773637436305
1332.0, 0.0008462709692504934
1333.0, 0.0015080144812071288
1334.0, 0.00040274873775234833
1335.0, 0.0008356293946284747
1336.0, 0.00014735168564498398
1337.0, 0.00023298442494287726
1338.0, 0.0003199616468888204
1339.0, 0.00016982402735737763
1340.0, 3.522092791438021e-05
1341.0, 0.00017430030171094576
1342.0, 0.0005253638732789257
1343.0, 0.0008865050990239796
1344.0, 0.0008274812383169256
1345.0, 0.0007929376744908739
1346.0, 0.0007909374189516717
1347.0, 0.00042024879314602365
1348.0, 0.0008731584210927047
1349.0, 0.000600337903923781
1350.0, 0.0003407559558130343
1351.0, 0.0002826758645869921
1352.0, 0.0002622936368768378
1353.0, 0.0008060505792889903
1354.0, 0.0003430516451910378
1355.0, 0.00011591449410228631
1356.0, 0.00071365029356826
1357.0, 0.0006504768127922911
1358.0, 0.0010449887417116731
1359.0, 0.0010331904029352438
1360.0, 0.001064235304041698
1361.0, 0.0012082467696537579
1362.0, 0.0009629690569934928
1363.0, 0.0007029725636717567
1364.0, 0.0007508225881639222
1365.0, 0.0008622506114019177
1366.0, 0.0010127889506697661
1367.0, 0.0014070025914015814
1368.0, 0.0011921131072874349
1369.0, 0.0008776529170395277
1370.0, 0.001532376249996628
1371.0, 0.0009660350160298589
1372.0, 0.00037646185810242616
1373.0, 0.0006223710641385658
1374.0, 0.0015686311459679279
1375.0, 0.0019421302771117195
1376.0, 0.00134447038146502
1377.0, 0.0015183677479620853
1378.0, 0.0013256750712391688
1379.0, 0.001290292300704389
1380.0, 0.0016670208006829743
1381.0, 0.0017058055950637243
1382.0, 0.0019928448917034968
1383.0, 0.0015211783576409596
1384.0, 0.0013201526492302132
1385.0, 0.0020909369995790773
1386.0, 0.002274145418025539
1387.0, 0.0010362694526707883
1388.0, 0.0030036260876319535
1389.0, 0.001841222200130495
1390.0, 0.002283124243223983
1391.0, 0.0020112557268771145
1392.0, 0.001751355470943866
1393.0, 0.002357951211630071
1394.0, 0.0025907782291412058
1395.0, 0.00277429832115428
1396.0, 0.0028515819015414007
1397.0, 0.002849614879569272
1398.0, 0.0028949228663850174
1399.0, 0.002816628105196539
1400.0, 0.002672316675090378
1401.0, 0.0024891255291081844
1402.0, 0.0021992151130356013
1403.0, 0.002339196805550756
1404.0, 0.001760855516720763
1405.0, 0.0025261974877868283
1406.0, 0.0024030138212549597
1407.0, 0.0030337728961806376
1408.0, 0.0018774974675519638
1409.0, 0.0028241101763600597
1410.0, 0.0023004884210453586
1411.0, 0.0019710766849427926
1412.0, 0.0023159296762833167
1413.0, 0.0019002659426467195
1414.0, 0.0024606209167285335
1415.0, 0.0021625977826694783
1416.0, 0.0016161293769736008
1417.0, 0.0021260863705095993
1418.0, 0.0026816847064209436
1419.0, 0.0024309440696693445
1420.0, 0.002589968944052223
1421.0, 0.0033895947561456133
1422.0, 0.0026307074317651054
1423.0, 0.002109106112852922
1424.0, 0.002852952039451447
1425.0, 0.0020789079122237636
1426.0, 0.0024709676557377693
1427.0, 0.0014784036559820685
1428.0, 0.0018950366544621376
1429.0, 0.0024095091314299323
1430.0, 0.0019649690099124754
1431.0, 0.0016420233731170438
1432.0, 0.002076610837664853
1433.0, 0.0022298549008214533
1434.0, 0.0015376108894157945
1435.0, 0.0013703722655102526
1436.0, 0.0016438598991243083
1437.0, 0.0015168813221698644
1438.0, 0.0013823747887386213
1439.0, 0.001420308125401936
1440.0, 0.0014895569320778322
1441.0, 0.0014892841886422275
1442.0, 0.0011958839323797344
1443.0, 0.0013606368592715367
1444.0, 0.0014348526520596883
1445.0, 0.002154541079985492
1446.0, 0.0018805311904995323
1447.0, 0.0012903273241476288
1448.0, 0.0023796641252003346
1449.0, 0.001901347709374512
1450.0, 0.0012503938845940914
1451.0, 0.0007318984076635474
1452.0, 0.0009151996203733346
1453.0, 0.0009100326783051917
1454.0, 0.001479162383600009
1455.0, 0.0014638419912454648
1456.0, 0.001526102768907701
1457.0, 0.0014092681628905853
1458.0, 0.001205215425713965
1459.0, 0.001429763054702302
1460.0, 0.0013667615134406344
1461.0, 0.0012069053729156108
1462.0, 0.0011913451530567818
1463.0, 0.0010409575294700068
1464.0, 0.0011223531037051588
1465.0, 0.0010876862810386043
1466.0, 0.0015333448692207634
1467.0, 0.0009605393955502121
1468.0, 0.0013175435545337891
1469.0, 0.0004897483588393661
1470.0, 0.001062648569083647
1471.0, 0.0006301090741850821
1472.0, 0.002196322363517492
1473.0, 0.0016233310570188285
1474.0, 0.0015241797039325202
1475.0, 0.0014232718423569408
1476.0, 0.0006638659797165096
1477.0, 0.0019646591471214952
1478.0, 0.0015965285063548264
1479.0, 0.0013709995060361387
1480.0, 0.00247011731867753
1481.0, 0.002014683797428808
1482.0, 0.0006692999974321019
1483.0, 0.0008123070710815822
1484.0, 0.0013258276671024448
1485.0, 0.0012120638149652318
1486.0, 0.0012081947503485369
1487.0, 0.0013426650222128531
1488.0, 0.0011697918301228523
1489.0, 0.0007172622210771041
1490.0, 0.0009965496999173832
1491.0, 0.0014913170498897033
1492.0, 0.0022789297427838443
1493.0, 0.002659650266472475
1494.0, 0.0017857951339124976
1495.0, 0.002440962350062046
1496.0, 0.002414953053622262
1497.0, 0.0012099273119294137
1498.0, 0.002450977517547909
1499.0, 0.0027772627915396246
1500.0, 0.001934341255390332
1501.0, 0.0020321667263474927
1502.0, 0.002451710464733636
1503.0, 0.0032431096817439817
1504.0, 0.0025947239189945035
1505.0, 0.0029181595401644002
1506.0, 0.003052964677570425
1507.0, 0.003208908782014
1508.0, 0.003346758514265352
1509.0, 0.003198061147814526
1510.0, 0.0028644118112759773
1511.0, 0.0026467562563168164
1512.0, 0.0026230804823870204
1513.0, 0.0026165307745821794
1514.0, 0.002816421850109627
1515.0, 0.002968156121483463
1516.0, 0.0027981265271804757
1517.0, 0.003315754514618823
1518.0, 0.003509321038955283
1519.0, 0.0026834496006931745
1520.0, 0.0031932184031554563
1521.0, 0.003295196568819708
1522.0, 0.002658974328773342
1523.0, 0.001457857898908426
1524.0, 0.002547138123022464
1525.0, 0.0018280123371982712
1526.0, 0.003952282062546875
1527.0, 0.0024035087230175403
1528.0, 0.0025218243587117606
1529.0, 0.0021277578408036017
1530.0, 0.0031495652100855553
1531.0, 0.0015976309570027926
1532.0, 0.0012007460913128994
1533.0, 0.0018133955015021625
1534.0, 0.0010021658712844584
1535.0, 0.0008998096412570052
1536.0, 0.0010515605777438805
1537.0, 0.0010054554924558623
1538.0, 0.0008298964974501108
1539.0, 0.001129176027547999
1540.0, 0.0013226271661680744
1541.0, 0.0017003440783120271
1542.0, 0.0022805332893931418
1543.0, 0.0012351418039217802
1544.0, 0.0008954084254280059
1545.0, 0.0017807274432733835
1546.0, 0.0005061698990237709
1547.0, 0.0014019550596254984
1548.0, 0.0017389256186273905
1549.0, 0.0010638238777060896
1550.0, 0.0010458947254751033
1551.0, 0.000907458531323595
1552.0, 0.000324670735560724
1553.0, 0.0014963230106938364
1554.0, 0.0025525580809267236
1555.0, 0.001839028842340849
1556.0, 0.002792623911851779
1557.0, 0.0021559136938159185
1558.0, 0.00086472229345656
1559.0, 0.0004921218753640681
1560.0, 0.0004874812215366784
1561.0, 0.0006379058921472424
1562.0, 0.0006756613618799545
1563.0, 0.00015014340209420468
1564.0, 0.0006536615065994349
1565.0, 0.00023845574173199358
1566, 0.0
1567, 0.0
1568, 0.0
1569, 0.0
1570, 0.0
1571, 0.0
1572, 0.0
1573, 0.0
1574, 0.0
1575, 0.0
1576, 0.0
1577, 0.0
1578, 0.0
1579, 0.0
1580, 0.0
1581, 0.0
1582, 0.0
1583, 0.0
1584, 0.0
1585, 0.0
1586, 0.0
1587, 0.0
1588, 0.0
1589, 0.0
1590, 0.0
1591, 0.0
1592, 0.0
1593, 0.0
1594, 0.0
1595, 0.0
1596, 0.0
1597, 0.0
1598, 0.0
1599, 0.0
