30, 0.0
31, 0.0
32, 0.0
33, 0.0
34, 0.0
35, 0.0
36, 0.0
37, 0.0
38, 0.0
39, 0.0
40, 0.0
41, 0.0
42, 0.0
43, 0.0
44, 0.0
45, 0.0
46, 0.0
47, 0.0
48, 0.0
49, 0.0
50, 0.0
51, 0.0
52, 0.0
53, 0.0
54, 0.0
55, 0.0
56, 0.0
57, 0.0
58, 0.0
59, 0.0
60, 0.0
61, 0.0
62, 0.0
63, 0.0
64, 0.0
65, 0.0
66, 0.0
67, 0.0
68, 0.0
69, 0.0
70, 0.0
71, 0.0
72, 0.0
73, 0.0
74, 0.0
75, 0.0
76, 0.0
77, 0.0
78, 0.0
79, 0.0
80, 0.0
81, 0.0
82, 0.0
83, 0.0
84, 0.0
85, 0.0
86, 0.0
87, 0.0
88, 0.0
89, 0.0
90, 0.0
91, 0.0
92, 0.0
93, 0.0
94, 0.0
95, 0.0
96, 0.0
97, 0.0
98, 0.0
99, 0.0
100, 0.0
101, 0.0
102, 0.0
103, 0.0
104, 0.0
105, 0.0
106, 0.0
107, 0.0
108, 0.0
109, 0.0
110, 0.0
111, 0.0
112, 0.0
113, 0.0
114, 0.0
115, 0.0
116, 0.0
117, 0.0
118, 0.0
119, 0.0
120, 0.0
121, 0.0
122, 0.0
123, 0.0
124, 0.0
125, 0.0
126, 0.0
127, 0.0
128, 0.0
129, 0.0
130, 0.0
131, 0.0
132, 0.0
133, 0.0
134, 0.0
135, 0.0
136, 0.0
137, 0.0
138, 0.0
139, 0.0
140, 0.0
141, 0.0
142, 0.0
143, 0.0
144, 0.0
145, 0.0
146, 0.0
147, 0.0
148, 0.0
149, 0.0
150, 0.0
151, 0.0
152, 0.0
153, 0.0
154, 0.0
155, 0.0
156, 0.0
157, 0.0
158, 0.0
159, 0.0
160, 0.0
161, 0.0
162, 0.0
163, 0.0
164, 0.0
165, 0.0
166, 0.0
167.0, 2.6068497868194596e-05
168.0, 0.00015631022269232272
169.0, 0.0009030796550771528
170.0, 0.0021315124774303465
171.0, 0.0035524076914335086
172.0, 0.0046730903355619285
173.0, 0.005944530064761193
174.0, 0.00749221608976258
175.0, 0.009171845930072201
176.0, 0.011091105921527096
177.0, 0.013799993078175386
178.0, 0.01661931671697575
179.0, 0.020121973214886235
180.0, 0.026167679612359
181.0, 0.032789658419000604
182.0, 0.03999564650495273
183.0, 0.04663848005588514
184.0, 0.05073315379770578
185.0, 0.049491269289282006
186.0, 0.042690659874652946
187.0, 0.03324003210706635
188.0, 0.02363124954073701
189.0, 0.01578823067410308
190.0, 0.010849825238243507
191.0, 0.007493929024733236
192.0, 0.005220146575910613
193.0, 0.004065294273498168
194.0, 0.0033690182362894595
195.0, 0.0026294915483325793
196.0, 0.001967951963757405
197.0, 0.0015678496339570427
198.0, 0.001310221240130168
199.0, 0.0009410785916181139
200.0, 0.0007970139686056799
201.0, 0.0007547683780958831
202.0, 0.0006111725178075912
203.0, 0.00048098064365969503
204.0, 0.0003480378422728298
205.0, 0.00014983803889818603
206.0, 3.410024751888252e-05
207.0, 0.00010950226807744828
208.0, 8.516381295357245e-05
209.0, 2.967751548201967e-05
210.0, 0.00011526139896355236
211.0, 0.00014266136579150926
212.0, 0.00014151580921183083
213.0, 3.030706981833615e-05
214.0, 0.00011039920556393999
215.0, 0.0002647262428380022
216.0, 0.0001177962523726793
217.0, 0.00023332245784821426
218.0, 0.00011563571157895543
219.0, 0.00015271013921203848
220.0, 0.0003545155392860345
221.0, 0.0002554596605175094
222.0, 0.00018018295066638993
223.0, 0.0001945812537927706
224.0, 0.00018854003063561043
225.0, 0.00011273562990442576
226.0, 0.00011449274478401395
227.0, 0.00010677903805594278
228.0, 3.843137865594478e-05
229.0, 8.588508025143378e-05
230.0, 0.00020146187239127318
231.0, 0.000214408114829506
232.0, 0.00036977417030185553
233.0, 0.0003956171025416903
234.0, 0.00028699373756845123
235.0, 0.00024785405640620283
236.0, 0.0004945137634547256
237.0, 0.0004515489803336046
238.0, 0.0005728867880092727
239.0, 0.0008822349350371924
240.0, 0.0008072148235578
241.0, 0.0007376229555168163
242.0, 0.0007970288184581572
243.0, 0.0009063711304766359
244.0, 0.0009919941298298794
245.0, 0.0011581135429891956
246.0, 0.0011715009905067136
247.0, 0.0012032835891491935
248.0, 0.0013475311459603964
249.0, 0.001511573489434696
250.0, 0.0014676679120546369
251.0, 0.0015135041646564483
252.0, 0.0017556950580346158
253.0, 0.002020767249554877
254.0, 0.002115244517302143
255.0, 0.002194392441630878
256.0, 0.0024030454625337196
257.0, 0.0024646080279598394
258.0, 0.002464902840207661
259.0, 0.002760399551505982
260.0, 0.0030618355233109156
261.0, 0.0033402184883303656
262.0, 0.0035799404810379206
263.0, 0.003838230475152041
264.0, 0.00426824634289775
265.0, 0.005000215012025272
266.0, 0.00569976537575311
267.0, 0.006446581730686945
268.0, 0.007452527711611889
269.0, 0.008786799808233785
270.0, 0.010495317029375227
271.0, 0.01225975778991308
272.0, 0.014369742583578444
273.0, 0.017318911736554882
274.0, 0.02086301243225273
275.0, 0.02422480663218093
276.0, 0.02748791189043706
277.0, 0.031131112494856644
278.0, 0.03528247088327299
279.0, 0.03888270944694261
280.0, 0.04247922038546456
281.0, 0.04610065649532886
282.0, 0.0499907559996958
283.0, 0.054689575134200516
284.0, 0.060657136919682005
285.0, 0.06758674701660257
286.0, 0.07396861273403178
287.0, 0.07937278199068866
288.0, 0.08474387316809041
289.0, 0.08748599916339546
290.0, 0.08727173217476739
291.0, 0.08370706780351363
292.0, 0.07676951631498684
293.0, 0.06718936581875135
294.0, 0.05617982641127158
295.0, 0.04575603650203045
296.0, 0.037407392428446234
297.0, 0.030819516119794083
298.0, 0.02491652512189565
299.0, 0.02080474554570294
300.0, 0.017580918621184587
301.0, 0.015033067908255066
302.0, 0.01298424408434946
303.0, 0.010999453903825632
304.0, 0.009131561040427743
305.0, 0.008098263412254595
306.0, 0.0073842901243523235
307.0, 0.0066546640329380605
308.0, 0.006273651768876559
309.0, 0.005756314950929577
310.0, 0.005315850020818788
311.0, 0.004780010322734837
312.0, 0.004160946884110416
313.0, 0.004082720564727721
314.0, 0.003581588622132881
315.0, 0.0032155496649765823
316.0, 0.003246914251161846
317.0, 0.0033341859754325762
318.0, 0.002879692985951907
319.0, 0.0026565796667405704
320.0, 0.002509055602008089
321.0, 0.0024021438179270566
322.0, 0.0023204998669373047
323.0, 0.002145945056123764
324.0, 0.0020003508266882297
325.0, 0.0017943708811985243
326.0, 0.0016099449458864658
327.0, 0.0014890522731884424
328.0, 0.0013383787404236901
329.0, 0.0014747493297273717
330.0, 0.001468328942680789
331.0, 0.0013518994875266613
332.0, 0.0012628126274331956
333.0, 0.0011088746873944505
334.0, 0.0010608537574178208
335.0, 0.0009547378524358996
336.0, 0.0009288054397755116
337.0, 0.0009443737758569862
338.0, 0.0007980730988872256
339.0, 0.0006719262913967168
340.0, 0.0006776753321647932
341.0, 0.0005977901713714604
342.0, 0.00044792094773208105
343.0, 0.00043292087942869945
344.0, 0.0006441707208025196
345.0, 0.000577480430514043
346.0, 0.0003070403164984364
347.0, 0.000106272508583943
348.0, 0.00013805765355729658
349.0, 0.0002568089484900051
350.0, 0.00029223448311866437
351.0, 0.00021658302425309864
352.0, 9.122748950945466e-05
353.0, 4.0152643681744974e-05
354.0, 0.00023041277499411122
355.0, 5.7173401184798716e-05
356.0, 0.00014360079015823988
357.0, 0.0003298809536798113
358.0, 0.0002246240015347094
359.0, 0.0001441162185270631
360.0, 8.845896641064297e-05
361.0, 1.0328690459711587e-05
362.0, 5.975773420641313e-05
363.0, 0.00019794561741208756
364.0, 3.961514650390122e-05
365.0, 9.100144813371826e-05
366.0, 0.00012274724115098642
367.0, 8.547864451230103e-05
368.0, 8.640486345246986e-05
369.0, 3.017712271659082e-05
370.0, 4.231913479087139e-05
371.0, 0.00011011121355201548
372.0, 0.00016141762577110563
373.0, 3.039052245595213e-05
374.0, 4.880494207587035e-06
375.0, 5.633832536161208e-05
376.0, 0.00010636303413748709
377.0, 7.674770127952791e-06
378.0, 8.174773750212354e-05
379.0, 1.2126402660690336e-05
380.0, 0.00010683487562734726
381.0, 3.8587022774159486e-05
382.0, 4.417400185795559e-05
383.0, 6.655614921385148e-05
384.0, 7.442310191201267e-05
385.0, 0.00011779732830820152
386.0, 9.255983339311398e-05
387.0, 0.00014965232359639562
388.0, 5.2909677526504556e-05
389.0, 6.599447928544768e-05
390.0, 0.00014188934965767632
391.0, 3.558633007861408e-06
392.0, 6.127233612285946e-05
393.0, 9.485864753895432e-05
394.0, 0.00013885030673545178
395.0, 0.0001433671110590741
396.0, 9.490823205012421e-05
397.0, 0.00011085842382341793
398.0, 8.255049420968152e-05
399.0, 3.074231706346748e-05
400.0, 3.4852023844548905e-05
401.0, 0.00019897139207830772
402.0, 0.00014761747697794752
403.0, 0.00013397294638681982
404.0, 0.000207677257385318
405.0, 0.00020964307254195275
406.0, 6.030002441870878e-05
407.0, 9.234226202187554e-05
408.0, 2.0528920583367868e-05
409.0, 0.0001092173263053954
410.0, 0.0001228035659567529
411.0, 0.00012054913021576313
412.0, 8.834240342179586e-05
413.0, 0.00025031717179526097
414.0, 0.0002295295921561624
415.0, 0.00011055946093221496
416.0, 2.8694093333605815e-05
417.0, 3.450368356378841e-06
418.0, 0.00018223902562234794
419.0, 5.2573837342835314e-05
420.0, 9.679707524289296e-05
421.0, 0.0002447065711520764
422.0, 0.00017679236997550468
423.0, 2.6350789054790897e-05
424.0, 2.3237104404777773e-05
425.0, 9.232034380891864e-05
426.0, 0.00015475281964780717
427.0, 0.0002193805986004272
428.0, 0.00024917412789200304
429.0, 0.00023894219892892717
430.0, 0.0002415091347630516
431.0, 0.0002459880677870314
432.0, 0.00019894075016672365
433.0, 0.00011402201844980092
434.0, 0.0001470335653364983
435.0, 0.00014375032951318177
436.0, 0.0002773331615181677
437.0, 0.00034038870710443236
438.0, 0.00025587253356298327
439.0, 0.00018470735847393266
440.0, 2.9022998805911186e-05
441.0, 0.00017130640101744056
442.0, 0.0001915492117492101
443.0, 7.700441118038618e-05
444.0, 0.00012383807456552625
445.0, 0.00028064126855072125
446.0, 0.00017518729770912289
447.0, 0.00015460327550051025
448.0, 0.0001182221307449819
449.0, 0.00010250479185814498
450.0, 0.00019023927559680916
451.0, 0.00014455477946933863
452.0, 0.00021470317653573553
453.0, 0.000204182301951393
454.0, 0.0001373474448350162
455.0, 0.00014282305626196577
456.0, 0.0002567614812930673
457.0, 0.00016617451245336956
458.0, 0.0001538664792771989
459.0, 0.00014734528660674835
460.0, 0.00011394436556551049
461.0, 8.729388915210172e-05
462.0, 6.408927668665994e-05
463.0, 0.0002814696689717727
464.0, 0.0003148561470401912
465.0, 0.00027341302365287536
466.0, 0.0002624966028118137
467.0, 0.0001861690496615102
468.0, 0.00011481661185766266
469.0, 0.00011817385555669634
470.0, 0.0001408683189127632
471.0, 0.0001903110885446494
472.0, 0.0002027448401864849
473.0, 2.5779870966265576e-05
474.0, 0.0001621458434750824
475.0, 9.021771741482725e-05
476.0, 8.780221001985417e-05
477.0, 0.00019335503806917697
478.0, 0.00019540292264146484
479.0, 4.3347502350375866e-05
480.0, 0.00016337408656548057
481.0, 0.00010653008551056357
482.0, 0.00016809635446399913
483.0, 0.0002129487109185447
484.0, 2.9642893578068444e-05
485.0, 0.0001466510188856241
486.0, 0.00023543897474009466
487.0, 0.0002579024234522051
488.0, 0.00031356388861366626
489.0, 0.0003422174816104525
490.0, 0.00028435478383100906
491.0, 0.000342927930796905
492.0, 0.00017794070117256166
493.0, 0.00026453894388940016
494.0, 0.0003322460561651905
495.0, 0.0002890484314276718
496.0, 0.00034063533059282367
497.0, 0.00011964578631951504
498.0, 0.0001527148205916577
499.0, 0.00022855034640127526
500.0, 0.00027756108969909115
501.0, 0.0002735101510407961
502.0, 0.00015004177576580916
503.0, 5.3201014800733475e-05
504.0, 2.5254866092574916e-05
505.0, 8.163181142459907e-05
506.0, 0.00016131671539494196
507.0, 0.00019734402877317358
508.0, 0.00018260435889812587
509.0, 0.00014627903945260655
510.0, 0.00029383248386757096
511.0, 0.00024717154274350863
512.0, 0.0002176094672660312
513.0, 0.0002995223757209839
514.0, 0.0001425048576794039
515.0, 0.00015098039959196284
516.0, 3.971612146090437e-05
517.0, 3.05480269532204e-05
518.0, 0.0001313442874225855
519.0, 0.0001981155741862028
520.0, 0.0001650576849638208
521.0, 8.510875421660036e-05
522.0, 0.00018896278316065797
523.0, 0.00022468599262598807
524.0, 0.0001866531985029631
525.0, 0.00013732361648437013
526.0, 7.559163805288974e-05
527.0, 9.55409874212471e-05
528.0, 6.19621369556882e-05
529.0, 5.594439659572969e-05
530.0, 0.00010246407803812314
531.0, 9.89318125821531e-05
532.0, 2.053587753526574e-05
533.0, 0.00015421342186811447
534.0, 0.00019410174659542238
535.0, 5.731459346320813e-05
536.0, 5.2409719905191225e-05
537.0, 0.00020849852876891802
538.0, 0.00024367863710105393
539.0, 6.154770076277597e-05
540.0, 6.22193687216089e-06
541.0, 9.016854034094803e-05
542.0, 0.00018017436941004827
543.0, 0.00016589126760308497
544.0, 4.71767530989712e-05
545.0, 9.204568665153479e-05
546.0, 3.820902817294467e-05
547.0, 0.00019632122729944048
548.0, 0.00010643849075778967
549.0, 3.9999972865623775e-05
550.0, 3.980556867088158e-05
551.0, 5.59825577069107e-05
552.0, 0.0001384458518624317
553.0, 0.00017849007755813782
554.0, 0.00013100921033769362
555.0, 0.00011293433781291905
556.0, 0.00016406111874006884
557.0, 0.00018672640469279687
558.0, 0.00015059890954597377
559.0, 0.00021214298699982274
560.0, 0.00010128238792221343
561.0, 3.083088987115371e-05
562.0, 0.00010161197613337541
563.0, 9.793819923727023e-05
564.0, 0.00013325990030063018
565.0, 0.00013202517289325836
566.0, 0.0002455534678636022
567.0, 0.00027836253185973316
568.0, 0.00020211971819865493
569.0, 0.00015240446265240881
570.0, 0.0001083328539574685
571.0, 0.00022171225710420261
572.0, 0.00016746180365161134
573.0, 0.00015890055845537216
574.0, 0.00024761498328402983
575.0, 0.00023459392649260812
576.0, 0.00018279593358200576
577.0, 0.00021561499007753684
578.0, 0.00015783846250381594
579.0, 8.36396872664876e-05
580.0, 0.00014496652938918552
581.0, 0.00027533958631969406
582.0, 0.00025406550584004275
583.0, 0.0001684200065985922
584.0, 8.761658191182814e-05
585.0, 9.830036196713737e-05
586.0, 8.196241865581333e-05
587.0, 6.709675435750473e-05
588.0, 0.00012812743799380007
589.0, 9.885444709644149e-05
590.0, 0.00017947198993263915
591.0, 0.0001286454134980554
592.0, 0.00011205462896159102
593.0, 0.00016894692612931856
594.0, 0.00018753297503492435
595.0, 7.52022586475585e-05
596.0, 6.50868725208836e-05
597.0, 1.6195715183424293e-05
598.0, 6.776294390336307e-05
599.0, 0.0002161170036675145
600.0, 0.00019333256013110125
601.0, 3.3881756236541267e-05
602.0, 3.42631362095409e-05
603.0, 0.0001358644437737083
604.0, 0.00014974865689796113
605.0, 6.314985663173247e-05
606.0, 0.00012058261001297386
607.0, 0.0002680347801281798
608.0, 0.00026047530071747526
609.0, 0.00027997665068409675
610.0, 0.00015158148433581548
611.0, 0.0002184163665298126
612.0, 8.873149850201658e-05
613.0, 7.56093809447652e-05
614.0, 0.00011508794223515644
615.0, 0.00011703861770884282
616.0, 0.0001326551156721344
617.0, 0.0001885831201664349
618.0, 0.00010260569286909024
619.0, 0.00011861626341012487
620.0, 0.00020165964634802873
621.0, 0.00015395196521922187
622.0, 8.710188617116162e-05
623.0, 9.401794854836173e-05
624.0, 8.623852778949558e-05
625.0, 0.00019066792080290397
626.0, 0.00022427532532368627
627.0, 0.00011310174194365426
628.0, 1.8617340481783746e-05
629.0, 2.886503739271702e-05
630.0, 2.0354191110929513e-05
631.0, 3.450889280872727e-05
632.0, 7.45847206583416e-05
633.0, 0.00011764003662511632
634.0, 4.5146826579196295e-05
635.0, 0.00015927980606859356
636.0, 0.00033079443316829385
637.0, 0.00021181651340559888
638.0, 5.106595169355872e-05
639.0, 4.2261456019969806e-05
640.0, 9.837134435036582e-05
641.0, 0.00011911534674965393
642.0, 0.0001760056272525771
643.0, 0.00014355397680401163
644.0, 6.333166320653784e-05
645.0, 7.94538145864513e-05
646.0, 0.00017989645794064897
647.0, 0.00019477948069359562
648.0, 0.000109258899394013
649.0, 0.00016225453684847038
650.0, 5.2055456290427394e-05
651.0, 0.00015056191370816388
652.0, 0.00018217097105138714
653.0, 0.00017793183023168273
654.0, 0.00013680627068008103
655.0, 5.512968588806146e-05
656.0, 5.881457689844594e-05
657.0, 0.0002097915648964672
658.0, 0.0002150870081911594
659.0, 0.00012471813888391336
660.0, 3.992062443695395e-05
661.0, 1.3590859531873724e-05
662.0, 1.858515734671723e-05
663.0, 5.872114888455422e-05
664.0, 0.00012392972729204213
665.0, 6.865265122033378e-05
666.0, 7.237589488551766e-05
667.0, 4.090912824377545e-05
668.0, 6.998982000253825e-05
669.0, 0.00019018360761972018
670.0, 0.0001344676511294796
671.0, 7.390334448551103e-05
672.0, 0.00012955714325934528
673.0, 6.7390797097312e-05
674.0, 9.119196163062012e-05
675.0, 0.00012243952628004356
676.0, 5.32987625517669e-05
677.0, 8.335252819888606e-06
678.0, 1.2784170233992357e-05
679.0, 2.1661638115483696e-05
680.0, 0.0001007902685600065
681.0, 0.0001075876716247424
682.0, 0.00012463741589426933
683.0, 0.00013570463883774518
684.0, 2.8311795667239408e-05
685.0, 1.4160545558813603e-05
686.0, 0.0002773218073710906
687.0, 0.0003768113108789313
688.0, 0.0005306344694772511
689.0, 0.00033950822356022955
690.0, 0.00013902129534049392
691.0, 0.00040735277418172295
692.0, 0.0005705739841823643
693.0, 0.0005484156031013964
694.0, 0.0005993182512663534
695.0, 0.0008027832323313038
696.0, 0.0008678539618588592
697.0, 0.0008486375785022176
698.0, 0.0010421987360570636
699.0, 0.0014320549789373076
700.0, 0.001566793525908983
701.0, 0.0016519229501119122
702.0, 0.0020356476439845556
703.0, 0.00240300877826244
704.0, 0.0030243014335841287
705.0, 0.004121727119863777
706.0, 0.005754149450941926
707.0, 0.008143941067837644
708.0, 0.010486612328336382
709.0, 0.01378347379041669
710.0, 0.01643858341978099
711.0, 0.019095142278100913
712.0, 0.022958479665046043
713.0, 0.028053922419980712
714.0, 0.03393516345945848
715.0, 0.04044946668372531
716.0, 0.05006345947520568
717.0, 0.06036008338032806
718.0, 0.07175944073586221
719.0, 0.0763914675753357
720.0, 0.06848675456878682
721.0, 0.05262391406331781
722.0, 0.036770693784860496
723.0, 0.02434367465256442
724.0, 0.016299877227288703
725.0, 0.011522721453946427
726.0, 0.008388931370137053
727.0, 0.00639292819007208
728.0, 0.004953549249195582
729.0, 0.0036046178129931633
730.0, 0.002900360472811295
731.0, 0.002217305427670169
732.0, 0.0017382969382820094
733.0, 0.0015335081196305605
734.0, 0.001342322262116955
735.0, 0.001039476633922467
736.0, 0.0008177107393670006
737.0, 0.0008454553507241629
738.0, 0.0008876298507803658
739.0, 0.0006203300115712627
740.0, 0.0005483747518987956
741.0, 0.0004944979098739696
742.0, 0.000378290728311748
743.0, 0.0002983319484262828
744.0, 0.0002968148000190528
745.0, 0.0002706074665689221
746.0, 0.0002433741684615465
747.0, 9.661895799134378e-05
748.0, 0.0001835158942369864
749.0, 0.0003970965318998091
750.0, 0.00036340261188851634
751.0, 0.0002515326213418106
752.0, 0.0002703082424891251
753.0, 0.00021210305420151404
754.0, 0.00013572577394999855
755.0, 2.0188530715690216e-05
756.0, 0.00013423130212590492
757.0, 0.0002613639593012918
758.0, 0.0001804835049538676
759.0, 7.492345819230985e-05
760.0, 9.838087578014701e-05
761.0, 9.754227916826256e-05
762.0, 6.039552730147394e-05
763.0, 3.604496512303386e-05
764.0, 4.921832058904473e-05
765.0, 6.167076200310547e-05
766.0, 1.7152909427520962e-05
767.0, 0.00015117404322526927
768.0, 0.00024519602472569354
769.0, 8.602614524333943e-05
770.0, 5.468213239412258e-05
771.0, 0.00017519452004136044
772.0, 0.00012133288112017317
773.0, 0.00010390557431476387
774.0, 0.00014275762558265507
775.0, 9.929740820700897e-05
776.0, 9.399017154257249e-05
777.0, 0.000245787759120331
778.0, 0.0002506477142483787
779.0, 0.0002511810116265391
780.0, 0.00020064032390727912
781.0, 0.00010753477537158976
782.0, 2.986396127022046e-05
783.0, 1.1516449276346496e-05
784.0, 4.94369208451727e-05
785.0, 9.32688089552498e-05
786.0, 8.351014908670987e-05
787.0, 0.00017525534997511863
788.0, 0.0002289105042232308
789.0, 0.00015310654661498631
790.0, 4.2281922710952604e-05
791.0, 4.254398867428767e-05
792.0, 5.576158970592176e-05
793.0, 5.33504840324488e-05
794.0, 0.00019656963664323613
795.0, 9.642583162230852e-05
796.0, 1.858197827324645e-05
797.0, 4.6894091504629396e-05
798.0, 0.00010988357236429584
799.0, 6.902839140194624e-05
800.0, 7.088183145241701e-05
801.0, 5.9020822673145746e-05
802.0, 8.836025798315138e-05
803.0, 0.0001063236207621828
804.0, 0.00023061975559695254
805.0, 9.012135987090594e-05
806.0, 0.00018073932707506223
807.0, 0.00016856217870602966
808.0, 7.58746567755012e-05
809.0, 5.686418796606041e-05
810.0, 7.442755980839495e-05
811.0, 4.925263123655573e-05
812.0, 1.559687294362095e-05
813.0, 6.0846689324806254e-05
814.0, 0.00018435410297656187
815.0, 9.844377971172084e-05
816.0, 0.0001020700160730827
817.0, 0.00017313209064856357
818.0, 0.00014573603922045692
819.0, 8.863969674000201e-05
820.0, 8.467011348495478e-05
821.0, 0.00014573707399829458
822.0, 0.00033501428849554425
823.0, 0.00026488444006374245
824.0, 2.0816598491614847e-05
825.0, 2.2700439785965887e-05
826.0, 2.3081853114590888e-05
827.0, 3.928029266529361e-05
828.0, 0.00011970336592444502
829.0, 0.00010053216026705982
830.0, 0.00018045062011284863
831.0, 0.00015111292920496204
832.0, 0.00016000036301364447
833.0, 0.00020404429536459125
834.0, 9.683077392820988e-05
835.0, 0.00010967376628068291
836.0, 0.00015203604029868315
837.0, 9.482645780714205e-05
838.0, 0.00018254462712185827
839.0, 0.00015376196482776345
840.0, 0.00017102627448499768
841.0, 0.0001876818955845085
842.0, 4.5715101794223724e-05
843.0, 4.2650520806832224e-05
844.0, 3.62328863266416e-05
845.0, 1.5760518429167574e-05
846.0, 5.958652283637434e-05
847.0, 9.179625421978892e-05
848.0, 0.00016468972569627738
849.0, 0.00031348647214657604
850.0, 0.00037242170260769756
851.0, 0.0002054745363145026
852.0, 0.00016907674412349496
853.0, 0.00015354784725101392
854.0, 0.00017920651539034223
855.0, 0.00027735772195869904
856.0, 0.0002912668119457827
857.0, 0.0002106490619866071
858.0, 9.974622572246043e-05
859.0, 0.0001980650396205799
860.0, 0.0002540583121877559
861.0, 0.00039049287200225647
862.0, 0.0006043122294916221
863.0, 0.0005278639783339761
864.0, 0.0003494432186947603
865.0, 0.0004275671771708625
866.0, 0.0005553918890807684
867.0, 0.0004553856743038924
868.0, 0.000481698525818074
869.0, 0.00033000175433330975
870.0, 0.00042883370287135535
871.0, 0.000260120911402949
872.0, 0.00021916220521957846
873.0, 0.0003652977075350417
874.0, 0.0003100600877131051
875.0, 0.00012828728233597468
876.0, 0.00022815268916823343
877.0, 0.0002833625099493889
878.0, 0.00022399007291486642
879.0, 0.0001860890471578285
880.0, 0.0001728997793208621
881.0, 0.00025198152582438346
882.0, 0.00022321700448398109
883.0, 0.00018897627261711003
884.0, 0.00032074915173628863
885.0, 0.0003685042721684095
886.0, 0.00027393620545576174
887.0, 0.00031211318208896146
888.0, 0.00017390952503798903
889.0, 0.00042186214615492937
890.0, 0.00041383409039602305
891.0, 0.0003626500620376598
892.0, 0.00032910163174601584
893.0, 0.00023139281461664494
894.0, 0.00023961799563604975
895.0, 0.000310873979934577
896.0, 0.00018218390393911845
897.0, 0.0004546145298980098
898.0, 0.00042822289106844334
899.0, 0.00027602541885343094
900.0, 0.0002210784660826732
901.0, 0.00026728787370060183
902.0, 0.0002184124380398941
903.0, 0.00010226223734721666
904.0, 0.0001392442034182077
905.0, 0.00021584944338748412
906.0, 0.0001393575188706768
907.0, 0.00040408585088810985
908.0, 0.00034033592091253713
909.0, 0.00023691490750977416
910.0, 0.00026461455179135597
911.0, 0.0002286214242902566
912.0, 0.00019038236695790225
913.0, 0.0003572913180325659
914.0, 0.00037498420084098563
915.0, 0.00022453926692376518
916.0, 0.0002875154293263698
917.0, 0.0002127012447233487
918.0, 0.00029233316952419864
919.0, 0.00029351232485685166
920.0, 0.0004500354987783607
921.0, 0.00034625859273419805
922.0, 0.00033594262536188087
923.0, 0.00033811656522268513
924.0, 0.0004526670531771222
925.0, 0.0005874579772003139
926.0, 0.0005647468761315843
927.0, 0.0005608701827820639
928.0, 0.0005417379430179135
929.0, 0.0004929299589342852
930.0, 0.0005041248586076048
931.0, 0.0004222563633185608
932.0, 0.0005739490910135673
933.0, 0.0005601737716265422
934.0, 0.0005506985343113777
935.0, 0.0005985829159533688
936.0, 0.0005591272066745187
937.0, 0.0005041396945784317
938.0, 0.0004691980737308065
939.0, 0.0005009444269450702
940.0, 0.0006484319131334659
941.0, 0.0006297440245347705
942.0, 0.0004503963973685037
943.0, 0.00042045573552916516
944.0, 0.0004727067766798182
945.0, 0.0004510578706209741
946.0, 0.00041911009751269734
947.0, 0.0004389604633556479
948.0, 0.0004230585476035419
949.0, 0.00034351644872674736
950.0, 0.00037973311060594453
951.0, 0.0005718800184182867
952.0, 0.0004836274010147844
953.0, 0.00024061631955430554
954.0, 0.000170821191119332
955.0, 0.00023314735668824254
956.0, 0.00034738543866714056
957.0, 0.0003351853469677839
958.0, 0.00022269498960162428
959.0, 0.0001270308883141476
960.0, 8.562895523264136e-05
961.0, 0.00015767165491225316
962.0, 0.0001619848222912803
963.0, 0.00023725523965283354
964.0, 4.0565921398188205e-05
965.0, 8.026518118621224e-05
966.0, 2.6784251204738956e-05
967.0, 2.576865047101279e-05
968.0, 3.1418507505177846e-05
969.0, 5.0272694127776656e-05
970.0, 7.07271341440125e-05
971.0, 3.996086905678297e-05
972.0, 0.00011980261153949796
973.0, 0.0001289176526023429
974.0, 2.3731306178436544e-05
975.0, 3.204535214910147e-05
976.0, 0.0001747298810939213
977.0, 7.71861830623978e-05
978.0, 7.723663725043148e-05
979.0, 2.6256052069309707e-05
980.0, 6.495062606495821e-05
981.0, 6.207258645037022e-05
982.0, 3.0756497831752345e-05
983.0, 0.00015864360686648678
984.0, 0.00023780855093655313
985.0, 0.00017578001419089385
986.0, 5.4656286382496845e-05
987.0, 0.00018680639408352406
988.0, 0.0001436062554884558
989.0, 0.0001026239959027261
990.0, 0.0001249073027702856
991.0, 4.921348000106474e-05
992.0, 6.247854732375502e-05
993.0, 7.105854139282212e-05
994.0, 5.549423394508821e-05
995.0, 1.593881459401475e-05
996.0, 0.00016863564227706998
997.0, 0.00027086921595631183
998.0, 0.00019451281523038448
999.0, 0.0003370358756056683
1000.0, 0.0006211220101402959
1001.0, 0.0007375605901049911
1002.0, 0.0008319954381668649
1003.0, 0.0009937034053594694
1004.0, 0.0012007211007111327
1005.0, 0.0012787675258187086
1006.0, 0.0011767972882478599
1007.0, 0.001270008342052256
1008.0, 0.0014505541763589187
1009.0, 0.0013968983059626735
1010.0, 0.0014513952536419925
1011.0, 0.001647046692483968
1012.0, 0.001808908456630792
1013.0, 0.0020742270380194774
1014.0, 0.002194528789971037
1015.0, 0.0021724796670977114
1016.0, 0.0021380787732286763
1017.0, 0.0021011512258793134
1018.0, 0.002101829924838878
1019.0, 0.0022434177427744085
1020.0, 0.0023042086208989493
1021.0, 0.0023807691893554103
1022.0, 0.00257802109689146
1023.0, 0.002661557170997002
1024.0, 0.0026925529570138293
1025.0, 0.00248322403091363
1026.0, 0.002762862422758954
1027.0, 0.002457380669832775
1028.0, 0.0023530368833186046
1029.0, 0.002380983326776433
1030.0, 0.0027418319064986987
1031.0, 0.0024313299588825128
1032.0, 0.0025301523727981326
1033.0, 0.0026337175811811404
1034.0, 0.0023447916362765247
1035.0, 0.002374965377790356
1036.0, 0.0026012529496125306
1037.0, 0.0025295096029375732
1038.0, 0.0023538004610570784
1039.0, 0.002504398537465945
1040.0, 0.002964001505649761
1041.0, 0.0030076535269142834
1042.0, 0.003076746030639571
1043.0, 0.00345242155265421
1044.0, 0.003924009106438155
1045.0, 0.004167538569807264
1046.0, 0.004499213398877367
1047.0, 0.00455367887168904
1048.0, 0.0046989742222651116
1049.0, 0.005068496738382237
1050.0, 0.005457955263251256
1051.0, 0.005975266755822364
1052.0, 0.005853473138648347
1053.0, 0.006659169496560542
1054.0, 0.006849415568967076
1055.0, 0.007241697051118571
1056.0, 0.008343261010233817
1057.0, 0.009243161098290126
1058.0, 0.00946473969793386
1059.0, 0.010414691748134738
1060.0, 0.01132988633727121
1061.0, 0.012413005429474657
1062.0, 0.013904394323369365
1063.0, 0.01568683846873914
1064.0, 0.017444205683846022
1065.0, 0.01862676564466335
1066.0, 0.01915577636680728
1067.0, 0.019252989089933104
1068.0, 0.01962890327741315
1069.0, 0.02109606025047221
1070.0, 0.023212023668532998
1071.0, 0.02624370852280059
1072.0, 0.03078175122059545
1073.0, 0.03737647364449823
1074.0, 0.04664974578842541
1075.0, 0.060957456440263756
1076.0, 0.08325697326235222
1077.0, 0.11472128274014587
1078.0, 0.15358965626324506
1079.0, 0.20009494796928767
1080.0, 0.25357264929422496
1081.0, 0.32692596281281033
1082.0, 0.4389075085157607
1083.0, 0.5859560711608632
1084.0, 0.7730182814488228
1085.0, 0.9447221070845284
1086.0, 0.9905418383956333
1087.0, 0.8584110838672169
1088.0, 0.633370143205606
1089.0, 0.4368326587718498
1090.0, 0.29900807444919814
1091.0, 0.20497581677589083
1092.0, 0.13899538806920766
1093.0, 0.0951937556678665
1094.0, 0.06719459588027371
1095.0, 0.04903078460968399
1096.0, 0.03667380167156053
1097.0, 0.027720785575417375
1098.0, 0.021457104566604875
1099.0, 0.017043941397536053
1100.0, 0.013509179023048238
1101.0, 0.011164277160460263
1102.0, 0.009493114723960182
1103.0, 0.008002593635852723
1104.0, 0.006600691540263697
1105.0, 0.005393740251113153
1106.0, 0.004739257153848119
1107.0, 0.003843826331619978
1108.0, 0.0035122765086561896
1109.0, 0.0030223700606040425
1110.0, 0.0025663161842954174
1111.0, 0.0023350254908634798
1112.0, 0.00202337674317439
1113.0, 0.0017887815214248487
1114.0, 0.001727082770726522
1115.0, 0.0015415652274246364
1116.0, 0.0011641296286913781
1117.0, 0.0008688365568677988
1118.0, 0.0011167778721170127
1119.0, 0.0010525491464187697
1120.0, 0.0009187297797323882
1121.0, 0.0005730642233747897
1122.0, 0.0004389732339132988
1123.0, 0.0005828549189035704
1124.0, 0.00031032317348441763
1125.0, 0.0003609468047956313
1126.0, 0.00030942286363753893
1127.0, 0.00017934457560885223
1128.0, 0.0003203824278976207
1129.0, 0.0002849055055731385
1130.0, 9.976727441526221e-05
1131.0, 0.00015114138214432322
1132.0, 8.257637052494397e-05
1133.0, 0.00016575497613051035
1134.0, 9.740575549465916e-05
1135.0, 0.0001191960148225517
1136.0, 0.0001230971591231725
1137.0, 0.00019419915023275705
1138.0, 2.8978205429304026e-05
1139.0, 4.328055100955001e-05
1140.0, 0.00023361546244722047
1141.0, 3.351125956035212e-05
1142.0, 8.381629361483965e-05
1143.0, 0.0002677454016420501
1144.0, 0.00021463488701788574
1145.0, 0.0001026982116385544
1146.0, 3.576596778652358e-07
1147.0, 8.121743831216898e-05
1148.0, 3.054367863422487e-05
1149.0, 2.019968730905349e-05
1150.0, 6.400181403310506e-05
1151.0, 9.089047140415851e-05
1152.0, 3.4249533394787415e-05
1153.0, 5.999587873149614e-05
1154.0, 4.5446037292828905e-05
1155.0, 8.17482509335539e-05
1156.0, 0.0001446847753806058
1157.0, 0.0002220228741112919
1158.0, 0.0001815173030145016
1159.0, 7.285686065160136e-05
1160.0, 6.192352145907875e-05
1161.0, 0.00010279329567622053
1162.0, 4.4981544456172145e-05
1163.0, 4.265963338720398e-05
1164.0, 9.601797020866575e-05
1165.0, 0.00012629545554235938
1166.0, 7.874176474526612e-05
1167.0, 0.00018926771918591087
1168.0, 0.00013972535011400308
1169.0, 0.0002527703794579548
1170.0, 0.00015547841267294282
1171.0, 0.00027259482085500666
1172.0, 0.00026938252695952824
1173.0, 0.0001457403277814491
1174.0, 0.00012665190860148298
1175.0, 9.383723707307561e-05
1176.0, 0.0001329289788160481
1177.0, 0.0003270291271368413
1178.0, 0.0003769843124080337
1179.0, 0.00022307790117342543
1180.0, 0.00021761415458117456
1181.0, 0.0002629063043586453
1182.0, 0.00033562414702232663
1183.0, 0.00037247681311841483
1184.0, 0.00046683687393844205
1185.0, 0.00036082402871478645
1186.0, 0.00029093092599387095
1187.0, 0.0004209429766323898
1188.0, 0.0004905302688985797
1189.0, 0.0006624755516097087
1190.0, 0.0005978874761426916
1191.0, 0.0008553709940722687
1192.0, 0.0006381358845505036
1193.0, 0.0005587244242708762
1194.0, 0.0006049779014955506
1195.0, 0.00048386720880938143
1196.0, 0.0005585812311140602
1197.0, 0.0005288281660780293
1198.0, 0.00047858948250827034
1199.0, 0.0005711219244207856
1200.0, 0.0004641669368544643
1201.0, 0.00033935800370609213
1202.0, 0.0004618873541855309
1203.0, 0.0006243257547602082
1204.0, 0.0005427552621296577
1205.0, 0.00040044031074597567
1206.0, 0.00036230816538437426
1207.0, 0.00046941156682216866
1208.0, 0.00033913468652873446
1209.0, 0.00035086432558757523
1210.0, 0.00030518635135975676
1211.0, 0.0005091635562486031
1212.0, 0.0004928510771391592
1213.0, 0.00016511768587827616
1214.0, 0.0004040207683098227
1215.0, 0.00019751649306470575
1216.0, 0.0002854765090188895
1217.0, 0.00042566715846237946
1218.0, 0.0003708437152780538
1219.0, 0.00015299264119914577
1220.0, 0.00010586364150529536
1221.0, 0.0001056532162408425
1222.0, 0.0002813327488229633
1223.0, 0.0003666230386401343
1224.0, 0.00022037623675742645
1225.0, 2.774085296316331e-05
1226.0, 0.00014404781934108227
1227.0, 0.00012449168838034338
1228.0, 4.9751640443032305e-05
1229.0, 5.698944149712066e-05
1230.0, 2.4909403633389995e-05
1231.0, 0.00021531633073470317
1232.0, 0.0003525826472392037
1233.0, 0.0003145182047180023
1234.0, 0.00024021642083114775
1235.0, 0.0003079944946988898
1236.0, 0.00021819408237935288
1237.0, 0.00015376124630112628
1238.0, 5.595661022297041e-06
1239.0, 8.126095809603497e-05
1240.0, 0.00013364771320659367
1241.0, 0.00019052637680981788
1242.0, 0.00015631130980535147
1243, 0.0
1244, 0.0
1245, 0.0
1246, 0.0
1247, 0.0
1248, 0.0
1249, 0.0
1250, 0.0
1251, 0.0
1252, 0.0
1253, 0.0
1254, 0.0
1255, 0.0
1256, 0.0
1257, 0.0
1258, 0.0
1259, 0.0
1260, 0.0
1261, 0.0
1262, 0.0
1263, 0.0
1264, 0.0
1265, 0.0
1266, 0.0
1267, 0.0
1268, 0.0
1269, 0.0
1270, 0.0
1271, 0.0
1272, 0.0
1273, 0.0
1274, 0.0
1275, 0.0
1276, 0.0
1277, 0.0
1278, 0.0
1279, 0.0
1280, 0.0
1281, 0.0
1282, 0.0
1283, 0.0
1284, 0.0
1285, 0.0
1286, 0.0
1287, 0.0
1288, 0.0
1289, 0.0
1290, 0.0
1291, 0.0
1292, 0.0
1293, 0.0
1294, 0.0
1295, 0.0
1296, 0.0
1297, 0.0
1298, 0.0
1299, 0.0
1300, 0.0
1301, 0.0
1302, 0.0
1303, 0.0
1304, 0.0
1305, 0.0
1306, 0.0
1307, 0.0
1308, 0.0
1309, 0.0
1310, 0.0
1311, 0.0
1312, 0.0
1313, 0.0
1314, 0.0
1315, 0.0
1316, 0.0
1317, 0.0
1318, 0.0
1319, 0.0
1320, 0.0
1321, 0.0
1322, 0.0
1323, 0.0
1324, 0.0
1325, 0.0
1326, 0.0
1327, 0.0
1328, 0.0
1329, 0.0
1330, 0.0
1331, 0.0
1332, 0.0
1333, 0.0
1334, 0.0
1335, 0.0
1336, 0.0
1337, 0.0
1338, 0.0
1339, 0.0
1340, 0.0
1341, 0.0
1342, 0.0
1343, 0.0
1344, 0.0
1345, 0.0
1346, 0.0
1347, 0.0
1348, 0.0
1349, 0.0
1350, 0.0
1351, 0.0
1352, 0.0
1353, 0.0
1354, 0.0
1355, 0.0
1356, 0.0
1357, 0.0
1358, 0.0
1359, 0.0
1360, 0.0
1361, 0.0
1362, 0.0
1363, 0.0
1364, 0.0
1365, 0.0
1366, 0.0
1367, 0.0
1368, 0.0
1369, 0.0
1370, 0.0
1371, 0.0
1372, 0.0
1373, 0.0
1374, 0.0
1375, 0.0
1376, 0.0
1377, 0.0
1378, 0.0
1379, 0.0
1380, 0.0
1381, 0.0
1382, 0.0
1383, 0.0
1384, 0.0
1385, 0.0
1386, 0.0
1387, 0.0
1388, 0.0
1389, 0.0
1390, 0.0
1391, 0.0
1392, 0.0
1393, 0.0
1394, 0.0
1395, 0.0
1396, 0.0
1397, 0.0
1398, 0.0
1399, 0.0
1400, 0.0
1401, 0.0
1402, 0.0
1403, 0.0
1404, 0.0
1405, 0.0
1406, 0.0
1407, 0.0
1408, 0.0
1409, 0.0
1410, 0.0
1411, 0.0
1412, 0.0
1413, 0.0
1414, 0.0
1415, 0.0
1416, 0.0
1417, 0.0
1418, 0.0
1419, 0.0
1420, 0.0
1421, 0.0
1422, 0.0
1423, 0.0
1424, 0.0
1425, 0.0
1426, 0.0
1427, 0.0
1428, 0.0
1429, 0.0
1430, 0.0
1431, 0.0
1432, 0.0
1433, 0.0
1434, 0.0
1435, 0.0
1436, 0.0
1437, 0.0
1438, 0.0
1439, 0.0
1440, 0.0
1441, 0.0
1442, 0.0
1443, 0.0
1444, 0.0
1445, 0.0
1446, 0.0
1447, 0.0
1448, 0.0
1449, 0.0
1450, 0.0
1451, 0.0
1452, 0.0
1453, 0.0
1454, 0.0
1455, 0.0
1456, 0.0
1457, 0.0
1458, 0.0
1459, 0.0
1460, 0.0
1461, 0.0
1462, 0.0
1463, 0.0
1464, 0.0
1465, 0.0
1466, 0.0
1467, 0.0
1468, 0.0
1469, 0.0
1470, 0.0
1471, 0.0
1472, 0.0
1473, 0.0
1474, 0.0
1475, 0.0
1476, 0.0
1477, 0.0
1478, 0.0
1479, 0.0
1480, 0.0
1481, 0.0
1482, 0.0
1483, 0.0
1484, 0.0
1485, 0.0
1486, 0.0
1487, 0.0
1488, 0.0
1489, 0.0
1490, 0.0
1491, 0.0
1492, 0.0
1493, 0.0
1494, 0.0
1495, 0.0
1496, 0.0
1497, 0.0
1498, 0.0
1499, 0.0
1500, 0.0
1501, 0.0
1502, 0.0
1503, 0.0
1504, 0.0
1505, 0.0
1506, 0.0
1507, 0.0
1508, 0.0
1509, 0.0
1510, 0.0
1511, 0.0
1512, 0.0
1513, 0.0
1514, 0.0
1515, 0.0
1516, 0.0
1517, 0.0
1518, 0.0
1519, 0.0
1520, 0.0
1521, 0.0
1522, 0.0
1523, 0.0
1524, 0.0
1525, 0.0
1526, 0.0
1527, 0.0
1528, 0.0
1529, 0.0
1530, 0.0
1531, 0.0
1532, 0.0
1533, 0.0
1534, 0.0
1535, 0.0
1536, 0.0
1537, 0.0
1538, 0.0
1539, 0.0
1540, 0.0
1541, 0.0
1542, 0.0
1543, 0.0
1544, 0.0
1545, 0.0
1546, 0.0
1547, 0.0
1548, 0.0
1549, 0.0
1550, 0.0
1551, 0.0
1552, 0.0
1553, 0.0
1554, 0.0
1555, 0.0
1556, 0.0
1557, 0.0
1558, 0.0
1559, 0.0
1560, 0.0
1561, 0.0
1562, 0.0
1563, 0.0
1564, 0.0
1565, 0.0
1566, 0.0
1567, 0.0
1568, 0.0
1569, 0.0
1570, 0.0
1571, 0.0
1572, 0.0
1573, 0.0
1574, 0.0
1575, 0.0
1576, 0.0
1577, 0.0
1578, 0.0
1579, 0.0
1580, 0.0
1581, 0.0
1582, 0.0
1583, 0.0
1584, 0.0
1585, 0.0
1586, 0.0
1587, 0.0
1588, 0.0
1589, 0.0
1590, 0.0
1591, 0.0
1592, 0.0
1593, 0.0
1594, 0.0
1595, 0.0
1596, 0.0
1597, 0.0
1598, 0.0
1599, 0.0
