30, 0.0
31, 0.0
32, 0.0
33, 0.0
34, 0.0
35, 0.0
36, 0.0
37, 0.0
38, 0.0
39, 0.0
40, 0.0
41, 0.0
42, 0.0
43, 0.0
44, 0.0
45, 0.0
46, 0.0
47, 0.0
48, 0.0
49, 0.0
50, 0.0
51, 0.0
52, 0.0
53, 0.0
54, 0.0
55, 0.0
56, 0.0
57, 0.0
58, 0.0
59, 0.0
60, 0.0
61, 0.0
62, 0.0
63, 0.0
64, 0.0
65, 0.0
66, 0.0
67, 0.0
68, 0.0
69, 0.0
70, 0.0
71, 0.0
72, 0.0
73, 0.0
74, 0.0
75, 0.0
76, 0.0
77, 0.0
78, 0.0
79, 0.0
80, 0.0
81, 0.0
82, 0.0
83, 0.0
84, 0.0
85, 0.0
86, 0.0
87, 0.0
88, 0.0
89, 0.0
90, 0.0
91, 0.0
92, 0.0
93, 0.0
94, 0.0
95, 0.0
96, 0.0
97, 0.0
98, 0.0
99, 0.0
100, 0.0
101, 0.0
102, 0.0
103, 0.0
104, 0.0
105, 0.0
106, 0.0
107, 0.0
108, 0.0
109, 0.0
110, 0.0
111, 0.0
112, 0.0
113, 0.0
114.0, 0.00023286591897509826
115.0, 0.0015528862856871541
116.0, 0.004480023138229079
117.0, 0.006522955391743227
118.0, 0.0064073030989750205
119.0, 0.009071282610047332
120.0, 0.01360746449071755
121.0, 0.01733364705865155
122.0, 0.017026879966782916
123.0, 0.020733756836279774
124.0, 0.023526959671222022
125.0, 0.024389337443897513
126.0, 0.024800190164164272
127.0, 0.027316181696191846
128.0, 0.02868774996343549
129.0, 0.031531236850713594
130.0, 0.03606061897032048
131.0, 0.03675261387273844
132.0, 0.03810746611599636
133.0, 0.039398392618554885
134.0, 0.040450385958775606
135.0, 0.04265331802870765
136.0, 0.04476017234935342
137.0, 0.04650847670951659
138.0, 0.04758756720764814
139.0, 0.047897775681155136
140.0, 0.04937877904610861
141.0, 0.05030324626491016
142.0, 0.04958219226472294
143.0, 0.048800462075310795
144.0, 0.04863928555745548
145.0, 0.04958536002149583
146.0, 0.049308123818528365
147.0, 0.047670841109393375
148.0, 0.046634016785157585
149.0, 0.04256319889077719
150.0, 0.03846299278020961
151.0, 0.03583881498814474
152.0, 0.034123242702563145
153.0, 0.02968249493658055
154.0, 0.025563990374833444
155.0, 0.02334549394420059
156.0, 0.021647290939426064
157.0, 0.01671132019478265
158.0, 0.010599787064681464
159.0, 0.007289911297263929
160.0, 0.006880396621568262
161.0, 0.005371934110818994
162.0, 0.0026629742385841527
163.0, 0.0002218652876476715
164.0, 0.001232049851292038
165.0, 0.00022709051278163903
166.0, 0.0015194800511095432
167.0, 0.002916020427250378
168.0, 0.0025623047892876206
169.0, 0.0012438019898710362
170.0, 0.000891978060833932
171.0, 0.0008102755819421791
172.0, 0.00031545879936825796
173.0, 0.0015151026488086131
174.0, 0.0011998760667996837
175.0, 0.0005463430165082873
176.0, 0.001902305014860357
177.0, 0.0025399854802550708
178.0, 0.003469670809659262
179.0, 0.005256608074274409
180.0, 0.004362015285869201
181.0, 0.0023623778548547683
182.0, 0.0010183102642776383
183.0, 0.003624650717645556
184.0, 0.0064949328413935305
185.0, 0.010468000420165331
186.0, 0.016828450618749498
187.0, 0.020850751459216853
188.0, 0.029414855706151644
189.0, 0.03752746915899587
190.0, 0.044755154996741556
191.0, 0.055231179606932246
192.0, 0.0661823304534668
193.0, 0.07675752912942309
194.0, 0.08590077004304718
195.0, 0.09213821228683663
196.0, 0.09387082974591797
197.0, 0.09776687542715334
198.0, 0.10315029105351047
199.0, 0.10750804742296056
200.0, 0.11058481412410921
201.0, 0.12044019237237233
202.0, 0.13265654649838637
203.0, 0.14622381604902998
204.0, 0.16296432331996566
205.0, 0.18548465734183828
206.0, 0.21319179244070058
207.0, 0.24494890494350335
208.0, 0.28061469651073884
209.0, 0.3215925335077461
210.0, 0.3672148399017475
211.0, 0.41899824576477873
212.0, 0.47078198036061525
213.0, 0.5144706507033849
214.0, 0.5493255430397622
215.0, 0.5734910431652932
216.0, 0.581664861956238
217.0, 0.5737436085429791
218.0, 0.5512931108705328
219.0, 0.5173862082915754
220.0, 0.4775271793668528
221.0, 0.43898598112428733
222.0, 0.40612841459735094
223.0, 0.3727117643006892
224.0, 0.3450693131882588
225.0, 0.32644268700289275
226.0, 0.3167961744002527
227.0, 0.3135066354952055
228.0, 0.3121494120033036
229.0, 0.31511311838444195
230.0, 0.3217612506656549
231.0, 0.3289468708863317
232.0, 0.33429423517831874
233.0, 0.3411980890300012
234.0, 0.3507380673944767
235.0, 0.3623623314483696
236.0, 0.37455848212498827
237.0, 0.38578447324261805
238.0, 0.4020631518833557
239.0, 0.42139411459139453
240.0, 0.4371804105524992
241.0, 0.4472641851018124
242.0, 0.4542863968833226
243.0, 0.45721023520025944
244.0, 0.45522412059453954
245.0, 0.44759199582293285
246.0, 0.43121335153638024
247.0, 0.4103273620419061
248.0, 0.38544276404297406
249.0, 0.35693038536388183
250.0, 0.33051431919965235
251.0, 0.3019692154570597
252.0, 0.27294849189386766
253.0, 0.24551684769267387
254.0, 0.22006773709504257
255.0, 0.19909114406588235
256.0, 0.1788643324043358
257.0, 0.1611966712920557
258.0, 0.14852592507598264
259.0, 0.1414296619035816
260.0, 0.13259465691101133
261.0, 0.1252131982108915
262.0, 0.12119710295721522
263.0, 0.11971155733847429
264.0, 0.11757140110010936
265.0, 0.11670565343405298
266.0, 0.11594382413849744
267.0, 0.11506150892069601
268.0, 0.11602737025797769
269.0, 0.11856829690597838
270.0, 0.12091677207546254
271.0, 0.1220607071007676
272.0, 0.12152910371495916
273.0, 0.11979452690029214
274.0, 0.11499851497676852
275.0, 0.11005930360437417
276.0, 0.10477522318024753
277.0, 0.09637224240320386
278.0, 0.08874482687884683
279.0, 0.0809121078135591
280.0, 0.07435711258896183
281.0, 0.06873791901743033
282.0, 0.0611912614419438
283.0, 0.05092566063230791
284.0, 0.04272280922388014
285.0, 0.03690675899489968
286.0, 0.03194609830102698
287.0, 0.026579552400669382
288.0, 0.020287208091252975
289.0, 0.012079884253968269
290.0, 0.0046618750557064865
291.0, 0.001193594911220232
292.0, 0.0005782042428721716
293.0, 0.003968484075337197
294.0, 0.006281080682773263
295.0, 0.006637122815568573
296.0, 0.008797144186548922
297.0, 0.0052071737509189015
298.0, 0.004950754439406715
299.0, 0.005261697005392189
300.0, 0.0023966210472536726
301.0, 0.003390948140120883
302.0, 0.0033789199124523535
303.0, 0.002228097323565843
304.0, 0.0014739580417909794
305.0, 0.0013509944453105633
306.0, 0.0007789426658861493
307.0, 0.0034330135589245134
308.0, 0.007013389869291436
309.0, 0.012374660123380198
310.0, 0.02056909454302418
311.0, 0.03117183356706247
312.0, 0.040296375715204676
313.0, 0.04706811967142471
314.0, 0.0503315539334529
315.0, 0.04893404114170289
316.0, 0.04555078080044831
317.0, 0.03819635393478811
318.0, 0.029580128654777122
319.0, 0.022290982763329383
320.0, 0.016681277152322694
321.0, 0.012586700528589845
322.0, 0.01210997399941946
323.0, 0.013834552800718148
324.0, 0.016079571890095925
325.0, 0.020408093481937284
326.0, 0.023195778503968444
327.0, 0.02892841222448516
328.0, 0.03632537286050781
329.0, 0.04130975196118592
330.0, 0.047020762092690245
331.0, 0.054991057920443585
332.0, 0.06153793466945389
333.0, 0.06775463533890308
334.0, 0.07683266116182355
335.0, 0.08544569168426978
336.0, 0.09060488703052152
337.0, 0.09630410317578811
338.0, 0.10469049487580266
339.0, 0.11465865417730417
340.0, 0.12247144096713787
341.0, 0.1275562629783161
342.0, 0.13340727003649475
343.0, 0.13950081308514328
344.0, 0.14331151084174354
345.0, 0.1491753668393456
346.0, 0.15242160038575986
347.0, 0.15494188678518572
348.0, 0.1585199024532105
349.0, 0.16297984470980087
350.0, 0.16922746926028778
351.0, 0.17470737624074303
352.0, 0.180490004340421
353.0, 0.1890355854183871
354.0, 0.2028914646411507
355.0, 0.22060232607037455
356.0, 0.23715080507140585
357.0, 0.2554338763337979
358.0, 0.27835710729986424
359.0, 0.30324274336413826
360.0, 0.3358257856567351
361.0, 0.3750596031384648
362.0, 0.4175369331066602
363.0, 0.46541974488550586
364.0, 0.5251381847998774
365.0, 0.5904364958950179
366.0, 0.6600044639996661
367.0, 0.7366513236727826
368.0, 0.8163038167368435
369.0, 0.8887300862278195
370.0, 0.9522095263611069
371.0, 0.9895973584402158
372.0, 0.9999896984128945
373.0, 0.9847278292133674
374.0, 0.9426386119697141
375.0, 0.8787727397202718
376.0, 0.7994092245912412
377.0, 0.7134484907935036
378.0, 0.6286309095333891
379.0, 0.551574692418178
380.0, 0.4851755522572048
381.0, 0.42253061264209796
382.0, 0.3678092995798565
383.0, 0.32403838564909454
384.0, 0.286970861260786
385.0, 0.2550793637534526
386.0, 0.22553386759884644
387.0, 0.20102858949683614
388.0, 0.182003267286374
389.0, 0.16484322054094472
390.0, 0.14771320096574497
391.0, 0.13602677619550493
392.0, 0.12808439618583287
393.0, 0.12002587086756028
394.0, 0.10958499735837435
395.0, 0.10606375926261886
396.0, 0.09996557666295539
397.0, 0.09527421679897108
398.0, 0.09462434817370556
399.0, 0.09302947442326212
400.0, 0.08781622308635058
401.0, 0.08642100764243851
402.0, 0.08696237480062319
403.0, 0.0867580871864872
404.0, 0.08594048862535927
405.0, 0.08561677187766126
406.0, 0.08443847287193902
407.0, 0.08371927978870947
408.0, 0.08204963022313361
409.0, 0.0777829528922558
410.0, 0.07175021370341399
411.0, 0.06572040146818614
412.0, 0.06188987401638212
413.0, 0.05674561987833993
414.0, 0.04834128137558437
415.0, 0.04069133290090977
416.0, 0.03316050790316463
417.0, 0.02842739092186282
418.0, 0.02472766980341793
419.0, 0.019356555602637267
420.0, 0.011866400891322836
421.0, 0.009239711896898655
422.0, 0.005968858024858403
423.0, 0.0022599837173105735
424.0, 0.0007093064004682159
425.0, 0.00325980652308825
426.0, 0.005317137343729537
427.0, 0.004438214346832891
428.0, 0.0040116203870926405
429.0, 0.0044688303396331576
430.0, 0.0037835789531078115
431.0, 0.0038739490895501136
432.0, 0.0006368384649733692
433.0, 0.0012198951667552263
434.0, 0.00040650688413953513
435.0, 0.0009149652039535364
436.0, 0.0003532007709450359
437.0, 0.0006717882205476343
438.0, 0.0003887479550560678
439.0, 0.0015940032449182542
440.0, 0.002172953795624734
441.0, 0.0007569137185412557
442.0, 0.0002669668528629236
443.0, 0.0009710160778867763
444.0, 0.002011188643248044
445.0, 0.0021071080153862096
446.0, 0.0028725098786323627
447.0, 0.0058013949749782315
448.0, 0.0035199883440270663
449.0, 0.001288107686484949
450.0, 0.0010860349472742122
451.0, 0.0011188266071593183
452.0, 0.000612524164481378
453.0, 0.0013809913060717485
454.0, 0.0007794918717693616
455.0, 0.0005617710784361536
456.0, 0.0006931702103556856
457.0, 0.0016455248981387305
458.0, 9.019633958797624e-05
459.0, 0.0017532173499580342
460.0, 0.0024400224532019114
461.0, 0.0029545960707900386
462.0, 0.004539417996398163
463.0, 0.007242400754433769
464.0, 0.007215560245481312
465.0, 0.00937500267015723
466.0, 0.010765211965856747
467.0, 0.010444429004912638
468.0, 0.01569669737188495
469.0, 0.01743823898366217
470.0, 0.021016208608985534
471.0, 0.02475955404622514
472.0, 0.02870090412793114
473.0, 0.03557887568177652
474.0, 0.03737319996629486
475.0, 0.03936343634489292
476.0, 0.04270555214353019
477.0, 0.0472229783518629
478.0, 0.05175971048504982
479.0, 0.0547162559006061
480.0, 0.05804354946141596
481.0, 0.061935744030849074
482.0, 0.06594775075529738
483.0, 0.06959649358737846
484.0, 0.07286070766154965
485.0, 0.07647205610926393
486.0, 0.07943522899432347
487.0, 0.08464606848103214
488.0, 0.08946412992509419
489.0, 0.09038634537196084
490.0, 0.09397463714348513
491.0, 0.09713799356861312
492.0, 0.09964785245301658
493.0, 0.1001204778160702
494.0, 0.10076254032028453
495.0, 0.10363917189664679
496.0, 0.1025689126263039
497.0, 0.10307499048667366
498.0, 0.10630549723967817
499.0, 0.10914030991525499
500.0, 0.10982843747124636
501.0, 0.11109495027549932
502.0, 0.11091653193887495
503.0, 0.11489260616273647
504.0, 0.11963339360463122
505.0, 0.1189607609274258
506.0, 0.11416925631319931
507.0, 0.11512409914176905
508.0, 0.1156022942074558
509.0, 0.1139796464958024
510.0, 0.11021080950421115
511.0, 0.10590474996662554
512.0, 0.10280857863272455
513.0, 0.09968217735338702
514.0, 0.09595278016086967
515.0, 0.09035999104042083
516.0, 0.08387280972573578
517.0, 0.0776812457177236
518.0, 0.07061460880134655
519.0, 0.06384159210140354
520.0, 0.05769888168293176
521.0, 0.05645950337036147
522.0, 0.05549589297318923
523.0, 0.04956405517368304
524.0, 0.047278119012898474
525.0, 0.049424650167713566
526.0, 0.049045855403108275
527.0, 0.04911168336154444
528.0, 0.05227084759072379
529.0, 0.05685214012680376
530.0, 0.05986678520462353
531.0, 0.06371744415531684
532.0, 0.06454831247102029
533.0, 0.06579827846684769
534.0, 0.06978797089466389
535.0, 0.07262733776924177
536.0, 0.07307144591159988
537.0, 0.0730729390224857
538.0, 0.07183794119761351
539.0, 0.06956906795066695
540.0, 0.06792114163338277
541.0, 0.06781670588111795
542.0, 0.0649251547063498
543.0, 0.061327896702949775
544.0, 0.056985970167764355
545.0, 0.05187152937155151
546.0, 0.047484268518534836
547.0, 0.0462258752867886
548.0, 0.045400686854572166
549.0, 0.04118032971378988
550.0, 0.03705260574999977
551.0, 0.034689150688772645
552.0, 0.03206732241199364
553.0, 0.02769574989944534
554.0, 0.025184443192878197
555.0, 0.022351091655006153
556.0, 0.019984516955140006
557.0, 0.01799819197634558
558.0, 0.015484342603731658
559.0, 0.013933929141433044
560.0, 0.013261297860650608
561.0, 0.010709954008851047
562.0, 0.009330007562677671
563.0, 0.008841686769966108
564.0, 0.0062377746888505605
565.0, 0.0071256741563934505
566.0, 0.0034173540780151924
567.0, 0.003363938806829347
568.0, 0.0040393609697782105
569.0, 0.001455057317366154
570.0, 0.0019960617668336586
571.0, 0.00043081909337120913
572.0, 0.0006845271370005382
573.0, 0.00041301425837449667
574.0, 0.0006254866064940763
575.0, 0.0022014488540177085
576.0, 0.0016443747899864325
577.0, 0.0016906202535342007
578.0, 0.002559510132136518
579.0, 0.0025632893240452133
580.0, 0.0024558345860863345
581.0, 0.001969910965698747
582.0, 0.0007698250045524843
583.0, 0.0027964901864742228
584.0, 0.004294547214009655
585.0, 0.003225199975156322
586.0, 0.0018946224713632335
587.0, 0.0019790347182922913
588.0, 0.0024261611208711573
589.0, 0.0003253283246047835
590.0, 0.000952266091757397
591.0, 0.0017733439783280984
592.0, 0.0016555491655234952
593.0, 0.0008464291000400049
594.0, 0.0004187476007825538
595.0, 0.0019347780089140744
596.0, 0.00032880956649330523
597.0, 0.0002648946691663347
598.0, 0.001511304829381786
599.0, 0.0020058861422765375
600.0, 0.002012788093653843
601.0, 0.0036895845963109976
602.0, 0.00555595911468932
603.0, 0.0035997667450067003
604.0, 0.005889976239556978
605.0, 0.008291460912513827
606.0, 0.006130532048553071
607.0, 0.008696513781777188
608.0, 0.008602246443361791
609.0, 0.009456018225626616
610.0, 0.010339977861656255
611.0, 0.010860620421065796
612.0, 0.012041450222962078
613.0, 0.014216889144328863
614.0, 0.014853549791503665
615.0, 0.01679666068848392
616.0, 0.018114335463796347
617.0, 0.017555000308469414
618.0, 0.017137729832921493
619.0, 0.018968391607769437
620.0, 0.019577418259183424
621.0, 0.017245011690846926
622.0, 0.01802826969114326
623.0, 0.018314542819047028
624.0, 0.01763376363158683
625.0, 0.017292899695314088
626.0, 0.013384769210752696
627.0, 0.01200060092073926
628.0, 0.010947631090861557
629.0, 0.0109339080997909
630.0, 0.01133991799356323
631.0, 0.011511573507562054
632.0, 0.012541697786735867
633.0, 0.015608249695835102
634.0, 0.015516249680063857
635.0, 0.015958460777864024
636.0, 0.017774035199725428
637.0, 0.019484914751195546
638.0, 0.019817913015441432
639.0, 0.018590711195426293
640.0, 0.019545540519285753
641.0, 0.018678268730725468
642.0, 0.017832839362898364
643.0, 0.018301068884226352
644.0, 0.018541810369309675
645.0, 0.019373098936824384
646.0, 0.023665271575044725
647.0, 0.029331704624501135
648.0, 0.03572623579395702
649.0, 0.04225374684013184
650.0, 0.04816284434562853
651.0, 0.05359435718447752
652.0, 0.06046893567062205
653.0, 0.0643043632413409
654.0, 0.06799320927413523
655.0, 0.0717635066607648
656.0, 0.07565944458989031
657.0, 0.08078406933301742
658.0, 0.0860336956369715
659.0, 0.09124888162214967
660.0, 0.09366520918571655
661.0, 0.09818005083890853
662.0, 0.1047408223475272
663.0, 0.11061454653247661
664.0, 0.11511592671172742
665.0, 0.12301063380088674
666.0, 0.13226830441250648
667.0, 0.1413021135914348
668.0, 0.1510084833957065
669.0, 0.16033961659585041
670.0, 0.16876449984611813
671.0, 0.17803625946547608
672.0, 0.1848622297691389
673.0, 0.19275561022067464
674.0, 0.19763671074043687
675.0, 0.1986314114444304
676.0, 0.19675900010454903
677.0, 0.19312381889158342
678.0, 0.1884189346556679
679.0, 0.1834824940989767
680.0, 0.1760952707749828
681.0, 0.16966574166958964
682.0, 0.16251064549978939
683.0, 0.15443276370651482
684.0, 0.14800910381193952
685.0, 0.1416783465902798
686.0, 0.13890872668795876
687.0, 0.13441799704242105
688.0, 0.13110239139207816
689.0, 0.1303890095098629
690.0, 0.13183251900149218
691.0, 0.13456686209651492
692.0, 0.13725715817948972
693.0, 0.14316982137683246
694.0, 0.14795127148963705
695.0, 0.15651390119677452
696.0, 0.16739021676642907
697.0, 0.17763613765612346
698.0, 0.19048040208694536
699.0, 0.20963649716520286
700.0, 0.22551209142924222
701.0, 0.24375518272390484
702.0, 0.265492536664501
703.0, 0.28700365413221646
704.0, 0.3068824157413858
705.0, 0.32774770193855957
706.0, 0.3496269841490575
707.0, 0.36904712322628325
708.0, 0.38087455408855864
709.0, 0.3892560387221551
710.0, 0.39364465264222165
711.0, 0.389922375262269
712.0, 0.3798741489870242
713.0, 0.36626916614421184
714.0, 0.3424284714512048
715.0, 0.3190769265800814
716.0, 0.2917939269643275
717.0, 0.26299078269107484
718.0, 0.2366697013322739
719.0, 0.20728562772915937
720.0, 0.1819744178049465
721.0, 0.15741987015777287
722.0, 0.13382321976872005
723.0, 0.11498494042378724
724.0, 0.09906400380244557
725.0, 0.08418629271376851
726.0, 0.0724771824075037
727.0, 0.06066671789835158
728.0, 0.05067627941155852
729.0, 0.04188220993806768
730.0, 0.03464864486288912
731.0, 0.028002936328690175
732.0, 0.022547980824218904
733.0, 0.019698928170168502
734.0, 0.014052972322391966
735.0, 0.011285523788035035
736.0, 0.008355344485697512
737.0, 0.0065119901440433775
738.0, 0.006416108542324354
739.0, 0.004705947277875733
740.0, 0.0003952936787609553
741.0, 0.0009438470031632826
742.0, 0.00202877984157459
743.0, 0.00042137539924734665
744.0, 0.00048601392033197164
745.0, 7.605572040957079e-05
746.0, 0.0008355420214658486
747.0, 0.0017852779069286225
748.0, 0.0019317892827712742
749.0, 0.004167234386264841
750.0, 0.006184194495369426
751.0, 0.008305648435276375
752.0, 0.010522859451996039
753.0, 0.012365041071295943
754.0, 0.01516444164591604
755.0, 0.019779421129689542
756.0, 0.021813523028163796
757.0, 0.022376382935602637
758.0, 0.025735365392540496
759.0, 0.02698253265774254
760.0, 0.026104695668627796
761.0, 0.026526538125266615
762.0, 0.027325227110164156
763.0, 0.025073576901591753
764.0, 0.019486727849977695
765.0, 0.01565041354792203
766.0, 0.011638711093803324
767.0, 0.00821180315944062
768.0, 0.005639077179212813
769.0, 0.0025746716262662695
770.0, 0.0007013155976009534
771.0, 0.0007069326567421235
772.0, 0.0034815580957656155
773.0, 0.0039634665494439605
774.0, 0.004757599072704991
775.0, 0.005357899308387995
776.0, 0.004494003770151742
777.0, 0.004254352300840051
778.0, 0.003749762903777881
779.0, 0.0030053104209510867
780.0, 0.002814137953091202
781.0, 0.0013624257653723768
782.0, 0.0014099114205525063
783.0, 0.0014145954821294948
784.0, 0.0001669407969213107
785.0, 0.0007971697807087582
786.0, 0.0030713064589905264
787.0, 0.0067447784339405925
788.0, 0.006858130069221506
789.0, 0.006792591951505011
790.0, 0.00955528609533229
791.0, 0.011225692813997809
792.0, 0.009707890724053304
793.0, 0.009351151503713448
794.0, 0.009195271567342695
795.0, 0.009921029941129113
796.0, 0.01250674117757543
797.0, 0.009635901564433712
798.0, 0.007752048651176202
799.0, 0.01030067372968578
800.0, 0.01083112279112574
801.0, 0.01152429621573812
802.0, 0.013014289812307572
803.0, 0.013557078272216916
804.0, 0.016369533493211467
805.0, 0.02067491789637213
806.0, 0.024021076145298057
807.0, 0.026875209772639075
808.0, 0.03091205259372562
809.0, 0.034834642593207794
810.0, 0.03855564915769744
811.0, 0.04418864305032661
812.0, 0.048781745027009715
813.0, 0.05337425287660198
814.0, 0.059313314573873024
815.0, 0.06474994878526867
816.0, 0.06806810328970755
817.0, 0.07075714444511107
818.0, 0.07185973223941192
819.0, 0.07375830482291358
820.0, 0.07500245467979273
821.0, 0.0739292776525623
822.0, 0.07338293138502042
823.0, 0.07319947113122996
824.0, 0.07163428926165466
825.0, 0.07060391538595362
826.0, 0.06750535497291511
827.0, 0.0672423656493389
828.0, 0.0650222919663547
829.0, 0.06255630259211756
830.0, 0.061148966552726496
831.0, 0.05903415045937705
832.0, 0.055957654798149785
833.0, 0.05500401702114148
834.0, 0.05287690184892009
835.0, 0.051932491921199024
836.0, 0.05087945536243324
837.0, 0.046255455114742224
838.0, 0.04411684713960117
839.0, 0.04182352908731387
840.0, 0.03645417742698538
841.0, 0.03371923909792221
842.0, 0.03185530036551208
843.0, 0.028089885350099132
844.0, 0.025340972179138235
845.0, 0.02209512778522077
846.0, 0.017301179060134304
847.0, 0.014453749626125384
848.0, 0.014154093712901973
849.0, 0.013279489900269892
850.0, 0.011424018925766177
851.0, 0.01085434022371995
852.0, 0.007187793899991828
853.0, 0.0069893758295248255
854.0, 0.006662419382050356
855.0, 0.006365169390888759
856.0, 0.005739328885617462
857.0, 0.0041669446398062285
858.0, 0.003662624867715182
859.0, 0.0035642529289637783
860.0, 0.0027362512712116966
861.0, 0.0042351740334129594
862.0, 0.0017432644709194534
863.0, 0.002211087357338621
864.0, 0.004138529648030144
865.0, 0.003541529310593239
866.0, 0.002768812362876459
867.0, 0.003656186797110348
868.0, 0.003135177699506954
869.0, 0.0022088431454521025
870.0, 0.0013271418451693835
871.0, 0.0012350889278263356
872.0, 0.0012125896466948717
873.0, 0.0010175279052168408
874.0, 0.0008586128777299675
875.0, 0.0008744107612098571
876.0, 0.0013849078827925995
877.0, 0.00024129484579373263
878.0, 0.0013203844355363318
879.0, 0.002277370870262354
880.0, 0.0013824748084757213
881.0, 0.0009062864405973549
882.0, 0.0010428827759307504
883.0, 0.0011736083556961939
884.0, 0.0013682859395332454
885.0, 0.0004487991401696393
886.0, 0.00011219022102278397
887.0, 0.001591502274993951
888.0, 0.0006915766193634248
889.0, 0.0013980445424779829
890.0, 0.0007061945429103116
891.0, 0.0009045472201806563
892.0, 0.0005472196940450717
893.0, 0.0007582887119791347
894.0, 0.0012726044654974295
895.0, 0.0016422409331780072
896.0, 0.0004541827392587556
897.0, 0.0005054822682560421
898.0, 0.00015416867593656837
899.0, 0.0005139365840205499
900.0, 0.001475241493714549
901.0, 0.002151465351368961
902.0, 0.0027836739332929832
903.0, 0.00022442274765948622
904.0, 0.000292930232276282
905.0, 0.003406865376908129
906.0, 0.004633081562515921
907.0, 0.0011594702441006977
908.0, 0.001324823593056937
909.0, 0.0035059334656719105
910.0, 0.0021487138306639023
911.0, 0.0007649050800671262
912.0, 0.00325272803875783
913.0, 0.004954090226475809
914.0, 0.004259964856497681
915.0, 0.0007396133597534951
916.0, 0.0023494009910392764
917.0, 0.0032190462250362437
918.0, 0.0034595038880641063
919.0, 0.004117763578010022
920.0, 0.003604150927818519
921.0, 0.002913264542630388
922.0, 0.002237569440967958
923.0, 0.0008716732934285794
924.0, 0.00016223677831357503
925.0, 0.0007619298534631058
926.0, 0.0019362830583695987
927.0, 0.001965299470117394
928.0, 0.0013550438603731401
929.0, 0.001958706820919743
930.0, 0.002695644423281965
931.0, 0.0009862176213413301
932.0, 0.001212959293627078
933.0, 0.0013771309006744455
934.0, 0.0012545802448817828
935.0, 0.0007000508899580821
936.0, 0.0022977040069429603
937.0, 0.0019881738984611984
938.0, 0.0008492170116199139
939.0, 0.00046398571638759127
940.0, 0.002043804914132651
941.0, 0.000581067090351827
942.0, 0.004603016657513087
943.0, 0.003241788178157055
944.0, 0.003171204219191731
945.0, 0.0025909281560831136
946.0, 0.0029462777436243875
947.0, 0.0023406375183596894
948.0, 0.0037951819348068074
949.0, 0.0066803063465008476
950.0, 0.007519989989218693
951.0, 0.00778016140674874
952.0, 0.0050400578060481125
953.0, 0.008154916975793108
954.0, 0.010329896747002803
955.0, 0.01204575137065644
956.0, 0.013022254390349349
957.0, 0.011802434097569321
958.0, 0.013591983356988495
959.0, 0.017105875917033195
960.0, 0.016629213152199288
961.0, 0.016910829352067423
962.0, 0.02004429824060686
963.0, 0.02338073816381277
964.0, 0.023138499692011347
965.0, 0.0238073279119767
966.0, 0.02368838610687253
967.0, 0.02562541520117977
968.0, 0.025746055248616152
969.0, 0.02654607165456211
970.0, 0.028631278036503685
971.0, 0.026296641661617152
972.0, 0.027269799610442437
973.0, 0.026557792035184265
974.0, 0.028655505978841988
975.0, 0.029644891344553396
976.0, 0.02824732166337513
977.0, 0.027746668925434977
978.0, 0.02738877506265087
979.0, 0.02729720706270673
980.0, 0.027654996307971573
981.0, 0.02697208144724936
982.0, 0.02619250742074217
983.0, 0.025684567406540886
984.0, 0.022824632909883735
985.0, 0.019611669071451714
986.0, 0.01830913590350888
987.0, 0.017159924544981386
988.0, 0.01473100737773015
989.0, 0.013431521527968924
990.0, 0.012641752846659592
991.0, 0.009990697350618548
992.0, 0.00785885285210051
993.0, 0.00697040484287186
994.0, 0.004465361208881979
995.0, 0.0034767437573729565
996.0, 0.00151379488102072
997.0, 0.0017189191882789345
998.0, 0.0008626282446677398
999.0, 0.0005648723889371501
1000.0, 0.0003518711216874069
1001.0, 0.0025195022812059516
1002.0, 0.003979070051624511
1003.0, 0.003792234330017562
1004.0, 0.0033029414500278425
1005.0, 0.0033536581694978878
1006.0, 0.0011266508252839732
1007.0, 0.0015114600686931912
1008.0, 0.0013451595362309384
1009.0, 0.0007800774212274458
1010.0, 0.0020915960774264756
1011.0, 0.0002554231689582199
1012.0, 0.0031424289070149966
1013.0, 0.0033557378436222286
1014.0, 0.005007798191168308
1015.0, 0.008380472943697205
1016.0, 0.00999714982234242
1017.0, 0.009449584499271725
1018.0, 0.011851901538533815
1019.0, 0.014491734548512986
1020.0, 0.016840350072167873
1021.0, 0.018372619410573113
1022.0, 0.018805779068872316
1023.0, 0.02035155575349781
1024.0, 0.022357941019287134
1025.0, 0.02421922600463153
1026.0, 0.027661563097726057
1027.0, 0.028192465957759812
1028.0, 0.027541959715754436
1029.0, 0.03250708585871466
1030.0, 0.036070746842986355
1031.0, 0.039090191919655425
1032.0, 0.037271483640136105
1033.0, 0.038916363702256825
1034.0, 0.041746731590304335
1035.0, 0.045363246212868566
1036.0, 0.04744144685102214
1037.0, 0.04868165894081897
1038.0, 0.054179042345304955
1039.0, 0.05575637483283518
1040.0, 0.05873929723523458
1041.0, 0.06594757403427484
1042.0, 0.06574516116569946
1043.0, 0.06816820048757868
1044.0, 0.07360413397287759
1045.0, 0.07619144510499956
1046.0, 0.07982161573221838
1047.0, 0.08509978305453536
1048.0, 0.08799681473502949
1049.0, 0.08969883826908943
1050.0, 0.09298709663701812
1051.0, 0.09647662765609441
1052.0, 0.10150833285186404
1053.0, 0.10436717554349122
1054.0, 0.10639818819379318
1055.0, 0.10842962280308065
1056.0, 0.11132018560545126
1057.0, 0.11672085555347195
1058.0, 0.11964377544168149
1059.0, 0.12125310514691022
1060.0, 0.12416077792915436
1061.0, 0.12722224699714063
1062.0, 0.1303471711819636
1063.0, 0.13502576334486657
1064.0, 0.13945479496984328
1065.0, 0.14081771606724
1066.0, 0.14121563454642067
1067.0, 0.14444921932804047
1068.0, 0.14409112858292622
1069.0, 0.14366995354153025
1070.0, 0.14106652068456543
1071.0, 0.13829295892676946
1072.0, 0.1341057287208117
1073.0, 0.1301514517359672
1074.0, 0.12616717791174542
1075.0, 0.12060162947851448
1076.0, 0.11455235576060291
1077.0, 0.10759401012196639
1078.0, 0.10141417501313686
1079.0, 0.095755966153777
1080.0, 0.08910977442215395
1081.0, 0.08384804297350286
1082.0, 0.07860973926247525
1083.0, 0.07122080047390143
1084.0, 0.06488408120887024
1085.0, 0.060701372157786815
1086.0, 0.05717916823330522
1087.0, 0.05395445056991821
1088.0, 0.049816244894028784
1089.0, 0.045772735453577955
1090.0, 0.043066817701566104
1091.0, 0.03922552162734021
1092.0, 0.03680103486476459
1093.0, 0.035124193747758665
1094.0, 0.03317939066495106
1095.0, 0.028828407315595096
1096.0, 0.029599705431217607
1097.0, 0.0249884258649401
1098.0, 0.02492494634314382
1099.0, 0.024241498718779717
1100.0, 0.02230217553378127
1101.0, 0.023778271528693544
1102.0, 0.024349769474287946
1103.0, 0.023177741437184908
1104.0, 0.024231063587391348
1105.0, 0.02321251512358816
1106.0, 0.025345329341701243
1107.0, 0.023750801534654187
1108.0, 0.02527730416273017
1109.0, 0.027084713874609718
1110.0, 0.027726015119440187
1111.0, 0.029091214152781406
1112.0, 0.029679384460511424
1113.0, 0.03149013023653424
1114.0, 0.03256915227711557
1115.0, 0.03363145627234734
1116.0, 0.0355056765139185
1117.0, 0.03612622525715686
1118.0, 0.035339495515080956
1119.0, 0.03503360703406622
1120.0, 0.036673982300255675
1121.0, 0.037499701754962436
1122.0, 0.03732906234444736
1123.0, 0.03533105798911654
1124.0, 0.03383766424610708
1125.0, 0.033012398281288935
1126.0, 0.03206335939426287
1127.0, 0.029208609066762915
1128.0, 0.025514504907953806
1129.0, 0.02334512269603441
1130.0, 0.021757497675691413
1131.0, 0.01989901833245351
1132.0, 0.01649072661058904
1133.0, 0.011510501341822518
1134.0, 0.009374954858956239
1135.0, 0.00850894652291717
1136.0, 0.006551109878505372
1137.0, 0.006061964277195002
1138.0, 0.001827101407867826
1139.0, 0.003056034905603713
1140.0, 0.0036951916215352725
1141.0, 0.0005617526301670953
1142.0, 0.001363743348023588
1143.0, 0.0012264443948803482
1144.0, 0.003949588038800847
1145.0, 0.002467121527029139
1146.0, 0.0014093437915901367
1147.0, 0.0034734776364020946
1148.0, 0.0034222238004629974
1149.0, 0.0031578850656333716
1150.0, 0.002727134666411151
1151.0, 0.0006929042593411228
1152.0, 0.0017450359131363088
1153.0, 0.000820019224337244
1154.0, 0.00043922657888091664
1155.0, 3.321910700469691e-05
1156.0, 0.0021984598389547523
1157.0, 0.002325538127471407
1158.0, 0.001760602105949448
1159.0, 0.004458241735747795
1160.0, 0.00438656280963743
1161.0, 0.00501986643234593
1162.0, 0.005775495090332267
1163.0, 0.005055880131976315
1164.0, 0.005681327314719525
1165.0, 0.007948052088459284
1166.0, 0.009600587832419202
1167.0, 0.010517144632675321
1168.0, 0.010291249657310044
1169.0, 0.012140749581650215
1170.0, 0.011305989084499401
1171.0, 0.012130760969973304
1172.0, 0.013444561614815302
1173.0, 0.01635006898351128
1174.0, 0.016466117896511447
1175.0, 0.01733013410063614
1176.0, 0.018556431429244617
1177.0, 0.020949811345064705
1178.0, 0.022300212291064072
1179.0, 0.025663133356332135
1180.0, 0.02782968597983652
1181.0, 0.02839649541714698
1182.0, 0.03153904628708736
1183.0, 0.035626912755789004
1184.0, 0.03789434986458673
1185.0, 0.04104478724498092
1186.0, 0.04554438317400075
1187.0, 0.04783584822316606
1188.0, 0.05176140459822181
1189.0, 0.05625191452232157
1190.0, 0.058701681394463336
1191.0, 0.06479134099607962
1192.0, 0.06856169321674013
1193.0, 0.07270854197454116
1194.0, 0.07820768579942898
1195.0, 0.08188393831042445
1196.0, 0.08642229783070406
1197.0, 0.09207429359777276
1198.0, 0.09593806358923325
1199.0, 0.09978226862800063
1200.0, 0.10332134778826325
1201.0, 0.10586537635250147
1202.0, 0.10881350284603836
1203.0, 0.11147365455878572
1204.0, 0.11468867733964454
1205.0, 0.11848347997728928
1206.0, 0.11911853744289116
1207.0, 0.12101291213415988
1208.0, 0.12465168106817652
1209.0, 0.12761977466447721
1210.0, 0.12824805106711862
1211.0, 0.13210206772326022
1212.0, 0.13491336767922393
1213.0, 0.13625798942926343
1214.0, 0.13720596098674334
1215.0, 0.1408128248057849
1216.0, 0.13999828108831378
1217.0, 0.1377569233116889
1218.0, 0.14095412129605472
1219.0, 0.14062909183302605
1220.0, 0.13620970939620394
1221.0, 0.13418013040688848
1222.0, 0.13330648076951954
1223.0, 0.1292105633419482
1224.0, 0.12633925275033372
1225.0, 0.1238025592933416
1226.0, 0.11569138683039308
1227.0, 0.11067525782300863
1228.0, 0.10728430795363555
1229.0, 0.10499037005346132
1230.0, 0.09767178596446749
1231.0, 0.09392720733420895
1232.0, 0.08402538185753193
1233.0, 0.08078910949704306
1234.0, 0.07723796800374236
1235.0, 0.06956792206676018
1236.0, 0.06453028243278522
1237.0, 0.0578381623219241
1238.0, 0.05092375710909832
1239.0, 0.042883179999792964
1240.0, 0.03764539409884005
1241.0, 0.03249142277330167
1242.0, 0.024264678876788317
1243.0, 0.020296160660162637
1244.0, 0.016996082871202366
1245.0, 0.011747984535395514
1246.0, 0.008213558811651143
1247.0, 0.006795445881984279
1248.0, 0.004010541837568528
1249.0, 0.00030835172906729547
1250.0, 0.00022983460239461623
1251.0, 0.0013856048520743272
1252.0, 0.005389801833924063
1253.0, 0.005911802907513147
1254.0, 0.0034807029070603565
1255.0, 0.0007212950569089802
1256.0, 0.003563261142433829
1257.0, 0.004246229742916406
1258.0, 0.007595408826708102
1259.0, 0.011526916563772206
1260.0, 0.01839958840863926
1261.0, 0.02494630198857786
1262.0, 0.030156156971341854
1263.0, 0.0338507347469713
1264.0, 0.03856074447436427
1265.0, 0.04447940982410228
1266.0, 0.04875608445579739
1267.0, 0.04860248603026599
1268.0, 0.05016679624591588
1269.0, 0.04684902823702374
1270.0, 0.04094374861194436
1271.0, 0.038757837513319036
1272.0, 0.037229273640587646
1273.0, 0.03654225537084893
1274.0, 0.03736988971434341
1275.0, 0.03587209967276673
1276.0, 0.030744780835719878
1277.0, 0.027209201628182123
1278.0, 0.023304395068388967
1279.0, 0.01860534405271917
1280.0, 0.01591076082330674
1281.0, 0.013044791835209315
1282.0, 0.010070320928581325
1283.0, 0.0030197958541721415
1284.0, 0.0009006187872587216
1285, 0.0
1286, 0.0
1287, 0.0
1288, 0.0
1289, 0.0
1290, 0.0
1291, 0.0
1292, 0.0
1293, 0.0
1294, 0.0
1295, 0.0
1296, 0.0
1297, 0.0
1298, 0.0
1299, 0.0
1300, 0.0
1301, 0.0
1302, 0.0
1303, 0.0
1304, 0.0
1305, 0.0
1306, 0.0
1307, 0.0
1308, 0.0
1309, 0.0
1310, 0.0
1311, 0.0
1312, 0.0
1313, 0.0
1314, 0.0
1315, 0.0
1316, 0.0
1317, 0.0
1318, 0.0
1319, 0.0
1320, 0.0
1321, 0.0
1322, 0.0
1323, 0.0
1324, 0.0
1325, 0.0
1326, 0.0
1327, 0.0
1328, 0.0
1329, 0.0
1330, 0.0
1331, 0.0
1332, 0.0
1333, 0.0
1334, 0.0
1335, 0.0
1336, 0.0
1337, 0.0
1338, 0.0
1339, 0.0
1340, 0.0
1341, 0.0
1342, 0.0
1343, 0.0
1344, 0.0
1345, 0.0
1346, 0.0
1347, 0.0
1348, 0.0
1349, 0.0
1350, 0.0
1351, 0.0
1352, 0.0
1353, 0.0
1354, 0.0
1355, 0.0
1356, 0.0
1357, 0.0
1358, 0.0
1359, 0.0
1360, 0.0
1361, 0.0
1362, 0.0
1363, 0.0
1364, 0.0
1365, 0.0
1366, 0.0
1367, 0.0
1368, 0.0
1369, 0.0
1370, 0.0
1371, 0.0
1372, 0.0
1373, 0.0
1374, 0.0
1375, 0.0
1376, 0.0
1377, 0.0
1378, 0.0
1379, 0.0
1380, 0.0
1381, 0.0
1382, 0.0
1383, 0.0
1384, 0.0
1385, 0.0
1386, 0.0
1387, 0.0
1388, 0.0
1389, 0.0
1390, 0.0
1391, 0.0
1392, 0.0
1393, 0.0
1394, 0.0
1395, 0.0
1396, 0.0
1397, 0.0
1398, 0.0
1399, 0.0
1400, 0.0
1401, 0.0
1402, 0.0
1403, 0.0
1404, 0.0
1405, 0.0
1406, 0.0
1407, 0.0
1408, 0.0
1409, 0.0
1410, 0.0
1411, 0.0
1412, 0.0
1413, 0.0
1414, 0.0
1415, 0.0
1416, 0.0
1417, 0.0
1418, 0.0
1419, 0.0
1420, 0.0
1421, 0.0
1422, 0.0
1423, 0.0
1424, 0.0
1425, 0.0
1426, 0.0
1427, 0.0
1428, 0.0
1429, 0.0
1430, 0.0
1431, 0.0
1432, 0.0
1433, 0.0
1434, 0.0
1435, 0.0
1436, 0.0
1437, 0.0
1438, 0.0
1439, 0.0
1440, 0.0
1441, 0.0
1442, 0.0
1443, 0.0
1444, 0.0
1445, 0.0
1446, 0.0
1447, 0.0
1448, 0.0
1449, 0.0
1450, 0.0
1451, 0.0
1452, 0.0
1453, 0.0
1454, 0.0
1455, 0.0
1456, 0.0
1457, 0.0
1458, 0.0
1459, 0.0
1460, 0.0
1461, 0.0
1462, 0.0
1463, 0.0
1464, 0.0
1465, 0.0
1466, 0.0
1467, 0.0
1468, 0.0
1469, 0.0
1470, 0.0
1471, 0.0
1472, 0.0
1473, 0.0
1474, 0.0
1475, 0.0
1476, 0.0
1477, 0.0
1478, 0.0
1479, 0.0
1480, 0.0
1481, 0.0
1482, 0.0
1483, 0.0
1484, 0.0
1485, 0.0
1486, 0.0
1487, 0.0
1488, 0.0
1489, 0.0
1490, 0.0
1491, 0.0
1492, 0.0
1493, 0.0
1494, 0.0
1495, 0.0
1496, 0.0
1497, 0.0
1498, 0.0
1499, 0.0
1500, 0.0
1501, 0.0
1502, 0.0
1503, 0.0
1504, 0.0
1505, 0.0
1506, 0.0
1507, 0.0
1508, 0.0
1509, 0.0
1510, 0.0
1511, 0.0
1512, 0.0
1513, 0.0
1514, 0.0
1515, 0.0
1516, 0.0
1517, 0.0
1518, 0.0
1519, 0.0
1520, 0.0
1521, 0.0
1522, 0.0
1523, 0.0
1524, 0.0
1525, 0.0
1526, 0.0
1527, 0.0
1528, 0.0
1529, 0.0
1530, 0.0
1531, 0.0
1532, 0.0
1533, 0.0
1534, 0.0
1535, 0.0
1536, 0.0
1537, 0.0
1538, 0.0
1539, 0.0
1540, 0.0
1541, 0.0
1542, 0.0
1543, 0.0
1544, 0.0
1545, 0.0
1546, 0.0
1547, 0.0
1548, 0.0
1549, 0.0
1550, 0.0
1551, 0.0
1552, 0.0
1553, 0.0
1554, 0.0
1555, 0.0
1556, 0.0
1557, 0.0
1558, 0.0
1559, 0.0
1560, 0.0
1561, 0.0
1562, 0.0
1563, 0.0
1564, 0.0
1565, 0.0
1566, 0.0
1567, 0.0
1568, 0.0
1569, 0.0
1570, 0.0
1571, 0.0
1572, 0.0
1573, 0.0
1574, 0.0
1575, 0.0
1576, 0.0
1577, 0.0
1578, 0.0
1579, 0.0
1580, 0.0
1581, 0.0
1582, 0.0
1583, 0.0
1584, 0.0
1585, 0.0
1586, 0.0
1587, 0.0
1588, 0.0
1589, 0.0
1590, 0.0
1591, 0.0
1592, 0.0
1593, 0.0
1594, 0.0
1595, 0.0
1596, 0.0
1597, 0.0
1598, 0.0
1599, 0.0
