30, 0.0
31, 0.0
32, 0.0
33, 0.0
34, 0.0
35, 0.0
36, 0.0
37, 0.0
38, 0.0
39, 0.0
40, 0.0
41, 0.0
42, 0.0
43, 0.0
44, 0.0
45, 0.0
46, 0.0
47, 0.0
48, 0.0
49, 0.0
50, 0.0
51, 0.0
52, 0.0
53, 0.0
54, 0.0
55, 0.0
56, 0.0
57, 0.0
58, 0.0
59, 0.0
60, 0.0
61, 0.0
62, 0.0
63, 0.0
64, 0.0
65, 0.0
66, 0.0
67, 0.0
68, 0.0
69, 0.0
70, 0.0
71, 0.0
72, 0.0
73, 0.0
74, 0.0
75, 0.0
76, 0.0
77, 0.0
78, 0.0
79, 0.0
80, 0.0
81, 0.0
82, 0.0
83, 0.0
84, 0.0
85, 0.0
86, 0.0
87, 0.0
88, 0.0
89, 0.0
90, 0.0
91, 0.0
92, 0.0
93, 0.0
94, 0.0
95, 0.0
96, 0.0
97, 0.0
98, 0.0
99, 0.0
100, 0.0
101, 0.0
102, 0.0
103, 0.0
104, 0.0
105, 0.0
106, 0.0
107, 0.0
108, 0.0
109, 0.0
110, 0.0
111, 0.0
112, 0.0
113, 0.0
114, 0.0
115.0, 0.00020521800574165716
116.0, 0.005990550689343841
117.0, 0.021743848375391013
118.0, 0.024845626423683036
119.0, 0.030316945017531988
120.0, 0.03344663104657974
121.0, 0.017387509489921307
122.0, 0.04182038075713892
123.0, 0.05618970376112364
124.0, 0.04156401526429697
125.0, 0.05645679056943962
126.0, 0.08293349511642865
127.0, 0.1077670132497214
128.0, 0.1062355790438116
129.0, 0.11385472554388087
130.0, 0.11806909041372646
131.0, 0.12025496912509004
132.0, 0.16577242352423402
133.0, 0.1730031747032482
134.0, 0.16953130866090121
135.0, 0.18075409579740123
136.0, 0.16654608873873905
137.0, 0.17174209562080409
138.0, 0.18653987647287498
139.0, 0.14352441839798083
140.0, 0.13821916231881276
141.0, 0.13227504412889232
142.0, 0.1046317058569827
143.0, 0.08978133378240515
144.0, 0.06859041832681774
145.0, 0.04861607236604423
146.0, 0.04933464020745507
147.0, 0.036620440065004395
148.0, 0.02746380437724283
149.0, 0.02647448777235062
150.0, 0.028503072957608837
151.0, 0.02011742830224489
152.0, 0.009844069314457618
153.0, 0.007375459109672931
154.0, 0.005885626083805068
155.0, 0.01914713876074006
156.0, 0.03846178602568222
157.0, 0.010736339642439452
158.0, 0.0055884108818427414
159.0, 0.010242554671999136
160.0, 0.01897665855006164
161.0, 0.015868772339486772
162.0, 0.022761084330834694
163.0, 0.032490715673747665
164.0, 0.02875047551442162
165.0, 0.04148075516686885
166.0, 0.04240429884860262
167.0, 0.028633158930921963
168.0, 0.054418489832144264
169.0, 0.05673600289729011
170.0, 0.054464593080309605
171.0, 0.06516740958670295
172.0, 0.05855433543895096
173.0, 0.06634891850053212
174.0, 0.0796444589475778
175.0, 0.05574054484807132
176.0, 0.0503569681375124
177.0, 0.048125407610420036
178.0, 0.043179290370713296
179.0, 0.03851119197591608
180.0, 0.04710648704417113
181.0, 0.05682663321633943
182.0, 0.04959489965998714
183.0, 0.033631216425575275
184.0, 0.029003951939031287
185.0, 0.036590469472291415
186.0, 0.04484393626107415
187.0, 0.03961587455758766
188.0, 0.03683229677956839
189.0, 0.04590349015729818
190.0, 0.03660907717608583
191.0, 0.03313917265829124
192.0, 0.033685266373267395
193.0, 0.035030074554238136
194.0, 0.04200562153139375
195.0, 0.046637021861740464
196.0, 0.04548879287437618
197.0, 0.024775700166821707
198.0, 0.04279035693387429
199.0, 0.057709847976445974
200.0, 0.03930801393475731
201.0, 0.0727626665532487
202.0, 0.07686526614986502
203.0, 0.06390374723365709
204.0, 0.065180376724867
205.0, 0.06662222948442562
206.0, 0.07799509024670158
207.0, 0.09948546779878145
208.0, 0.10871809907227428
209.0, 0.08533497624017423
210.0, 0.0655348902235299
211.0, 0.0779267351837484
212.0, 0.08216233704121936
213.0, 0.07285090085141342
214.0, 0.05796667908916685
215.0, 0.056278652391644576
216.0, 0.06160802718520954
217.0, 0.06506631854788324
218.0, 0.06501829372864042
219.0, 0.06636898824962384
220.0, 0.06301158014257953
221.0, 0.05823908062101365
222.0, 0.05426977627610757
223.0, 0.05035207891869221
224.0, 0.061077125505678106
225.0, 0.07556234597652542
226.0, 0.06961346226867245
227.0, 0.08888839369005673
228.0, 0.09767845952710418
229.0, 0.09210183304234515
230.0, 0.09907785599817025
231.0, 0.08978242079077126
232.0, 0.08414530940433634
233.0, 0.0949035556151171
234.0, 0.09250911179011148
235.0, 0.07995185490041168
236.0, 0.06924763976557861
237.0, 0.08215554937821629
238.0, 0.06806301700154965
239.0, 0.055751045816694766
240.0, 0.0535649870308803
241.0, 0.0815474027851096
242.0, 0.0802119531558048
243.0, 0.07896986100629552
244.0, 0.09082458042917445
245.0, 0.09268230049885594
246.0, 0.09221710660101307
247.0, 0.09339448869999949
248.0, 0.10148944162564291
249.0, 0.0872290664998761
250.0, 0.09473524301390532
251.0, 0.11133566537636057
252.0, 0.08302220496044403
253.0, 0.0897693496924208
254.0, 0.09362049861553007
255.0, 0.08344884985288463
256.0, 0.06634926642455569
257.0, 0.07327633816290448
258.0, 0.07749572796024917
259.0, 0.05782217168108157
260.0, 0.05796016804962055
261.0, 0.0623007469748302
262.0, 0.06529609749181424
263.0, 0.05660616411075488
264.0, 0.03769934584611316
265.0, 0.03524630990891579
266.0, 0.04844259772208176
267.0, 0.051368178649508434
268.0, 0.03440928171681353
269.0, 0.0296593523727662
270.0, 0.0483508558137571
271.0, 0.015171701177023832
272.0, 0.028095245597009218
273.0, 0.048406129364574044
274.0, 0.03709328735894693
275.0, 0.043465916980113393
276.0, 0.032786767760144574
277.0, 0.018776510651860492
278.0, 0.03866802681340429
279.0, 0.03278893097651713
280.0, 0.02013864997986409
281.0, 0.008912198213112548
282.0, 0.024639727227423303
283.0, 0.019617004044772988
284.0, 0.02087788846253499
285.0, 0.03972024721697913
286.0, 0.015939542010344258
287.0, 0.01531884139427652
288.0, 0.023508558656363056
289.0, 0.026261387236615197
290.0, 0.030470652512733305
291.0, 0.025069726006198927
292.0, 0.020608562077648628
293.0, 0.04363477402002098
294.0, 0.03238335945604095
295.0, 0.030889095354984637
296.0, 0.039590984203484315
297.0, 0.015131834472156318
298.0, 0.024502380380460428
299.0, 0.033693174135815886
300.0, 0.02923995397061862
301.0, 0.03394194669276137
302.0, 0.03947458989588803
303.0, 0.035724058227357254
304.0, 0.012551454008367893
305.0, 0.021058375092486058
306.0, 0.03700883732368881
307.0, 0.05078057767738221
308.0, 0.04570687421869237
309.0, 0.03812343059480959
310.0, 0.04367409553728176
311.0, 0.055561582293886844
312.0, 0.04123098096052302
313.0, 0.048698943430803575
314.0, 0.05213744503376148
315.0, 0.046541575199776655
316.0, 0.05731492375914514
317.0, 0.057678875772346795
318.0, 0.05339038996526572
319.0, 0.04795525248282363
320.0, 0.06095567025276363
321.0, 0.06700682460576429
322.0, 0.06622136544083125
323.0, 0.05794130590995629
324.0, 0.05137524749697899
325.0, 0.05492038889820606
326.0, 0.05372800393081064
327.0, 0.014635326364498925
328.0, 0.04377891489870314
329.0, 0.04633604647830596
330.0, 0.021647080717056646
331.0, 0.02559926029790208
332.0, 0.023642435456783465
333.0, 0.026992493943836494
334.0, 0.035081742382940845
335.0, 0.012705149575271864
336.0, 0.021060414826744627
337.0, 0.02919759972246509
338.0, 0.020301012460223297
339.0, 0.013664046714534148
340.0, 0.013436327289311406
341.0, 0.016617143545691982
342.0, 0.02056218661507317
343.0, 0.015439926758839359
344.0, 0.016360465005067864
345.0, 0.02129587877843908
346.0, 0.026373972190566856
347.0, 0.019839857528565763
348.0, 0.01040996881975863
349.0, 0.0024217298711129995
350.0, 0.005620893855907399
351.0, 0.014081148537218407
352.0, 0.022251066457318502
353.0, 0.029699174039300683
354.0, 0.04043391295258246
355.0, 0.03145044391430807
356.0, 0.025192631400732513
357.0, 0.029483339554699166
358.0, 0.036832673841278564
359.0, 0.04024336420685408
360.0, 0.044599119779385486
361.0, 0.05215966742281326
362.0, 0.03955386624729667
363.0, 0.05377335199410974
364.0, 0.07061429132671469
365.0, 0.06684386495456643
366.0, 0.08137637684119885
367.0, 0.09922974304566914
368.0, 0.1144288720956931
369.0, 0.1181830182147027
370.0, 0.14736965476152536
371.0, 0.16816453296178568
372.0, 0.18119425890109334
373.0, 0.19373056927395077
374.0, 0.18086840478337185
375.0, 0.17357345130279916
376.0, 0.17525916454436008
377.0, 0.18098849900529476
378.0, 0.1367906360869658
379.0, 0.11589645605563795
380.0, 0.12174609596742661
381.0, 0.06805876609487369
382.0, 0.05561186081222637
383.0, 0.05510708233738579
384.0, 0.05388943618780033
385.0, 0.03703607503444982
386.0, 0.02674088576659823
387.0, 0.025314840997850103
388.0, 0.034191772736111785
389.0, 0.047258598623807546
390.0, 0.025764193833056465
391.0, 0.011713151695037224
392.0, 0.03781332341572555
393.0, 0.022612826314387123
394.0, 0.020428527353283585
395.0, 0.02533127885092302
396.0, 0.031129036427986673
397.0, 0.02960218469573067
398.0, 0.04396810305429277
399.0, 0.05678037233897785
400.0, 0.04031980382527346
401.0, 0.06062155131334017
402.0, 0.06890723033553119
403.0, 0.06662275960628211
404.0, 0.06340071361002031
405.0, 0.11051929270264635
406.0, 0.12066019638050082
407.0, 0.10054003552288186
408.0, 0.09569714901071008
409.0, 0.10530716338850325
410.0, 0.11502048126038944
411.0, 0.12293157476030944
412.0, 0.13153540550272652
413.0, 0.13710482649462344
414.0, 0.11754484938116824
415.0, 0.08453351834430553
416.0, 0.1193517239492529
417.0, 0.11349607669174598
418.0, 0.0942632475029179
419.0, 0.07479735532728418
420.0, 0.08399603708829671
421.0, 0.07874388534389298
422.0, 0.07546940617851905
423.0, 0.07400624001942913
424.0, 0.01645716488934923
425.0, 0.031637340882715505
426.0, 0.051401299304965745
427.0, 0.04383140345240523
428.0, 0.030979771778626763
429.0, 0.05087763312845267
430.0, 0.052433940679572716
431.0, 0.009103213903492509
432.0, 0.00961461346225594
433.0, 0.014319194748949535
434.0, 0.030230194865558665
435.0, 0.05987979166139844
436.0, 0.015407377180792776
437.0, 0.019351804540603156
438.0, 0.026499059368055522
439.0, 0.00030038694954811693
440.0, 0.02082348915915006
441.0, 0.023642036539172077
442.0, 0.01691889377232793
443.0, 0.008253634440437009
444.0, 0.008921584938390029
445.0, 0.015773430146922333
446.0, 0.02235929329837097
447.0, 0.021580954426085073
448.0, 0.010026309179683786
449.0, 0.006125950537426119
450.0, 0.009445918146714988
451.0, 0.019309395613798346
452.0, 0.009767497286755402
453.0, 0.007360679012851256
454.0, 0.01152902397350266
455.0, 0.020669205227843074
456.0, 0.03631820036813166
457.0, 0.024707224152381087
458.0, 0.006212274587447665
459.0, 0.012015023917661275
460.0, 0.0036695642925448956
461.0, 0.0026540310267677667
462.0, 0.005404503449523168
463.0, 0.004849740748607631
464.0, 0.031053490044555845
465.0, 0.022809800769688873
466.0, 0.0003888296989356452
467.0, 0.0017042607552758106
468.0, 0.03797858177345081
469.0, 0.03144560721972277
470.0, 0.006051823671179487
471.0, 0.009237516013803671
472.0, 0.023645414528503873
473.0, 0.019247370510096333
474.0, 0.016045900311535567
475.0, 0.05126145101272053
476.0, 0.019225607846062996
477.0, 0.0183345079247497
478.0, 0.030827706881061026
479.0, 0.015338158026801206
480.0, 0.030223930532115712
481.0, 0.02865125377654951
482.0, 0.01959918804389155
483.0, 0.02325444615626263
484.0, 0.028325557478202597
485.0, 0.02795444323947638
486.0, 0.025782730885680012
487.0, 0.02835276204380703
488.0, 0.024548503851600092
489.0, 0.028067472352317057
490.0, 0.03590928030806296
491.0, 0.04224711578790727
492.0, 0.02030630545139882
493.0, 0.015874847310981093
494.0, 0.023018084800156435
495.0, 0.029697511262387212
496.0, 0.023480683063679512
497.0, 0.01739512782174591
498.0, 0.010908279069295588
499.0, 0.002470775065866005
500.0, 0.017084625266910805
501.0, 0.026182801842332917
502.0, 0.023634142473510783
503.0, 0.003005703549364528
504.0, 0.023517422639389374
505.0, 0.019612735175951652
506.0, 0.011252477616991975
507.0, 0.022019673266746632
508.0, 0.006782564965924831
509.0, 0.002333645677780456
510.0, 0.00242473185779731
511.0, 0.0005986596982133252
512.0, 0.0014823341162280277
513.0, 0.011344636085858494
514.0, 0.018600937576505293
515.0, 0.013757150991218074
516.0, 0.020826216801199532
517.0, 0.015602164629164743
518.0, 0.016570273935402856
519.0, 0.03543416172352013
520.0, 0.025902883321390936
521.0, 0.018822944324859096
522.0, 0.01764320399943699
523.0, 0.022949342883836706
524.0, 0.012175120692334132
525.0, 0.016404608164978126
526.0, 0.01957434300949073
527.0, 0.013494143753154862
528.0, 0.003368103190668292
529.0, 0.0203154404263737
530.0, 0.03676352908715568
531.0, 0.042562864603830075
532.0, 0.05276020588137087
533.0, 0.03412099082382844
534.0, 0.020544764978351438
535.0, 0.026813087337598983
536.0, 0.06517581944394492
537.0, 0.06466546677290466
538.0, 0.05235160495507385
539.0, 0.0408773381714243
540.0, 0.04913767141006274
541.0, 0.041416926680350324
542.0, 0.035084055366947114
543.0, 0.035167976057678615
544.0, 0.04540404299058824
545.0, 0.02360903312386324
546.0, 0.014266040887752957
547.0, 0.01622832007298969
548.0, 0.011121438281602902
549.0, 0.0040760012790024116
550.0, 0.015989925241667216
551.0, 0.032756981364739146
552.0, 0.026438714860757034
553.0, 0.009777990015182812
554.0, 0.002070862330831115
555.0, 0.0009631305676925186
556.0, 0.0018699999104120407
557.0, 0.010003953533620614
558.0, 0.019210344923482586
559.0, 0.02219498810510194
560.0, 0.012408868560126405
561.0, 0.008237157920313772
562.0, 0.017587497860910323
563.0, 0.02853060672633486
564.0, 0.03153316184159277
565.0, 0.015912648450993473
566.0, 0.007528985834155468
567.0, 0.007569608063664516
568.0, 0.014500678577927454
569.0, 0.01160121971566129
570.0, 0.02108001788383463
571.0, 0.027401954317585728
572.0, 0.026895439547880148
573.0, 0.02993582884414154
574.0, 0.017627642817794668
575.0, 0.021967118344118068
576.0, 0.03486232665790063
577.0, 0.005204435999444135
578.0, 0.0012908082569925402
579.0, 0.0038550505331415
580.0, 0.00892807205683285
581.0, 0.014802842587010215
582.0, 0.034554046099571585
583.0, 0.023870102346562446
584.0, 0.010518416692606456
585.0, 0.03982879213331214
586.0, 0.029241502051203495
587.0, 0.019774061969498023
588.0, 0.023380735255955694
589.0, 0.049276596416479176
590.0, 0.05186887685565608
591.0, 0.043679765372674234
592.0, 0.035466151571140234
593.0, 0.03221418031380198
594.0, 0.010769613437502382
595.0, 0.011162825544888734
596.0, 0.020771009149890718
597.0, 0.03197797036180158
598.0, 0.033543998473985835
599.0, 0.029327787937206987
600.0, 0.020775625138503638
601.0, 0.014500415917042759
602.0, 0.02993948599753888
603.0, 0.018901857439681907
604.0, 0.01123668458595306
605.0, 0.010880590108604453
606.0, 0.016469303096607442
607.0, 0.030406714451276858
608.0, 0.03109383356947871
609.0, 0.023169854845755407
610.0, 0.01432684237470094
611.0, 0.02680609630369559
612.0, 0.015805786559889397
613.0, 0.0019655321593196576
614.0, 0.0009343743316509894
615.0, 0.003505301426501584
616.0, 0.008985843969323023
617.0, 0.017553640886022376
618.0, 0.02743522549987231
619.0, 0.028237150093774494
620.0, 0.03141103617629408
621.0, 0.029108965972601934
622.0, 0.019489228489386237
623.0, 0.003591970887603291
624.0, 0.031749637891990985
625.0, 0.02922972347864701
626.0, 0.010257518524042743
627.0, 0.018061885658117408
628.0, 0.019876317573053796
629.0, 0.03945452461155123
630.0, 0.04492305941645538
631.0, 0.005214968979543804
632.0, 0.0020726045791944034
633.0, 0.03942505921062544
634.0, 0.05542711300434773
635.0, 0.022800289600851897
636.0, 0.026410059422429955
637.0, 0.01585615007918233
638.0, 0.027698029689325804
639.0, 0.05272979718277104
640.0, 0.012408007867173644
641.0, 0.02800781602304876
642.0, 0.031037109379505358
643.0, 0.028690477969308955
644.0, 0.057760439078709036
645.0, 0.029636950256234328
646.0, 0.026767913484357354
647.0, 0.04168226361281668
648.0, 0.059303411388817256
649.0, 0.03398225266278651
650.0, 0.04967996279135024
651.0, 0.052543175226450065
652.0, 0.020112820180626375
653.0, 0.027298753802614317
654.0, 0.0519821433650617
655.0, 0.05301048113564566
656.0, 0.03874129878064429
657.0, 0.07819131529412228
658.0, 0.028411288979124455
659.0, 0.01758978375744498
660.0, 0.04691981504751635
661.0, 0.08665576975715324
662.0, 0.036731097338039316
663.0, 0.03304682125806002
664.0, 0.04373182778508262
665.0, 0.038070671854471695
666.0, 0.0429384933039428
667.0, 0.02424520558634605
668.0, 0.023187392846681497
669.0, 0.04586405237266477
670.0, 0.030029872679475527
671.0, 0.05751438021556568
672.0, 0.05954429126312047
673.0, 0.04004665880554245
674.0, 0.041234055586454446
675.0, 0.07175677263451102
676.0, 0.07950736651357679
677.0, 0.07062386840409232
678.0, 0.05711864411526685
679.0, 0.05129298794613452
680.0, 0.05717687600074224
681.0, 0.0627835121265799
682.0, 0.05972350466855801
683.0, 0.03947037388880058
684.0, 0.06805686902670043
685.0, 0.09082977786744749
686.0, 0.09218599587212055
687.0, 0.0701112161240354
688.0, 0.0672254300671581
689.0, 0.05698749965740727
690.0, 0.056705355969485935
691.0, 0.08799389435475427
692.0, 0.08156909882298244
693.0, 0.08852786217907176
694.0, 0.06584151040355286
695.0, 0.014874399324642316
696.0, 0.10070846344218135
697.0, 0.08925786297349735
698.0, 0.08130625137466936
699.0, 0.08744383847205787
700.0, 0.06660503981744188
701.0, 0.07598040361112188
702.0, 0.08740184649130957
703.0, 0.09139781889519856
704.0, 0.07977569441682952
705.0, 0.039860862282086976
706.0, 0.051939571402516996
707.0, 0.08804175737736798
708.0, 0.12157491233745699
709.0, 0.09772993784288903
710.0, 0.07249106195983661
711.0, 0.08941381670650461
712.0, 0.11291512026475133
713.0, 0.04987111785134759
714.0, 0.09926485282280315
715.0, 0.10338606316242208
716.0, 0.09154865432185516
717.0, 0.09574673303950201
718.0, 0.056531649406368345
719.0, 0.04963025225790226
720.0, 0.08931821503596782
721.0, 0.14798793241432662
722.0, 0.10412841785519439
723.0, 0.10287108675186127
724.0, 0.10044711039348628
725.0, 0.0883041773368672
726.0, 0.06430948768928338
727.0, 0.08430893462068638
728.0, 0.11337400904786225
729.0, 0.10331040813479203
730.0, 0.04782354997483786
731.0, 0.12006669704743458
732.0, 0.1374323733830823
733.0, 0.11820950127478552
734.0, 0.08814275516227234
735.0, 0.09463549099784602
736.0, 0.09833511669658072
737.0, 0.09229799279736225
738.0, 0.09148917375138844
739.0, 0.10849174160954288
740.0, 0.10876430723449865
741.0, 0.1134979208539508
742.0, 0.10156306170324186
743.0, 0.07785692346118187
744.0, 0.08866574072643535
745.0, 0.09973348960567849
746.0, 0.1209159597980217
747.0, 0.12969763055797126
748.0, 0.09663978617874369
749.0, 0.08034233780974094
750.0, 0.08231339320670732
751.0, 0.09054044980671688
752.0, 0.09873685222014306
753.0, 0.11073999276895975
754.0, 0.08692777972096985
755.0, 0.07922518556131097
756.0, 0.08902547811969964
757.0, 0.10048749888887434
758.0, 0.08414339690238139
759.0, 0.10288351797054826
760.0, 0.11340466031722568
761.0, 0.0940852421244001
762.0, 0.10768208816158857
763.0, 0.09822580330436127
764.0, 0.08902855970152408
765.0, 0.09226491374160277
766.0, 0.11986401785971232
767.0, 0.05649851237264984
768.0, 0.09880321366837488
769.0, 0.13076063853883496
770.0, 0.07361325890731996
771.0, 0.11171631507007136
772.0, 0.11192904746607144
773.0, 0.10986897341597435
774.0, 0.11642609503126249
775.0, 0.13171673310762227
776.0, 0.07345056819944583
777.0, 0.08811035592728401
778.0, 0.11430995474516804
779.0, 0.0982280133962256
780.0, 0.11601870907291156
781.0, 0.11007102500464995
782.0, 0.11567766505467346
783.0, 0.12787027542337134
784.0, 0.10844864361498946
785.0, 0.11890716285696194
786.0, 0.11904001699314387
787.0, 0.11783103262621902
788.0, 0.12281824622875943
789.0, 0.10908632959538206
790.0, 0.1480541761890333
791.0, 0.16090091331844103
792.0, 0.14718334261990823
793.0, 0.16320915653185306
794.0, 0.17151338572769037
795.0, 0.1762200679583519
796.0, 0.18737072192279686
797.0, 0.20988846454451904
798.0, 0.21865447956852518
799.0, 0.2568279588997358
800.0, 0.2570907207324647
801.0, 0.23275653771588836
802.0, 0.251594521780544
803.0, 0.26654798383441036
804.0, 0.2492663990175555
805.0, 0.2426910843697977
806.0, 0.2615090139144229
807.0, 0.1879636745221108
808.0, 0.24869002484093172
809.0, 0.28790165141324775
810.0, 0.2855632482831617
811.0, 0.27439207553496203
812.0, 0.3007481828811932
813.0, 0.33857913918005816
814.0, 0.3738756368585536
815.0, 0.40357668841166394
816.0, 0.45488896714220456
817.0, 0.5028105440943094
818.0, 0.5195892221689767
819.0, 0.5084587293900803
820.0, 0.4843846678826866
821.0, 0.5112746417888212
822.0, 0.44641098032536247
823.0, 0.3856612913982188
824.0, 0.36965807311681464
825.0, 0.3735813507606627
826.0, 0.324284733535799
827.0, 0.29853280311020935
828.0, 0.2928413640132525
829.0, 0.2908749403536844
830.0, 0.2649261254673472
831.0, 0.2950913943901034
832.0, 0.3213596779401376
833.0, 0.32251158085641984
834.0, 0.2993920913915815
835.0, 0.31356104651450706
836.0, 0.3382960257243669
837.0, 0.38352596195078276
838.0, 0.4485848969164489
839.0, 0.4827991102133045
840.0, 0.566162792919112
841.0, 0.6376887090723684
842.0, 0.7076407949274759
843.0, 0.8097752618537387
844.0, 0.837310536522122
845.0, 0.8276197749502303
846.0, 0.8168803049659543
847.0, 0.7966700506623733
848.0, 0.6758672267774257
849.0, 0.5956263547885977
850.0, 0.5236379598099169
851.0, 0.458316680445163
852.0, 0.40345492479130995
853.0, 0.3808436966434549
854.0, 0.33093149838883584
855.0, 0.28527291215874867
856.0, 0.26258003461350404
857.0, 0.27889206613892603
858.0, 0.2851506192875771
859.0, 0.2555256652499919
860.0, 0.21873842150091807
861.0, 0.19669924995151158
862.0, 0.20209980285820592
863.0, 0.22461806080259253
864.0, 0.17664632727816668
865.0, 0.1385519457071906
866.0, 0.1999216209725578
867.0, 0.19063013432375403
868.0, 0.17373684722842986
869.0, 0.17318084908833742
870.0, 0.18528826618971345
871.0, 0.1859092604488145
872.0, 0.1641892491597075
873.0, 0.1793316654071223
874.0, 0.2007747508558136
875.0, 0.2103421572238285
876.0, 0.21931630606231567
877.0, 0.24688780880819264
878.0, 0.2577425477068846
879.0, 0.2795353995634012
880.0, 0.33995645977648614
881.0, 0.36273196428015625
882.0, 0.4197522579623815
883.0, 0.4757194375686552
884.0, 0.5403396788822055
885.0, 0.6504692766130568
886.0, 0.733209685072543
887.0, 0.8017408590639853
888.0, 0.8547481418774948
889.0, 0.9044465912780226
890.0, 0.9926768855734796
891.0, 0.9114304100517359
892.0, 0.8205463852638895
893.0, 0.7364876265123023
894.0, 0.6567477046685385
895.0, 0.5625316550635568
896.0, 0.4885936368578824
897.0, 0.4125550440791847
898.0, 0.3484502723730638
899.0, 0.32227275425595664
900.0, 0.313682505667982
901.0, 0.2887766494200945
902.0, 0.2477710688212324
903.0, 0.20636412385483136
904.0, 0.20026252406871453
905.0, 0.2027918247266051
906.0, 0.17660395188537148
907.0, 0.15336272320262515
908.0, 0.15224462420571044
909.0, 0.16032558674941177
910.0, 0.14383507594960734
911.0, 0.12240084182208162
912.0, 0.11104005613592115
913.0, 0.1207448403043096
914.0, 0.14345073200301617
915.0, 0.1177386801516232
916.0, 0.13752892894795785
917.0, 0.1606496116064359
918.0, 0.09696457529704187
919.0, 0.0839674015590921
920.0, 0.11477386584761223
921.0, 0.11923209862872411
922.0, 0.09527774277361929
923.0, 0.10111757655058608
924.0, 0.1025382601335761
925.0, 0.10798707272431425
926.0, 0.1106522675070463
927.0, 0.10858557365413504
928.0, 0.10947052125918288
929.0, 0.09194968571088878
930.0, 0.07349921417459125
931.0, 0.07320249173293245
932.0, 0.09915707499473521
933.0, 0.11885628477679433
934.0, 0.08312928907576213
935.0, 0.06929586582397847
936.0, 0.08542517194001065
937.0, 0.1135726202752047
938.0, 0.05467338957490381
939.0, 0.07015723336879541
940.0, 0.07651282898656751
941.0, 0.06420533189998356
942.0, 0.05642870708302282
943.0, 0.07560590326196015
944.0, 0.07869735966823532
945.0, 0.061258871935834784
946.0, 0.04159928840684099
947.0, 0.060344018094587164
948.0, 0.0984881084456412
949.0, 0.07973955753485341
950.0, 0.0528430854390406
951.0, 0.04592937783913561
952.0, 0.05933417630813415
953.0, 0.07484138951095692
954.0, 0.06821999050735063
955.0, 0.04092626605874168
956.0, 0.013862084097692975
957.0, 0.05673452910344849
958.0, 0.05806965208014073
959.0, 0.048695203712354744
960.0, 0.041378645797583304
961.0, 0.0445386666072508
962.0, 0.05942629991503566
963.0, 0.0416241619144908
964.0, 0.0325660611586683
965.0, 0.040252432465731014
966.0, 0.059321071802481445
967.0, 0.04549973941417364
968.0, 0.04444551911832091
969.0, 0.04129228445931054
970.0, 0.03753733875462211
971.0, 0.0393766117495243
972.0, 0.04632994321764789
973.0, 0.0333973906678409
974.0, 0.046091942282385445
975.0, 0.05930602649541346
976.0, 0.022386258081457607
977.0, 0.0725632908933721
978.0, 0.06608068796623141
979.0, 0.042497284646236144
980.0, 0.03304744293952219
981.0, 0.06401650312871757
982.0, 0.05092390592321144
983.0, 0.041834342918099426
984.0, 0.06680216211779555
985.0, 0.08778478668163284
986.0, 0.004957973386395035
987.0, 0.04953672731904418
988.0, 0.06826812910453085
989.0, 0.05941949564303666
990.0, 0.046623026496095954
991.0, 0.0837920449418476
992.0, 0.056062003707281594
993.0, 0.05756396283598863
994.0, 0.06956729677718826
995.0, 0.07354456423924675
996.0, 0.05227988924768723
997.0, 0.07033820475488883
998.0, 0.07172853010131908
999.0, 0.06897948468534394
1000.0, 0.0636758270003427
1001.0, 0.035382013224201016
1002.0, 0.08098933926406139
1003.0, 0.06474124907569392
1004.0, 0.05497461122745938
1005.0, 0.07342097025098954
1006.0, 0.040227473255714845
1007.0, 0.04612022612415376
1008.0, 0.05640370851286189
1009.0, 0.05893072745139434
1010.0, 0.054255249085580305
1011.0, 0.06503075091094103
1012.0, 0.05870342496107474
1013.0, 0.05227049995774567
1014.0, 0.053032237608514304
1015.0, 0.05908304253304369
1016.0, 0.05109246040725514
1017.0, 0.04453402789020575
1018.0, 0.0551046716977474
1019.0, 0.06318526720555882
1020.0, 0.053282459766476845
1021.0, 0.021756788289442514
1022.0, 0.04028754995949671
1023.0, 0.06343061016021855
1024.0, 0.05716766359401866
1025.0, 0.031201495323205073
1026.0, 0.08142057738613645
1027.0, 0.046656081119825873
1028.0, 0.0541675043478635
1029.0, 0.06132605938673037
1030.0, 0.051421985985939445
1031.0, 0.07799862007028893
1032.0, 0.062352983563760504
1033.0, 0.04164433989052788
1034.0, 0.04015527114798847
1035.0, 0.061664502552874756
1036.0, 0.07748806707324957
1037.0, 0.060456556388063666
1038.0, 0.044563874355656265
1039.0, 0.04820258907228783
1040.0, 0.06704566504552342
1041.0, 0.06441886489888003
1042.0, 0.09210744153404787
1043.0, 0.05649107479307457
1044.0, 0.03831540404960693
1045.0, 0.06496415148021942
1046.0, 0.09064211200860407
1047.0, 0.053234653525293066
1048.0, 0.04497323302016625
1049.0, 0.042970454898975025
1050.0, 0.04578734209304504
1051.0, 0.07474361302134896
1052.0, 0.04030478600601019
1053.0, 0.08166583440744636
1054.0, 0.09115625990028842
1055.0, 0.0609133839603868
1056.0, 0.06262143799925149
1057.0, 0.04994159198807321
1058.0, 0.05665766534287526
1059.0, 0.06231214028325731
1060.0, 0.06362348346518187
1061.0, 0.06649500106137178
1062.0, 0.05108578103497291
1063.0, 0.052183365769071094
1064.0, 0.05151702228370113
1065.0, 0.045950780427485426
1066.0, 0.03960526934848549
1067.0, 0.03852550327609
1068.0, 0.017599222446536514
1069.0, 0.03894950282352669
1070.0, 0.05261922696709001
1071.0, 0.003091672660340366
1072.0, 0.015882899564705115
1073.0, 0.04577419640422248
1074.0, 0.03708523559893925
1075.0, 0.01530962710093662
1076.0, 0.015395979297662355
1077.0, 0.039035212279522585
1078.0, 0.027173829181731245
1079.0, 0.019523911589836802
1080.0, 0.025382760285602234
1081.0, 0.036417775515571765
1082.0, 0.012531784755868393
1083.0, 0.015782394502986182
1084.0, 0.011217449112275062
1085.0, 0.02582141106486023
1086.0, 0.049210042310957505
1087.0, 0.007833413634643505
1088.0, 0.017696752816340363
1089.0, 0.012798033689914556
1090.0, 0.006706131185358366
1091.0, 0.008019455091991281
1092.0, 0.017764517237936643
1093.0, 0.00952651476393757
1094.0, 0.004586633439033614
1095.0, 0.003126315594023715
1096.0, 0.011046971972034657
1097.0, 0.03272614591576546
1098.0, 0.0238276529903456
1099.0, 0.019542976918964942
1100.0, 0.013337729513437086
1101.0, 0.009201729493771514
1102.0, 0.0136505925377036
1103.0, 0.028437807141504755
1104.0, 0.009874131755810669
1105.0, 0.004766394927849523
1106.0, 0.006289815926491728
1107.0, 0.008494551818128802
1108.0, 0.035267851640594663
1109.0, 0.009808464439441516
1110.0, 0.028145649372863072
1111.0, 0.033494143288268975
1112.0, 0.008183810834621634
1113.0, 0.008647014980696763
1114.0, 0.014810561120048023
1115.0, 0.009768807245319845
1116.0, 0.005159048518948351
1117.0, 0.0059436162906326626
1118.0, 0.010910566119559791
1119.0, 0.015439706177957174
1120.0, 0.009282965768386843
1121.0, 0.014080246126081232
1122.0, 0.02216471726739251
1123.0, 0.022298533821146382
1124.0, 0.05236429022310311
1125.0, 0.022804015111054853
1126.0, 0.018371381136429107
1127.0, 0.021263556695936162
1128.0, 0.013773591013914396
1129.0, 0.030018157816895985
1130.0, 0.017619824401884567
1131.0, 0.024775292406500005
1132.0, 0.02981773233455973
1133.0, 0.025366297291464713
1134.0, 0.027145171808582825
1135.0, 0.008073359733784341
1136.0, 0.009514586251927332
1137.0, 0.027409002866072184
1138.0, 0.03766123557935673
1139.0, 0.015094635882175243
1140.0, 0.01811373067512504
1141.0, 0.006294564911091107
1142.0, 0.006509575103075746
1143.0, 0.011906802910041862
1144.0, 0.012081704753596312
1145.0, 0.014564675730052266
1146.0, 0.016008170456720185
1147.0, 0.02145306141913698
1148.0, 0.020273712952723955
1149.0, 0.010880425139297626
1150.0, 0.005733834897564349
1151.0, 0.005603595668788364
1152.0, 0.00892333950123674
1153.0, 0.01313432962895465
1154.0, 0.013943745953872627
1155.0, 0.008684484611085987
1156.0, 0.014292350729287298
1157.0, 0.02274541958987393
1158.0, 0.017677067872709916
1159.0, 0.007838362532290666
1160.0, 0.008164285691576735
1161.0, 0.032848705083383445
1162.0, 0.03280933946065473
1163.0, 0.019855199340035674
1164.0, 0.013864905853791501
1165.0, 0.017356871074960437
1166.0, 0.013823384262085493
1167.0, 0.02124839751929576
1168.0, 0.01473612367390121
1169.0, 0.020832095389982985
1170.0, 0.03213128258080494
1171.0, 0.031181609482898453
1172.0, 0.028530200267283305
1173.0, 0.013109152373133119
1174.0, 0.015138757638178216
1175.0, 0.015961776115208524
1176.0, 0.010793747604798317
1177.0, 0.03175347705478794
1178.0, 0.028925790787368406
1179.0, 0.011488979621986202
1180.0, 0.014960363144117007
1181.0, 0.02913180895716723
1182.0, 0.02065625205770552
1183.0, 0.025718346179755384
1184.0, 0.03790542075804227
1185.0, 0.03690752836035277
1186.0, 0.035876960273398054
1187.0, 0.04317732042091717
1188.0, 0.03688478030284748
1189.0, 0.044200114650749
1190.0, 0.044078695592155104
1191.0, 0.042083151993804926
1192.0, 0.03912853768830127
1193.0, 0.033495815036882884
1194.0, 0.05162365041979693
1195.0, 0.029417023284409566
1196.0, 0.030287798914273762
1197.0, 0.037913903467117115
1198.0, 0.034204932674505736
1199.0, 0.06095470142327432
1200.0, 0.049587508721639445
1201.0, 0.045608833283657814
1202.0, 0.04624324653703833
1203.0, 0.05414579084968316
1204.0, 0.07232096783963157
1205.0, 0.014910903199084249
1206.0, 0.03011869558472772
1207.0, 0.0450677100292439
1208.0, 0.04977463614092884
1209.0, 0.04616024211743734
1210.0, 0.015590886518434297
1211.0, 0.025814516892237606
1212.0, 0.03517783466385016
1213.0, 0.03945675053395855
1214.0, 0.04127804211978908
1215.0, 0.04519174290244198
1216.0, 0.032273377542801525
1217.0, 0.03140730978434117
1218.0, 0.03152186605479016
1219.0, 0.032045928157474625
1220.0, 0.03362555651422039
1221.0, 0.033407473107118876
1222.0, 0.03556598432824228
1223.0, 0.039580463708230956
1224.0, 0.028875893116390952
1225.0, 0.021147560406848308
1226.0, 0.04748782653940988
1227.0, 0.06299247183671372
1228.0, 0.05371262499142568
1229.0, 0.03759107110477785
1230.0, 0.03612550128113504
1231.0, 0.052020881125418736
1232.0, 0.056163999320999275
1233.0, 0.04863977586184234
1234.0, 0.0454703286674932
1235.0, 0.04712329781877193
1236.0, 0.05040384200322293
1237.0, 0.05061757944797342
1238.0, 0.04427846071019938
1239.0, 0.07254077523093687
1240.0, 0.057951185782254104
1241.0, 0.0410542840378408
1242.0, 0.04859016002558918
1243.0, 0.07139823278023276
1244.0, 0.05967247078143197
1245.0, 0.04588403614670145
1246.0, 0.039653766167868545
1247.0, 0.04382946882759148
1248.0, 0.053877299036552084
1249.0, 0.054226088810368105
1250.0, 0.022235125469332147
1251.0, 0.03704897366004085
1252.0, 0.046150648540253136
1253.0, 0.036908855839746284
1254.0, 0.02966286280695895
1255.0, 0.05365528240106183
1256.0, 0.047259682997999326
1257.0, 0.035619196514817736
1258.0, 0.01868236576433065
1259.0, 0.015566144088725677
1260.0, 0.06270112185667773
1261.0, 0.03758615229307694
1262.0, 0.017284131655471963
1263.0, 0.018333250105470007
1264.0, 0.025066751853779826
1265.0, 0.02551625606445454
1266.0, 0.04225808045697679
1267.0, 0.039406468577924875
1268.0, 0.034334836774691575
1269.0, 0.028907797305223516
1270.0, 0.03179478678576711
1271.0, 0.043555237768462214
1272.0, 0.00963262814077706
1273.0, 0.03577090855721351
1274.0, 0.026311546359857663
1275.0, 0.025500579777080076
1276.0, 0.03703959985446088
1277.0, 0.016848632408975217
1278.0, 0.03858068563752231
1279.0, 0.02776620397886758
1280.0, 0.036196429467277164
1281.0, 0.039984611783829255
1282.0, 0.02674191629345405
1283.0, 0.032176115460899234
1284.0, 0.035152375886755086
1285.0, 0.03247447106623732
1286.0, 0.027450343675817925
1287.0, 0.023126688347443993
1288.0, 0.019661775703807068
1289.0, 0.010293795264896793
1290.0, 0.029290664651634348
1291.0, 0.020786431165060706
1292.0, 0.021349641954444446
1293.0, 0.031110730823845544
1294.0, 0.028743348381770176
1295.0, 0.014485024743921947
1296.0, 0.024022697370642197
1297.0, 0.027779806123104524
1298.0, 0.017661271561195426
1299.0, 0.011359958649760606
1300.0, 0.033911460737724
1301.0, 0.01688476653200028
1302.0, 0.013379273792733525
1303.0, 0.015968403549693533
1304.0, 0.020411223227013057
1305.0, 0.021709068260491845
1306.0, 0.015126556610611965
1307.0, 0.011959658935212709
1308.0, 0.03139426757868136
1309.0, 0.032911415356495104
1310.0, 0.02387684209278188
1311.0, 0.02367407054744945
1312.0, 0.04483670364681539
1313.0, 0.011194062769748945
1314.0, 0.02751386454641403
1315.0, 0.02542121601284279
1316.0, 0.023320097600279067
1317.0, 0.038367655778832534
1318.0, 0.01801697780466083
1319.0, 0.034798728104591836
1320.0, 0.022363834863837292
1321.0, 0.032889690985634316
1322.0, 0.04572358756570894
1323.0, 0.029208653623578624
1324.0, 0.01580706896385055
1325.0, 0.033853508786516995
1326.0, 0.024670578752019993
1327.0, 0.03026704033362525
1328.0, 0.039479090243674846
1329.0, 0.024931482726131785
1330.0, 0.011143394624070858
1331.0, 0.013466507185522164
1332.0, 0.03201025550756189
1333.0, 0.040047396874338004
1334.0, 0.03174863364426016
1335.0, 0.02004583564089052
1336.0, 0.029278872340563922
1337.0, 0.039295208456293654
1338.0, 0.040375177007327546
1339.0, 0.03985969543966319
1340.0, 0.040586194285783535
1341.0, 0.043394716833221963
1342.0, 0.05969923049066764
1343.0, 0.055150396795543025
1344.0, 0.04789301508584506
1345.0, 0.04507810232267681
1346.0, 0.04550802980742536
1347.0, 0.04543781398460274
1348.0, 0.055717525529701446
1349.0, 0.07033502293490387
1350.0, 0.06864080910891883
1351.0, 0.04753209882638984
1352.0, 0.03671403354008296
1353.0, 0.06699538965587858
1354.0, 0.07449665960161038
1355.0, 0.06620489423857072
1356.0, 0.06946088598100593
1357.0, 0.05553936135182321
1358.0, 0.04756289454486769
1359.0, 0.08414257804134108
1360.0, 0.08308314911208499
1361.0, 0.07750243404747227
1362.0, 0.0758775006295663
1363.0, 0.07340249226209442
1364.0, 0.06946558413772243
1365.0, 0.06955632302569162
1366.0, 0.08721983448139661
1367.0, 0.06581770420433139
1368.0, 0.06325061872205123
1369.0, 0.070462398884338
1370.0, 0.07463041351571477
1371.0, 0.06697679743331035
1372.0, 0.0467997916577211
1373.0, 0.06633862791034977
1374.0, 0.05809208258870002
1375.0, 0.055268836040327195
1376.0, 0.06727483984257912
1377.0, 0.07934886657441072
1378.0, 0.06317110554352363
1379.0, 0.04703296407386375
1380.0, 0.046309460997376685
1381.0, 0.05670986085659814
1382.0, 0.06734997036252532
1383.0, 0.0689912868639261
1384.0, 0.06335338694360593
1385.0, 0.07239357210602788
1386.0, 0.07053964083264307
1387.0, 0.0691616746414648
1388.0, 0.06423778886137127
1389.0, 0.0594743602919299
1390.0, 0.08311612875576384
1391.0, 0.06080801078185484
1392.0, 0.06114889596663694
1393.0, 0.06358788387453113
1394.0, 0.05795631977478857
1395.0, 0.0542525706163981
1396.0, 0.07902399104544072
1397.0, 0.05348026782150895
1398.0, 0.05350917142879191
1399.0, 0.04780595275244992
1400.0, 0.056343524876845415
1401.0, 0.06834744718891254
1402.0, 0.040444063241805175
1403.0, 0.07074261225590872
1404.0, 0.06357507194167393
1405.0, 0.05722731227399079
1406.0, 0.05035267177616181
1407.0, 0.0471510954194364
1408.0, 0.055539132466833285
1409.0, 0.05245340302075764
1410.0, 0.0614447995103932
1411.0, 0.06277928487960109
1412.0, 0.06124524803675737
1413.0, 0.06581119421124593
1414.0, 0.0720038111469476
1415.0, 0.03470241095073311
1416.0, 0.05825492902806155
1417.0, 0.058800580982076835
1418.0, 0.06373987368844986
1419.0, 0.05924769736029859
1420.0, 0.04545916956980489
1421.0, 0.08054417658785362
1422.0, 0.04966043136854432
1423.0, 0.06054851757444
1424.0, 0.05794206156294076
1425.0, 0.05474477076654724
1426.0, 0.0633075612415368
1427.0, 0.06774636767236338
1428.0, 0.05053318056641118
1429.0, 0.05184908493007969
1430.0, 0.06156137448647024
1431.0, 0.061574403314052964
1432.0, 0.053472955244007254
1433.0, 0.052099457734576846
1434.0, 0.05139559995943532
1435.0, 0.05585378071373082
1436.0, 0.04996323724188002
1437.0, 0.06360738233644259
1438.0, 0.08214064995108886
1439.0, 0.07969634016375471
1440.0, 0.06561090973735406
1441.0, 0.05249286980380564
1442.0, 0.06646546895020847
1443.0, 0.06989076951140828
1444.0, 0.06413208028829843
1445.0, 0.0641916467466806
1446.0, 0.07742260390486261
1447.0, 0.05346935393362098
1448.0, 0.05507753451097774
1449.0, 0.055179192889486375
1450.0, 0.0647785169542422
1451.0, 0.06039355140746221
1452.0, 0.0278426018476815
1453.0, 0.09049295755193545
1454.0, 0.06940570062386553
1455.0, 0.06155126117888523
1456.0, 0.07677163499132858
1457.0, 0.0707995567514287
1458.0, 0.0344482486070618
1459.0, 0.05107834373906387
1460.0, 0.06355299523154462
1461.0, 0.04523985087950285
1462.0, 0.06574271884271715
1463.0, 0.06803229502042091
1464.0, 0.04089584724682087
1465.0, 0.038089484121953274
1466.0, 0.06282869264174581
1467.0, 0.029852524034297077
1468.0, 0.04916534492535666
1469.0, 0.04991100294508229
1470.0, 0.03417992003335299
1471.0, 0.036593488725989415
1472.0, 0.055342659629811095
1473.0, 0.05127079221327956
1474.0, 0.028297872962106667
1475.0, 0.043232587529669526
1476.0, 0.05134154955201563
1477.0, 0.03265722602524442
1478.0, 0.021631906364366644
1479.0, 0.042890246719091356
1480.0, 0.023959320152004696
1481.0, 0.015644396401413536
1482.0, 0.03364398275972679
1483.0, 0.03661723313574107
1484.0, 0.009112533055196903
1485.0, 0.03342764026058159
1486.0, 0.014542413023702032
1487.0, 0.01316120816702172
1488.0, 0.011045096015735962
1489.0, 0.03659151673155031
1490.0, 0.053943669698910096
1491.0, 0.002252245653725312
1492.0, 0.0071174918444426895
1493.0, 0.0021663323171156037
1494.0, 0.021393382339184256
1495.0, 0.017258985273854492
1496.0, 0.0022952906366136483
1497, 0.0
1498, 0.0
1499, 0.0
1500, 0.0
1501, 0.0
1502, 0.0
1503, 0.0
1504, 0.0
1505, 0.0
1506, 0.0
1507, 0.0
1508, 0.0
1509, 0.0
1510, 0.0
1511, 0.0
1512, 0.0
1513, 0.0
1514, 0.0
1515, 0.0
1516, 0.0
1517, 0.0
1518, 0.0
1519, 0.0
1520, 0.0
1521, 0.0
1522, 0.0
1523, 0.0
1524, 0.0
1525, 0.0
1526, 0.0
1527, 0.0
1528, 0.0
1529, 0.0
1530, 0.0
1531, 0.0
1532, 0.0
1533, 0.0
1534, 0.0
1535, 0.0
1536, 0.0
1537, 0.0
1538, 0.0
1539, 0.0
1540, 0.0
1541, 0.0
1542, 0.0
1543, 0.0
1544, 0.0
1545, 0.0
1546, 0.0
1547, 0.0
1548, 0.0
1549, 0.0
1550, 0.0
1551, 0.0
1552, 0.0
1553, 0.0
1554, 0.0
1555, 0.0
1556, 0.0
1557, 0.0
1558, 0.0
1559, 0.0
1560, 0.0
1561, 0.0
1562, 0.0
1563, 0.0
1564, 0.0
1565, 0.0
1566, 0.0
1567, 0.0
1568, 0.0
1569, 0.0
1570, 0.0
1571, 0.0
1572, 0.0
1573, 0.0
1574, 0.0
1575, 0.0
1576, 0.0
1577, 0.0
1578, 0.0
1579, 0.0
1580, 0.0
1581, 0.0
1582, 0.0
1583, 0.0
1584, 0.0
1585, 0.0
1586, 0.0
1587, 0.0
1588, 0.0
1589, 0.0
1590, 0.0
1591, 0.0
1592, 0.0
1593, 0.0
1594, 0.0
1595, 0.0
1596, 0.0
1597, 0.0
1598, 0.0
1599, 0.0
