30, 0.0
31, 0.0
32, 0.0
33, 0.0
34, 0.0
35, 0.0
36, 0.0
37, 0.0
38, 0.0
39, 0.0
40, 0.0
41, 0.0
42, 0.0
43, 0.0
44, 0.0
45, 0.0
46, 0.0
47, 0.0
48, 0.0
49, 0.0
50, 0.0
51, 0.0
52, 0.0
53, 0.0
54, 0.0
55, 0.0
56, 0.0
57, 0.0
58, 0.0
59, 0.0
60, 0.0
61, 0.0
62, 0.0
63, 0.0
64, 0.0
65, 0.0
66, 0.0
67, 0.0
68, 0.0
69, 0.0
70, 0.0
71, 0.0
72, 0.0
73, 0.0
74, 0.0
75, 0.0
76, 0.0
77, 0.0
78, 0.0
79, 0.0
80, 0.0
81, 0.0
82, 0.0
83, 0.0
84, 0.0
85, 0.0
86, 0.0
87, 0.0
88, 0.0
89, 0.0
90, 0.0
91, 0.0
92, 0.0
93, 0.0
94, 0.0
95, 0.0
96, 0.0
97, 0.0
98, 0.0
99, 0.0
100, 0.0
101, 0.0
102, 0.0
103, 0.0
104, 0.0
105, 0.0
106, 0.0
107, 0.0
108, 0.0
109, 0.0
110, 0.0
111, 0.0
112, 0.0
113, 0.0
114, 0.0
115, 0.0
116, 0.0
117, 0.0
118, 0.0
119, 0.0
120, 0.0
121, 0.0
122, 0.0
123, 0.0
124, 0.0
125, 0.0
126, 0.0
127, 0.0
128, 0.0
129, 0.0
130, 0.0
131, 0.0
132, 0.0
133, 0.0
134, 0.0
135, 0.0
136, 0.0
137, 0.0
138, 0.0
139, 0.0
140, 0.0
141, 0.0
142, 0.0
143, 0.0
144, 0.0
145, 0.0
146, 0.0
147, 0.0
148, 0.0
149, 0.0
150, 0.0
151, 0.0
152, 0.0
153, 0.0
154, 0.0
155, 0.0
156, 0.0
157, 0.0
158, 0.0
159.0, 0.0011087503471005284
160.0, 0.0034495582618223703
161.0, 0.005001530249197737
162.0, 0.0053138160145058426
163.0, 0.004919967088783051
164.0, 0.002525048189577619
165.0, 0.0005399043685205109
166.0, 0.0005410255501162632
167.0, 0.0012023012507472294
168.0, 0.0012591277459251525
169.0, 0.00017665812608479075
170.0, 0.002239582516764348
171.0, 0.004939607060879781
172.0, 0.006630290166023467
173.0, 0.008997325283537121
174.0, 0.011844427558422204
175.0, 0.014464358191699962
176.0, 0.016099349008820513
177.0, 0.01691124984688678
178.0, 0.017489771030025723
179.0, 0.017266880925251814
180.0, 0.016657812007548473
181.0, 0.017300575190912066
182.0, 0.019411778604128634
183.0, 0.021587347052055457
184.0, 0.02336038352844445
185.0, 0.026404028173433333
186.0, 0.028939395675450456
187.0, 0.03159838865218282
188.0, 0.03455541747979054
189.0, 0.037205580080388774
190.0, 0.03940297656585348
191.0, 0.04196484300368486
192.0, 0.04453926922201913
193.0, 0.04635081747257579
194.0, 0.047415390231341746
195.0, 0.04809310960560081
196.0, 0.048558716175788746
197.0, 0.0489928668980571
198.0, 0.049581006006895835
199.0, 0.049335598967991744
200.0, 0.05050984384133916
201.0, 0.052032358007695054
202.0, 0.052025866973958876
203.0, 0.053457932375234184
204.0, 0.054605857383374506
205.0, 0.05607279382041992
206.0, 0.05823906947095993
207.0, 0.05981301337199813
208.0, 0.06251765577418807
209.0, 0.06423613294687087
210.0, 0.06442492386309807
211.0, 0.06409549007318488
212.0, 0.0645926661634446
213.0, 0.06447508256862608
214.0, 0.06362642702239074
215.0, 0.062150109544415834
216.0, 0.05943866288804244
217.0, 0.05676581537063477
218.0, 0.05314528910369682
219.0, 0.0485808295375162
220.0, 0.04491435452179953
221.0, 0.042183338991350475
222.0, 0.03873131233830601
223.0, 0.03518006177959487
224.0, 0.03259375709424736
225.0, 0.030850309311871615
226.0, 0.028770063307415793
227.0, 0.026958033495610663
228.0, 0.025513209996452048
229.0, 0.02397605536798175
230.0, 0.022449366895426818
231.0, 0.02222106965040002
232.0, 0.022502702234778175
233.0, 0.022381623311196332
234.0, 0.02280790443252405
235.0, 0.026198375327486256
236.0, 0.029662843086397755
237.0, 0.03197459539099393
238.0, 0.034241621634314386
239.0, 0.03583939947328432
240.0, 0.03681278822457648
241.0, 0.03565945464537835
242.0, 0.03145974320923992
243.0, 0.02691350955806713
244.0, 0.02339820574432005
245.0, 0.02033144999467482
246.0, 0.017502558554896082
247.0, 0.015461953279971324
248.0, 0.014448796023200207
249.0, 0.01405159000842243
250.0, 0.012983131172157263
251.0, 0.01122802631076125
252.0, 0.011726483995592417
253.0, 0.012136565824002911
254.0, 0.01201441311953753
255.0, 0.01155840646494612
256.0, 0.011270473153148455
257.0, 0.011900765689354121
258.0, 0.013664667937621605
259.0, 0.015042579135192548
260.0, 0.015122980665295159
261.0, 0.014832809545246978
262.0, 0.01611358550330219
263.0, 0.017181300797464202
264.0, 0.01875032862900029
265.0, 0.022289973206067386
266.0, 0.023865772297313827
267.0, 0.025920633393179265
268.0, 0.028568918700677674
269.0, 0.03168095131229985
270.0, 0.03558082434212309
271.0, 0.040342889862409664
272.0, 0.04497487864482764
273.0, 0.04976109118618818
274.0, 0.05584027153282709
275.0, 0.06416577699035439
276.0, 0.07297604831224315
277.0, 0.08304388576350068
278.0, 0.09497727386791531
279.0, 0.10852978171833737
280.0, 0.1209295289886481
281.0, 0.13819236563901793
282.0, 0.1572608170409784
283.0, 0.1758748259707889
284.0, 0.19746235675242588
285.0, 0.22238227722039206
286.0, 0.25050598768117616
287.0, 0.2813531158692216
288.0, 0.3150138890999654
289.0, 0.3535661157643263
290.0, 0.39682226889169286
291.0, 0.44272738975968695
292.0, 0.49185930238047143
293.0, 0.5460324030589871
294.0, 0.6005826460114153
295.0, 0.6564887105021293
296.0, 0.7137657635450122
297.0, 0.7716537254481015
298.0, 0.8287881057875172
299.0, 0.8819848048075154
300.0, 0.9289902120626841
301.0, 0.967413070466261
302.0, 0.9932834719500792
303.0, 0.9999895617096527
304.0, 0.9911878918408946
305.0, 0.9627852811274268
306.0, 0.914075856305973
307.0, 0.8491464926273132
308.0, 0.7730043126177538
309.0, 0.6900153309136089
310.0, 0.6075866697887791
311.0, 0.5308407385841147
312.0, 0.46021517984556504
313.0, 0.39652343939122636
314.0, 0.3425941227705315
315.0, 0.29733891783153377
316.0, 0.25890977406980203
317.0, 0.22552117368637103
318.0, 0.19991372127641047
319.0, 0.1773767102048373
320.0, 0.156204537127851
321.0, 0.13738001113708917
322.0, 0.12134557639283258
323.0, 0.11106027164299269
324.0, 0.10087246469435132
325.0, 0.08970392271733997
326.0, 0.08187598993813372
327.0, 0.07434676025201442
328.0, 0.0665969107294363
329.0, 0.06018400975713423
330.0, 0.055464321171472986
331.0, 0.050362939499270315
332.0, 0.04506042032324064
333.0, 0.04125749534803867
334.0, 0.03771181282794075
335.0, 0.033169880203245995
336.0, 0.030487075934027125
337.0, 0.028596687351240938
338.0, 0.02599378387611115
339.0, 0.023310767977067097
340.0, 0.021780130514039
341.0, 0.019457309764546363
342.0, 0.01715172267734067
343.0, 0.01572969422729184
344.0, 0.014628472153657819
345.0, 0.01284483819089313
346.0, 0.011535850563507834
347.0, 0.009648834807591695
348.0, 0.0083046449102466
349.0, 0.007697786245984825
350.0, 0.0065120584175472765
351.0, 0.005650966582557547
352.0, 0.004370092933785158
353.0, 0.003354262225112975
354.0, 0.002910605818519579
355.0, 0.002083387222289854
356.0, 0.0013717975714939927
357.0, 0.00016741050676143818
358.0, 0.00037428897804551824
359.0, 8.578756380237046e-05
360.0, 0.0012302857120452585
361.0, 0.0015851989753209457
362.0, 0.001931897376631961
363.0, 0.0020695263503577232
364.0, 0.0019422464811278833
365.0, 0.0029917145996989193
366.0, 0.0030711921982698657
367.0, 0.002375509090047935
368.0, 0.0014045802896687277
369.0, 0.0007205755668841696
370.0, 0.0017523785203694383
371.0, 0.0024735468396355543
372.0, 0.002498200594899465
373.0, 0.002200091930348598
374.0, 0.0020431022442048263
375.0, 0.0015000794124413908
376.0, 0.0017551360243438902
377.0, 0.001845197867196211
378.0, 0.0017896680466791199
379.0, 0.0025889680978215487
380.0, 0.003298823003720555
381.0, 0.002692014430362746
382.0, 0.0009120718089187084
383.0, 0.00046445193997750886
384.0, 0.00015106442122470625
385.0, 0.0009986246030951635
386.0, 0.00025645656264771397
387.0, 0.0011089996525210657
388.0, 0.0009401961416050868
389.0, 0.0012420467059818415
390.0, 0.0014370870107804235
391.0, 0.0017543860054840441
392.0, 0.0027068575434967654
393.0, 0.003734742840716105
394.0, 0.0037113885386372905
395.0, 0.003389173593930424
396.0, 0.004184113268598118
397.0, 0.005047711537681931
398.0, 0.005618585092092293
399.0, 0.006694640801875836
400.0, 0.006325540443988875
401.0, 0.0070139266322679595
402.0, 0.008442759684631594
403.0, 0.009315619021768123
404.0, 0.008439213663626847
405.0, 0.008358553024379201
406.0, 0.009192960221901043
407.0, 0.009827553745293736
408.0, 0.009994774419597072
409.0, 0.010698668801579103
410.0, 0.011467729643379084
411.0, 0.011710324637581747
412.0, 0.012209990276820267
413.0, 0.013182254027510002
414.0, 0.013760261015039797
415.0, 0.012979149331430776
416.0, 0.012836371085180757
417.0, 0.012865016345259809
418.0, 0.013032222992666875
419.0, 0.01406229657634405
420.0, 0.013796509177381863
421.0, 0.014052197557163216
422.0, 0.014353326491407496
423.0, 0.01385326227371634
424.0, 0.01292976818161433
425.0, 0.013955906521394645
426.0, 0.013930672726368555
427.0, 0.014183678728909318
428.0, 0.01474405785522998
429.0, 0.014344629995524634
430.0, 0.0141623915911636
431.0, 0.014181888184002806
432.0, 0.01367232271409007
433.0, 0.013034488949679289
434.0, 0.012983508906096472
435.0, 0.012076244808883002
436.0, 0.012140908019894911
437.0, 0.011844090254785972
438.0, 0.011281418357208991
439.0, 0.011227621835181766
440.0, 0.009972610926364913
441.0, 0.00922067932933511
442.0, 0.009393260470380606
443.0, 0.009744188154318234
444.0, 0.009335133346460888
445.0, 0.007545830938813996
446.0, 0.00805827204912585
447.0, 0.008200459361924779
448.0, 0.007846975606411321
449.0, 0.0080186836599545
450.0, 0.008250297810466009
451.0, 0.007148558740262665
452.0, 0.006994806041437159
453.0, 0.006844685397034929
454.0, 0.005823406021123762
455.0, 0.005425248830636638
456.0, 0.006476509322134358
457.0, 0.0059205347072029645
458.0, 0.004437832928271227
459.0, 0.003956726308106773
460.0, 0.004975121491788989
461.0, 0.005067465750148812
462.0, 0.005329885975916154
463.0, 0.004477315178002391
464.0, 0.0037466855689907157
465.0, 0.005167725706245071
466.0, 0.004519154785759877
467.0, 0.004631948369572069
468.0, 0.004192421210631506
469.0, 0.003701419865700303
470.0, 0.004455939905947035
471.0, 0.003934978334101189
472.0, 0.0033244895687507474
473.0, 0.003319584748154575
474.0, 0.00362545452222896
475.0, 0.0037729210240567126
476.0, 0.004031918070831138
477.0, 0.0038606027845717586
478.0, 0.003303503668343492
479.0, 0.003040349848957279
480.0, 0.003231171410853046
481.0, 0.003322758132723028
482.0, 0.004059073915055045
483.0, 0.00449053894479012
484.0, 0.0037701529128828007
485.0, 0.003091964902501129
486.0, 0.004258040462014852
487.0, 0.003991694219997477
488.0, 0.0037067573704374223
489.0, 0.004036114101051422
490.0, 0.004352139826185369
491.0, 0.0039021815494360355
492.0, 0.003442914336635218
493.0, 0.004439762211283821
494.0, 0.004402875156279621
495.0, 0.0038235338978661617
496.0, 0.003929230207899473
497.0, 0.004130309484880377
498.0, 0.0034082848507202587
499.0, 0.003511835974370018
500.0, 0.0040627559163114516
501.0, 0.004167967336258689
502.0, 0.00364563691190141
503.0, 0.0028724447128361864
504.0, 0.003101502115112182
505.0, 0.0024469734691164664
506.0, 0.001529657957156682
507.0, 0.0017688376583314008
508.0, 0.0016190701698509877
509.0, 0.002000547062865862
510.0, 0.0019233080499295595
511.0, 0.0020212588189802176
512.0, 0.0023815241067612443
513.0, 0.0016510779529666153
514.0, 0.001014155357216417
515.0, 0.0007798329218997305
516.0, 0.00041991386778849417
517.0, 0.00013571235861182285
518.0, 0.0003432307810989615
519.0, 4.6218134295369615e-05
520.0, 0.00020718238813324064
521.0, 7.874108616811733e-05
522.0, 0.00024573077910220126
523.0, 0.00010948933521346477
524.0, 6.435814560050538e-05
525.0, 0.0003026284830191107
526.0, 0.0001862611537808828
527.0, 0.00036916875853340754
528.0, 0.00037187728686503737
529.0, 0.0007783070428348149
530.0, 0.000610616279943509
531.0, 0.0006869027854526905
532.0, 0.0008564951790409293
533.0, 0.0004759086802872244
534.0, 0.0002629651859327482
535.0, 0.00012232515774789277
536.0, 0.0001147678053056997
537.0, 2.295625578630657e-05
538.0, 0.00017496237993375416
539.0, 0.0010514911770241504
540.0, 0.0017813161840383742
541.0, 0.0009605783992574225
542.0, 0.0018799194642027956
543.0, 0.002691770963145004
544.0, 0.0030723220880295985
545.0, 0.003629912435168636
546.0, 0.0030514293835392924
547.0, 0.0030802128983767425
548.0, 0.004451312178624446
549.0, 0.005908315245935597
550.0, 0.006513811485078105
551.0, 0.00627980483634486
552.0, 0.006044323044453218
553.0, 0.0061068628814353754
554.0, 0.00725618358289134
555.0, 0.008169347222154323
556.0, 0.007963626558400388
557.0, 0.00846109830344595
558.0, 0.007562327183783271
559.0, 0.007145546072671411
560.0, 0.007988426600668062
561.0, 0.009351575494094919
562.0, 0.010200832756865046
563.0, 0.01049837555408885
564.0, 0.010552187188601361
565.0, 0.011295995757504607
566.0, 0.011575448397629702
567.0, 0.011206381239939767
568.0, 0.012374517253405668
569.0, 0.01257939935554806
570.0, 0.012857793514946321
571.0, 0.013703661458592531
572.0, 0.01463178483724185
573.0, 0.01518289588354565
574.0, 0.015722516089578358
575.0, 0.017991681276598327
576.0, 0.020229775524772352
577.0, 0.02220992790537939
578.0, 0.02400884327212158
579.0, 0.025696421219429732
580.0, 0.028895488271179593
581.0, 0.03271864690544488
582.0, 0.03545740182483981
583.0, 0.03913706164725925
584.0, 0.04431402200318327
585.0, 0.04779628591758741
586.0, 0.05204766414727034
587.0, 0.058655629359133966
588.0, 0.06520908638900545
589.0, 0.07108649769559976
590.0, 0.07747627565333823
591.0, 0.08593609265355619
592.0, 0.0935751514106248
593.0, 0.10145622602240431
594.0, 0.1103964537255391
595.0, 0.11980505366127672
596.0, 0.12863021710978625
597.0, 0.13760758493079442
598.0, 0.1445330432308489
599.0, 0.15464187977703983
600.0, 0.16335751239823793
601.0, 0.16845970795044277
602.0, 0.17427780418998515
603.0, 0.1775876138054822
604.0, 0.18055124176295162
605.0, 0.1827719327626467
606.0, 0.1820213068779534
607.0, 0.17801186759960905
608.0, 0.17388957233803026
609.0, 0.16794889200660157
610.0, 0.1628521663979842
611.0, 0.1563652924916581
612.0, 0.14799625681998688
613.0, 0.13920226713378228
614.0, 0.13086240317980333
615.0, 0.1205844996752618
616.0, 0.11127562738972155
617.0, 0.10355554418577416
618.0, 0.09596857538567918
619.0, 0.08710104003493
620.0, 0.07927608026109546
621.0, 0.07282114883753707
622.0, 0.06693785784446996
623.0, 0.06126825842336904
624.0, 0.05542716007109146
625.0, 0.04946457560335618
626.0, 0.04492975411134011
627.0, 0.04066764445039078
628.0, 0.037710218305526545
629.0, 0.0343613946874784
630.0, 0.03049395038063398
631.0, 0.027978430209466647
632.0, 0.02576442569510792
633.0, 0.023823749956312888
634.0, 0.02176798772853869
635.0, 0.020406047799334456
636.0, 0.019444707773503513
637.0, 0.017629235263054176
638.0, 0.016816693152948068
639.0, 0.01534868841365519
640.0, 0.013051694027911407
641.0, 0.011934383388151174
642.0, 0.011745188949517581
643.0, 0.010016426280935424
644.0, 0.008563144494503018
645.0, 0.007832042496169752
646.0, 0.007357643591402005
647.0, 0.0066563358204093995
648.0, 0.0059260181438350636
649.0, 0.005679285939986579
650.0, 0.004659427377572614
651.0, 0.0045387308591330775
652.0, 0.004740841370278943
653.0, 0.003950471207411054
654.0, 0.00298392258006317
655.0, 0.0033604903785129907
656.0, 0.0019368153333784934
657.0, 0.0017770359839683995
658.0, 0.0026054239167991222
659.0, 0.002319019498802553
660.0, 0.0007106907933808139
661.0, 0.00017065753579788604
662.0, 0.0006346237810293915
663.0, 0.0007180855573837693
664.0, 0.0008480507806490681
665.0, 0.0007426486596942732
666.0, 0.00015964517643440727
667.0, 0.0006261411898877857
668.0, 0.000128588133868715
669.0, 6.929862908296697e-05
670.0, 9.429948233189243e-05
671.0, 0.0005449631181751059
672.0, 0.0014040068912865211
673.0, 0.0015065386084502583
674.0, 0.00036558754196036396
675.0, 0.00046347030059405177
676.0, 0.00023153853667731133
677.0, 0.0002816004256162523
678.0, 0.0006088075348049825
679.0, 0.0007816281477842689
680.0, 0.0004856478908072958
681.0, 0.0003086802755473603
682.0, 0.0002571446688147764
683.0, 0.00023365838507002283
684.0, 0.0004045719377982009
685.0, 0.0002106327954501949
686.0, 0.0002205294594817705
687.0, 0.0004462807688808697
688.0, 0.00013774710242130033
689.0, 0.0008350127715464938
690.0, 0.0008120917110490931
691.0, 0.00021363575666182418
692.0, 0.00040277569446664713
693.0, 0.0009534933053482872
694.0, 0.0010369372697994668
695.0, 0.0011433292705342727
696.0, 0.0008134725215438122
697.0, 0.0005761032501839921
698.0, 0.002114881537340416
699.0, 0.001872043842891163
700.0, 0.0021849025751869465
701.0, 0.0016680843448523479
702.0, 0.0010624203774424969
703.0, 0.0008885612471928662
704.0, 0.000615238994817399
705.0, 0.0008308086948802623
706.0, 0.001169538469168161
707.0, 0.0012364031633286573
708.0, 0.001456431159082041
709.0, 0.0014429653358101623
710.0, 0.0010042570069818024
711.0, 0.0013896932270005115
712.0, 0.0013925275522375885
713.0, 0.0012207880439823924
714.0, 0.001032167467265252
715.0, 0.0008155109361727596
716.0, 0.0008586776311057804
717.0, 0.001339606816159091
718.0, 0.000798407820782975
719.0, 0.0011630421492250789
720.0, 0.0007257470345835557
721.0, 0.0013625250370331498
722.0, 0.0026061450608908976
723.0, 0.0021199444971132576
724.0, 0.0012160455865801404
725.0, 0.001826167665254609
726.0, 0.0011733371132020799
727.0, 0.0015402108790721074
728.0, 0.002018556836923448
729.0, 0.0013614191571354498
730.0, 0.0019178274908441956
731.0, 0.0018405472856614256
732.0, 0.001267335218791875
733.0, 0.0006006676774029302
734.0, 0.0007297820764086668
735.0, 0.001555433932614339
736.0, 0.0019233404342499085
737.0, 0.000913201695478512
738.0, 0.0012553484773397865
739.0, 0.0009671086585181706
740.0, 0.001132720961798857
741.0, 0.0011531168750844275
742.0, 0.00038331715869150177
743.0, 0.0006410105451963233
744.0, 0.0007815605230108419
745.0, 0.0004293900978526483
746.0, 4.938483848432765e-05
747.0, 0.0002465891770159947
748.0, 0.0004729972079293957
749.0, 0.00013480134581724123
750.0, 0.0001615752894557812
751.0, 0.0014017717887904776
752.0, 0.0017152334918426075
753.0, 0.0012198380566480883
754.0, 0.0014474558199252775
755.0, 0.002041935536548641
756.0, 0.0011116764622712933
757.0, 0.0020987107433399553
758.0, 0.001360177261012312
759.0, 0.0013291000472386175
760.0, 0.0013697599364512112
761.0, 0.0010356501945047365
762.0, 0.001010168089658916
763.0, 0.0010212661922079755
764.0, 0.000773536701256129
765.0, 0.0014642733400338122
766.0, 0.00139053681714691
767.0, 0.0013865478834298103
768.0, 0.0015242967572290456
769.0, 0.0007053235994303877
770.0, 0.0011388433054494755
771.0, 0.0006233078921162594
772.0, 0.0005323327409178451
773.0, 0.000681598002073115
774.0, 0.00100445445004983
775.0, 0.0014957436986908362
776.0, 0.0016055838199457296
777.0, 0.0017980844659483853
778.0, 0.0010189131679769715
779.0, 0.0013972315869573628
780.0, 0.0014862286610062114
781.0, 0.0011008519564417627
782.0, 0.001384420604353581
783.0, 0.0018200437357102001
784.0, 0.0013207337141324896
785.0, 0.0011842393551248715
786.0, 0.0015083606580084288
787.0, 0.0007779539474519739
788.0, 0.00022883377564748814
789.0, 0.0009796685578324906
790.0, 0.00021615969535407527
791.0, 0.00011126641214614045
792.0, 0.0010171303156055842
793.0, 0.0007750414734466394
794.0, 0.0007660471111138402
795.0, 0.0014055215686979584
796.0, 0.0007618312945441362
797.0, 0.0005370536084909603
798.0, 0.0009995861037402694
799.0, 0.00031674451804195156
800.0, 0.000282696777017711
801.0, 0.0007191632012097493
802.0, 0.0007120611647371308
803.0, 0.00027868382863016866
804.0, 0.0006294942861765124
805.0, 0.00016909764813792917
806.0, 0.0008437630675947521
807.0, 0.0012696639423981537
808.0, 0.0016681972659491574
809.0, 0.0018388545752008561
810.0, 0.0012795745014100475
811.0, 0.0004090827954462987
812.0, 0.0006636215834294846
813.0, 0.0003429226408043055
814.0, 0.0006154203143029154
815.0, 0.0015672642169733994
816.0, 0.0012838005116089647
817.0, 0.0005372309369257695
818.0, 0.0006692159168814636
819.0, 0.001069156005289113
820.0, 0.0017074013470891475
821.0, 0.0009425592660419623
822.0, 0.0005446218235787469
823.0, 0.0013711330486092302
824.0, 0.0010891419351222406
825.0, 0.00021453787551643498
826.0, 0.0004164337522603519
827.0, 0.00024778224206775565
828.0, 0.0001636236555756056
829.0, 4.788398786010633e-05
830.0, 0.0005087352846656856
831.0, 0.001220221698093284
832.0, 0.0007531848961266307
833.0, 0.001597472647762273
834.0, 0.001489984344942642
835.0, 0.000547622594638493
836.0, 0.0007588399606789057
837.0, 0.0015168851700694673
838.0, 0.0009688325528371776
839.0, 0.0008048026002243683
840.0, 0.0006321311490139919
841.0, 0.0007778134152334466
842.0, 0.0007036317154279389
843.0, 0.000506426933816014
844.0, 0.00016158696583006758
845.0, 5.238891586167586e-06
846.0, 0.0010003067170606984
847.0, 0.0010725117742018519
848.0, 0.0007517928398827557
849.0, 0.0004220730967893068
850.0, 0.00040556348848852844
851.0, 0.000537305504270504
852.0, 0.0005730680891259148
853.0, 0.00048748548936309596
854.0, 0.00023882576245041782
855.0, 0.0006398377772519955
856.0, 0.0018993833936254193
857.0, 0.002031252648278699
858.0, 0.0014781967166970743
859.0, 0.0011958545091983856
860.0, 0.0011684636745827569
861.0, 0.0014870588071082607
862.0, 0.0005549711172449433
863.0, 0.0006097248326765121
864.0, 0.0005420138418859484
865.0, 0.0004100492647464269
866.0, 0.0005295423180149395
867.0, 0.0007984890140564975
868.0, 0.0011049796953357587
869.0, 0.0005308550414014105
870.0, 0.00010854634971515516
871.0, 0.0007619970188434974
872.0, 0.0009550609139219357
873.0, 0.0014858422412484776
874.0, 0.002203916296509047
875.0, 0.0014247371628763905
876.0, 0.0025467762831864376
877.0, 0.002608675344442803
878.0, 0.0015923002473501404
879.0, 0.0011824254251762687
880.0, 0.0015619727457695373
881.0, 0.0014383917277246065
882.0, 0.0010488639515356393
883.0, 0.002172638343989434
884.0, 0.0017068107529281478
885.0, 0.0014704701571934973
886.0, 0.0019105729518273458
887.0, 0.0019904927655646073
888.0, 0.00232080626088526
889.0, 0.0028449591403742337
890.0, 0.0023401493901511715
891.0, 0.002581112724329913
892.0, 0.0028691434835720424
893.0, 0.002475452893587039
894.0, 0.0025936090147549427
895.0, 0.0035198782460379783
896.0, 0.003954545582124795
897.0, 0.003741495419868792
898.0, 0.004302479297878765
899.0, 0.004120717088493405
900.0, 0.00380156231340433
901.0, 0.004072572439118425
902.0, 0.004157740563662347
903.0, 0.004160045458959666
904.0, 0.005116944642186232
905.0, 0.006591220075832623
906.0, 0.006206964495091271
907.0, 0.005880074347139891
908.0, 0.005804482533224241
909.0, 0.005475263052480082
910.0, 0.005568926348780455
911.0, 0.005088953187589175
912.0, 0.0046254162729661395
913.0, 0.005743361115165337
914.0, 0.006023385032925609
915.0, 0.005653624749483874
916.0, 0.005021155452403004
917.0, 0.0051956766444129785
918.0, 0.0046414241229085895
919.0, 0.004512997246524769
920.0, 0.004783344707768634
921.0, 0.003591524819733322
922.0, 0.004298075969091096
923.0, 0.004537786681877864
924.0, 0.003926672191173256
925.0, 0.0029639039000210676
926.0, 0.0031610471449885196
927.0, 0.003982227979342535
928.0, 0.0038139381305128195
929.0, 0.0026728257054352915
930.0, 0.0031799611201810767
931.0, 0.0025065671201080636
932.0, 0.0022950957245539243
933.0, 0.0018459564647818041
934.0, 0.0017687111734448048
935.0, 0.0015904981803497617
936.0, 0.0008237069261568838
937.0, 0.00045157785398630164
938.0, 0.00047703857653787023
939.0, 7.239909559624837e-05
940.0, 0.0002229817824350487
941.0, 0.00036956993286033123
942.0, 0.001032757451494222
943.0, 0.0017543129754219514
944.0, 0.0015952123424806865
945.0, 0.0010383110182058167
946.0, 0.0008786368212235204
947.0, 0.0007461241578713391
948.0, 0.00040399631148851423
949.0, 0.0003654190095281962
950.0, 0.001507209407717396
951.0, 0.0018811109494752168
952.0, 0.0010706129838385277
953.0, 0.0010066776138236107
954.0, 0.00121433953043111
955.0, 8.206533157950103e-05
956.0, 8.071087282838999e-05
957.0, 0.00028503443687917616
958.0, 0.0003151952768527279
959.0, 0.00023847661303047135
960.0, 0.0002052480877213616
961.0, 0.0004442214595830101
962.0, 0.0007912724456175076
963.0, 0.0002807546488171913
964.0, 0.00034424916399984607
965.0, 0.0006770755754013243
966.0, 0.0006839333439535831
967.0, 4.3832975817552274e-05
968.0, 0.0001380128546283449
969.0, 0.0005392844737057744
970.0, 0.0006853607289780028
971.0, 0.00014265713647213245
972.0, 7.395578416458891e-05
973.0, 0.0006586422724620502
974.0, 0.0007165039320315459
975.0, 0.00015019761980071864
976.0, 0.00041143578720907406
977.0, 0.0008948966675542926
978.0, 0.00019029466170982992
979.0, 8.897964685575707e-05
980.0, 0.001600713068915318
981.0, 0.0009764813420239781
982.0, 0.0007607802501901058
983.0, 0.0006615602213818924
984.0, 0.0005055340838112555
985.0, 0.0008015016709942247
986.0, 0.0009771391067999098
987.0, 0.00019126277894664215
988.0, 0.0005371886816549257
989.0, 0.0008343205734743838
990.0, 0.0003889567704052358
991.0, 0.0001941051698906672
992.0, 0.0009503228310676834
993.0, 0.0008351182490034484
994.0, 0.0003231025835146979
995.0, 0.0007627283025283617
996.0, 0.00013699729887311026
997.0, 0.0003275088830839294
998.0, 0.0003927938604740322
999.0, 0.00048598342297491453
1000.0, 0.00021785740532400226
1001.0, 0.000294511805112043
1002.0, 0.00019994990230272534
1003.0, 0.00020004151037349065
1004.0, 0.00012275162164286613
1005.0, 0.0010575805966596115
1006.0, 0.0014189532938245675
1007.0, 0.0012627513364643272
1008.0, 0.001499123274243169
1009.0, 0.0007259928366693636
1010.0, 0.0012181459062847208
1011.0, 0.0021073849186758454
1012.0, 0.001109830504720842
1013.0, 0.00020963399897079693
1014.0, 0.0009382922358237702
1015.0, 0.00017609839336986014
1016.0, 6.252602451890167e-05
1017.0, 0.0008592731384381245
1018.0, 0.0015110387761623398
1019.0, 0.0014578837907527548
1020.0, 0.0010277325424129435
1021.0, 0.0008116393317674096
1022.0, 0.0009512132094931862
1023.0, 0.0004978340896323352
1024.0, 0.000543032221504219
1025.0, 0.00012585925281912653
1026.0, 0.00014238989386032499
1027.0, 0.0007537067425409996
1028.0, 0.001747666145348446
1029.0, 0.0020055989451492943
1030.0, 0.0014789128567307222
1031.0, 0.0013816093894588705
1032.0, 0.0008032046340840407
1033.0, 0.0014196497089980704
1034.0, 0.0017769692141551793
1035.0, 0.0021469107840531073
1036.0, 0.0018830290920203042
1037.0, 0.0019116115359616955
1038.0, 0.001743526265643618
1039.0, 0.000830629257472997
1040.0, 0.00046456646027480674
1041.0, 0.0008613351123303828
1042.0, 0.0008116859806664581
1043.0, 0.0006821033926405087
1044.0, 0.0013192324168150278
1045.0, 0.0012969208221801647
1046.0, 0.0010830780550581038
1047.0, 0.0011596444334065206
1048.0, 0.0013812838051999335
1049.0, 0.0015968935051062843
1050.0, 0.0015133260031464674
1051.0, 0.0009746806247892297
1052.0, 4.0657423538737015e-05
1053.0, 0.0009043939759980757
1054.0, 0.0021084129954063694
1055.0, 0.0037739105358547383
1056.0, 0.0033312392129900507
1057.0, 0.0019810272723705556
1058.0, 0.0018041869857091306
1059.0, 0.0009783542533946979
1060.0, 0.0006456605154615194
1061.0, 0.0006845107478795414
1062.0, 0.0013990044188900567
1063.0, 0.0015004289166740304
1064.0, 0.0011349408757790635
1065.0, 0.001274268434516282
1066.0, 0.0013457215399460443
1067.0, 0.001049448554458325
1068.0, 0.0009727436031659988
1069.0, 0.0009121767987800676
1070.0, 0.0015000799243734422
1071.0, 0.0017760548330353816
1072.0, 0.0006587869881814002
1073.0, 0.0005609397805613062
1074.0, 0.00014799884269952617
1075.0, 0.00024972010794843517
1076.0, 0.0007988222501156949
1077.0, 0.0005561362317907245
1078.0, 0.00019173742872998257
1079.0, 0.000762180917963147
1080.0, 0.000807316732125186
1081.0, 0.001620624028879599
1082.0, 0.00030833625321671445
1083.0, 0.0006816235958839711
1084.0, 0.0006737653628625154
1085.0, 0.00010985765003268324
1086.0, 0.0005905183043856436
1087.0, 0.0011944649338023285
1088.0, 2.7059479484583202e-05
1089.0, 0.00020899524262167735
1090.0, 0.0008281863981674211
1091.0, 0.00038582202401931856
1092.0, 0.0005584083784380943
1093.0, 0.0005673448413366146
1094.0, 0.0008452996772282746
1095.0, 0.0010130018972827788
1096.0, 0.0008464444176813944
1097.0, 0.0013397310741116737
1098.0, 0.001623840823487487
1099.0, 0.00020750099224665797
1100.0, 0.0013817805304634206
1101.0, 0.0012906882933006977
1102.0, 0.0011192728977455115
1103.0, 0.0009273965132742648
1104.0, 0.0007613125753748941
1105.0, 0.00048823203486538
1106.0, 0.00014405906273380219
1107.0, 0.0003451721145786812
1108.0, 0.0010040563156144338
1109.0, 0.00010430773679536212
1110.0, 0.0005813265914390728
1111.0, 0.00013116338267742385
1112.0, 0.00068442078594358
1113.0, 0.0008813662562494924
1114.0, 0.0010318544303236164
1115.0, 0.0011235245372406366
1116.0, 0.0012580470688120199
1117.0, 0.0011668604549923238
1118.0, 0.0006133617127064717
1119.0, 0.0002958787278638171
1120.0, 0.00015391820231147255
1121.0, 0.001264880862079342
1122.0, 0.0014101041014064545
1123.0, 0.000958641120042676
1124.0, 0.0010079624926098156
1125.0, 0.000895082795277498
1126.0, 0.0009310476850918269
1127.0, 0.0007498977959637709
1128.0, 0.0006713058143621858
1129.0, 0.0013001918761398135
1130.0, 0.0004327504781059736
1131.0, 0.0006959110625898347
1132.0, 0.0003534690774216012
1133.0, 0.0005414825926512136
1134.0, 0.00042720657583301876
1135.0, 0.0003193337655695507
1136.0, 0.0010432056481996575
1137.0, 0.0015951929801408826
1138.0, 0.0011485683162980108
1139.0, 0.0013665816751024624
1140.0, 0.0013548254693843723
1141.0, 0.00013179989779349855
1142.0, 0.0011337103308848365
1143.0, 0.0007889693995395414
1144.0, 0.0006925460262251288
1145.0, 0.0006352089487003497
1146.0, 0.0005072309290314219
1147.0, 0.0014206153402910936
1148.0, 0.002067290091316603
1149.0, 0.0018954921371858
1150.0, 0.0018190206661640445
1151.0, 0.0017024626968993831
1152.0, 0.0020386910865262575
1153.0, 0.0010532897889421013
1154.0, 0.0009199573196407879
1155.0, 0.0006986611599402324
1156.0, 0.0009787729659662232
1157.0, 0.0005891585385768366
1158.0, 0.00010098160845952228
1159.0, 0.0004435729174166674
1160.0, 0.000788886099908681
1161.0, 0.0007399115517996773
1162.0, 0.0012775512220556278
1163.0, 0.0015366642490423944
1164.0, 0.0024129335282438375
1165.0, 0.0016300596438680779
1166.0, 0.0006227792877450542
1167.0, 0.0007703483697797608
1168.0, 0.0010456109527386592
1169.0, 0.0009540532250274849
1170.0, 0.0007055077090413349
1171.0, 0.0013055965081613125
1172.0, 0.001831291598283409
1173.0, 0.0009306065721866363
1174.0, 0.0008236831216950405
1175.0, 0.001346492991262125
1176.0, 0.0007364087000691487
1177.0, 0.0010196596726054774
1178.0, 0.0017650558193902067
1179.0, 0.0009456304660029587
1180.0, 6.564305547868701e-05
1181.0, 0.0004698123625323907
1182.0, 0.0007277640152239103
1183.0, 0.0009987063830262117
1184.0, 0.0014656153206307955
1185.0, 0.0005861377869354303
1186.0, 0.0006091533799584512
1187.0, 0.0010262755687571884
1188.0, 0.001125869559950553
1189.0, 0.00022360998439048597
1190.0, 0.00014249978453822093
1191.0, 0.0006597021935021897
1192.0, 0.0012834238890266862
1193.0, 0.0008887854082814817
1194.0, 0.0010324378234186932
1195.0, 0.001205899107644021
1196.0, 0.0006673577582060143
1197.0, 0.0009965900430027976
1198.0, 0.001069964815210329
1199.0, 0.0012015736535346993
1200.0, 0.0006618358187464408
1201.0, 0.0007252290402534671
1202.0, 0.0008166362017048313
1203.0, 0.0003208052592435254
1204.0, 0.0015292942308965192
1205.0, 0.0013554862421783775
1206.0, 0.001044115895773899
1207.0, 0.002165166904947183
1208.0, 0.00231792895986856
1209.0, 0.0015383041661555016
1210.0, 0.0023858012354540967
1211.0, 0.0015147710896477456
1212.0, 0.0010212363094641178
1213.0, 0.0013219067088338242
1214.0, 0.001897874007573044
1215.0, 0.0017617360212130377
1216.0, 0.0006089141241905032
1217.0, 0.0008833475898616098
1218.0, 0.0011725090502273615
1219.0, 0.0007683038621212304
1220.0, 0.0008339173805245983
1221.0, 0.0010652675874007539
1222.0, 0.0009440482218275992
1223.0, 0.0010632311900984454
1224.0, 0.0016338383817578227
1225.0, 0.0007120765830619832
1226.0, 0.0013141131929145543
1227.0, 0.0005570350932519398
1228.0, 0.000762003274842237
1229.0, 0.0006188894330794409
1230.0, 0.00011644904929193232
1231.0, 0.0007758245389705564
1232.0, 0.001752473221097288
1233.0, 0.0013249585357072073
1234.0, 0.0005068174836397218
1235.0, 0.0005203366378846435
1236.0, 0.0001799776438114692
1237.0, 0.00031317271268768314
1238.0, 6.290051225638878e-05
1239.0, 9.431496087649768e-05
1240.0, 0.0009177034041820136
1241.0, 0.00019332669581169086
1242.0, 0.0012008833481204895
1243.0, 0.0009704495685071123
1244.0, 0.000383364664444265
1245.0, 0.0004028854590513414
1246.0, 0.0007531686948964719
1247.0, 0.001148763777785865
1248.0, 0.0004717070117260232
1249.0, 0.0007254774576651515
1250.0, 0.0009740728314693357
1251.0, 0.00033720918805504093
1252.0, 0.0009710242097849031
1253.0, 0.0009714145555410294
1254.0, 0.0003987220178846825
1255.0, 0.0005895597602159127
1256.0, 0.0012143315704454866
1257.0, 0.0011897412642417541
1258.0, 0.001529262104204411
1259.0, 0.002001186711005709
1260.0, 0.0014459380639433562
1261.0, 0.0005308975628444772
1262.0, 0.0004941340623222763
1263.0, 0.0015692086446434921
1264.0, 0.00048018603233264694
1265.0, 1.3167959044115303e-05
1266.0, 0.0001214046490686576
1267.0, 0.0013026899380270329
1268.0, 0.0014819373075356972
1269.0, 0.000885697912212741
1270.0, 0.00022930828828263779
1271.0, 0.0006016139200804078
1272.0, 0.0005708408310552022
1273.0, 0.0002187732149266175
1274.0, 0.0012595598838076967
1275.0, 0.001379879561924327
1276.0, 0.0011070945166944326
1277.0, 0.0014144528739363405
1278.0, 0.0012141085945762179
1279.0, 0.0011143332829847141
1280.0, 7.283916126884464e-05
1281.0, 0.0006761277622727722
1282.0, 0.0002832852318703863
1283.0, 0.00046720465616326433
1284.0, 0.0005898812945893686
1285.0, 0.0010348185703668148
1286.0, 0.0014808483957246888
1287.0, 0.0012637473147297505
1288.0, 0.0007270682619762796
1289.0, 0.0005801454905727142
1290.0, 0.0005938410324863552
1291.0, 0.0010963514760270999
1292.0, 0.0011431477481746019
1293.0, 0.0007691369353487918
1294.0, 0.0003048923082617925
1295.0, 7.943641836038678e-05
1296.0, 0.0005670622109858613
1297.0, 0.0009385966130503525
1298.0, 0.0011802725727187485
1299.0, 0.0006011350682266815
1300.0, 0.00041299825231527184
1301.0, 0.0003448616022664576
1302.0, 0.00021613840931512674
1303.0, 5.222483581069379e-06
1304, 0.0
1305, 0.0
1306, 0.0
1307, 0.0
1308, 0.0
1309, 0.0
1310, 0.0
1311, 0.0
1312, 0.0
1313, 0.0
1314, 0.0
1315, 0.0
1316, 0.0
1317, 0.0
1318, 0.0
1319, 0.0
1320, 0.0
1321, 0.0
1322, 0.0
1323, 0.0
1324, 0.0
1325, 0.0
1326, 0.0
1327, 0.0
1328, 0.0
1329, 0.0
1330, 0.0
1331, 0.0
1332, 0.0
1333, 0.0
1334, 0.0
1335, 0.0
1336, 0.0
1337, 0.0
1338, 0.0
1339, 0.0
1340, 0.0
1341, 0.0
1342, 0.0
1343, 0.0
1344, 0.0
1345, 0.0
1346, 0.0
1347, 0.0
1348, 0.0
1349, 0.0
1350, 0.0
1351, 0.0
1352, 0.0
1353, 0.0
1354, 0.0
1355, 0.0
1356, 0.0
1357, 0.0
1358, 0.0
1359, 0.0
1360, 0.0
1361, 0.0
1362, 0.0
1363, 0.0
1364, 0.0
1365, 0.0
1366, 0.0
1367, 0.0
1368, 0.0
1369, 0.0
1370, 0.0
1371, 0.0
1372, 0.0
1373, 0.0
1374, 0.0
1375, 0.0
1376, 0.0
1377, 0.0
1378, 0.0
1379, 0.0
1380, 0.0
1381, 0.0
1382, 0.0
1383, 0.0
1384, 0.0
1385, 0.0
1386, 0.0
1387, 0.0
1388, 0.0
1389, 0.0
1390, 0.0
1391, 0.0
1392, 0.0
1393, 0.0
1394, 0.0
1395, 0.0
1396, 0.0
1397, 0.0
1398, 0.0
1399, 0.0
1400, 0.0
1401, 0.0
1402, 0.0
1403, 0.0
1404, 0.0
1405, 0.0
1406, 0.0
1407, 0.0
1408, 0.0
1409, 0.0
1410, 0.0
1411, 0.0
1412, 0.0
1413, 0.0
1414, 0.0
1415, 0.0
1416, 0.0
1417, 0.0
1418, 0.0
1419, 0.0
1420, 0.0
1421, 0.0
1422, 0.0
1423, 0.0
1424, 0.0
1425, 0.0
1426, 0.0
1427, 0.0
1428, 0.0
1429, 0.0
1430, 0.0
1431, 0.0
1432, 0.0
1433, 0.0
1434, 0.0
1435, 0.0
1436, 0.0
1437, 0.0
1438, 0.0
1439, 0.0
1440, 0.0
1441, 0.0
1442, 0.0
1443, 0.0
1444, 0.0
1445, 0.0
1446, 0.0
1447, 0.0
1448, 0.0
1449, 0.0
1450, 0.0
1451, 0.0
1452, 0.0
1453, 0.0
1454, 0.0
1455, 0.0
1456, 0.0
1457, 0.0
1458, 0.0
1459, 0.0
1460, 0.0
1461, 0.0
1462, 0.0
1463, 0.0
1464, 0.0
1465, 0.0
1466, 0.0
1467, 0.0
1468, 0.0
1469, 0.0
1470, 0.0
1471, 0.0
1472, 0.0
1473, 0.0
1474, 0.0
1475, 0.0
1476, 0.0
1477, 0.0
1478, 0.0
1479, 0.0
1480, 0.0
1481, 0.0
1482, 0.0
1483, 0.0
1484, 0.0
1485, 0.0
1486, 0.0
1487, 0.0
1488, 0.0
1489, 0.0
1490, 0.0
1491, 0.0
1492, 0.0
1493, 0.0
1494, 0.0
1495, 0.0
1496, 0.0
1497, 0.0
1498, 0.0
1499, 0.0
1500, 0.0
1501, 0.0
1502, 0.0
1503, 0.0
1504, 0.0
1505, 0.0
1506, 0.0
1507, 0.0
1508, 0.0
1509, 0.0
1510, 0.0
1511, 0.0
1512, 0.0
1513, 0.0
1514, 0.0
1515, 0.0
1516, 0.0
1517, 0.0
1518, 0.0
1519, 0.0
1520, 0.0
1521, 0.0
1522, 0.0
1523, 0.0
1524, 0.0
1525, 0.0
1526, 0.0
1527, 0.0
1528, 0.0
1529, 0.0
1530, 0.0
1531, 0.0
1532, 0.0
1533, 0.0
1534, 0.0
1535, 0.0
1536, 0.0
1537, 0.0
1538, 0.0
1539, 0.0
1540, 0.0
1541, 0.0
1542, 0.0
1543, 0.0
1544, 0.0
1545, 0.0
1546, 0.0
1547, 0.0
1548, 0.0
1549, 0.0
1550, 0.0
1551, 0.0
1552, 0.0
1553, 0.0
1554, 0.0
1555, 0.0
1556, 0.0
1557, 0.0
1558, 0.0
1559, 0.0
1560, 0.0
1561, 0.0
1562, 0.0
1563, 0.0
1564, 0.0
1565, 0.0
1566, 0.0
1567, 0.0
1568, 0.0
1569, 0.0
1570, 0.0
1571, 0.0
1572, 0.0
1573, 0.0
1574, 0.0
1575, 0.0
1576, 0.0
1577, 0.0
1578, 0.0
1579, 0.0
1580, 0.0
1581, 0.0
1582, 0.0
1583, 0.0
1584, 0.0
1585, 0.0
1586, 0.0
1587, 0.0
1588, 0.0
1589, 0.0
1590, 0.0
1591, 0.0
1592, 0.0
1593, 0.0
1594, 0.0
1595, 0.0
1596, 0.0
1597, 0.0
1598, 0.0
1599, 0.0
