30, 0.0
31, 0.0
32, 0.0
33, 0.0
34, 0.0
35, 0.0
36, 0.0
37, 0.0
38, 0.0
39, 0.0
40, 0.0
41, 0.0
42, 0.0
43, 0.0
44, 0.0
45, 0.0
46, 0.0
47, 0.0
48, 0.0
49, 0.0
50, 0.0
51, 0.0
52, 0.0
53, 0.0
54, 0.0
55, 0.0
56, 0.0
57, 0.0
58, 0.0
59, 0.0
60, 0.0
61, 0.0
62, 0.0
63, 0.0
64, 0.0
65, 0.0
66, 0.0
67, 0.0
68, 0.0
69, 0.0
70, 0.0
71, 0.0
72, 0.0
73, 0.0
74, 0.0
75, 0.0
76, 0.0
77, 0.0
78, 0.0
79, 0.0
80, 0.0
81, 0.0
82, 0.0
83, 0.0
84, 0.0
85, 0.0
86, 0.0
87, 0.0
88, 0.0
89, 0.0
90, 0.0
91, 0.0
92, 0.0
93.0, 0.006218539353916365
94.0, 0.03262038836787555
95.0, 0.05132234943998785
96.0, 0.058293663586436444
97.0, 0.05903492510539038
98.0, 0.052441211437524816
99.0, 0.04723105189062578
100.0, 0.041084949749932494
101.0, 0.037313310327615014
102.0, 0.039569116310733635
103.0, 0.049743150407179644
104.0, 0.06654079150383219
105.0, 0.08607761696350898
106.0, 0.10596239865451186
107.0, 0.12484075093950227
108.0, 0.12802034383141123
109.0, 0.10902742042061318
110.0, 0.08475529189862555
111.0, 0.06759989315891435
112.0, 0.05502733204042755
113.0, 0.04481530095197791
114.0, 0.038026265195567725
115.0, 0.03430757563125432
116.0, 0.03183236796032664
117.0, 0.029477571586282742
118.0, 0.02750247620553231
119.0, 0.023948199762732134
120.0, 0.025834437627796428
121.0, 0.032784456842280915
122.0, 0.047517953728178595
123.0, 0.06604157664679293
124.0, 0.08187994170460401
125.0, 0.0948261503415431
126.0, 0.10312092957859888
127.0, 0.10513867519263298
128.0, 0.10631073547026679
129.0, 0.10895707212647773
130.0, 0.1121020217254496
131.0, 0.1126069824826439
132.0, 0.11347054167177303
133.0, 0.11388395586422993
134.0, 0.11412114646606349
135.0, 0.1159127283733775
136.0, 0.121356362142788
137.0, 0.12369998799620519
138.0, 0.11993881548962589
139.0, 0.11115411823094476
140.0, 0.1050774638175099
141.0, 0.10021953814916039
142.0, 0.0951601991147926
143.0, 0.08916445463044038
144.0, 0.08183066117691784
145.0, 0.07366339893495955
146.0, 0.06344904038078145
147.0, 0.05038350677291453
148.0, 0.035656554021734205
149.0, 0.020869542546609735
150.0, 0.0056744334215465785
151.0, 0.01038557095825763
152.0, 0.022236727028769852
153.0, 0.02717124364186941
154.0, 0.024398428831385592
155.0, 0.018764294888129647
156.0, 0.01463602204231926
157.0, 0.009244297527765587
158.0, 0.003257856725907577
159.0, 0.002819139347715981
160.0, 0.008696951064425931
161.0, 0.0140422900821161
162.0, 0.018482716710728708
163.0, 0.023472103557055653
164.0, 0.02920470212923866
165.0, 0.03347627616025151
166.0, 0.038842715326049125
167.0, 0.045059317351325984
168.0, 0.0522423858689341
169.0, 0.06003858119319317
170.0, 0.0639405910805534
171.0, 0.07112309152657355
172.0, 0.07932714194091714
173.0, 0.08495683035968517
174.0, 0.08964295230378286
175.0, 0.09785635255839621
176.0, 0.10679407135552622
177.0, 0.11537603974829418
178.0, 0.12638825739253953
179.0, 0.1364614135707137
180.0, 0.14558888258266858
181.0, 0.1546461429810354
182.0, 0.1630625701364744
183.0, 0.16654804729035017
184.0, 0.17148877999970527
185.0, 0.17787589344910137
186.0, 0.1841467209247461
187.0, 0.19203254990921126
188.0, 0.2008200639525039
189.0, 0.20951696802109482
190.0, 0.22030449861777943
191.0, 0.23604757749019672
192.0, 0.2510266955746759
193.0, 0.26576790191703387
194.0, 0.2828272054957179
195.0, 0.3029135280722722
196.0, 0.32115995039645595
197.0, 0.34297154691659953
198.0, 0.3690456620488419
199.0, 0.3985382640186144
200.0, 0.4307112309473269
201.0, 0.47155065771102306
202.0, 0.5166900220410218
203.0, 0.5656483869045023
204.0, 0.6185900642550332
205.0, 0.6695052411118311
206.0, 0.7229978790021606
207.0, 0.7825704740014033
208.0, 0.8485132704386182
209.0, 0.9191882678443012
210.0, 0.9776804274102903
211.0, 0.9994961730590605
212.0, 0.9820864487363868
213.0, 0.9354138738675024
214.0, 0.8836431129003391
215.0, 0.8308978641689766
216.0, 0.7691476502553646
217.0, 0.6905102432980763
218.0, 0.608252045185259
219.0, 0.5380499606722989
220.0, 0.4842931626708011
221.0, 0.4478928784846384
222.0, 0.4247519724706455
223.0, 0.40924338619678624
224.0, 0.40352984189499347
225.0, 0.40460072454750695
226.0, 0.4085252707728095
227.0, 0.4164598048522159
228.0, 0.42991240370167016
229.0, 0.4490846971016373
230.0, 0.4732843531585778
231.0, 0.49922680034829736
232.0, 0.5149073785312865
233.0, 0.4998894674982604
234.0, 0.4561609240102958
235.0, 0.40341091643291377
236.0, 0.37091160120876376
237.0, 0.3557992517075056
238.0, 0.35651970685604795
239.0, 0.3610003111949487
240.0, 0.3516685031299775
241.0, 0.3228063114519396
242.0, 0.2821638365020499
243.0, 0.24312865142275505
244.0, 0.21448042049756444
245.0, 0.19654395638918234
246.0, 0.1894500471108012
247.0, 0.18884188615052855
248.0, 0.18901551662655688
249.0, 0.18721383119823895
250.0, 0.18811316278162266
251.0, 0.19001818460165965
252.0, 0.18908973810757
253.0, 0.1817802591316586
254.0, 0.1641341090533543
255.0, 0.13539291815984061
256.0, 0.10509627459842019
257.0, 0.07941035920892253
258.0, 0.06201930230435714
259.0, 0.050306208278901275
260.0, 0.03989384597713581
261.0, 0.030080638294503532
262.0, 0.022114424858227594
263.0, 0.01734314897615486
264.0, 0.015324170961734567
265.0, 0.012755890581128165
266.0, 0.009396750721967837
267.0, 0.007102158391162184
268.0, 0.0070166153885409255
269.0, 0.0028273009763379628
270.0, 0.0028958668145781085
271.0, 0.004075704684696555
272.0, 0.0008248478986490484
273.0, 0.001183106027285485
274.0, 0.002460087941367463
275.0, 0.004376533323819255
276.0, 0.006126256463987228
277.0, 0.005843689040935448
278.0, 0.00548551464974543
279.0, 0.005906510308965918
280.0, 0.007311199885823011
281.0, 0.008863623939058084
282.0, 0.006732246437871709
283.0, 0.0032804833542356116
284.0, 0.0005226411310769201
285.0, 0.0035679483394197814
286.0, 0.011278421978213646
287.0, 0.018770628268213862
288.0, 0.024034704502864702
289.0, 0.031119305334141163
290.0, 0.04256743313564019
291.0, 0.05541229546692325
292.0, 0.06687305617932585
293.0, 0.07892098623643803
294.0, 0.09607593912104952
295.0, 0.116635262886311
296.0, 0.13124846692517594
297.0, 0.14933464568720448
298.0, 0.17090898341180416
299.0, 0.19276489047178888
300.0, 0.21305564186946813
301.0, 0.23447067941068558
302.0, 0.25555583388472625
303.0, 0.2710875186207868
304.0, 0.2800690078536542
305.0, 0.2842847800859797
306.0, 0.2813493195056921
307.0, 0.2735882491877092
308.0, 0.26704429267049307
309.0, 0.26455528763726793
310.0, 0.26328987904866563
311.0, 0.2617356016029519
312.0, 0.26051890907505043
313.0, 0.2594587332084903
314.0, 0.2593221576507667
315.0, 0.2630576453016255
316.0, 0.2673874777385237
317.0, 0.2710813343786856
318.0, 0.2737438309898696
319.0, 0.2755007825271525
320.0, 0.2770968202392537
321.0, 0.27928740690082166
322.0, 0.2823221418910821
323.0, 0.2837133620081308
324.0, 0.2827114513112049
325.0, 0.2871361758137547
326.0, 0.28948843318740275
327.0, 0.2895653300444182
328.0, 0.28825037875268267
329.0, 0.2846648900197339
330.0, 0.27723659711644594
331.0, 0.27141584117290124
332.0, 0.2686682871718754
333.0, 0.2684087694974714
334.0, 0.2697689768082066
335.0, 0.277798944747394
336.0, 0.2826625368318573
337.0, 0.2887726726023541
338.0, 0.300132050694786
339.0, 0.3106649906663001
340.0, 0.3168191906739153
341.0, 0.32528359174385213
342.0, 0.33230397501439923
343.0, 0.3340467527594131
344.0, 0.33691864061424315
345.0, 0.33848072304768834
346.0, 0.3380241670590787
347.0, 0.3331193400186549
348.0, 0.3217928819640181
349.0, 0.30449365705454307
350.0, 0.28460077068055517
351.0, 0.26540193297021
352.0, 0.24501772551843803
353.0, 0.22507415177597126
354.0, 0.21432879750469977
355.0, 0.20662053940885008
356.0, 0.20188294603762752
357.0, 0.1997409305668686
358.0, 0.1991434156694691
359.0, 0.19957052614614473
360.0, 0.20545792504614785
361.0, 0.20880690217720435
362.0, 0.20909573870711168
363.0, 0.20995295878119877
364.0, 0.21117948454333973
365.0, 0.206168354100743
366.0, 0.1960739898437655
367.0, 0.1818980162455481
368.0, 0.1642477653670981
369.0, 0.14667507961727788
370.0, 0.13248616185588546
371.0, 0.11710555185109632
372.0, 0.1000403042352994
373.0, 0.08319005878998724
374.0, 0.06390131565786195
375.0, 0.04608145049497439
376.0, 0.031500746888388685
377.0, 0.021400763420451642
378.0, 0.014631746876416192
379.0, 0.007173714865809518
380.0, 0.0037201269132522375
381.0, 0.0027224738821397575
382.0, 0.0010739833920311423
383.0, 0.0033366205206415375
384.0, 0.003732274333937941
385.0, 0.003564443256598291
386.0, 0.0011539028503933977
387.0, 0.0009783258843483337
388.0, 0.005142823158355334
389.0, 0.004503871520472828
390.0, 0.0021187215014341954
391.0, 0.0013366068379831759
392.0, 0.001399970987404752
393.0, 0.0008936281093911909
394.0, 0.0007530943336177482
395.0, 0.0010241639969725898
396.0, 0.0007775821175561397
397.0, 0.00024814977824969854
398.0, 0.0006811582798455134
399.0, 0.003065488473177243
400.0, 0.003694524578372764
401.0, 0.004427785165782571
402.0, 0.004797166086133594
403.0, 0.0041554371810337025
404.0, 0.00357872818193249
405.0, 0.004163234281671053
406.0, 0.006540562895778905
407.0, 0.00787978307264914
408.0, 0.006813518234543258
409.0, 0.006486767509056818
410.0, 0.00785708666935798
411.0, 0.008145907619252926
412.0, 0.00968775194176343
413.0, 0.011091920683513156
414.0, 0.009531823133762184
415.0, 0.011895133210917123
416.0, 0.013211306017842353
417.0, 0.015036327790762947
418.0, 0.015863911697256233
419.0, 0.014434408153747436
420.0, 0.016045258310325244
421.0, 0.019008595419906092
422.0, 0.02027698752421987
423.0, 0.0210910242230477
424.0, 0.022589236748984234
425.0, 0.022519565135709883
426.0, 0.02353570163611421
427.0, 0.021048583057173012
428.0, 0.018624854858549984
429.0, 0.018889678061198775
430.0, 0.017970650351716102
431.0, 0.0179303843698321
432.0, 0.019160939366010595
433.0, 0.018836033698302463
434.0, 0.01705272294391675
435.0, 0.01681558907008417
436.0, 0.016522625222161164
437.0, 0.013808744259657961
438.0, 0.012635330267467075
439.0, 0.012886174617528692
440.0, 0.011668076671465962
441.0, 0.009590013743364484
442.0, 0.007442805165398711
443.0, 0.006221805490418345
444.0, 0.005899201201155186
445.0, 0.005300174490099155
446.0, 0.0023194868965869314
447.0, 0.0028277739629135675
448.0, 0.004586133771919015
449.0, 0.004797504522476095
450.0, 0.00288202420694525
451.0, 0.0012070979316204675
452.0, 0.001944600269493128
453.0, 0.002645148710881772
454.0, 0.002901595162254971
455.0, 0.001783929459353694
456.0, 0.0008107186977339179
457.0, 0.0005352382645840717
458.0, 0.002271329589695254
459.0, 0.0038584180040863586
460.0, 0.003395881104450869
461.0, 0.0025933688498995956
462.0, 0.0033695536811667506
463.0, 0.0016884972708759753
464.0, 0.0020786614167463513
465.0, 0.0037173816499936267
466.0, 0.004705450730092787
467.0, 0.005010845206685224
468.0, 0.0028498558130379105
469.0, 0.003414954013320413
470.0, 0.004351178926004696
471.0, 0.0049304823043940325
472.0, 0.006067868516858683
473.0, 0.0069276955281432654
474.0, 0.0038135321810691607
475.0, 0.002952959017503441
476.0, 0.004569735579369017
477.0, 0.005561428463543291
478.0, 0.004125290669398721
479.0, 0.002952143419143026
480.0, 0.0006508074585272541
481.0, 0.002450875037859472
482.0, 0.005591695790272774
483.0, 0.004396975664588991
484.0, 0.0012952534430622645
485.0, 0.00010805149964218891
486.0, 0.0006705375785273952
487.0, 0.001750280078659999
488.0, 0.002393645333442447
489.0, 0.002749745657433669
490.0, 0.005196083530645635
491.0, 0.003426707445235758
492.0, 0.0033444009360422446
493.0, 0.00483557687378814
494.0, 0.004743834704496377
495.0, 0.0046285698661068355
496.0, 0.003370301595871276
497.0, 0.0017076372293951141
498.0, 0.0007235158826042888
499.0, 0.0007776957623681054
500.0, 0.0014029487992885982
501.0, 0.002493655249213436
502.0, 0.0006629354674571724
503.0, 0.0007352814321437049
504.0, 0.0008623326438784256
505.0, 0.0015987872837235336
506.0, 0.0005121437664099544
507.0, 0.00023210031215942722
508.0, 0.0004944180794561078
509.0, 0.001406531234548463
510.0, 0.0014856431458678478
511.0, 0.000787566196613187
512.0, 0.0005035655098567166
513.0, 0.001084455135011367
514.0, 0.001500680990033961
515.0, 0.0012461523202558693
516.0, 0.0004375684434016676
517.0, 0.001290827576808317
518.0, 0.0016093966630560093
519.0, 0.0017504630663076734
520.0, 0.0004552096921498078
521.0, 0.0005124946641326028
522.0, 0.0014027756173823761
523.0, 0.0014040424680246588
524.0, 0.000914067078887765
525.0, 8.743208898911482e-05
526.0, 0.000519415813086568
527.0, 0.0030664952006756395
528.0, 0.005121174419718347
529.0, 0.004020261394968799
530.0, 0.00379084006846601
531.0, 0.005245972766304483
532.0, 0.008196284238913859
533.0, 0.010773406134673506
534.0, 0.011137791894200647
535.0, 0.011552030274969762
536.0, 0.012312641413056324
537.0, 0.013774913133934872
538.0, 0.01565686395276117
539.0, 0.017163588498204974
540.0, 0.0177674843952276
541.0, 0.02512033772128262
542.0, 0.028150925179063768
543.0, 0.02771509231756273
544.0, 0.02858761483100844
545.0, 0.031826441326596795
546.0, 0.033466239353020844
547.0, 0.03615886659652192
548.0, 0.03865130931313678
549.0, 0.04259840194196645
550.0, 0.046278654114368344
551.0, 0.047726757477351126
552.0, 0.050632086796888534
553.0, 0.05451494821605138
554.0, 0.05910009492670208
555.0, 0.06198788505123394
556.0, 0.06327426552172606
557.0, 0.06562139906007877
558.0, 0.06805464297323621
559.0, 0.06730093106334013
560.0, 0.066660028417406
561.0, 0.06603579934648332
562.0, 0.06326006223918419
563.0, 0.05933463148632501
564.0, 0.05858044312869072
565.0, 0.058519055531788634
566.0, 0.05657907469606742
567.0, 0.05563846865741948
568.0, 0.05703276355909251
569.0, 0.05900611088596896
570.0, 0.06237562812587103
571.0, 0.06237604005732856
572.0, 0.06116318865450519
573.0, 0.06066315996902576
574.0, 0.05951842229636661
575.0, 0.05875618239206103
576.0, 0.06551303416511285
577.0, 0.07183285794936475
578.0, 0.07955694347358738
579.0, 0.08617079332934593
580.0, 0.09235138012914201
581.0, 0.10204816466655033
582.0, 0.11212849954646892
583.0, 0.12082486269274105
584.0, 0.12836965577855267
585.0, 0.13800764556271078
586.0, 0.15133648756520932
587.0, 0.16487092479538318
588.0, 0.17537425623545633
589.0, 0.1872235904013213
590.0, 0.19882136029427303
591.0, 0.20976629794497198
592.0, 0.2190466422600641
593.0, 0.22570511069577173
594.0, 0.23181638408103603
595.0, 0.23292709952485596
596.0, 0.23336903068969228
597.0, 0.22905600316603764
598.0, 0.2191931642858607
599.0, 0.2082078647136465
600.0, 0.19402265108671396
601.0, 0.17669086365663114
602.0, 0.162318518570914
603.0, 0.14652249287612848
604.0, 0.1286592744446275
605.0, 0.1132296280199482
606.0, 0.10187724268162596
607.0, 0.08864022192150382
608.0, 0.07644091479022078
609.0, 0.06457143485526938
610.0, 0.05466434051676447
611.0, 0.048446934149740925
612.0, 0.04280548443268255
613.0, 0.03767139402386436
614.0, 0.0316956053165461
615.0, 0.027677915273083754
616.0, 0.024656604612560477
617.0, 0.02192152514304419
618.0, 0.02066036747819223
619.0, 0.017172346057343753
620.0, 0.014884598982266907
621.0, 0.013419990754947535
622.0, 0.011300747573332444
623.0, 0.009106848713709068
624.0, 0.008677152220363872
625.0, 0.007885559654228696
626.0, 0.007158718798297672
627.0, 0.008553530002874938
628.0, 0.008237597346488152
629.0, 0.005298462811023198
630.0, 0.002928971330206906
631.0, 0.0030681996197869264
632.0, 0.0004640194325493118
633.0, 0.0024012430089653623
634.0, 0.0038359521407209233
635.0, 0.003130408108795207
636.0, 0.0023554796763096218
637.0, 0.0030187022775885588
638.0, 0.002649614133999013
639.0, 0.00532198289956996
640.0, 0.004031720837014346
641.0, 0.0027807665620335855
642.0, 0.0029238921452354296
643.0, 0.0013100088286549993
644.0, 0.0003799187287808276
645.0, 0.000417542564387277
646.0, 0.002640238160226247
647.0, 0.003499924427310899
648.0, 0.0024957329752034454
649.0, 0.0007837391697954204
650.0, 0.00022494469306653063
651.0, 0.0004054177777383886
652.0, 0.0006893017213979599
653.0, 0.0005078589981222025
654.0, 0.001125317770885079
655.0, 0.00030908574875632085
656.0, 0.0006780078812798277
657.0, 8.825560525673442e-05
658.0, 0.0004865494453301137
659.0, 0.0014591684214849368
660.0, 0.00147643675633186
661.0, 0.000329576320227122
662.0, 0.0006411790916352421
663.0, 0.001258283011546148
664.0, 0.0005274076952495403
665.0, 0.0007403494739518619
666.0, 0.0011251666668729947
667.0, 0.0021944736277505115
668.0, 0.0008932779052557018
669.0, 0.001045996531396474
670.0, 0.0018868525409939697
671.0, 0.0001072450427085071
672.0, 0.00171239867068709
673.0, 0.0017407547797669586
674.0, 0.0022249953570205798
675.0, 0.002997407299947605
676.0, 0.002196705520503838
677.0, 0.0031938964543943705
678.0, 0.003424686522685614
679.0, 0.0033857624844843173
680.0, 0.0035625251475731685
681.0, 0.003942943031549071
682.0, 0.0038576113816384465
683.0, 0.0029961969603927037
684.0, 0.0030774505188897175
685.0, 0.003928146926256093
686.0, 0.0017638887540195151
687.0, 0.0006473101798435109
688.0, 0.0014083768445720627
689.0, 0.0020526188020637036
690.0, 0.0018195171377699978
691.0, 0.0011190231543059999
692.0, 0.0017754382587330665
693.0, 0.003312910294321732
694.0, 0.002588977898088685
695.0, 0.0016509492317500333
696.0, 0.002864748078614542
697.0, 0.0025341886294048626
698.0, 0.0029509014737681524
699.0, 0.0029979954260899227
700.0, 0.003016283127889692
701.0, 0.0035839303412355176
702.0, 0.0033631575552275097
703.0, 0.002057786222681947
704.0, 0.003390286816692748
705.0, 0.0009360152656652653
706.0, 0.0027285359721676197
707.0, 0.00517599617046869
708.0, 0.0061843699611213825
709.0, 0.006811993567249306
710.0, 0.0067964397765735
711.0, 0.005197228375072394
712.0, 0.005289863960175486
713.0, 0.006732568523342834
714.0, 0.006257569151582991
715.0, 0.006489890084285855
716.0, 0.008194336536551286
717.0, 0.007895243026353712
718.0, 0.005723977910652141
719.0, 0.007636377663303408
720.0, 0.0073552473324916805
721.0, 0.004381976984603222
722.0, 0.003471361934069805
723.0, 0.0041090774107270375
724.0, 0.0030558370041549234
725.0, 0.0022304952419049257
726.0, 0.002724218689514138
727.0, 0.003115630484462763
728.0, 0.0025980962290913187
729.0, 0.0018497854844482509
730.0, 0.0016442388166434075
731.0, 0.0025568053019102968
732.0, 0.004530621671836593
733.0, 0.004631847412427535
734.0, 0.004711508587833429
735.0, 0.0034012998653187515
736.0, 0.002680894865115545
737.0, 0.0037020675561067746
738.0, 0.003969023940112025
739.0, 0.0020837835304917812
740.0, 0.003081701317137316
741.0, 0.002781254512093706
742.0, 0.001229563267176762
743.0, 0.004274458607114466
744.0, 0.0061239222225619675
745.0, 0.003504444383260605
746.0, 0.0035927506633342873
747.0, 0.001574120464503402
748.0, 0.0007408387372881008
749.0, 0.002271295091760662
750.0, 0.003591153990209376
751.0, 0.005613207079853501
752.0, 0.005626996221972711
753.0, 0.0009097377536983119
754.0, 0.0009961693700934787
755.0, 0.0004182302929034532
756.0, 0.0012024134352766822
757.0, 0.0007754724367489399
758.0, 0.0019919652692834407
759.0, 0.0011377764055916296
760.0, 0.0003025956477674389
761.0, 0.0005237682499956585
762.0, 0.001145671805155155
763.0, 0.00023661661293281506
764.0, 0.00018306128917095198
765.0, 0.0015815272121052462
766.0, 0.0015704334467802094
767.0, 0.0002293088106151828
768.0, 0.0004492661240386701
769.0, 0.0005551759228512103
770.0, 0.0011419898508496572
771.0, 0.0018060198768511718
772.0, 0.0016305539127272207
773.0, 0.0005722024707618127
774.0, 0.0007414403007892995
775.0, 0.0020362332789519884
776.0, 0.0018893113505325458
777.0, 0.0035738684588326295
778.0, 0.0020791148117834087
779.0, 0.0013577011103491326
780.0, 0.0009585435563649801
781.0, 0.003621170507170405
782.0, 0.006030169412205152
783.0, 0.0035775567723533856
784.0, 0.002848398307702066
785.0, 0.002553242114326307
786.0, 0.00496182111952659
787.0, 0.004400325083820621
788.0, 0.003730116515904899
789.0, 0.004019028463824832
790.0, 0.003152951379421859
791.0, 0.0023405746796053397
792.0, 0.0031164630170186836
793.0, 0.0037975286153543145
794.0, 0.0030079185687389965
795.0, 0.0034804188404626716
796.0, 0.004832208387349899
797.0, 0.0054500464316377
798.0, 0.004035703844856475
799.0, 0.0018023486577009495
800.0, 0.0030116493995724475
801.0, 0.0026941670216444574
802.0, 0.0028974380442025574
803.0, 0.0028808281134074885
804.0, 0.003532352231492175
805.0, 0.0036486768507294877
806.0, 0.003244288545690449
807.0, 0.004751653209886689
808.0, 0.004317616497217922
809.0, 0.005068565171508268
810.0, 0.005757597869605551
811.0, 0.006258691938134736
812.0, 0.0051014968173464575
813.0, 0.003937270615552676
814.0, 0.0038502520878272834
815.0, 0.0024925319248230724
816.0, 0.005925016857703334
817.0, 0.0062387947812732976
818.0, 0.006474538836427225
819.0, 0.006521195491923463
820.0, 0.004238007304957726
821.0, 0.0032163367396330004
822.0, 0.004999827864942437
823.0, 0.0012875253529570961
824.0, 0.004142986387307715
825.0, 0.0042720862732269875
826.0, 0.005009766568744404
827.0, 0.005033159611597372
828.0, 0.005588025273980258
829.0, 0.0056659910891416814
830.0, 0.004953060444544787
831.0, 0.0062550533117197
832.0, 0.007000434238131581
833.0, 0.006443866141238758
834.0, 0.005074187073392607
835.0, 0.0034761334203713633
836.0, 0.004946799577540377
837.0, 0.005133800844290373
838.0, 0.004126311330876178
839.0, 0.005914419503984525
840.0, 0.004724135750065143
841.0, 0.005718294604611475
842.0, 0.004193867676063819
843.0, 0.002843068022414149
844.0, 0.002187353672069207
845.0, 0.0017682159834457904
846.0, 0.0017310920168759172
847.0, 0.0023417918522334116
848.0, 0.0031754254687691853
849.0, 0.004332053997430762
850.0, 0.0031261697753884035
851.0, 0.0017138543343434673
852.0, 0.004071084558774384
853.0, 0.00545372795352363
854.0, 0.0038709001469657573
855.0, 0.002448665572695077
856.0, 0.002667550259789192
857.0, 0.0050914291816575264
858.0, 0.004871450871090698
859.0, 0.002455425436260249
860.0, 0.0030258113232152026
861.0, 0.0032033852787977696
862.0, 0.003350039150281625
863.0, 0.003292777137695949
864.0, 0.0018402358216809823
865.0, 0.0012319935025747431
866.0, 0.0021006285927848306
867.0, 0.001513252358600005
868.0, 0.0002022798130229078
869.0, 0.0021806102258260223
870.0, 0.0025861303521934865
871.0, 0.0027756282544041857
872.0, 0.00366661815116164
873.0, 0.0015345299352980911
874.0, 0.004831329242525027
875.0, 0.0036352946781106907
876.0, 0.0028809202881745315
877.0, 0.0033171521794708113
878.0, 0.0028902352153294245
879.0, 0.001834935326954026
880.0, 0.0017790460128141402
881.0, 0.002589395076806574
882.0, 0.0024658457665064494
883.0, 0.0011693077094363969
884.0, 0.0022990295918014344
885.0, 0.002389487695204749
886.0, 0.0025766581695266582
887.0, 0.003310568353071579
888.0, 0.0025190768387365887
889.0, 0.0005278523190997855
890.0, 0.0006147100459509907
891.0, 0.003988135190851984
892.0, 0.004488544252201008
893.0, 0.004815988848053621
894.0, 0.003983961248348377
895.0, 0.0029423860664408805
896.0, 0.0034157008787853364
897.0, 0.003213991713884366
898.0, 0.0017467272275467727
899.0, 0.0007632286634102004
900.0, 0.0011611933732850804
901.0, 0.002004225116016238
902.0, 0.0017979164725673035
903.0, 0.00030300747847140014
904.0, 0.0014672240000340178
905.0, 0.0006000496632342242
906.0, 0.0005535350907571474
907.0, 0.0007876192643352504
908.0, 0.000258724542375305
909.0, 0.00046907921872804367
910.0, 0.001451174507091073
911.0, 0.0027681293235327026
912.0, 0.002923553043223457
913.0, 0.0024378646768580753
914.0, 0.0045555482517185
915.0, 0.003839351778474634
916.0, 0.00226124894237306
917.0, 0.002828889151048594
918.0, 0.003180958498998922
919.0, 0.0027042830955448568
920.0, 0.0029755671130731014
921.0, 0.003831378864597461
922.0, 0.004349794004672042
923.0, 0.001444657348444733
924.0, 0.0019089401129538126
925.0, 0.0032042451965066747
926.0, 0.0027339151201241398
927.0, 0.0019596042979442996
928.0, 0.002122571305941629
929.0, 0.00342151061288226
930.0, 0.0037565236357084537
931.0, 0.00486559919374623
932.0, 0.005084644289079914
933.0, 0.004093204581828193
934.0, 0.0037673801392282447
935.0, 0.004617947841179597
936.0, 0.0032371494022064838
937.0, 0.0018480531813828394
938.0, 0.005214850612210515
939.0, 0.00626373685192051
940.0, 0.007255807441966529
941.0, 0.0053493647459392345
942.0, 0.004909217729526574
943.0, 0.0030415205309757784
944.0, 0.004391731796020667
945.0, 0.004631879288857051
946.0, 0.0036177720063707195
947.0, 0.004177794824179011
948.0, 0.0034168791955483746
949.0, 0.0032777082866229643
950.0, 0.002039649291296647
951.0, 0.0026688380898040897
952.0, 0.004427099331754895
953.0, 0.0037966483936643087
954.0, 0.005235110944976952
955.0, 0.006589834704151379
956.0, 0.006573820408600798
957.0, 0.006974352944670288
958.0, 0.005395409912579563
959.0, 0.004639163581645013
960.0, 0.006642242282936678
961.0, 0.005872668460811414
962.0, 0.004059116540569528
963.0, 0.0034644700086958412
964.0, 0.003409265203420456
965.0, 0.0012781060134420834
966.0, 0.0013913337965520444
967.0, 0.0008022309366862394
968.0, 0.0011018201990029052
969.0, 0.0001830185171188475
970.0, 0.0022888866475396135
971.0, 0.001135151300957019
972.0, 0.0009296147328667211
973.0, 0.001649485534096496
974.0, 0.001934895604024266
975.0, 0.0017446666049585268
976.0, 0.0009812038712867525
977.0, 0.00202814565994875
978.0, 0.0034819769545924003
979.0, 0.0007900670246904829
980.0, 0.002529442004237339
981.0, 0.0007602836260519077
982.0, 0.0003223300558105865
983.0, 0.0017029208443746814
984.0, 0.0019146505541893103
985.0, 0.00044480409548430745
986.0, 0.00019056493338361234
987.0, 0.00034515856189728703
988.0, 0.0007877172700905628
989.0, 0.0032497737157201755
990.0, 0.006657290086459964
991.0, 0.006688489424566541
992.0, 0.003825184483787707
993.0, 0.0011287613069067772
994.0, 0.0004674544264183569
995.0, 0.002050758908586254
996.0, 0.004734194431258694
997.0, 0.005501043619131699
998.0, 0.0032336509394227725
999.0, 0.0017437812199472369
1000.0, 0.004006680737496056
1001.0, 0.005132715770652631
1002.0, 0.002243805375004212
1003.0, 0.0020621581441460663
1004.0, 0.004279754969286142
1005.0, 0.004274939846199137
1006.0, 0.0034513874589628
1007.0, 0.004023767357742795
1008.0, 0.005261496491046876
1009.0, 0.005515548514874017
1010.0, 0.0047240694146039024
1011.0, 0.004548313143368004
1012.0, 0.005769144003537912
1013.0, 0.006441670587855339
1014.0, 0.005467326947412225
1015.0, 0.0053968929607868445
1016.0, 0.003089085640344893
1017.0, 0.003086608501426999
1018.0, 0.004799178116935247
1019.0, 0.005368232718723586
1020.0, 0.005220285571742019
1021.0, 0.006018584517914587
1022.0, 0.0064247258171222935
1023.0, 0.004174468989956156
1024.0, 0.003700625550600417
1025.0, 0.004257923491853437
1026.0, 0.007455060847909238
1027.0, 0.008376819909932153
1028.0, 0.008130422191639541
1029.0, 0.006292017825193277
1030.0, 0.005035830080930754
1031.0, 0.007681128514687932
1032.0, 0.006969804613981666
1033.0, 0.0041695555639046835
1034.0, 0.005322080702234793
1035.0, 0.007092810540373298
1036.0, 0.006145295153605639
1037.0, 0.006039832482802753
1038.0, 0.0040614113365437425
1039.0, 0.003327368652216865
1040.0, 0.0025811283254136962
1041.0, 0.0020000370611437997
1042.0, 0.00341345670998728
1043.0, 0.003975748314277526
1044.0, 0.0036432016537524614
1045.0, 0.004708398068595142
1046.0, 0.0063546231174836975
1047.0, 0.007339614733389151
1048.0, 0.00967686982456365
1049.0, 0.004206562083767956
1050.0, 0.005412294234947452
1051.0, 0.00791768512951331
1052.0, 0.0059525278470457564
1053.0, 0.004004826051693906
1054.0, 0.004012829807898622
1055.0, 0.00734027744306595
1056.0, 0.006384373909139267
1057.0, 0.005393201862846922
1058.0, 0.005858975190825806
1059.0, 0.003928588136006769
1060.0, 0.006785881933949671
1061.0, 0.007987214361764975
1062.0, 0.010536651524870804
1063.0, 0.009850297222609347
1064.0, 0.0057555931324192846
1065.0, 0.007285235173897811
1066.0, 0.005997440024732235
1067.0, 0.0026524389170468716
1068.0, 0.0029269551316234285
1069.0, 0.0020272813970987342
1070.0, 0.003403807017029182
1071.0, 0.005487765858197305
1072.0, 0.003057968164512815
1073.0, 0.00578702520631285
1074.0, 0.005517416734777694
1075.0, 0.0044246419954941775
1076.0, 0.0072606026717517095
1077.0, 0.010418614449157825
1078.0, 0.007118566841206541
1079.0, 0.0053134882350457996
1080.0, 0.005068662911925035
1081.0, 0.004992741443469683
1082.0, 0.006005062694475887
1083.0, 0.005592269429533898
1084.0, 0.004143641339680113
1085.0, 0.004641651927920675
1086.0, 0.0046836692820667325
1087.0, 0.002195502746569448
1088.0, 8.135368506884192e-05
1089.0, 0.006000243034109953
1090.0, 0.006727172040145245
1091.0, 0.004345922712388247
1092.0, 0.0016347291201335476
1093.0, 0.002765333293507585
1094.0, 0.0034785587895154874
1095.0, 0.002498103282682212
1096.0, 0.002218434812150383
1097.0, 0.002899287144757779
1098.0, 0.005325772650367719
1099.0, 0.006148690703125905
1100.0, 0.0023288836901651797
1101.0, 0.0031272495654393936
1102.0, 0.0022271508496104378
1103.0, 0.0008609104734217435
1104.0, 0.002375579963160059
1105.0, 0.0017987935182148568
1106.0, 0.0021321142637289957
1107.0, 0.0005527952292012357
1108.0, 0.0009397284753646517
1109.0, 0.0006960414620381754
1110.0, 0.001387376212411262
1111.0, 0.002486513198911332
1112.0, 0.00196041236117083
1113.0, 0.0004712620423053443
1114.0, 0.0016322175616742662
1115.0, 0.0010213147527444633
1116.0, 0.000517592075886641
1117.0, 0.0005803744574880068
1118.0, 0.0009925982252329806
1119.0, 0.0020938235934228897
1120.0, 0.0021074505043800276
1121.0, 0.0007523903732454497
1122.0, 0.0007079843821077346
1123.0, 0.001597265937578436
1124.0, 0.003578395587593217
1125.0, 0.004859729845428132
1126.0, 0.00174840811972816
1127.0, 0.0007650436698720694
1128.0, 0.0018375895255719572
1129.0, 0.0035425839027184458
1130.0, 0.0009331556226867119
1131.0, 0.00037475960109103074
1132.0, 8.245271869043654e-05
1133.0, 0.0007353224480388977
1134.0, 0.0023167075283523756
1135.0, 0.004661681927647301
1136.0, 0.005874444927043642
1137.0, 0.0037789635210332363
1138.0, 0.0020649526814493727
1139.0, 0.0037178765343639534
1140.0, 0.0041475225089426075
1141.0, 0.003995089551961462
1142.0, 0.004188759550434376
1143.0, 0.0041861322673930985
1144.0, 0.00412457493832567
1145.0, 0.0035715035015382117
1146.0, 0.003939387603844244
1147.0, 0.0019699525582298565
1148.0, 0.004215895786604915
1149.0, 0.004996274292121813
1150.0, 0.006594517533885023
1151.0, 0.004698550660413975
1152.0, 0.002585923500215311
1153.0, 0.004941732650366394
1154.0, 0.0041021387376779725
1155.0, 0.006893070105745866
1156.0, 0.004981421391694312
1157.0, 0.0063767228609070276
1158.0, 0.006499751338673744
1159.0, 0.005748688862032431
1160.0, 0.00863041026555436
1161.0, 0.008928735628590237
1162.0, 0.010016704553951346
1163.0, 0.010211276129943426
1164.0, 0.011216194174669611
1165.0, 0.009008068853374239
1166.0, 0.00952072306246454
1167.0, 0.009281283751575038
1168.0, 0.011006125045448092
1169.0, 0.00895581343788836
1170.0, 0.010746384665700645
1171.0, 0.008981591269864675
1172.0, 0.006703065013205682
1173.0, 0.008564391752122731
1174.0, 0.010944350719731303
1175.0, 0.010462564993911226
1176.0, 0.010327585995612149
1177.0, 0.012430692984345508
1178.0, 0.01116955567299738
1179.0, 0.0108495505839829
1180.0, 0.011321797828070641
1181.0, 0.011807405141319713
1182.0, 0.011164441382789905
1183.0, 0.009523184351555303
1184.0, 0.01012276508790648
1185.0, 0.013176226146993346
1186.0, 0.009976346683988216
1187.0, 0.013368126017348485
1188.0, 0.011974176892045883
1189.0, 0.010542911606508332
1190.0, 0.01187071623037097
1191.0, 0.013326085158016532
1192.0, 0.012681325916270206
1193.0, 0.011916540162608742
1194.0, 0.01078735074264158
1195.0, 0.010213189158924581
1196.0, 0.011107140793185026
1197.0, 0.011457683631834236
1198.0, 0.010420035401004352
1199.0, 0.009099576421049837
1200.0, 0.009626179466019066
1201.0, 0.006730058642747087
1202.0, 0.01033799980517627
1203.0, 0.013144110889784425
1204.0, 0.00987483967069485
1205.0, 0.007993014507466551
1206.0, 0.008645334132308153
1207.0, 0.00888164423006576
1208.0, 0.00644217357279386
1209.0, 0.00557732184615732
1210.0, 0.009383490646586596
1211.0, 0.008856185611991285
1212.0, 0.01033681002883767
1213.0, 0.009139771966848374
1214.0, 0.009945183186133503
1215.0, 0.006909965528076349
1216.0, 0.0030484427298196268
1217.0, 0.007768614322000565
1218.0, 0.008505135795151915
1219.0, 0.0044778354063304115
1220.0, 0.0016696988294334135
1221.0, 0.0005252381585435547
1222.0, 0.001358465976344272
1223.0, 0.0013888085701313072
1224.0, 0.00034387580178268614
1225.0, 0.0026429866707057673
1226.0, 0.00028365239521025825
1227.0, 0.0012944326566512766
1228.0, 0.0026174465703182456
1229.0, 0.0024396616301535414
1230.0, 0.003812785086459805
1231.0, 0.004206236661683836
1232.0, 0.004608758969667354
1233.0, 0.005519649326242266
1234.0, 0.005194970768279355
1235.0, 0.002926540255928258
1236.0, 0.005254969297604438
1237.0, 0.00602763348071051
1238.0, 0.0036503983401279046
1239.0, 0.004093070433283077
1240.0, 0.0040925174294132675
1241.0, 0.003200610631834734
1242.0, 0.002853734174414424
1243.0, 0.0019352280260576955
1244.0, 0.003302297128888066
1245.0, 0.0016927012321995597
1246.0, 0.002643280877413945
1247.0, 0.0026695845857817916
1248.0, 0.00392821175546672
1249.0, 0.0035552567678588964
1250.0, 0.0032607019302167495
1251.0, 0.005589367091498269
1252.0, 0.009511515930449419
1253.0, 0.005906798551941087
1254.0, 0.005441826809797444
1255.0, 0.00584501061593253
1256.0, 0.0028042606177250203
1257.0, 0.0035713204359928
1258.0, 0.0017247314284506475
1259.0, 0.0005242016813423336
1260.0, 0.0025138684849747945
1261.0, 0.0024630108745588076
1262.0, 0.003292274732343428
1263.0, 0.0050733936420801675
1264.0, 0.006910232047710907
1265.0, 0.009148261778519273
1266.0, 0.008491091742885221
1267.0, 0.007868118986781834
1268.0, 0.004837911254363669
1269.0, 0.00597840904971235
1270.0, 0.006910299266112467
1271.0, 0.0063652876185768805
1272.0, 0.006404330218368122
1273.0, 0.006517724165710062
1274.0, 0.007633539358142038
1275.0, 0.004229826800368484
1276.0, 0.004796263829916417
1277.0, 0.0041573497197208925
1278.0, 0.008253302354266526
1279.0, 0.0046619624090487475
1280.0, 0.003197301693091973
1281.0, 0.001158100521637173
1282.0, 0.0004319026565340585
1283.0, 0.005915136218877364
1284.0, 0.005351476977826498
1285.0, 0.0027448523194124404
1286.0, 0.0007267679320117781
1287, 0.0
1288, 0.0
1289, 0.0
1290, 0.0
1291, 0.0
1292, 0.0
1293, 0.0
1294, 0.0
1295, 0.0
1296, 0.0
1297, 0.0
1298, 0.0
1299, 0.0
1300, 0.0
1301, 0.0
1302, 0.0
1303, 0.0
1304, 0.0
1305, 0.0
1306, 0.0
1307, 0.0
1308, 0.0
1309, 0.0
1310, 0.0
1311, 0.0
1312, 0.0
1313, 0.0
1314, 0.0
1315, 0.0
1316, 0.0
1317, 0.0
1318, 0.0
1319, 0.0
1320, 0.0
1321, 0.0
1322, 0.0
1323, 0.0
1324, 0.0
1325, 0.0
1326, 0.0
1327, 0.0
1328, 0.0
1329, 0.0
1330, 0.0
1331, 0.0
1332, 0.0
1333, 0.0
1334, 0.0
1335, 0.0
1336, 0.0
1337, 0.0
1338, 0.0
1339, 0.0
1340, 0.0
1341, 0.0
1342, 0.0
1343, 0.0
1344, 0.0
1345, 0.0
1346, 0.0
1347, 0.0
1348, 0.0
1349, 0.0
1350, 0.0
1351, 0.0
1352, 0.0
1353, 0.0
1354, 0.0
1355, 0.0
1356, 0.0
1357, 0.0
1358, 0.0
1359, 0.0
1360, 0.0
1361, 0.0
1362, 0.0
1363, 0.0
1364, 0.0
1365, 0.0
1366, 0.0
1367, 0.0
1368, 0.0
1369, 0.0
1370, 0.0
1371, 0.0
1372, 0.0
1373, 0.0
1374, 0.0
1375, 0.0
1376, 0.0
1377, 0.0
1378, 0.0
1379, 0.0
1380, 0.0
1381, 0.0
1382, 0.0
1383, 0.0
1384, 0.0
1385, 0.0
1386, 0.0
1387, 0.0
1388, 0.0
1389, 0.0
1390, 0.0
1391, 0.0
1392, 0.0
1393, 0.0
1394, 0.0
1395, 0.0
1396, 0.0
1397, 0.0
1398, 0.0
1399, 0.0
1400, 0.0
1401, 0.0
1402, 0.0
1403, 0.0
1404, 0.0
1405, 0.0
1406, 0.0
1407, 0.0
1408, 0.0
1409, 0.0
1410, 0.0
1411, 0.0
1412, 0.0
1413, 0.0
1414, 0.0
1415, 0.0
1416, 0.0
1417, 0.0
1418, 0.0
1419, 0.0
1420, 0.0
1421, 0.0
1422, 0.0
1423, 0.0
1424, 0.0
1425, 0.0
1426, 0.0
1427, 0.0
1428, 0.0
1429, 0.0
1430, 0.0
1431, 0.0
1432, 0.0
1433, 0.0
1434, 0.0
1435, 0.0
1436, 0.0
1437, 0.0
1438, 0.0
1439, 0.0
1440, 0.0
1441, 0.0
1442, 0.0
1443, 0.0
1444, 0.0
1445, 0.0
1446, 0.0
1447, 0.0
1448, 0.0
1449, 0.0
1450, 0.0
1451, 0.0
1452, 0.0
1453, 0.0
1454, 0.0
1455, 0.0
1456, 0.0
1457, 0.0
1458, 0.0
1459, 0.0
1460, 0.0
1461, 0.0
1462, 0.0
1463, 0.0
1464, 0.0
1465, 0.0
1466, 0.0
1467, 0.0
1468, 0.0
1469, 0.0
1470, 0.0
1471, 0.0
1472, 0.0
1473, 0.0
1474, 0.0
1475, 0.0
1476, 0.0
1477, 0.0
1478, 0.0
1479, 0.0
1480, 0.0
1481, 0.0
1482, 0.0
1483, 0.0
1484, 0.0
1485, 0.0
1486, 0.0
1487, 0.0
1488, 0.0
1489, 0.0
1490, 0.0
1491, 0.0
1492, 0.0
1493, 0.0
1494, 0.0
1495, 0.0
1496, 0.0
1497, 0.0
1498, 0.0
1499, 0.0
1500, 0.0
1501, 0.0
1502, 0.0
1503, 0.0
1504, 0.0
1505, 0.0
1506, 0.0
1507, 0.0
1508, 0.0
1509, 0.0
1510, 0.0
1511, 0.0
1512, 0.0
1513, 0.0
1514, 0.0
1515, 0.0
1516, 0.0
1517, 0.0
1518, 0.0
1519, 0.0
1520, 0.0
1521, 0.0
1522, 0.0
1523, 0.0
1524, 0.0
1525, 0.0
1526, 0.0
1527, 0.0
1528, 0.0
1529, 0.0
1530, 0.0
1531, 0.0
1532, 0.0
1533, 0.0
1534, 0.0
1535, 0.0
1536, 0.0
1537, 0.0
1538, 0.0
1539, 0.0
1540, 0.0
1541, 0.0
1542, 0.0
1543, 0.0
1544, 0.0
1545, 0.0
1546, 0.0
1547, 0.0
1548, 0.0
1549, 0.0
1550, 0.0
1551, 0.0
1552, 0.0
1553, 0.0
1554, 0.0
1555, 0.0
1556, 0.0
1557, 0.0
1558, 0.0
1559, 0.0
1560, 0.0
1561, 0.0
1562, 0.0
1563, 0.0
1564, 0.0
1565, 0.0
1566, 0.0
1567, 0.0
1568, 0.0
1569, 0.0
1570, 0.0
1571, 0.0
1572, 0.0
1573, 0.0
1574, 0.0
1575, 0.0
1576, 0.0
1577, 0.0
1578, 0.0
1579, 0.0
1580, 0.0
1581, 0.0
1582, 0.0
1583, 0.0
1584, 0.0
1585, 0.0
1586, 0.0
1587, 0.0
1588, 0.0
1589, 0.0
1590, 0.0
1591, 0.0
1592, 0.0
1593, 0.0
1594, 0.0
1595, 0.0
1596, 0.0
1597, 0.0
1598, 0.0
1599, 0.0
