30, 0.0
31, 0.0
32, 0.0
33, 0.0
34, 0.0
35, 0.0
36, 0.0
37, 0.0
38, 0.0
39, 0.0
40, 0.0
41, 0.0
42, 0.0
43, 0.0
44, 0.0
45, 0.0
46, 0.0
47, 0.0
48, 0.0
49, 0.0
50, 0.0
51, 0.0
52, 0.0
53, 0.0
54, 0.0
55, 0.0
56, 0.0
57, 0.0
58, 0.0
59, 0.0
60, 0.0
61, 0.0
62, 0.0
63, 0.0
64, 0.0
65, 0.0
66, 0.0
67, 0.0
68, 0.0
69, 0.0
70, 0.0
71, 0.0
72, 0.0
73, 0.0
74, 0.0
75, 0.0
76, 0.0
77, 0.0
78, 0.0
79, 0.0
80, 0.0
81, 0.0
82, 0.0
83, 0.0
84, 0.0
85, 0.0
86, 0.0
87, 0.0
88, 0.0
89, 0.0
90, 0.0
91, 0.0
92, 0.0
93, 0.0
94, 0.0
95, 0.0
96, 0.0
97, 0.0
98, 0.0
99, 0.0
100, 0.0
101, 0.0
102, 0.0
103, 0.0
104, 0.0
105, 0.0
106, 0.0
107, 0.0
108, 0.0
109, 0.0
110, 0.0
111, 0.0
112, 0.0
113, 0.0
114, 0.0
115, 0.0
116, 0.0
117, 0.0
118, 0.0
119, 0.0
120, 0.0
121, 0.0
122, 0.0
123, 0.0
124, 0.0
125, 0.0
126, 0.0
127, 0.0
128, 0.0
129, 0.0
130, 0.0
131, 0.0
132, 0.0
133, 0.0
134, 0.0
135, 0.0
136, 0.0
137, 0.0
138, 0.0
139, 0.0
140, 0.0
141, 0.0
142, 0.0
143, 0.0
144, 0.0
145, 0.0
146, 0.0
147, 0.0
148, 0.0
149, 0.0
150, 0.0
151, 0.0
152, 0.0
153, 0.0
154, 0.0
155, 0.0
156, 0.0
157, 0.0
158, 0.0
159, 0.0
160, 0.0
161, 0.0
162, 0.0
163, 0.0
164, 0.0
165, 0.0
166, 0.0
167, 0.0
168, 0.0
169, 0.0
170, 0.0
171, 0.0
172, 0.0
173, 0.0
174, 0.0
175, 0.0
176, 0.0
177, 0.0
178, 0.0
179, 0.0
180, 0.0
181, 0.0
182.0, 5.763636885584972e-06
183.0, 0.0028046443933548043
184.0, 0.007293900387192543
185.0, 0.005645239860972247
186.0, 0.0059736662272382845
187.0, 0.006403819513222927
188.0, 0.006843774838767682
189.0, 0.011753096669887449
190.0, 0.013018901112494985
191.0, 0.01088740831381639
192.0, 0.00615748349125726
193.0, 0.003130202250010195
194.0, 0.005262186963641406
195.0, 0.00109100768819626
196.0, 0.0024961121049323185
197.0, 0.0009818044091608946
198.0, 0.005132404380436056
199.0, 0.0016072782798902628
200.0, 0.00035766289866590907
201.0, 0.0020269587878738713
202.0, 0.002475413768481637
203.0, 0.0044561014454188004
204.0, 0.007242974345034242
205.0, 0.007596486359011766
206.0, 0.006911221700111989
207.0, 0.013248301753659998
208.0, 0.016502062428426834
209.0, 0.017844946311144753
210.0, 0.019934344884828287
211.0, 0.024036799278999457
212.0, 0.027842628651951435
213.0, 0.026731345229405012
214.0, 0.02442875880940842
215.0, 0.02379368743401249
216.0, 0.020618270147757432
217.0, 0.02673182476507545
218.0, 0.031782164691796545
219.0, 0.030655082483397173
220.0, 0.02821638986977999
221.0, 0.030547228097261424
222.0, 0.031778828081833944
223.0, 0.03309726775221297
224.0, 0.03617880583698002
225.0, 0.03532853282583753
226.0, 0.0408205208776654
227.0, 0.04559409529823418
228.0, 0.04636208195984435
229.0, 0.04591453927454184
230.0, 0.05071441730923056
231.0, 0.05432304291562812
232.0, 0.055883572447495845
233.0, 0.05809291470411378
234.0, 0.06427689054175709
235.0, 0.06742118872328037
236.0, 0.07214923206098786
237.0, 0.07601829019200425
238.0, 0.06970024929531016
239.0, 0.0755349875962527
240.0, 0.07482327882114778
241.0, 0.07140267716753812
242.0, 0.0726872210084755
243.0, 0.07156556675754189
244.0, 0.06835764786501193
245.0, 0.06343365704264274
246.0, 0.05590502099992169
247.0, 0.0460305888220619
248.0, 0.04519392935200488
249.0, 0.04418223697132545
250.0, 0.03905035521693202
251.0, 0.032499729374805136
252.0, 0.03446691068277337
253.0, 0.030895623326282626
254.0, 0.02911782641810685
255.0, 0.029150452869167467
256.0, 0.024783274904326254
257.0, 0.023346536801849827
258.0, 0.020429368069193904
259.0, 0.01768310872609707
260.0, 0.017029321767476995
261.0, 0.01732365160124331
262.0, 0.01849089925255248
263.0, 0.018319050503297428
264.0, 0.018758102098248734
265.0, 0.022004795872856964
266.0, 0.018204376795775808
267.0, 0.016355380807628512
268.0, 0.01853327697866762
269.0, 0.021872378967521904
270.0, 0.01893444322166481
271.0, 0.02110264938553404
272.0, 0.021737633803409536
273.0, 0.019553322130661806
274.0, 0.016872704130827816
275.0, 0.013996925016363293
276.0, 0.021464982039665587
277.0, 0.02385821910999367
278.0, 0.019081468319210985
279.0, 0.017906205338981282
280.0, 0.016094882979391593
281.0, 0.014371108237968661
282.0, 0.013139356526148314
283.0, 0.01284085533997028
284.0, 0.01395724480643028
285.0, 0.010091431538816508
286.0, 0.009320621598129686
287.0, 0.01081311313117043
288.0, 0.010373386627067285
289.0, 0.012759411485656107
290.0, 0.01240633665478423
291.0, 0.01228824069463962
292.0, 0.013051671430013633
293.0, 0.012107045837351775
294.0, 0.013383845351470487
295.0, 0.01398093187476565
296.0, 0.015617008397223409
297.0, 0.01798138341847405
298.0, 0.016150344490248013
299.0, 0.0170443787411258
300.0, 0.018390279176092317
301.0, 0.020784885619492877
302.0, 0.0238206261731581
303.0, 0.01913357740642046
304.0, 0.021631212163428473
305.0, 0.020133154192619306
306.0, 0.014413782482086981
307.0, 0.01591031629507214
308.0, 0.01685961832578422
309.0, 0.020854051613040138
310.0, 0.02041828649764007
311.0, 0.014892102738766315
312.0, 0.014808331658354906
313.0, 0.014562432198473026
314.0, 0.0122106686123713
315.0, 0.011745788352945749
316.0, 0.014154388055440779
317.0, 0.011918306157469255
318.0, 0.007416476271731082
319.0, 0.00430988441916374
320.0, 0.0024455824288010498
321.0, 0.0008959238693025232
322.0, 0.0054448215655616035
323.0, 0.0030111495884933993
324.0, 0.0011662831045120346
325.0, 0.0017444803041254478
326.0, 0.005597815396596364
327.0, 0.002361413490091271
328.0, 0.0004457038436829165
329.0, 0.00029158894861820104
330.0, 0.0011789541537045893
331.0, 0.0014124949284342663
332.0, 0.00227514796875692
333.0, 0.0004983337550815302
334.0, 0.004283173488264291
335.0, 0.005146956126696396
336.0, 0.0024449390536202846
337.0, 0.003609203752935623
338.0, 0.002159879297174273
339.0, 0.0056133274944092934
340.0, 0.004248950313755641
341.0, 0.0038717272941637695
342.0, 0.0046392280133167214
343.0, 0.005606412635997264
344.0, 0.007612847264816012
345.0, 0.011470041446140309
346.0, 0.010919121146255557
347.0, 0.013354972554710248
348.0, 0.018035062011628158
349.0, 0.022716888227155785
350.0, 0.026362419875858557
351.0, 0.028493813286913597
352.0, 0.03237969314035629
353.0, 0.03778931837555388
354.0, 0.044204722876089404
355.0, 0.05219100320691289
356.0, 0.057126883530425096
357.0, 0.06441870339130903
358.0, 0.07293089646886128
359.0, 0.08089040390661689
360.0, 0.09114561443016406
361.0, 0.09252007619565977
362.0, 0.09705477368395404
363.0, 0.10466410524432036
364.0, 0.10860175752839205
365.0, 0.1037349235012358
366.0, 0.10350691289613724
367.0, 0.09676225232297297
368.0, 0.08509275771007574
369.0, 0.07709187264676284
370.0, 0.0734026574401828
371.0, 0.06153944288708648
372.0, 0.05041225925927645
373.0, 0.04306835403533577
374.0, 0.03648544580362132
375.0, 0.02580246305365238
376.0, 0.025581248222616995
377.0, 0.024569240225768053
378.0, 0.01975781466283703
379.0, 0.01888155158152727
380.0, 0.019381079116455667
381.0, 0.013836529387563983
382.0, 0.010482705263984048
383.0, 0.012600764251169235
384.0, 0.014054508050269367
385.0, 0.013407666883105353
386.0, 0.01210772884195485
387.0, 0.009619116979135775
388.0, 0.0074932015551357565
389.0, 0.008802125246592008
390.0, 0.01174204727946941
391.0, 0.012814093230518877
392.0, 0.011349490230709422
393.0, 0.009582722675548846
394.0, 0.010254529786309129
395.0, 0.01305703832915274
396.0, 0.011661284912400635
397.0, 0.013441276220636917
398.0, 0.01798735407330715
399.0, 0.016263953773391564
400.0, 0.01775883174357859
401.0, 0.016702704579944955
402.0, 0.016254636152654316
403.0, 0.01830246566488392
404.0, 0.021241451503877098
405.0, 0.022574687403715932
406.0, 0.019866604330737333
407.0, 0.016994941429046253
408.0, 0.016342869692160072
409.0, 0.015811765602431447
410.0, 0.014836063005016782
411.0, 0.021662868690950528
412.0, 0.022228998717459845
413.0, 0.015761237316237752
414.0, 0.018882114105854393
415.0, 0.02050126004703817
416.0, 0.021880708355393245
417.0, 0.02523796844843542
418.0, 0.028702325380072016
419.0, 0.028255962453795157
420.0, 0.027837140532248474
421.0, 0.030956169242264946
422.0, 0.028786532939514418
423.0, 0.024237146617413136
424.0, 0.02926858481967338
425.0, 0.03596952233912663
426.0, 0.03687735880222311
427.0, 0.040142174718667004
428.0, 0.045590400304699
429.0, 0.04580506624522787
430.0, 0.046615146038264006
431.0, 0.044034052716389264
432.0, 0.04273877113158446
433.0, 0.03991538930808099
434.0, 0.03129709199646888
435.0, 0.03299669866300266
436.0, 0.029180046030805082
437.0, 0.02497233684296177
438.0, 0.024178652226308835
439.0, 0.02402896949862999
440.0, 0.022108121257003503
441.0, 0.017273261170530223
442.0, 0.017073357805198346
443.0, 0.01592197401198135
444.0, 0.008190162752455451
445.0, 0.00524656963501835
446.0, 0.0038958450622969573
447.0, 0.005304519290559391
448.0, 0.00425186232257794
449.0, 0.00017201890208513407
450.0, 0.003777063158673312
451.0, 0.0031696880570703163
452.0, 0.0016987330103317405
453.0, 0.0006992990483308841
454.0, 0.0025973943113360423
455.0, 0.0007675793708912834
456.0, 0.00040613022496373513
457.0, 0.0017210496108100706
458.0, 0.0011965484529421287
459.0, 0.0037708339903196244
460.0, 0.004144709832603319
461.0, 0.002909316406626713
462.0, 0.0004499429224885436
463.0, 0.00028173737819702513
464.0, 0.0005312033555323292
465.0, 0.00016559992856689224
466.0, 0.002417409472976899
467.0, 0.001994529789989325
468.0, 0.002314515338674286
469.0, 0.006117131847608903
470.0, 0.012512645152974337
471.0, 0.011620970192422456
472.0, 0.011314392746765004
473.0, 0.014399828601073882
474.0, 0.01909436297006151
475.0, 0.022482026922425277
476.0, 0.024394919841673454
477.0, 0.026499529913139454
478.0, 0.029811335049376605
479.0, 0.036559138143453386
480.0, 0.04180528202396912
481.0, 0.03666187596646525
482.0, 0.046863748163115
483.0, 0.05442264373793837
484.0, 0.05863409876004071
485.0, 0.06085170088860053
486.0, 0.06031890870864836
487.0, 0.06297878734377478
488.0, 0.0701675681592738
489.0, 0.07038581633320715
490.0, 0.06593416955670066
491.0, 0.06552094258366027
492.0, 0.06428009478478733
493.0, 0.060407220961853816
494.0, 0.06104187250115868
495.0, 0.06007122013056962
496.0, 0.05395623607407881
497.0, 0.052762784565751154
498.0, 0.0474254966455559
499.0, 0.04513714489640553
500.0, 0.0437356545672833
501.0, 0.038198034223442694
502.0, 0.02906667801484637
503.0, 0.02845751352810903
504.0, 0.02593467522773097
505.0, 0.024258487602280207
506.0, 0.022354504454884194
507.0, 0.017856756938986796
508.0, 0.017662153710271963
509.0, 0.017642904610049814
510.0, 0.015324671710611394
511.0, 0.011817982431110883
512.0, 0.00978262946528686
513.0, 0.009989595247928997
514.0, 0.005245273728535645
515.0, 0.003924509363661831
516.0, 0.006273706083805149
517.0, 0.006448211348618771
518.0, 0.002844978302549863
519.0, 0.004824827213778481
520.0, 0.003852874818872025
521.0, 0.0009399483882605482
522.0, 0.0006847248192888819
523.0, 0.0001248416555776025
524.0, 0.0006457750032056444
525.0, 0.0004564109386638698
526.0, 0.004555622717997466
527.0, 0.004286502432404278
528.0, 0.00026252606928598094
529.0, 0.0012720959493991051
530.0, 0.0035059400877779047
531.0, 0.003766297750969036
532.0, 0.0030502253347642195
533.0, 0.002149930197519925
534.0, 0.0013544656443937636
535.0, 0.001070920741764681
536.0, 0.0033877274099442466
537.0, 0.001059473361202474
538.0, 0.0020484162400538335
539.0, 0.0009908502059124452
540.0, 0.0016791601932864668
541.0, 0.0003931079387552588
542.0, 0.002234248367590939
543.0, 0.003163091448122469
544.0, 0.003721920991459271
545.0, 0.005244073317426074
546.0, 0.001933111475638101
547.0, 0.0002382031714973956
548.0, 0.006241395319384387
549.0, 0.005449965470959792
550.0, 0.001761870030174417
551.0, 0.0014123671658326183
552.0, 0.005142284898565745
553.0, 0.0055015499065688735
554.0, 0.003689365905437813
555.0, 0.0018554072030159629
556.0, 0.002214512458337297
557.0, 0.005584802288248979
558.0, 0.007545181036898026
559.0, 0.005189185343433549
560.0, 0.001063744047363118
561.0, 0.000500890383502807
562.0, 0.005073894732823531
563.0, 0.002940573160790465
564.0, 0.0031138660130072215
565.0, 0.008846895636378275
566.0, 0.01076555984399436
567.0, 0.005604903423659489
568.0, 0.005825976112110464
569.0, 0.0031694319542430677
570.0, 0.004601808241141904
571.0, 0.006309592110062404
572.0, 0.004099027486380645
573.0, 0.0011132474417942133
574.0, 0.0054167986165996485
575.0, 0.010853526349097791
576.0, 0.013541840166886643
577.0, 0.013811191143151451
578.0, 0.01139003737554932
579.0, 0.006355626732833548
580.0, 0.011245282621622141
581.0, 0.013468381049564148
582.0, 0.011845006428468082
583.0, 0.011522834686486657
584.0, 0.012839297814889577
585.0, 0.010263155852297376
586.0, 0.009267095445387315
587.0, 0.008777844237437184
588.0, 0.010824177959657422
589.0, 0.014032937158915869
590.0, 0.014398673667774253
591.0, 0.012852234465860849
592.0, 0.013352936167879189
593.0, 0.014502923076217826
594.0, 0.013617705813558555
595.0, 0.013247950369657665
596.0, 0.015648214063194645
597.0, 0.013023810781579465
598.0, 0.012122284028939485
599.0, 0.013230411752942881
600.0, 0.01535236239427825
601.0, 0.016186176009995803
602.0, 0.012982341543565791
603.0, 0.01083838383263801
604.0, 0.017528146463037395
605.0, 0.01795936179023595
606.0, 0.014571229185822158
607.0, 0.015617141577634842
608.0, 0.016880746425904352
609.0, 0.01415430977756184
610.0, 0.015818833737233227
611.0, 0.014875427137015527
612.0, 0.013302392937051459
613.0, 0.015301820337393466
614.0, 0.014028999045423683
615.0, 0.018554627107867504
616.0, 0.014303465883469932
617.0, 0.011114217802409497
618.0, 0.011273439707516405
619.0, 0.009406002880047016
620.0, 0.010089531621843733
621.0, 0.012404585802985375
622.0, 0.011466458056089004
623.0, 0.010728782768046207
624.0, 0.010548110238625664
625.0, 0.008178228967774563
626.0, 0.00769089252279086
627.0, 0.005572350686713857
628.0, 0.006573944995054598
629.0, 0.007503680874500627
630.0, 0.0048198491859016875
631.0, 0.0011183307732453968
632.0, 0.005338259188338034
633.0, 0.003178442137050074
634.0, 0.0034609532583703725
635.0, 0.0029037893246848284
636.0, 0.0008450445729657719
637.0, 0.004027137232547266
638.0, 0.005273015722817987
639.0, 0.003756295547608947
640.0, 0.002375923347795531
641.0, 0.0006869533216084567
642.0, 0.0015180561593644095
643.0, 0.0016710411267831244
644.0, 0.0040173969459196745
645.0, 0.003055975408863793
646.0, 0.0025124006274893722
647.0, 0.0028652958252483613
648.0, 0.001868586625986492
649.0, 0.0034516408836541687
650.0, 0.000848894028040616
651.0, 0.001458733780370088
652.0, 0.0013982384921364156
653.0, 0.0010131040635089055
654.0, 0.0019882345817460604
655.0, 0.000610447181923153
656.0, 0.001129404878039387
657.0, 0.00030506934737748137
658.0, 0.0011328104264588825
659.0, 0.0015640998744693635
660.0, 0.0005501119647535117
661.0, 0.0018791866917105791
662.0, 0.0018049443627989638
663.0, 0.0009815546595175221
664.0, 0.0024941486966463676
665.0, 0.0018530113295120623
666.0, 0.0033921108913702734
667.0, 0.0015283824271423287
668.0, 0.0002019288643587341
669.0, 0.0015325305829663476
670.0, 0.0008793206950998608
671.0, 0.0017157451338739528
672.0, 0.002921371301296867
673.0, 0.0015786382684688121
674.0, 0.00578450512937887
675.0, 0.006559223210472798
676.0, 0.0054867649166095095
677.0, 0.008022744516892704
678.0, 0.01106306367313289
679.0, 0.010449729598432695
680.0, 0.014743791838861127
681.0, 0.020211062055435196
682.0, 0.02476356614944318
683.0, 0.02701557902362141
684.0, 0.02736774183116779
685.0, 0.028699116801734013
686.0, 0.0352294222622948
687.0, 0.04298514272231488
688.0, 0.04246286399253416
689.0, 0.0487355618746977
690.0, 0.05777604861347789
691.0, 0.06044545881488792
692.0, 0.06594181076804417
693.0, 0.07276640997178978
694.0, 0.08095000944334134
695.0, 0.08877183908600544
696.0, 0.09571412554119013
697.0, 0.10324170954839018
698.0, 0.11303494460089866
699.0, 0.1192087272056505
700.0, 0.12533002854539047
701.0, 0.13084958897385945
702.0, 0.13517849767051623
703.0, 0.14029655270032684
704.0, 0.14753579685159432
705.0, 0.1523953269811435
706.0, 0.15838902943213187
707.0, 0.1600878869643833
708.0, 0.16694307680614853
709.0, 0.17230594034437333
710.0, 0.16924677500536758
711.0, 0.17327665218227306
712.0, 0.17175947980535744
713.0, 0.16962919698620946
714.0, 0.1706967597808687
715.0, 0.17103271918439003
716.0, 0.16757136928920865
717.0, 0.16393306358972815
718.0, 0.16205130801273118
719.0, 0.15674092532190875
720.0, 0.14709704398820508
721.0, 0.14315129845170918
722.0, 0.1406968307057737
723.0, 0.13115419358047462
724.0, 0.12707937845413778
725.0, 0.11998610569902457
726.0, 0.11507197456000547
727.0, 0.10760611533435077
728.0, 0.09893491924211267
729.0, 0.09521174867040069
730.0, 0.09613149967452549
731.0, 0.09204388130048244
732.0, 0.08570711299142654
733.0, 0.07901988443555866
734.0, 0.07781124751074445
735.0, 0.07766343567008407
736.0, 0.07147430936058789
737.0, 0.07330699878874081
738.0, 0.07200419715223913
739.0, 0.06686313958819622
740.0, 0.06438299465454105
741.0, 0.06347967002662636
742.0, 0.0608709626854291
743.0, 0.058661191608418047
744.0, 0.05387121719710086
745.0, 0.05374980325663929
746.0, 0.05362967585529538
747.0, 0.04762601665970814
748.0, 0.041584184896438274
749.0, 0.04086818896768829
750.0, 0.03230969029845085
751.0, 0.02677035386484689
752.0, 0.027213874044304094
753.0, 0.026988613462803266
754.0, 0.022002476891150938
755.0, 0.016279679752562868
756.0, 0.016690131487153502
757.0, 0.01643923941741687
758.0, 0.011572377757296097
759.0, 0.009459581772539269
760.0, 0.006642443660154929
761.0, 0.0026150553045336516
762.0, 0.0013034088252180161
763.0, 0.0015341512289190956
764.0, 0.0009981089802706302
765.0, 0.0002683116564358346
766.0, 0.0006821272578386467
767.0, 0.00042483600359061516
768.0, 0.0009365165146589801
769.0, 0.0014334600724395146
770.0, 0.0022204119659903643
771.0, 0.004239853194266626
772.0, 0.004075479072513553
773.0, 0.005210740019639781
774.0, 0.009687522163918426
775.0, 0.013328667388919937
776.0, 0.011669035295562083
777.0, 0.013679612163736097
778.0, 0.021188708515286862
779.0, 0.024779837610493783
780.0, 0.030550411402947158
781.0, 0.037403753330137485
782.0, 0.0418266971766973
783.0, 0.051839533920744266
784.0, 0.06311099394311509
785.0, 0.07318736191529451
786.0, 0.08340262444191456
787.0, 0.09413290715829474
788.0, 0.10496794643489822
789.0, 0.11728037675137871
790.0, 0.13409451036526948
791.0, 0.15427152160039576
792.0, 0.1740778441194218
793.0, 0.19552242086150695
794.0, 0.22713690512660678
795.0, 0.2637190393573128
796.0, 0.2962114165433233
797.0, 0.3412191928902286
798.0, 0.3839336113315099
799.0, 0.4384321157159036
800.0, 0.5020200846535888
801.0, 0.5688028889670743
802.0, 0.6372538617483816
803.0, 0.70675280608066
804.0, 0.7755473122186708
805.0, 0.850991291024635
806.0, 0.9202054727355219
807.0, 0.9670541946805613
808.0, 0.992995566091854
809.0, 0.9979867731822512
810.0, 0.9704480308587276
811.0, 0.9097794925132977
812.0, 0.8362606325793471
813.0, 0.7481697981733519
814.0, 0.6524330843822195
815.0, 0.5611795434147081
816.0, 0.48029649910950445
817.0, 0.40958893574030597
818.0, 0.3538601181601039
819.0, 0.29901899378067365
820.0, 0.2552637308760998
821.0, 0.22055439020351317
822.0, 0.1905550762550088
823.0, 0.16324014779109508
824.0, 0.1400807914586888
825.0, 0.12227063505479764
826.0, 0.10817680752995312
827.0, 0.09253470112508125
828.0, 0.08287766911015869
829.0, 0.07289516438719168
830.0, 0.06059804733984264
831.0, 0.054634221395425064
832.0, 0.05535828514807119
833.0, 0.04767167951091165
834.0, 0.04034803855253366
835.0, 0.03423045070775359
836.0, 0.02957757930684246
837.0, 0.027192375238665193
838.0, 0.02617499344769071
839.0, 0.024005726343681675
840.0, 0.01985057817625804
841.0, 0.018976475712364216
842.0, 0.016972779432601198
843.0, 0.012306009149644637
844.0, 0.01045967482249236
845.0, 0.012586111239501714
846.0, 0.010124837591470115
847.0, 0.010384682401794817
848.0, 0.005020648966599032
849.0, 0.00852571704825577
850.0, 0.007188406454852807
851.0, 0.0017647708565820264
852.0, 0.0007841032675369848
853.0, 0.0007170890170574544
854.0, 0.004223644282452255
855.0, 0.001067024502021008
856.0, 0.001934585288970169
857.0, 0.003161103235543512
858.0, 0.0011127942925304515
859.0, 7.035008875765753e-05
860.0, 0.0028385168879831056
861.0, 0.0006705171432179496
862.0, 0.0006973517719986608
863.0, 0.0028887647117912924
864.0, 0.0011756823518439504
865.0, 0.003408967454582603
866.0, 0.0019979855681859456
867.0, 0.0008703445193725467
868.0, 0.005641671289977133
869.0, 0.005532447244111174
870.0, 0.0008656448415151908
871.0, 0.0017982533365110036
872.0, 0.002415907468998855
873.0, 0.00015111759143572915
874.0, 0.0020249918894215285
875.0, 0.0008984318223251454
876.0, 0.00026249384863208576
877.0, 0.0006571837344989665
878.0, 0.0011433660814604513
879.0, 0.0008605358553160232
880.0, 0.0004960061429470336
881.0, 0.001118849964058833
882.0, 0.00047398019357670364
883.0, 0.0013445760013927766
884.0, 0.0011344885015920714
885.0, 0.00023581480063328148
886.0, 0.002008466597805391
887.0, 0.003531402367470689
888.0, 0.0024038553114692903
889.0, 0.0018194392299430364
890.0, 0.00568982526475863
891.0, 0.00590055178500997
892.0, 0.0025280060763946443
893.0, 0.0047340264226660754
894.0, 0.004380845485284613
895.0, 0.0024223800304212
896.0, 0.0034660200098929157
897.0, 0.006419384780032164
898.0, 0.007607737299641051
899.0, 0.006719337247636214
900.0, 0.0030575256355270244
901.0, 0.0017661511565944766
902.0, 0.007057359380857612
903.0, 0.009724493756358935
904.0, 0.007899569132355152
905.0, 0.008575280432547025
906.0, 0.008531604343858414
907.0, 0.006288298651615764
908.0, 0.007258784142081789
909.0, 0.00863138861544818
910.0, 0.008717229063695325
911.0, 0.008001515185685606
912.0, 0.007679883062262387
913.0, 0.008522843849814981
914.0, 0.00996397454493611
915.0, 0.010629524712705169
916.0, 0.0084190773946582
917.0, 0.009459167861849986
918.0, 0.012930602538646814
919.0, 0.01278301923003701
920.0, 0.011536884353336921
921.0, 0.01431560101762422
922.0, 0.011384747665591076
923.0, 0.012136780585352131
924.0, 0.010447662917026502
925.0, 0.0061819092061663385
926.0, 0.010417148775216373
927.0, 0.01379518043363882
928.0, 0.011264525403815822
929.0, 0.01534542865888893
930.0, 0.011022152573115828
931.0, 0.007350345699945028
932.0, 0.007649836340968239
933.0, 0.008485381663716651
934.0, 0.009934602706759233
935.0, 0.008582288038658459
936.0, 0.004994315966155333
937.0, 0.005088576796307338
938.0, 0.0065391727300685674
939.0, 0.009416303409370438
940.0, 0.010182792620357317
941.0, 0.009180844700445506
942.0, 0.009192933009622073
943.0, 0.007864016760152767
944.0, 0.0064689322290265435
945.0, 0.010149245100278408
946.0, 0.012123649820162435
947.0, 0.007038566462178983
948.0, 0.008849063347504838
949.0, 0.010116769039339868
950.0, 0.00865845868762825
951.0, 0.008294238978748975
952.0, 0.00846663669281146
953.0, 0.007182659561845813
954.0, 0.008846951797498719
955.0, 0.008692684867260313
956.0, 0.007117002174290979
957.0, 0.005195010064469047
958.0, 0.00580195496166943
959.0, 0.009484346821243375
960.0, 0.013381914330992803
961.0, 0.013045538216512755
962.0, 0.010461686863189304
963.0, 0.007704584072383687
964.0, 0.0012679250608443392
965.0, 0.006545882143725354
966.0, 0.00725521836553025
967.0, 0.0048038055980052586
968.0, 0.006896571909648591
969.0, 0.009512146701083952
970.0, 0.008169379837389464
971.0, 0.004659147104546569
972.0, 0.006550343007134354
973.0, 0.005936020551673659
974.0, 0.008362088855662803
975.0, 0.005075552607370805
976.0, 0.002081564234729473
977.0, 0.004594137925147948
978.0, 0.007680244902150488
979.0, 0.01253523894558551
980.0, 0.009309999934771874
981.0, 0.004925851740082307
982.0, 0.006835287600635127
983.0, 0.008188571973133156
984.0, 0.00539493966584267
985.0, 0.004369064691274934
986.0, 0.006737950914860401
987.0, 0.005291178057462406
988.0, 0.005713787585925457
989.0, 0.009192291046295735
990.0, 0.011796241711381838
991.0, 0.008315578262373035
992.0, 0.005393370967294746
993.0, 0.005874412115322462
994.0, 0.008042789616157127
995.0, 0.00711361599872974
996.0, 0.001103182584551068
997.0, 0.006822339265035138
998.0, 0.011385209127441974
999.0, 0.005698098769294802
1000.0, 0.0043691217554954415
1001.0, 0.001935082296692231
1002.0, 0.0027133669875148677
1003.0, 0.008416652556331637
1004.0, 0.006771122719592436
1005.0, 0.0027327402507848968
1006.0, 0.007709964755478034
1007.0, 0.007113664247187266
1008.0, 0.00716175989861772
1009.0, 0.006598391801418848
1010.0, 0.002759033878122002
1011.0, 0.003183671546656384
1012.0, 0.007962514679797146
1013.0, 0.006258504718330616
1014.0, 0.005059422192543227
1015.0, 0.0032545776273869985
1016.0, 0.0028404357423459934
1017.0, 0.006083057584049936
1018.0, 0.007010793382510236
1019.0, 0.007324305232963862
1020.0, 0.005798261750700815
1021.0, 0.0038733181578748076
1022.0, 0.004124954327618482
1023.0, 0.005635268582373338
1024.0, 0.006248799628826524
1025.0, 0.005064286691098223
1026.0, 0.005040946083728515
1027.0, 0.004443582123052106
1028.0, 0.004541910485447646
1029.0, 0.004716126686211233
1030.0, 0.004180268940682895
1031.0, 0.004664024632658255
1032.0, 0.0035871047526106234
1033.0, 0.0018338741862678714
1034.0, 0.004303655761060043
1035.0, 0.01110171404254412
1036.0, 0.008683873945218492
1037.0, 0.004131528692560032
1038.0, 0.003943217483418171
1039.0, 0.00665518904283694
1040.0, 0.00804028444671625
1041.0, 0.006955230538634872
1042.0, 0.007400072858633923
1043.0, 0.0052032279825234996
1044.0, 0.00671917830057078
1045.0, 0.005715121598444524
1046.0, 0.001696716074800468
1047.0, 0.0003647054125623037
1048.0, 0.0032970627626058993
1049.0, 0.00721925990652921
1050.0, 0.0013295343821853717
1051.0, 0.0018661151074416337
1052.0, 0.0015336968831395803
1053.0, 0.003455612261290427
1054.0, 0.003521477791017134
1055.0, 0.002370460124717044
1056.0, 0.005069376613962631
1057.0, 0.007915064989259011
1058.0, 0.00473888291413882
1059.0, 0.0008015526518346382
1060.0, 0.0052226854992726305
1061.0, 0.00992155361422908
1062.0, 0.008474039810675101
1063.0, 0.003366377799991082
1064.0, 0.002387955078949275
1065.0, 0.0037697006555617186
1066.0, 0.003161963875754508
1067.0, 0.002207366202538846
1068.0, 0.003875791587722591
1069.0, 0.004810796735519165
1070.0, 0.0026090704180978903
1071.0, 0.0042813565345915785
1072.0, 0.0031331765048985597
1073.0, 0.003536974823154967
1074.0, 0.00327195183286448
1075.0, 0.004893502734209407
1076.0, 0.005532989238481517
1077.0, 0.004846242744773109
1078.0, 0.006081049118637954
1079.0, 0.0009094723160537983
1080.0, 0.002513149807844923
1081.0, 0.003816473673654537
1082.0, 0.005188054785892947
1083.0, 0.0017707073426096577
1084.0, 0.0006434350303875854
1085.0, 0.0012734835408182979
1086.0, 0.0029204648656772827
1087.0, 0.002820017199054523
1088.0, 0.0014302984323731878
1089.0, 0.004700414512421283
1090.0, 0.004212717466303799
1091.0, 0.004753134409729546
1092.0, 0.0021959319228812765
1093.0, 0.0018846527672562261
1094.0, 0.0012478390176345177
1095.0, 0.0010953536925716251
1096.0, 0.0005194685066668649
1097.0, 0.0017915832108165543
1098.0, 0.0034413476511095777
1099.0, 0.006737045234390655
1100.0, 0.0073698542152758955
1101.0, 0.004988321319883438
1102.0, 0.005526807252790062
1103.0, 0.010183750447357203
1104.0, 0.006559624478691286
1105.0, 0.002239379328258023
1106.0, 0.004212483211235262
1107.0, 0.004520093181585773
1108.0, 0.0008044482163275787
1109.0, 0.0035733240375771533
1110.0, 0.006456429447556424
1111.0, 0.004314802017048779
1112.0, 0.0030237747226144595
1113.0, 0.0032236145411547257
1114.0, 0.007226316162948729
1115.0, 0.007853281783040249
1116.0, 0.005194253591439765
1117.0, 0.0030736856955299974
1118.0, 0.002744096635720183
1119.0, 0.0048559786676339554
1120.0, 0.006087776541950808
1121.0, 0.007668051044671952
1122.0, 0.00330326397499233
1123.0, 0.0077929865292779045
1124.0, 0.002662045931168109
1125.0, 0.0010058175626813403
1126.0, 0.0019973223956939686
1127.0, 0.002103939290302336
1128.0, 0.001654460544189192
1129.0, 0.0009344689495819514
1130.0, 0.004872107733643019
1131.0, 0.0009193138901163569
1132.0, 0.001997339844055882
1133.0, 0.0020750187431334806
1134.0, 0.0018641368018129214
1135.0, 0.0030613001417714183
1136.0, 0.003152044051421899
1137.0, 4.752795404683347e-05
1138.0, 0.002303169160654237
1139.0, 0.005258167405257944
1140.0, 0.006088478914950039
1141.0, 0.006056725941328089
1142.0, 0.0015573968427201595
1143.0, 0.005947545789172774
1144.0, 0.00021884354439505365
1145.0, 0.002478052461320176
1146.0, 0.0035934731233483986
1147.0, 0.004087925580803474
1148.0, 0.004448163659724954
1149.0, 0.0034685320869358915
1150.0, 0.003525132393968109
1151.0, 0.0046564805529257115
1152.0, 0.0064528537818475925
1153.0, 0.0037324021491539038
1154.0, 0.0056789998106243555
1155.0, 0.007856619712533828
1156.0, 0.005036492772113929
1157.0, 0.0004800041711390553
1158.0, 0.0005354152118560865
1159.0, 0.0037015690848417877
1160.0, 0.005132273677321742
1161.0, 0.0037878854833106597
1162.0, 0.0061753046416107476
1163.0, 0.007895954422681296
1164.0, 0.008481044076457554
1165.0, 0.009211531703642013
1166.0, 0.0009046424815784986
1167.0, 0.0027589316508188208
1168.0, 0.0019515552339483574
1169.0, 0.004569637383233346
1170.0, 0.006824089210671864
1171.0, 0.005535924540171985
1172.0, 0.004675090950180325
1173.0, 0.0045176420137768665
1174.0, 0.0032972339940706644
1175.0, 0.0031836876198557654
1176.0, 0.008161604484565816
1177.0, 0.00530001026779767
1178.0, 0.002764660668508084
1179.0, 0.005366864290772148
1180.0, 0.007761701817314396
1181.0, 0.010167102688137492
1182.0, 0.006997051722573865
1183.0, 0.004316447969446091
1184.0, 0.008249835022540609
1185.0, 0.008527087288950217
1186.0, 0.010997408855524372
1187.0, 0.012554250243109856
1188.0, 0.008524883935384277
1189.0, 0.008902559764707852
1190.0, 0.005530633383187477
1191.0, 0.0094016508485338
1192.0, 0.006945556143630702
1193.0, 0.00260095421114525
1194.0, 0.007608210052464827
1195.0, 0.012018196153045073
1196.0, 0.010607858347081714
1197.0, 0.012915277573036234
1198.0, 0.010089186720388709
1199.0, 0.0077933076278584625
1200.0, 0.00945346233442615
1201.0, 0.012272275996023322
1202.0, 0.011251282984447315
1203.0, 0.013820145907672613
1204.0, 0.010231399749592012
1205.0, 0.013487414537345036
1206.0, 0.01618355181739705
1207.0, 0.01332499241949384
1208.0, 0.01175208300615369
1209.0, 0.012238931841417076
1210.0, 0.010875542419023667
1211.0, 0.009849134483415766
1212.0, 0.012590019497512222
1213.0, 0.011971828212224957
1214.0, 0.007880622495287721
1215.0, 0.011173010729065356
1216.0, 0.0067362883140481425
1217.0, 0.003927930509998999
1218.0, 0.004665421170314214
1219.0, 0.004739500213432751
1220.0, 0.003440002664844261
1221.0, 0.0023982474492559138
1222.0, 0.004309826386131336
1223.0, 0.005688977802412301
1224.0, 0.008894758544850511
1225.0, 0.008067819460024436
1226.0, 0.009147606788646127
1227.0, 0.00624557167090722
1228.0, 0.006868166196795878
1229.0, 0.00807736579075062
1230.0, 0.005768834298410729
1231.0, 0.00558134315855502
1232.0, 0.006211093018327096
1233.0, 0.005772109086150317
1234.0, 0.004423088720502867
1235.0, 0.0005070808254191352
1236.0, 0.002727624104339683
1237.0, 0.002799749343836893
1238.0, 0.0077661329582432775
1239.0, 0.0047150565760425475
1240.0, 0.002431834860215279
1241.0, 0.007633601705339225
1242.0, 0.004519368262744567
1243.0, 0.00394287966235444
1244.0, 0.0072277733916718745
1245.0, 0.008625475133908891
1246.0, 0.0069400740814693765
1247.0, 0.003964007575042133
1248.0, 0.002520350876534156
1249.0, 0.0018516137480706985
1250.0, 0.0008994858493321663
1251.0, 0.0026822729797531357
1252.0, 0.006278121422606266
1253.0, 0.0029823423617222115
1254.0, 0.0038109055353434773
1255.0, 0.008295216427495694
1256.0, 0.008038995984153266
1257.0, 0.008226692928199364
1258.0, 0.008157397949427606
1259.0, 0.008753643653418424
1260.0, 0.006735808842854988
1261.0, 0.003715882611338376
1262.0, 0.010934242910776479
1263.0, 0.012279078287120292
1264.0, 0.007409810123649078
1265.0, 0.009351219066445522
1266.0, 0.007807991864749035
1267.0, 0.009714422203542284
1268.0, 0.006292547714850803
1269.0, 0.008977299229238568
1270.0, 0.011282902863304087
1271.0, 0.011590393524617968
1272.0, 0.00770497799049669
1273.0, 0.004714932063557427
1274.0, 0.005823536471612709
1275.0, 0.008483032397994002
1276.0, 0.008991034494487063
1277.0, 0.007972735047139362
1278.0, 0.011273059015168755
1279.0, 0.010076864096446916
1280.0, 0.012023709762332569
1281.0, 0.00952653389390162
1282.0, 0.010975535252802196
1283.0, 0.006612285844865653
1284.0, 0.002091285134085485
1285.0, 0.007090540332030084
1286.0, 0.00965792764759094
1287.0, 0.0046115833975658455
1288.0, 0.005869626711779449
1289.0, 0.009107012982777558
1290.0, 0.003906774476139336
1291.0, 0.00384378983639176
1292.0, 0.006060222787944693
1293.0, 0.005988000625690659
1294.0, 0.001374886847353035
1295.0, 0.0008335942524226276
1296.0, 0.0011879828292134964
1297.0, 0.007071901967455693
1298.0, 0.0036463632411507297
1299.0, 0.0070902685772937955
1300.0, 0.004612164611332956
1301.0, 0.00023557874494215558
1302.0, 0.0024693803769627646
1303.0, 7.573221577266255e-05
1304, 0.0
1305, 0.0
1306, 0.0
1307, 0.0
1308, 0.0
1309, 0.0
1310, 0.0
1311, 0.0
1312, 0.0
1313, 0.0
1314, 0.0
1315, 0.0
1316, 0.0
1317, 0.0
1318, 0.0
1319, 0.0
1320, 0.0
1321, 0.0
1322, 0.0
1323, 0.0
1324, 0.0
1325, 0.0
1326, 0.0
1327, 0.0
1328, 0.0
1329, 0.0
1330, 0.0
1331, 0.0
1332, 0.0
1333, 0.0
1334, 0.0
1335, 0.0
1336, 0.0
1337, 0.0
1338, 0.0
1339, 0.0
1340, 0.0
1341, 0.0
1342, 0.0
1343, 0.0
1344, 0.0
1345, 0.0
1346, 0.0
1347, 0.0
1348, 0.0
1349, 0.0
1350, 0.0
1351, 0.0
1352, 0.0
1353, 0.0
1354, 0.0
1355, 0.0
1356, 0.0
1357, 0.0
1358, 0.0
1359, 0.0
1360, 0.0
1361, 0.0
1362, 0.0
1363, 0.0
1364, 0.0
1365, 0.0
1366, 0.0
1367, 0.0
1368, 0.0
1369, 0.0
1370, 0.0
1371, 0.0
1372, 0.0
1373, 0.0
1374, 0.0
1375, 0.0
1376, 0.0
1377, 0.0
1378, 0.0
1379, 0.0
1380, 0.0
1381, 0.0
1382, 0.0
1383, 0.0
1384, 0.0
1385, 0.0
1386, 0.0
1387, 0.0
1388, 0.0
1389, 0.0
1390, 0.0
1391, 0.0
1392, 0.0
1393, 0.0
1394, 0.0
1395, 0.0
1396, 0.0
1397, 0.0
1398, 0.0
1399, 0.0
1400, 0.0
1401, 0.0
1402, 0.0
1403, 0.0
1404, 0.0
1405, 0.0
1406, 0.0
1407, 0.0
1408, 0.0
1409, 0.0
1410, 0.0
1411, 0.0
1412, 0.0
1413, 0.0
1414, 0.0
1415, 0.0
1416, 0.0
1417, 0.0
1418, 0.0
1419, 0.0
1420, 0.0
1421, 0.0
1422, 0.0
1423, 0.0
1424, 0.0
1425, 0.0
1426, 0.0
1427, 0.0
1428, 0.0
1429, 0.0
1430, 0.0
1431, 0.0
1432, 0.0
1433, 0.0
1434, 0.0
1435, 0.0
1436, 0.0
1437, 0.0
1438, 0.0
1439, 0.0
1440, 0.0
1441, 0.0
1442, 0.0
1443, 0.0
1444, 0.0
1445, 0.0
1446, 0.0
1447, 0.0
1448, 0.0
1449, 0.0
1450, 0.0
1451, 0.0
1452, 0.0
1453, 0.0
1454, 0.0
1455, 0.0
1456, 0.0
1457, 0.0
1458, 0.0
1459, 0.0
1460, 0.0
1461, 0.0
1462, 0.0
1463, 0.0
1464, 0.0
1465, 0.0
1466, 0.0
1467, 0.0
1468, 0.0
1469, 0.0
1470, 0.0
1471, 0.0
1472, 0.0
1473, 0.0
1474, 0.0
1475, 0.0
1476, 0.0
1477, 0.0
1478, 0.0
1479, 0.0
1480, 0.0
1481, 0.0
1482, 0.0
1483, 0.0
1484, 0.0
1485, 0.0
1486, 0.0
1487, 0.0
1488, 0.0
1489, 0.0
1490, 0.0
1491, 0.0
1492, 0.0
1493, 0.0
1494, 0.0
1495, 0.0
1496, 0.0
1497, 0.0
1498, 0.0
1499, 0.0
1500, 0.0
1501, 0.0
1502, 0.0
1503, 0.0
1504, 0.0
1505, 0.0
1506, 0.0
1507, 0.0
1508, 0.0
1509, 0.0
1510, 0.0
1511, 0.0
1512, 0.0
1513, 0.0
1514, 0.0
1515, 0.0
1516, 0.0
1517, 0.0
1518, 0.0
1519, 0.0
1520, 0.0
1521, 0.0
1522, 0.0
1523, 0.0
1524, 0.0
1525, 0.0
1526, 0.0
1527, 0.0
1528, 0.0
1529, 0.0
1530, 0.0
1531, 0.0
1532, 0.0
1533, 0.0
1534, 0.0
1535, 0.0
1536, 0.0
1537, 0.0
1538, 0.0
1539, 0.0
1540, 0.0
1541, 0.0
1542, 0.0
1543, 0.0
1544, 0.0
1545, 0.0
1546, 0.0
1547, 0.0
1548, 0.0
1549, 0.0
1550, 0.0
1551, 0.0
1552, 0.0
1553, 0.0
1554, 0.0
1555, 0.0
1556, 0.0
1557, 0.0
1558, 0.0
1559, 0.0
1560, 0.0
1561, 0.0
1562, 0.0
1563, 0.0
1564, 0.0
1565, 0.0
1566, 0.0
1567, 0.0
1568, 0.0
1569, 0.0
1570, 0.0
1571, 0.0
1572, 0.0
1573, 0.0
1574, 0.0
1575, 0.0
1576, 0.0
1577, 0.0
1578, 0.0
1579, 0.0
1580, 0.0
1581, 0.0
1582, 0.0
1583, 0.0
1584, 0.0
1585, 0.0
1586, 0.0
1587, 0.0
1588, 0.0
1589, 0.0
1590, 0.0
1591, 0.0
1592, 0.0
1593, 0.0
1594, 0.0
1595, 0.0
1596, 0.0
1597, 0.0
1598, 0.0
1599, 0.0
