30, 0.0
31, 0.0
32, 0.0
33, 0.0
34, 0.0
35, 0.0
36, 0.0
37, 0.0
38, 0.0
39, 0.0
40, 0.0
41, 0.0
42, 0.0
43, 0.0
44, 0.0
45, 0.0
46, 0.0
47, 0.0
48, 0.0
49, 0.0
50, 0.0
51, 0.0
52, 0.0
53, 0.0
54, 0.0
55, 0.0
56, 0.0
57, 0.0
58, 0.0
59, 0.0
60, 0.0
61, 0.0
62, 0.0
63, 0.0
64, 0.0
65, 0.0
66, 0.0
67, 0.0
68, 0.0
69, 0.0
70, 0.0
71, 0.0
72, 0.0
73, 0.0
74, 0.0
75, 0.0
76, 0.0
77, 0.0
78, 0.0
79, 0.0
80, 0.0
81, 0.0
82, 0.0
83, 0.0
84, 0.0
85, 0.0
86, 0.0
87, 0.0
88, 0.0
89, 0.0
90, 0.0
91, 0.0
92, 0.0
93, 0.0
94, 0.0
95, 0.0
96, 0.0
97, 0.0
98, 0.0
99, 0.0
100, 0.0
101, 0.0
102, 0.0
103, 0.0
104, 0.0
105, 0.0
106, 0.0
107, 0.0
108, 0.0
109, 0.0
110, 0.0
111, 0.0
112, 0.0
113, 0.0
114, 0.0
115, 0.0
116, 0.0
117, 0.0
118, 0.0
119, 0.0
120.0, 0.00024333010955178118
121.0, 0.0011749789453385784
122.0, 0.003719069145692152
123.0, 0.010103399265968583
124.0, 0.011292169129710476
125.0, 0.00698211667631428
126.0, 0.0023677753866113826
127.0, 0.001112024946177834
128.0, 0.004096299027305899
129.0, 0.006289552805938785
130.0, 0.009150595305675314
131.0, 0.010319819629879287
132.0, 0.00950806056278479
133.0, 0.007794124124234359
134.0, 0.007331175716758664
135.0, 0.009455898839011524
136.0, 0.011309786546523799
137.0, 0.014161860624868862
138.0, 0.01841535738290807
139.0, 0.020436722123614713
140.0, 0.024024020206521557
141.0, 0.02672553161849026
142.0, 0.028380765880291998
143.0, 0.029085022362759713
144.0, 0.029093936957335986
145.0, 0.029122785199877717
146.0, 0.028767860298051822
147.0, 0.027876014391645124
148.0, 0.02472329118408618
149.0, 0.018133237431245033
150.0, 0.011582400484724965
151.0, 0.01296411982188216
152.0, 0.014432056655835543
153.0, 0.014410644655638847
154.0, 0.012334540802001056
155.0, 0.00796535429725471
156.0, 0.004927511439961999
157.0, 0.002166212920469376
158.0, 0.0008598851840297889
159.0, 0.0011226167288195428
160.0, 0.002154385150095092
161.0, 0.0018791588514769988
162.0, 0.0014641573764891322
163.0, 0.001794053059660438
164.0, 0.0032453582416765987
165.0, 0.006091131161651012
166.0, 0.010734175500069755
167.0, 0.010059337916355165
168.0, 0.010288766669802649
169.0, 0.010291894720101648
170.0, 0.009645257218237889
171.0, 0.009026757944255526
172.0, 0.01124857348574286
173.0, 0.009122862512280417
174.0, 0.008319437779993501
175.0, 0.009545261359084633
176.0, 0.011885045255201898
177.0, 0.014484106840380592
178.0, 0.014500837400385255
179.0, 0.01531372146112056
180.0, 0.016394152847970522
181.0, 0.017354161027425104
182.0, 0.01831925367313545
183.0, 0.01995361554285052
184.0, 0.022169622937614583
185.0, 0.02539245339149118
186.0, 0.030444891373999226
187.0, 0.03735327372436048
188.0, 0.04322308879713073
189.0, 0.047316057151541184
190.0, 0.053677629106234144
191.0, 0.06029117955205305
192.0, 0.06592859303095143
193.0, 0.0709747663313384
194.0, 0.07598372484931594
195.0, 0.07722246918661389
196.0, 0.0783737263965487
197.0, 0.07925503920578822
198.0, 0.07935147325253825
199.0, 0.08191224484914314
200.0, 0.08645288505829873
201.0, 0.08792453468290881
202.0, 0.08580067286848185
203.0, 0.08413230368383276
204.0, 0.08870703423712799
205.0, 0.06955440949141961
206.0, 0.05156395098953038
207.0, 0.03996420313478241
208.0, 0.03396418696492977
209.0, 0.030700833079601225
210.0, 0.028007932215820888
211.0, 0.025950820139399845
212.0, 0.024627826183367185
213.0, 0.024604980743290813
214.0, 0.025513006007716724
215.0, 0.02615864374321348
216.0, 0.025495029822147037
217.0, 0.025582082084435076
218.0, 0.025937127262804345
219.0, 0.02597588130933389
220.0, 0.025868469522487208
221.0, 0.027442472221300678
222.0, 0.02648707584889065
223.0, 0.026567418797118242
224.0, 0.02755820007698618
225.0, 0.0288325568266707
226.0, 0.029861502822595688
227.0, 0.03230246588535803
228.0, 0.03251929156324459
229.0, 0.03349289996802952
230.0, 0.03426324416186901
231.0, 0.03391649093519041
232.0, 0.03276513142842998
233.0, 0.03233695962618045
234.0, 0.032528411840341304
235.0, 0.0314843144183582
236.0, 0.028677072415017997
237.0, 0.02520840001380117
238.0, 0.025520745980323813
239.0, 0.02377475202602249
240.0, 0.024812287397771353
241.0, 0.026259418260370922
242.0, 0.02640318680349017
243.0, 0.02542844685973449
244.0, 0.028448816584883446
245.0, 0.02810571840220315
246.0, 0.025930532033675385
247.0, 0.02404563239263985
248.0, 0.023739032979897802
249.0, 0.024245771741363616
250.0, 0.021720057156290464
251.0, 0.02237995694843717
252.0, 0.022357197834646493
253.0, 0.021845220845757955
254.0, 0.022099879307619114
255.0, 0.01825614786214395
256.0, 0.018480190907911143
257.0, 0.018906137233066302
258.0, 0.020492951018490347
259.0, 0.022127871721671025
260.0, 0.020589241827412483
261.0, 0.018816651533872467
262.0, 0.018401652222501216
263.0, 0.014902137744296898
264.0, 0.011109493382033457
265.0, 0.009599286211389009
266.0, 0.008495798025062682
267.0, 0.006598088443442382
268.0, 0.008574309566938448
269.0, 0.008641494844519372
270.0, 0.00803935560454176
271.0, 0.009501475479875912
272.0, 0.007042482009904075
273.0, 0.009991239339965699
274.0, 0.009986337906288313
275.0, 0.008607364704908848
276.0, 0.007926091233870766
277.0, 0.009186090292599317
278.0, 0.011223854525352782
279.0, 0.012846646724936123
280.0, 0.016230186257870156
281.0, 0.01838487371682929
282.0, 0.02016164869611045
283.0, 0.0286815355318153
284.0, 0.03626608884774768
285.0, 0.04689864034177862
286.0, 0.05966640130411122
287.0, 0.07552767448346222
288.0, 0.09472018808587077
289.0, 0.11442387152319553
290.0, 0.146266937143297
291.0, 0.17884080689738407
292.0, 0.2105578378480842
293.0, 0.2328616395246997
294.0, 0.2372300192216064
295.0, 0.22933019155596454
296.0, 0.20381050145861818
297.0, 0.1706153393240965
298.0, 0.13485001350901113
299.0, 0.0999362395663241
300.0, 0.06837293190229556
301.0, 0.04747987631365275
302.0, 0.029939922871625675
303.0, 0.016559856003836904
304.0, 0.006418690883701067
305.0, 0.0020000447431959877
306.0, 0.0087302472550351
307.0, 0.01331464095788633
308.0, 0.017390645978213364
309.0, 0.016454289414548386
310.0, 0.013125552514013403
311.0, 0.0093029865030583
312.0, 0.0025665697108738575
313.0, 0.012104806192432704
314.0, 0.026887521610532823
315.0, 0.041494355432402055
316.0, 0.05925705492745405
317.0, 0.08518561252881768
318.0, 0.11972227368816674
319.0, 0.1679034838990697
320.0, 0.21945700078018893
321.0, 0.2771283296641174
322.0, 0.32464084030496226
323.0, 0.3449165321539193
324.0, 0.34853660607909
325.0, 0.3105388097612071
326.0, 0.25886816562108605
327.0, 0.19905886507299034
328.0, 0.14073520266023523
329.0, 0.0938782364782075
330.0, 0.05828051115933959
331.0, 0.03416069069310495
332.0, 0.02113961775195873
333.0, 0.012716349332187526
334.0, 0.005562000709736828
335.0, 0.0005896056783463337
336.0, 0.00278846070260569
337.0, 0.0012593045715393117
338.0, 0.0003867157759436683
339.0, 0.0004357511519406804
340.0, 0.0013084338473655379
341.0, 0.0031713450838835775
342.0, 0.007031976812290645
343.0, 0.010841702370608707
344.0, 0.015553572727857722
345.0, 0.020934960046172447
346.0, 0.02642574960408422
347.0, 0.03197942915059368
348.0, 0.043065996032356973
349.0, 0.05013652338275803
350.0, 0.06159950551642811
351.0, 0.07712859774573748
352.0, 0.09511187430518608
353.0, 0.11491876033664748
354.0, 0.13873427514040443
355.0, 0.1698159645082111
356.0, 0.2067634356653684
357.0, 0.2471030891904632
358.0, 0.28727405025468594
359.0, 0.32304640080695
360.0, 0.34842819702370725
361.0, 0.3616343284237288
362.0, 0.35306886898069484
363.0, 0.330978153789255
364.0, 0.30198393774093085
365.0, 0.264653430035674
366.0, 0.23141931564558313
367.0, 0.20305631329728685
368.0, 0.1820185140496164
369.0, 0.16409258847188762
370.0, 0.14742399719519006
371.0, 0.1358140556204134
372.0, 0.13310904798198392
373.0, 0.12636543470957542
374.0, 0.12267575472920757
375.0, 0.11853682138061819
376.0, 0.11255187030752478
377.0, 0.10903300116823239
378.0, 0.10495493539548768
379.0, 0.1002875020796727
380.0, 0.09754305690757376
381.0, 0.09544071966929076
382.0, 0.09326778591441555
383.0, 0.09204739792296487
384.0, 0.0912082231887837
385.0, 0.09175776782771085
386.0, 0.09233172436646624
387.0, 0.09347467516551818
388.0, 0.09628632186554202
389.0, 0.10135593311362487
390.0, 0.10443336995005323
391.0, 0.10689336502508971
392.0, 0.11073881247470492
393.0, 0.1128995404806422
394.0, 0.11335080705618956
395.0, 0.11534542712867026
396.0, 0.11653219386081826
397.0, 0.11402734212818548
398.0, 0.11093335510083042
399.0, 0.10684648551599295
400.0, 0.1036886959480625
401.0, 0.10416802022107716
402.0, 0.1027800621724469
403.0, 0.09328173021189631
404.0, 0.0926485323117329
405.0, 0.09441154514352595
406.0, 0.09490567083647848
407.0, 0.09525326623483735
408.0, 0.09786800954711335
409.0, 0.09746090397346452
410.0, 0.09818015050058503
411.0, 0.09630875538850507
412.0, 0.094144789358961
413.0, 0.0950348071997649
414.0, 0.09335229954833012
415.0, 0.09532096806741905
416.0, 0.0941334180538355
417.0, 0.09666194883866215
418.0, 0.10130861120451416
419.0, 0.10332710584512693
420.0, 0.10150784521160695
421.0, 0.1011812850686568
422.0, 0.10118441480580795
423.0, 0.09746654366037856
424.0, 0.09380775611723406
425.0, 0.09243539651456387
426.0, 0.08836716243060365
427.0, 0.08190145351020583
428.0, 0.07959026193633192
429.0, 0.07636777337185624
430.0, 0.07176109039801172
431.0, 0.06865045674114405
432.0, 0.07054969119324436
433.0, 0.06708513630814868
434.0, 0.06385885052957653
435.0, 0.06287973634724052
436.0, 0.0620051650035522
437.0, 0.06113132210731557
438.0, 0.06206424526743683
439.0, 0.06383879643360739
440.0, 0.07111665648299327
441.0, 0.07343139246820796
442.0, 0.07833356215618373
443.0, 0.08683173566676305
444.0, 0.09491926982901495
445.0, 0.10004690106921185
446.0, 0.10384420138414525
447.0, 0.11058755128371574
448.0, 0.11668323648708939
449.0, 0.12152049836003845
450.0, 0.1269701678621218
451.0, 0.1361152415060783
452.0, 0.14450421196284616
453.0, 0.1507554908680302
454.0, 0.15072711305594105
455.0, 0.13992649674129984
456.0, 0.11903360234910673
457.0, 0.0947287234395778
458.0, 0.07297479716434298
459.0, 0.05515835623566548
460.0, 0.04537338128645302
461.0, 0.038154404764431764
462.0, 0.03068655701254539
463.0, 0.023294195535907735
464.0, 0.015235218327054044
465.0, 0.014186545807325217
466.0, 0.011304624860782824
467.0, 0.010818188842001761
468.0, 0.01066452621966957
469.0, 0.008041126146961113
470.0, 0.0053937987926028046
471.0, 0.004250632312937488
472.0, 0.005078218691219368
473.0, 0.0032009600781515305
474.0, 0.0013737890469046978
475.0, 0.0014101765780869515
476.0, 0.0015526871314963022
477.0, 0.0008526732631412321
478.0, 0.001773759088636954
479.0, 0.0026198599995818834
480.0, 0.003563536663761056
481.0, 0.004532100956830385
482.0, 0.005250646000535553
483.0, 0.005819274633264207
484.0, 0.006176757415505625
485.0, 0.007053732637548088
486.0, 0.008570835429600384
487.0, 0.009172507876367713
488.0, 0.008171521230683801
489.0, 0.006813131318043831
490.0, 0.0013801854345553187
491.0, 0.0015203470086724712
492.0, 0.0038203539951243252
493.0, 0.00924283511975516
494.0, 0.016231412453294815
495.0, 0.021701717494809692
496.0, 0.02741114905292684
497.0, 0.03318638938878057
498.0, 0.04229517350915133
499.0, 0.049184610697421666
500.0, 0.05552708385467415
501.0, 0.06354976038859082
502.0, 0.07004366181612008
503.0, 0.07687160351574027
504.0, 0.08437159929468191
505.0, 0.09129048338052381
506.0, 0.0989986710341532
507.0, 0.10701832881415858
508.0, 0.11361004591884992
509.0, 0.12116560728536524
510.0, 0.1294767712715749
511.0, 0.13852111857292973
512.0, 0.14302402432924877
513.0, 0.14655680549784025
514.0, 0.1513657800510482
515.0, 0.15032885293955045
516.0, 0.1502523878561707
517.0, 0.15088785432344362
518.0, 0.15051422636631537
519.0, 0.1456038183548826
520.0, 0.14010158168116313
521.0, 0.14059649479835662
522.0, 0.1386033279634153
523.0, 0.14030959362399018
524.0, 0.1387140651105322
525.0, 0.1405708181603155
526.0, 0.14299624869740998
527.0, 0.1434894309486405
528.0, 0.14657760037573078
529.0, 0.15103673400150236
530.0, 0.15474992065925663
531.0, 0.15873308430593885
532.0, 0.16496445460211082
533.0, 0.1732612775339355
534.0, 0.1824259035343435
535.0, 0.19328876692693592
536.0, 0.2048135246951109
537.0, 0.2153925969081443
538.0, 0.22944175317756393
539.0, 0.24586718118180284
540.0, 0.26214622289980133
541.0, 0.27691951224567213
542.0, 0.29105327663306896
543.0, 0.30848385898567227
544.0, 0.32139728844922755
545.0, 0.3336674053366351
546.0, 0.3469265658819514
547.0, 0.3589604199842351
548.0, 0.3653384084895856
549.0, 0.37684677643996217
550.0, 0.3868681289464623
551.0, 0.3954524379852318
552.0, 0.4037830221663561
553.0, 0.4114174461152151
554.0, 0.41682652427870137
555.0, 0.4198210619045219
556.0, 0.4146214483275228
557.0, 0.4080411291125898
558.0, 0.3983421829063095
559.0, 0.3883492847504153
560.0, 0.3797052079826575
561.0, 0.3705130720452325
562.0, 0.357313937349279
563.0, 0.353012171288974
564.0, 0.3473387020140768
565.0, 0.34053344410394404
566.0, 0.33533485511857825
567.0, 0.3330357731096963
568.0, 0.33180971969262835
569.0, 0.33488987143011256
570.0, 0.33888341344812173
571.0, 0.33921329233420755
572.0, 0.341662393608545
573.0, 0.34328684813032256
574.0, 0.33879553866500806
575.0, 0.33247355852580457
576.0, 0.33205479977050734
577.0, 0.3249331190304447
578.0, 0.3185562147058617
579.0, 0.31068615421757567
580.0, 0.30114211204271457
581.0, 0.29171875332079356
582.0, 0.27997578092286785
583.0, 0.26827853477380015
584.0, 0.255651930714386
585.0, 0.2439949474064008
586.0, 0.23365903022751225
587.0, 0.22437302205841025
588.0, 0.2154342792260826
589.0, 0.2050618140160231
590.0, 0.20156120185130405
591.0, 0.1989417189512353
592.0, 0.19268150772651926
593.0, 0.18663284293161106
594.0, 0.1824185335834362
595.0, 0.1768734352078025
596.0, 0.17496688331085547
597.0, 0.17170514903520878
598.0, 0.171290707423595
599.0, 0.170106705673995
600.0, 0.1708126639259186
601.0, 0.17371348780049478
602.0, 0.1739523173017562
603.0, 0.1782277950653274
604.0, 0.18142204094337647
605.0, 0.18771365854668282
606.0, 0.19400835561111524
607.0, 0.20014933740396862
608.0, 0.207608481535529
609.0, 0.2169229078265663
610.0, 0.2246475865446031
611.0, 0.23720560685272535
612.0, 0.24995845546706374
613.0, 0.26318902745416145
614.0, 0.2762551543917572
615.0, 0.28869261364785925
616.0, 0.30142281567552887
617.0, 0.3154281105792719
618.0, 0.3257527624240416
619.0, 0.33378382166089493
620.0, 0.3430172384362943
621.0, 0.3510762569354919
622.0, 0.3562821287061143
623.0, 0.36232935787631904
624.0, 0.3658517617573656
625.0, 0.37273388302236865
626.0, 0.3757359770899351
627.0, 0.38025772579769734
628.0, 0.3860516796817345
629.0, 0.3913281722130278
630.0, 0.3976766016823986
631.0, 0.4061623406007252
632.0, 0.40745536876652205
633.0, 0.40863670871114244
634.0, 0.4090275054331253
635.0, 0.40768905650628284
636.0, 0.4039365869795551
637.0, 0.39738269998165354
638.0, 0.3886966521983627
639.0, 0.3820850030501318
640.0, 0.3714709775806402
641.0, 0.36229148445844345
642.0, 0.35482449793414356
643.0, 0.3475763651203903
644.0, 0.34082465170832305
645.0, 0.3363525705925304
646.0, 0.3305956002688937
647.0, 0.32739799307062045
648.0, 0.3244363063781178
649.0, 0.32030369975765005
650.0, 0.3149988062414681
651.0, 0.3083840305088319
652.0, 0.29609126521647
653.0, 0.27896197654701665
654.0, 0.25899931844085994
655.0, 0.23941062791154663
656.0, 0.21917273834414644
657.0, 0.198595717596008
658.0, 0.1798956978470845
659.0, 0.16277355906191038
660.0, 0.14375347400732028
661.0, 0.13000131881535207
662.0, 0.11788138686901714
663.0, 0.10525180868161184
664.0, 0.09268097637334076
665.0, 0.08070506020874965
666.0, 0.0662161378116355
667.0, 0.05520002359231565
668.0, 0.045510453178461766
669.0, 0.03836992259516673
670.0, 0.030580469183143888
671.0, 0.022706197776788405
672.0, 0.018487272863030986
673.0, 0.019823015090327578
674.0, 0.013104199884486585
675.0, 0.009503931676242715
676.0, 0.008799147957680638
677.0, 0.006408898159977238
678.0, 0.0026468788780110017
679.0, 0.00019117103176262876
680.0, 0.0003455448455390753
681.0, 0.0005176175216679786
682.0, 0.0010952677154625165
683.0, 0.0037387630439185797
684.0, 0.004535206445679782
685.0, 0.004559501402242585
686.0, 0.005315275474332408
687.0, 0.006219918611401745
688.0, 0.00505975497231997
689.0, 0.006937143010556661
690.0, 0.005064370731586838
691.0, 0.0029745141282678904
692.0, 0.003311391874352532
693.0, 0.0038935847619331523
694.0, 0.0024859863084370887
695.0, 0.0021300045277294084
696.0, 0.003534659196422646
697.0, 0.005792875615010275
698.0, 0.006205767410706615
699.0, 0.006865685991445709
700.0, 0.008674509824074047
701.0, 0.011471309617795657
702.0, 0.01448104806395717
703.0, 0.016012262016481257
704.0, 0.01766622693682196
705.0, 0.019303759101811462
706.0, 0.02097551677940101
707.0, 0.02296304292331565
708.0, 0.02503924773397735
709.0, 0.027170384020328297
710.0, 0.03045291102527863
711.0, 0.03387283628445265
712.0, 0.03734961387817571
713.0, 0.041892430794047
714.0, 0.04494493887538251
715.0, 0.0487872477625996
716.0, 0.053653972616506056
717.0, 0.05515645501353358
718.0, 0.054869836057027284
719.0, 0.0542657651570294
720.0, 0.05376996446917524
721.0, 0.046558358781556584
722.0, 0.036349913334982414
723.0, 0.028940717042552064
724.0, 0.0250745299151261
725.0, 0.01827871044376197
726.0, 0.012680616206763844
727.0, 0.008113745190452104
728.0, 0.00846033890261225
729.0, 0.008912022185976877
730.0, 0.01073573127578695
731.0, 0.01286530350509798
732.0, 0.01177249097383748
733.0, 0.017277470879141967
734.0, 0.018244083515719704
735.0, 0.018619326870989206
736.0, 0.022268043552870317
737.0, 0.02459935083857584
738.0, 0.024152538654377137
739.0, 0.022173130386419708
740.0, 0.019554874264876808
741.0, 0.023498226465838636
742.0, 0.02033555487456592
743.0, 0.014629572396504665
744.0, 0.013133744362561605
745.0, 0.012060061531081445
746.0, 0.00999212248193462
747.0, 0.009532456780847676
748.0, 0.0089563997482617
749.0, 0.006241839124600599
750.0, 0.008264263587092872
751.0, 0.008633517144270119
752.0, 0.007988698441339686
753.0, 0.007355176786623375
754.0, 0.00788495116768325
755.0, 0.009951643593698406
756.0, 0.010371607566007673
757.0, 0.012032209825504153
758.0, 0.012339024277909512
759.0, 0.012134031183364782
760.0, 0.012399979200528929
761.0, 0.011911446261974592
762.0, 0.010837072950966049
763.0, 0.011618884704785474
764.0, 0.009055578077961812
765.0, 0.006574180988460232
766.0, 0.006033492137071542
767.0, 0.004403221986050709
768.0, 0.0037726554102968574
769.0, 0.0048832298917399425
770.0, 0.0064780791432767215
771.0, 0.00754673839475136
772.0, 0.007539839008479213
773.0, 0.00732428565872146
774.0, 0.007651194758046891
775.0, 0.008717968159457239
776.0, 0.009903408917791182
777.0, 0.012084743541629703
778.0, 0.014462627668980705
779.0, 0.012467913499283136
780.0, 0.017903357573825697
781.0, 0.01852265966787723
782.0, 0.02231823166100833
783.0, 0.024899273873920755
784.0, 0.02613468575199304
785.0, 0.02708585716695173
786.0, 0.02892625457787449
787.0, 0.03365930533943891
788.0, 0.03745283402504991
789.0, 0.042353131041532446
790.0, 0.04472346654064983
791.0, 0.049706710789797555
792.0, 0.053137007866639316
793.0, 0.05500227222553213
794.0, 0.06022453491448945
795.0, 0.06755567588937116
796.0, 0.07196728154168579
797.0, 0.08007133857088228
798.0, 0.0866289198597138
799.0, 0.09439148396328159
800.0, 0.10060682550703033
801.0, 0.10739966333338974
802.0, 0.11920303875027129
803.0, 0.13186165063672167
804.0, 0.14559635490213874
805.0, 0.1619684313574816
806.0, 0.1784478698532403
807.0, 0.19733645616713924
808.0, 0.21771212115703809
809.0, 0.23836642571448058
810.0, 0.2589876826792058
811.0, 0.28013418793413175
812.0, 0.30806082865468765
813.0, 0.3342048981254042
814.0, 0.3682676404782827
815.0, 0.40078917011869486
816.0, 0.4327669453612413
817.0, 0.46436605607387915
818.0, 0.4957629895106253
819.0, 0.5295405665246657
820.0, 0.5495516744875942
821.0, 0.5610996100923578
822.0, 0.5641862636671416
823.0, 0.556636994853802
824.0, 0.5411511106022552
825.0, 0.5166191728175028
826.0, 0.4836398000583495
827.0, 0.44814872938314637
828.0, 0.4078862679825386
829.0, 0.3713215597714712
830.0, 0.33472343706713875
831.0, 0.30026530896971454
832.0, 0.27173329893756215
833.0, 0.24761954152239835
834.0, 0.22590334836863782
835.0, 0.20654585460697142
836.0, 0.18673355044648882
837.0, 0.17141855300857842
838.0, 0.15424516462623664
839.0, 0.13580548244742136
840.0, 0.11715118707460022
841.0, 0.09977103597326811
842.0, 0.0851265704477255
843.0, 0.0731179850083912
844.0, 0.06101658148362163
845.0, 0.047529677413212325
846.0, 0.03793944151593199
847.0, 0.03168087682162699
848.0, 0.02639315918893566
849.0, 0.019191641966982365
850.0, 0.012291286988462938
851.0, 0.008154570158084701
852.0, 0.004376761793184589
853.0, 0.000624369578311257
854.0, 0.002604047092563039
855.0, 0.006625524247585236
856.0, 0.007024265978101328
857.0, 0.009279126759544636
858.0, 0.011290345600568344
859.0, 0.010281977178884572
860.0, 0.008847343224124955
861.0, 0.01033719607179344
862.0, 0.00987885060145305
863.0, 0.009770459202891175
864.0, 0.009584074341948686
865.0, 0.009345467998147922
866.0, 0.007674355514763575
867.0, 0.006932855951755229
868.0, 0.007804234078872368
869.0, 0.005691384302813687
870.0, 0.0045847882395329675
871.0, 0.005057031951183803
872.0, 0.004743770087798981
873.0, 0.0020791698463798617
874.0, 0.0011620891746105247
875.0, 0.0016985439605853056
876.0, 0.0018286311494880012
877.0, 0.0014967809799686848
878.0, 0.001924000163400025
879.0, 0.0024573411177989174
880.0, 0.0022092398210116814
881.0, 0.0016863202546071748
882.0, 0.0020013168133758835
883.0, 0.003338239889405484
884.0, 0.005426108489672185
885.0, 0.008114419865206668
886.0, 0.010855517475621948
887.0, 0.011564230678190653
888.0, 0.014799654292328625
889.0, 0.01503548305772023
890.0, 0.019883935352647545
891.0, 0.022650883918295735
892.0, 0.026085629722494164
893.0, 0.0302295490164383
894.0, 0.03385512083737327
895.0, 0.04056923773767591
896.0, 0.04797268078837894
897.0, 0.053761403585225444
898.0, 0.06543372211658338
899.0, 0.07659970829815194
900.0, 0.087522998608638
901.0, 0.10149538105359764
902.0, 0.11744040667760244
903.0, 0.13167449460061414
904.0, 0.14537931271387775
905.0, 0.16326560073519386
906.0, 0.1848403628891625
907.0, 0.20471834874037095
908.0, 0.22484640617827711
909.0, 0.2505232121100011
910.0, 0.28399817856713877
911.0, 0.32231275685251815
912.0, 0.3638533082038819
913.0, 0.4151492935769783
914.0, 0.4753468944076269
915.0, 0.5442656950284166
916.0, 0.6311780244784511
917.0, 0.7250275625918214
918.0, 0.8226771469719424
919.0, 0.9135163650177659
920.0, 0.9768115431969542
921.0, 0.9919851969733284
922.0, 0.9535374379382132
923.0, 0.8730383120833739
924.0, 0.7718484105088586
925.0, 0.6799068066325471
926.0, 0.604246213058392
927.0, 0.5454336688711686
928.0, 0.5015356023417192
929.0, 0.4645412698942794
930.0, 0.42671569255427233
931.0, 0.38958559702001555
932.0, 0.34368939205077564
933.0, 0.30231290477255607
934.0, 0.26800903258494485
935.0, 0.23330712343992643
936.0, 0.20407774200543083
937.0, 0.18267623558239093
938.0, 0.163632762062106
939.0, 0.14496217832969704
940.0, 0.13504511697375948
941.0, 0.12452302538461073
942.0, 0.11173155326620757
943.0, 0.10720648457615657
944.0, 0.1026866698768728
945.0, 0.09763554565115784
946.0, 0.09427985331478052
947.0, 0.09213350525060372
948.0, 0.09091101855221323
949.0, 0.09247734823852262
950.0, 0.09114268020284572
951.0, 0.08867472461721808
952.0, 0.08666794565940189
953.0, 0.08357743549833418
954.0, 0.08095068707370248
955.0, 0.07788110080331673
956.0, 0.07500871304372363
957.0, 0.07274426111360169
958.0, 0.06979107035902415
959.0, 0.06677967052151486
960.0, 0.06592474648513086
961.0, 0.06516439053245242
962.0, 0.06444060465109952
963.0, 0.06535684906652502
964.0, 0.06639920952550589
965.0, 0.06714429663851644
966.0, 0.06768827696563187
967.0, 0.06836324911819135
968.0, 0.0702468053482687
969.0, 0.07232952190835187
970.0, 0.07346072783679916
971.0, 0.07642646985056956
972.0, 0.07785610723457581
973.0, 0.07921478985292629
974.0, 0.08158110977624579
975.0, 0.08468517116817387
976.0, 0.088294111670443
977.0, 0.09169325951988835
978.0, 0.09147257138123764
979.0, 0.094451042995109
980.0, 0.09290939676334073
981.0, 0.09239521981284575
982.0, 0.09200481795288058
983.0, 0.09148683056917548
984.0, 0.09179481967142866
985.0, 0.09353835732135395
986.0, 0.09545459236040915
987.0, 0.09594287159324524
988.0, 0.0985839158393893
989.0, 0.10030864106974952
990.0, 0.10423139796342862
991.0, 0.10926881376419774
992.0, 0.11469419430703724
993.0, 0.12121165725875344
994.0, 0.12866829796811674
995.0, 0.13754021095649477
996.0, 0.15024155049320184
997.0, 0.16859596485072553
998.0, 0.18877065938138254
999.0, 0.22179452197672447
1000.0, 0.255409626421125
1001.0, 0.30049583123949025
1002.0, 0.3543387558003213
1003.0, 0.4104984922488529
1004.0, 0.46376791905660186
1005.0, 0.5066279264348202
1006.0, 0.532558764466047
1007.0, 0.5456262177892869
1008.0, 0.5332040945873607
1009.0, 0.4915968737414292
1010.0, 0.44119729967282184
1011.0, 0.3822744718852238
1012.0, 0.3245023394440352
1013.0, 0.2730450901932255
1014.0, 0.23078641142516654
1015.0, 0.19682763321149663
1016.0, 0.16876864319544538
1017.0, 0.15158369283754738
1018.0, 0.14058231849031527
1019.0, 0.1261691655871752
1020.0, 0.11682674031516264
1021.0, 0.10981685938196381
1022.0, 0.10243350660174914
1023.0, 0.09700460710074031
1024.0, 0.09349074623385518
1025.0, 0.09025188457675529
1026.0, 0.08736616165150504
1027.0, 0.08435809706787048
1028.0, 0.08261907099212965
1029.0, 0.08059246659473895
1030.0, 0.08040104807291765
1031.0, 0.07788329295079885
1032.0, 0.0760074596959709
1033.0, 0.07428572145908974
1034.0, 0.07236990611968513
1035.0, 0.07171136342313038
1036.0, 0.07179352695458527
1037.0, 0.06910161545779558
1038.0, 0.0719530698859853
1039.0, 0.07255324374634314
1040.0, 0.06894669899709575
1041.0, 0.06394475124259855
1042.0, 0.059344475780581316
1043.0, 0.0556549020287098
1044.0, 0.051158198630013474
1045.0, 0.04580149847311276
1046.0, 0.040561939215307624
1047.0, 0.03453593955917153
1048.0, 0.030674034620638002
1049.0, 0.027321084092525226
1050.0, 0.023592860654421975
1051.0, 0.0221579726499182
1052.0, 0.020910650492012985
1053.0, 0.02035938481311887
1054.0, 0.019825997426650848
1055.0, 0.019628103129053134
1056.0, 0.01956427677665466
1057.0, 0.017808021202716007
1058.0, 0.01612029666996766
1059.0, 0.020021029353587388
1060.0, 0.027455006185229145
1061.0, 0.028112423968407543
1062.0, 0.03381092905090022
1063.0, 0.041249767401090265
1064.0, 0.04748444309725306
1065.0, 0.05169120474078407
1066.0, 0.05333669321265604
1067.0, 0.05258036275835026
1068.0, 0.04982000084358604
1069.0, 0.040988369963242254
1070.0, 0.042307751379436
1071.0, 0.03582167476958774
1072.0, 0.03490448520464851
1073.0, 0.03404839622197498
1074.0, 0.03493835224480789
1075.0, 0.03560818099535879
1076.0, 0.03671266262245987
1077.0, 0.03591879261126665
1078.0, 0.030066164993208168
1079.0, 0.027800676050732023
1080.0, 0.028171086480823927
1081.0, 0.031298629698182846
1082.0, 0.030755277862642694
1083.0, 0.030073289588697604
1084.0, 0.030657635298400505
1085.0, 0.029143962554490036
1086.0, 0.02539082314959531
1087.0, 0.022925802362770326
1088.0, 0.02125209804765504
1089.0, 0.018059033661020563
1090.0, 0.019728903280136958
1091.0, 0.020646913278838712
1092.0, 0.016047106317993533
1093.0, 0.015077965760859076
1094.0, 0.014517586347742827
1095.0, 0.014044226947113424
1096.0, 0.01250130296420897
1097.0, 0.010311072449832995
1098.0, 0.008729897775581232
1099.0, 0.008175687719306407
1100.0, 0.00734093849902989
1101.0, 0.005177440521413319
1102.0, 0.006900137004313774
1103.0, 0.006894831694089768
1104.0, 0.0054094318323478045
1105.0, 0.005805037960807861
1106.0, 0.00581377548389078
1107.0, 0.0053823519293279545
1108.0, 0.004643955469533044
1109.0, 0.00397049354780808
1110.0, 0.0038260574886836312
1111.0, 0.004020726447795252
1112.0, 0.0036630402359398317
1113.0, 0.002458521818549178
1114.0, 0.0007940256356586005
1115.0, 0.0006409858460134385
1116.0, 0.0010920637832412133
1117.0, 0.003372109396007167
1118.0, 0.0033962072971077603
1119.0, 0.002012373747229923
1120.0, 0.0028948946183810615
1121.0, 0.004234433752455372
1122.0, 0.0037841575767581523
1123.0, 0.005130729598914376
1124.0, 0.0045566772870857895
1125.0, 0.0024831914121319332
1126.0, 0.005976488403746849
1127.0, 0.005727809987304789
1128.0, 0.004822756208841902
1129.0, 0.0036848017926947464
1130.0, 0.0019993960401705974
1131.0, 0.0015297217821556462
1132.0, 0.0018438732273903368
1133.0, 0.002247578215050597
1134.0, 0.0032518803840892933
1135.0, 0.003272676293742996
1136.0, 0.0036688852206604623
1137.0, 0.0024235956109198414
1138.0, 0.002941934908814702
1139.0, 0.0030473274747364436
1140.0, 0.0055586063369598045
1141.0, 0.006919451937971907
1142.0, 0.0069643723026593385
1143.0, 0.006347779529504573
1144.0, 0.008059993770210208
1145.0, 0.0096272028664692
1146.0, 0.006755117960156881
1147.0, 0.01050361183939387
1148.0, 0.01296248455877742
1149.0, 0.009819965413640382
1150.0, 0.010148218380975037
1151.0, 0.011768361439184128
1152.0, 0.011821212215934749
1153.0, 0.010332373130601839
1154.0, 0.011298122940031626
1155.0, 0.011734237824208156
1156.0, 0.011527850642359493
1157.0, 0.012282764266976455
1158.0, 0.012422572119562637
1159.0, 0.015805766610023544
1160.0, 0.013364022772843931
1161.0, 0.013855148641981459
1162.0, 0.016709711384677722
1163.0, 0.01645362608762104
1164.0, 0.017639909022051387
1165.0, 0.017578517344223398
1166.0, 0.01878993938297552
1167.0, 0.019308589199368814
1168.0, 0.01766937512810693
1169.0, 0.017922915117038273
1170.0, 0.021308209724653596
1171.0, 0.020812311927644385
1172.0, 0.020520664207466188
1173.0, 0.02155267900674875
1174.0, 0.02019357021729825
1175.0, 0.02265848655801664
1176.0, 0.020582065734272143
1177.0, 0.02263174358717456
1178.0, 0.024871508995070943
1179.0, 0.025574688756469177
1180.0, 0.026396349957148277
1181.0, 0.028190859162522848
1182.0, 0.028942616048382733
1183.0, 0.027402976777649364
1184.0, 0.029142355381762585
1185.0, 0.030079486429724307
1186.0, 0.028916889363158216
1187.0, 0.028173869502032933
1188.0, 0.03076382217331118
1189.0, 0.030393948572793622
1190.0, 0.03292793777416348
1191.0, 0.03308636748808864
1192.0, 0.03212969711566865
1193.0, 0.03194794295491737
1194.0, 0.031938588304392876
1195.0, 0.0330384839904468
1196.0, 0.03421141213039331
1197.0, 0.03412550525637277
1198.0, 0.03225578155544949
1199.0, 0.033817616894891135
1200.0, 0.03165197823463553
1201.0, 0.030262516464841932
1202.0, 0.02908969231878731
1203.0, 0.02872381496457792
1204.0, 0.0298067497760558
1205.0, 0.02994183121097107
1206.0, 0.029675624804617103
1207.0, 0.030091540532550635
1208.0, 0.029186481291076774
1209.0, 0.028113891355632397
1210.0, 0.028211732466043735
1211.0, 0.026813810957202675
1212.0, 0.024796914641366113
1213.0, 0.024823052806513084
1214.0, 0.023564829055621614
1215.0, 0.022622702551574954
1216.0, 0.022981202236877128
1217.0, 0.022393499384915295
1218.0, 0.019842752767805075
1219.0, 0.019168970630680265
1220.0, 0.019965418762140984
1221.0, 0.018668234366422835
1222.0, 0.018875824747868197
1223.0, 0.017848068408295482
1224.0, 0.01502018661221764
1225.0, 0.01515635395076768
1226.0, 0.012486552527755511
1227.0, 0.009620709020486475
1228.0, 0.01053392441007421
1229.0, 0.011315160658934443
1230.0, 0.010338647166302523
1231.0, 0.010137882883127879
1232.0, 0.010283314955391885
1233.0, 0.009818929216612923
1234.0, 0.009626099611098293
1235.0, 0.009468570373811325
1236.0, 0.008872568670855003
1237.0, 0.008880876155200007
1238.0, 0.009314562199612658
1239.0, 0.008725381339527204
1240.0, 0.00832799790246764
1241.0, 0.00883777026229591
1242.0, 0.009080713499723558
1243.0, 0.009232732903417348
1244.0, 0.009779426886990317
1245.0, 0.010012287595851639
1246.0, 0.010270056506340991
1247.0, 0.010896635373243164
1248.0, 0.010617227689633623
1249.0, 0.010386019956532789
1250.0, 0.013478966163284105
1251.0, 0.01138354527175241
1252.0, 0.011409821624590871
1253.0, 0.014855825911534136
1254.0, 0.02001279407273894
1255.0, 0.012248065593855424
1256.0, 0.009443217115073049
1257.0, 0.011139725108338062
1258.0, 0.01328442026539008
1259.0, 0.014304198538761524
1260.0, 0.013864867273344267
1261.0, 0.014015873902740589
1262.0, 0.014115146190454064
1263.0, 0.011881147524045057
1264.0, 0.012513038036143443
1265.0, 0.012590638980381975
1266.0, 0.010512705581802638
1267.0, 0.008767794600159362
1268.0, 0.013266357200219023
1269.0, 0.010607441166909592
1270.0, 0.011938265836127105
1271.0, 0.012203731753724696
1272.0, 0.009633372152235888
1273.0, 0.011043505245577139
1274.0, 0.011281674182092633
1275.0, 0.008828987481259615
1276.0, 0.008375502997424775
1277.0, 0.009537504536572115
1278.0, 0.00986869394403316
1279.0, 0.008558721192029795
1280.0, 0.006824942592525664
1281.0, 0.006503352185723853
1282.0, 0.00845995055319618
1283.0, 0.009022167566045465
1284.0, 0.006050362353479624
1285.0, 0.0053332780830647915
1286.0, 0.002839388639198412
1287.0, 0.0020419226293966627
1288.0, 0.0015965392492530775
1289.0, 0.0022046812198816294
1290.0, 0.0032816524437519028
1291.0, 0.0026134393855388235
1292.0, 0.0009766057010801182
1293.0, 0.001190788992185575
1294.0, 0.003205685772423506
1295.0, 0.001077850933698046
1296.0, 0.0034513912961717944
1297.0, 0.00045280760260092115
1298.0, 0.0030247137541496894
1299.0, 0.0018237292592535033
1300.0, 0.0003270580886172853
1301.0, 0.0027633938683689118
1302.0, 0.0033386316195018824
1303.0, 0.0014953514831128004
1304.0, 0.0016153637090067523
1305.0, 0.0023702279354547258
1306.0, 0.004894614912204547
1307.0, 0.006995141902440585
1308.0, 0.004153391479111604
1309.0, 0.004921234800248524
1310.0, 0.004651906520129804
1311.0, 0.0014513566434873758
1312.0, 0.0068987051090626155
1313.0, 0.004200616823928836
1314.0, 0.003287584754495503
1315.0, 0.0030494327443411962
1316.0, 0.0030077736829450903
1317.0, 0.0025504772018974213
1318.0, 0.003630094412932503
1319.0, 0.00275134567341308
1320.0, 0.0013275284235492546
1321.0, 0.0009175776711979408
1322.0, 0.0017112848738728642
1323.0, 0.0027223219921463093
1324.0, 0.002005678524362629
1325.0, 0.0009657051140412732
1326.0, 0.002146083238044761
1327.0, 0.004836752925509044
1328.0, 0.005788348658451198
1329.0, 0.004252586023949555
1330.0, 0.005417059001743446
1331.0, 0.0026401572071002768
1332.0, 0.006761694164970175
1333.0, 0.0063394430079032026
1334.0, 0.0063733491952999875
1335.0, 0.008612956345043088
1336.0, 0.008430475764006032
1337.0, 0.006673858597028639
1338.0, 0.006294023207066864
1339.0, 0.008642992136150007
1340.0, 0.010418946415738864
1341.0, 0.008901694678165798
1342.0, 0.010295273811176618
1343.0, 0.01087382886754467
1344.0, 0.010266671631765216
1345.0, 0.009018396875666407
1346.0, 0.013097227066048612
1347.0, 0.011754084708892918
1348.0, 0.012802100667807648
1349.0, 0.015020825017982273
1350.0, 0.01701449383711479
1351.0, 0.016797795218096632
1352.0, 0.016398012823371
1353.0, 0.016725981912409416
1354.0, 0.019357560309852324
1355.0, 0.021429739525564574
1356.0, 0.020464111219292626
1357.0, 0.02186785531030319
1358.0, 0.025644898572477603
1359.0, 0.0242956771479449
1360.0, 0.026147742259758164
1361.0, 0.025354283752227365
1362.0, 0.027324887935012
1363.0, 0.028654315371542394
1364.0, 0.028677633898402038
1365.0, 0.029528542530155476
1366.0, 0.026983278336006368
1367.0, 0.02771343882536493
1368.0, 0.03122153553270897
1369.0, 0.02867802272917808
1370.0, 0.02846644680733982
1371.0, 0.029791000938619208
1372.0, 0.029661694205585887
1373.0, 0.03025249210776883
1374.0, 0.031192687245879282
1375.0, 0.02974671743036334
1376.0, 0.02829685955952974
1377.0, 0.029354239099696287
1378.0, 0.02922665615909917
1379.0, 0.02930635378233451
1380.0, 0.030118203293348467
1381.0, 0.0318415620649598
1382.0, 0.02833707589122311
1383.0, 0.02899370359425646
1384.0, 0.0300518588314847
1385.0, 0.0319281150793453
1386.0, 0.028721866626788335
1387.0, 0.026470142908430146
1388.0, 0.026564311574816306
1389.0, 0.02535139451186668
1390.0, 0.025947936176807903
1391.0, 0.02627268714719787
1392.0, 0.02686974395827407
1393.0, 0.027115843299147343
1394.0, 0.026763120654272166
1395.0, 0.027344461967386085
1396.0, 0.026146533738572446
1397.0, 0.02687915387173078
1398.0, 0.02167658710202865
1399.0, 0.020239673350236326
1400.0, 0.022328514338089318
1401.0, 0.024986903303861885
1402.0, 0.02295669591442748
1403.0, 0.024161690272121682
1404.0, 0.020904499740205102
1405.0, 0.023035615300449206
1406.0, 0.02180373794469027
1407.0, 0.021161741491500394
1408.0, 0.02222766316638866
1409.0, 0.020194760680202293
1410.0, 0.017471592573560395
1411.0, 0.017537763174385945
1412.0, 0.02027007360042556
1413.0, 0.02110437600472942
1414.0, 0.020967083277736453
1415.0, 0.02201937534417338
1416.0, 0.01994919270164489
1417.0, 0.02045440627849269
1418.0, 0.019934799459204483
1419.0, 0.01845893343576757
1420.0, 0.019980238288340287
1421.0, 0.019647059539418598
1422.0, 0.02082814293530137
1423.0, 0.020881256132703654
1424.0, 0.020342347588318994
1425.0, 0.01975796839974507
1426.0, 0.02219965454898743
1427.0, 0.02404759151368861
1428.0, 0.023815862521981594
1429.0, 0.02497710574082266
1430.0, 0.02458713427443655
1431.0, 0.02290871251386876
1432.0, 0.023009818729446838
1433.0, 0.023316305544251084
1434.0, 0.021573889495200223
1435.0, 0.02044089891369751
1436.0, 0.02352558436237126
1437.0, 0.026230699789069674
1438.0, 0.023693835762714062
1439.0, 0.026449119065537412
1440.0, 0.027955003916652114
1441.0, 0.02732244606728973
1442.0, 0.026135085606256495
1443.0, 0.02648071506669758
1444.0, 0.03326023517751084
1445.0, 0.028703617680374466
1446.0, 0.03289786946518727
1447.0, 0.03462040428449217
1448.0, 0.03406593558859652
1449.0, 0.033475514231078765
1450.0, 0.03355710427094287
1451.0, 0.03363107319814264
1452.0, 0.032175619119107365
1453.0, 0.030760368688334806
1454.0, 0.030006699528649906
1455.0, 0.03163449448962092
1456.0, 0.03189591693889509
1457.0, 0.029653046952370987
1458.0, 0.031367660397497166
1459.0, 0.03367534657342463
1460.0, 0.03036380554206318
1461.0, 0.029019015178701688
1462.0, 0.027394429127998113
1463.0, 0.02675818097482512
1464.0, 0.029544762687290962
1465.0, 0.02393641625645132
1466.0, 0.02549453739880828
1467.0, 0.024924005883944885
1468.0, 0.0203530480873522
1469.0, 0.02639566800339972
1470.0, 0.025579032582300983
1471.0, 0.020240895985101755
1472.0, 0.022215293859919202
1473.0, 0.02029588678666927
1474.0, 0.019777764524407444
1475.0, 0.016846444769210857
1476.0, 0.016323795419678166
1477.0, 0.014545757310013972
1478.0, 0.013332210486739443
1479.0, 0.014431563864539055
1480.0, 0.011760399536458235
1481.0, 0.00808022349126694
1482.0, 0.007017743047042953
1483.0, 0.008196421116564453
1484.0, 0.00861447773958878
1485.0, 0.0042672822105458245
1486.0, 0.0061829522836667995
1487.0, 0.006897703505652918
1488.0, 0.006145143356089548
1489.0, 0.005069879013341817
1490.0, 0.003458014663462613
1491.0, 0.0034749668067407514
1492.0, 0.0012218077550594755
1493.0, 0.005425625420685351
1494.0, 0.004092518165048842
1495.0, 0.00393645728207729
1496.0, 0.0010707364075584426
1497.0, 0.00309134896209246
1498.0, 0.0007301122117411615
1499.0, 0.0019699080213546136
1500.0, 0.0007665650389066122
1501.0, 0.0001868463208954435
1502.0, 0.0015794782657019147
1503.0, 0.0020228153564236916
1504.0, 0.0010109912520386637
1505.0, 0.0027310828588321765
1506.0, 0.0026940105675535677
1507.0, 0.00171200961973367
1508.0, 0.002348334277786497
1509.0, 0.004032456922303531
1510.0, 0.005005901679564392
1511.0, 0.0034860571790940155
1512.0, 0.003329822863089177
1513.0, 0.004070815921566565
1514.0, 0.003910542727155332
1515.0, 0.0075177579174423755
1516.0, 0.00690615339903126
1517.0, 0.008911090319764815
1518.0, 0.0072844138340415815
1519.0, 0.0058307350886261655
1520.0, 0.008161696464693757
1521.0, 0.006703273303769228
1522.0, 0.007202337696926175
1523.0, 0.007179106391819737
1524.0, 0.005631742887197014
1525.0, 0.008313630301336288
1526.0, 0.004442951564827428
1527.0, 0.0057487118962441415
1528.0, 0.005708026083130856
1529.0, 0.006415645735248307
1530.0, 0.005235073662364392
1531.0, 0.00312133279266934
1532.0, 0.00557693099679273
1533.0, 0.005413243934254561
1534.0, 0.004612077718399879
1535.0, 0.006098074575581704
1536.0, 0.003206080684229581
1537.0, 0.002825979876491486
1538.0, 0.005088070900634526
1539.0, 0.005705281117547688
1540.0, 0.00383743036244216
1541.0, 0.0013575782936086878
1542.0, 0.002361499453747407
1543.0, 0.0019495735715223737
1544, 0.0
1545, 0.0
1546, 0.0
1547, 0.0
1548, 0.0
1549, 0.0
1550, 0.0
1551, 0.0
1552, 0.0
1553, 0.0
1554, 0.0
1555, 0.0
1556, 0.0
1557, 0.0
1558, 0.0
1559, 0.0
1560, 0.0
1561, 0.0
1562, 0.0
1563, 0.0
1564, 0.0
1565, 0.0
1566, 0.0
1567, 0.0
1568, 0.0
1569, 0.0
1570, 0.0
1571, 0.0
1572, 0.0
1573, 0.0
1574, 0.0
1575, 0.0
1576, 0.0
1577, 0.0
1578, 0.0
1579, 0.0
1580, 0.0
1581, 0.0
1582, 0.0
1583, 0.0
1584, 0.0
1585, 0.0
1586, 0.0
1587, 0.0
1588, 0.0
1589, 0.0
1590, 0.0
1591, 0.0
1592, 0.0
1593, 0.0
1594, 0.0
1595, 0.0
1596, 0.0
1597, 0.0
1598, 0.0
1599, 0.0
