30, 0.0
31, 0.0
32, 0.0
33, 0.0
34, 0.0
35, 0.0
36, 0.0
37, 0.0
38, 0.0
39, 0.0
40, 0.0
41, 0.0
42, 0.0
43, 0.0
44, 0.0
45, 0.0
46, 0.0
47, 0.0
48, 0.0
49, 0.0
50, 0.0
51, 0.0
52, 0.0
53, 0.0
54, 0.0
55, 0.0
56, 0.0
57, 0.0
58, 0.0
59, 0.0
60, 0.0
61, 0.0
62, 0.0
63, 0.0
64, 0.0
65, 0.0
66, 0.0
67, 0.0
68, 0.0
69, 0.0
70, 0.0
71, 0.0
72, 0.0
73, 0.0
74, 0.0
75, 0.0
76, 0.0
77, 0.0
78, 0.0
79, 0.0
80, 0.0
81, 0.0
82, 0.0
83, 0.0
84, 0.0
85, 0.0
86, 0.0
87, 0.0
88, 0.0
89, 0.0
90, 0.0
91, 0.0
92, 0.0
93, 0.0
94, 0.0
95, 0.0
96, 0.0
97, 0.0
98, 0.0
99, 0.0
100.0, 6.846284309261558e-06
101.0, 0.00011714323510891346
102.0, 0.0009126471844015002
103.0, 0.0007787913127040402
104.0, 0.0024871219381009425
105.0, 0.005459963891420827
106.0, 0.00957255707638872
107.0, 0.017408664212949614
108.0, 0.025699142074110216
109.0, 0.03131311883249307
110.0, 0.027378927784041735
111.0, 0.015405617511789226
112.0, 0.006173334203009222
113.0, 0.004707500832509031
114.0, 0.006074308901594416
115.0, 0.009079910862025708
116.0, 0.010656189275413787
117.0, 0.008042454359509201
118.0, 0.006909965200758447
119.0, 0.004300498728140889
120.0, 0.0018415863163750905
121.0, 0.0011343336946383516
122.0, 0.0020929985782885204
123.0, 0.0001989823453744776
124.0, 5.85099870951886e-05
125.0, 0.000236120152169336
126.0, 0.0003856858222912493
127.0, 0.0007181671690404887
128.0, 0.0019651786404062616
129.0, 0.00343351320996234
130.0, 0.003252563092518177
131.0, 0.0035781129913635998
132.0, 0.003961911794228171
133.0, 0.002976939653611797
134.0, 0.0019711675295590657
135.0, 0.0022894654856798254
136.0, 0.004510584055148362
137.0, 0.006377769042238122
138.0, 0.007304099188817432
139.0, 0.012128538190790334
140.0, 0.0127614168295488
141.0, 0.011286618123387724
142.0, 0.00962534614514847
143.0, 0.008459812261103183
144.0, 0.007219604317098357
145.0, 0.006176452717522332
146.0, 0.005202933453385257
147.0, 0.0048203125682705576
148.0, 0.0044489104558699056
149.0, 0.0036570206345358284
150.0, 0.004645083467563692
151.0, 0.005806586270752902
152.0, 0.005895281267327922
153.0, 0.0042064393149074284
154.0, 0.0021705383601096947
155.0, 0.00423005201921875
156.0, 0.001096721916817157
157.0, 0.0003912470886330418
158.0, 0.0005947445636627799
159.0, 0.0011708585574208626
160.0, 0.002211890467750751
161.0, 0.003240697918766982
162.0, 0.0045960228302159055
163.0, 0.007292711381445186
164.0, 0.009526444112506659
165.0, 0.010473863883371513
166.0, 0.013074981600847545
167.0, 0.011787704548072337
168.0, 0.01111647532450111
169.0, 0.011838734643481197
170.0, 0.01303425546987912
171.0, 0.012660701101100843
172.0, 0.010571620635657737
173.0, 0.009467552077047551
174.0, 0.009473139698135003
175.0, 0.009854634361137054
176.0, 0.009775804209067847
177.0, 0.008959252264525715
178.0, 0.009796151987396199
179.0, 0.01063185707182148
180.0, 0.01063038996571554
181.0, 0.01059322168399409
182.0, 0.012488081648418583
183.0, 0.011240686821169856
184.0, 0.013616888032074061
185.0, 0.015944518771166708
186.0, 0.018122102508919793
187.0, 0.021191728496837387
188.0, 0.0255717474147593
189.0, 0.029077252610547305
190.0, 0.031034291160208352
191.0, 0.03215663261202253
192.0, 0.03282560716822
193.0, 0.032898344083698815
194.0, 0.03286371280076108
195.0, 0.03370461142679501
196.0, 0.03387541394608851
197.0, 0.03366855984801195
198.0, 0.033618838697958085
199.0, 0.032685787473941096
200.0, 0.035933944385080366
201.0, 0.03767308325904675
202.0, 0.03878141497184212
203.0, 0.037641138925242006
204.0, 0.030070001465772326
205.0, 0.018827843550940047
206.0, 0.012046970500098758
207.0, 0.008127160993592931
208.0, 0.00491459718755515
209.0, 0.0017693528523043253
210.0, 0.003002638542745348
211.0, 0.0011033351105525081
212.0, 0.0010023640378166569
213.0, 0.0013008104028057017
214.0, 0.0016073582900155495
215.0, 0.00246476222012956
216.0, 0.0005469078472793479
217.0, 0.0010446148560270226
218.0, 0.0013026631596785724
219.0, 0.001685396104264151
220.0, 0.002360352785261129
221.0, 0.0013342624825719205
222.0, 0.0009399342969251065
223.0, 0.0018127957235357808
224.0, 0.002031664135794836
225.0, 0.001318100473703077
226.0, 0.0006832144571975462
227.0, 0.0014668462800371976
228.0, 0.0010140254093921406
229.0, 0.0003938518291354605
230.0, 5.278378246425138e-05
231.0, 0.00014767249256223398
232.0, 0.0005326729794835965
233.0, 0.0006258535045286425
234.0, 0.001884939312078793
235.0, 0.002837061319876986
236.0, 0.0039586045936031945
237.0, 0.006315243573201398
238.0, 0.009851810576225813
239.0, 0.011802241033892678
240.0, 0.014687786625283526
241.0, 0.015617954428886445
242.0, 0.014886199503256895
243.0, 0.01566605411968566
244.0, 0.013779171035234366
245.0, 0.012929819383167536
246.0, 0.012120364805493063
247.0, 0.0119370743616982
248.0, 0.012005110157410277
249.0, 0.009374452011250306
250.0, 0.008951232765188184
251.0, 0.009717744954560296
252.0, 0.011167567031234144
253.0, 0.012231026001618147
254.0, 0.012208802896352535
255.0, 0.013086522153385896
256.0, 0.013367589852778748
257.0, 0.014719977298379906
258.0, 0.018975603478411866
259.0, 0.02566928043240988
260.0, 0.03141788224356598
261.0, 0.02625635644395398
262.0, 0.02522815852324239
263.0, 0.02480987452677471
264.0, 0.025408057270882373
265.0, 0.027663723778246024
266.0, 0.03062439973000798
267.0, 0.03478477254154379
268.0, 0.03609200215984328
269.0, 0.03932480970455218
270.0, 0.04613976791765072
271.0, 0.05515766159559778
272.0, 0.06084695753986175
273.0, 0.07834863361694791
274.0, 0.08935363803928618
275.0, 0.10730611832812649
276.0, 0.126323790091183
277.0, 0.1268218331490271
278.0, 0.13393713741482416
279.0, 0.1524951500537281
280.0, 0.17840057480734767
281.0, 0.2111831642227838
282.0, 0.25123467126664883
283.0, 0.2994107343585732
284.0, 0.3604084926678527
285.0, 0.4364112088400743
286.0, 0.533002044558127
287.0, 0.6453044704793084
288.0, 0.7664409026983291
289.0, 0.8952617370586065
290.0, 0.9806408572204327
291.0, 0.9922188877719366
292.0, 0.9314536004235646
293.0, 0.8176794929020517
294.0, 0.6796083690519212
295.0, 0.5450447094737216
296.0, 0.43191625248245186
297.0, 0.3407265052517407
298.0, 0.27144747846175427
299.0, 0.21981590515725816
300.0, 0.17886951864816536
301.0, 0.14616933522553646
302.0, 0.12537791366212822
303.0, 0.10950545491327884
304.0, 0.0949165524531965
305.0, 0.08248134698234
306.0, 0.07707967538816837
307.0, 0.0726457306336901
308.0, 0.07223960724025184
309.0, 0.07496768982774284
310.0, 0.0807809191938739
311.0, 0.09034144742323796
312.0, 0.10502321439509132
313.0, 0.1233364533278809
314.0, 0.1479268594786006
315.0, 0.1847926592484359
316.0, 0.23666114496290538
317.0, 0.3035967142928421
318.0, 0.38339677292436775
319.0, 0.4475784328435435
320.0, 0.4652214082390145
321.0, 0.44503159141095844
322.0, 0.40083806705157915
323.0, 0.34590288679491693
324.0, 0.28519771033443536
325.0, 0.23919957666707398
326.0, 0.19870644509776014
327.0, 0.16713146157024808
328.0, 0.14471008862521248
329.0, 0.12886515000302212
330.0, 0.11715106605723873
331.0, 0.10977388098838402
332.0, 0.10530453873802519
333.0, 0.10137981957190516
334.0, 0.09703677337546063
335.0, 0.09298693037519774
336.0, 0.09164838737841188
337.0, 0.08685539806994644
338.0, 0.08419318950723957
339.0, 0.08075951595960368
340.0, 0.07589275926803689
341.0, 0.07224062210075656
342.0, 0.07226135564690803
343.0, 0.06900995258020336
344.0, 0.06818349241864759
345.0, 0.06813703594422048
346.0, 0.06963128256965274
347.0, 0.0761849949770765
348.0, 0.08082891152050756
349.0, 0.08761728239307924
350.0, 0.10053421614466938
351.0, 0.11662708927239983
352.0, 0.13486284030613138
353.0, 0.15822150477055738
354.0, 0.1883481049620254
355.0, 0.22175247526001737
356.0, 0.25140499284393586
357.0, 0.27015855741412137
358.0, 0.27413165817664864
359.0, 0.26420061914308285
360.0, 0.2428864406724752
361.0, 0.21091692168426587
362.0, 0.18233465525723333
363.0, 0.15671142397476792
364.0, 0.13268767966793793
365.0, 0.11229292376349437
366.0, 0.09435757069541208
367.0, 0.08094241768382056
368.0, 0.07055335853322599
369.0, 0.06263976591918757
370.0, 0.056462988976602964
371.0, 0.050931970140767245
372.0, 0.04600729629227561
373.0, 0.040236817115484255
374.0, 0.03642888373608837
375.0, 0.0333641020340686
376.0, 0.031197549862333432
377.0, 0.03240237716035985
378.0, 0.0301622073165521
379.0, 0.030794109330451572
380.0, 0.031841466866649626
381.0, 0.031492682622517934
382.0, 0.029430372701369813
383.0, 0.026992018851196533
384.0, 0.024981154332782123
385.0, 0.022551845544258528
386.0, 0.02050908923836544
387.0, 0.017653978253091774
388.0, 0.015112768048446681
389.0, 0.01619580233763441
390.0, 0.017113995905285978
391.0, 0.017857145598439258
392.0, 0.015771067657298483
393.0, 0.013506796515920577
394.0, 0.011662506906974362
395.0, 0.00840895927480023
396.0, 0.00715443183247572
397.0, 0.006927575525188374
398.0, 0.006296813070646085
399.0, 0.004636418402585379
400.0, 0.003315557873843944
401.0, 0.004132568915512443
402.0, 0.002861327506219964
403.0, 0.00485205969285182
404.0, 0.004897284086021526
405.0, 0.00450841816381408
406.0, 0.00489366662451612
407.0, 0.006073621404672813
408.0, 0.006924118481910571
409.0, 0.008522504106881835
410.0, 0.010628761063487256
411.0, 0.01299880715346332
412.0, 0.01571058067183882
413.0, 0.01904917542710951
414.0, 0.02328961273926812
415.0, 0.02651352393629936
416.0, 0.030270980873918836
417.0, 0.032975557053184175
418.0, 0.033282299216678524
419.0, 0.03077056223062353
420.0, 0.026469398920772012
421.0, 0.01974869005027219
422.0, 0.01644165262372881
423.0, 0.012776099993967923
424.0, 0.009365473832214168
425.0, 0.007161648513326144
426.0, 0.004891452470071731
427.0, 0.002777246309352806
428.0, 0.0031051142220265885
429.0, 0.0017716406343737257
430.0, 0.0008528265701040817
431.0, 0.0010863323179739893
432.0, 0.00017768192306117031
433.0, 0.0012673197123711762
434.0, 0.0018239433689359796
435.0, 0.0008418628647743392
436.0, 5.9624874103772684e-05
437.0, 0.0005748005317025903
438.0, 0.0019521123025964214
439.0, 0.001843780127065352
440.0, 0.00045444860083793375
441.0, 0.0009777564913284592
442.0, 0.0020874117372790086
443.0, 0.003649665468625574
444.0, 0.0063666855038329246
445.0, 0.010308666060435658
446.0, 0.011273776302162503
447.0, 0.018497583897149988
448.0, 0.028661508910113324
449.0, 0.04165884211112307
450.0, 0.05462243962739486
451.0, 0.057762358357138714
452.0, 0.04719343764852696
453.0, 0.03390760737618283
454.0, 0.02252686759891323
455.0, 0.01448486615958187
456.0, 0.009432285758339758
457.0, 0.005956723589035404
458.0, 0.0025113097830848636
459.0, 0.0019757285114469325
460.0, 0.001430622251152318
461.0, 0.0010572873680649495
462.0, 0.0011095951241608046
463.0, 0.0012847404182358892
464.0, 0.0003595498805800309
465.0, 0.0021860975382251052
466.0, 0.001308540546677568
467.0, 0.0012830590983677608
468.0, 0.002177289385381408
469.0, 0.0032408890016954726
470.0, 0.005776686620464948
471.0, 0.005715780395466818
472.0, 0.008345630610334265
473.0, 0.00878613010235138
474.0, 0.008446192813176054
475.0, 0.008741810385764747
476.0, 0.009039732493160903
477.0, 0.009561746586450755
478.0, 0.011166305835395532
479.0, 0.012940689327855904
480.0, 0.014061948218394906
481.0, 0.014293949067922453
482.0, 0.013978998089917222
483.0, 0.01378772620728823
484.0, 0.013350113231336815
485.0, 0.011502400174917734
486.0, 0.009513738725529488
487.0, 0.007688618121722514
488.0, 0.00593657793202685
489.0, 0.004273172527796848
490.0, 0.0031227598508097865
491.0, 0.0026005237633549548
492.0, 0.0013231571771784413
493.0, 0.000577168441625945
494.0, 0.0010128659799424223
495.0, 0.0017325369018637135
496.0, 8.983922572453453e-05
497.0, 0.00015106427574995712
498.0, 0.0009362523628896524
499.0, 0.0009567042139394376
500.0, 0.0008299791149669423
501.0, 0.0011179399269347489
502.0, 0.0005898553781624345
503.0, 0.0006774446338563549
504.0, 0.0018235865695816222
505.0, 0.0011444840667727226
506.0, 0.00038383333434125735
507.0, 0.0007237582282079906
508.0, 0.0015746231956243265
509.0, 0.001704700999981697
510.0, 0.003084485387118778
511.0, 0.004941893952219612
512.0, 0.005726756657981966
513.0, 0.005240753715022506
514.0, 0.004116940834282301
515.0, 0.0031560160959150712
516.0, 0.0040422640273406986
517.0, 0.004868134625935852
518.0, 0.004249178955783995
519.0, 0.004395898136404072
520.0, 0.005313298345216948
521.0, 0.004919099484171612
522.0, 0.003366739312034472
523.0, 0.0036033545015401215
524.0, 0.0037022634705748754
525.0, 0.003558007081868995
526.0, 0.0041057382879376
527.0, 0.0055141014888926065
528.0, 0.00639827652106335
529.0, 0.007853248944595246
530.0, 0.00689234017052624
531.0, 0.006209498627355582
532.0, 0.006710186943931309
533.0, 0.008280494857131218
534.0, 0.009879800719130903
535.0, 0.009663192223068301
536.0, 0.009297083608061283
537.0, 0.011326774469838223
538.0, 0.016053440483432477
539.0, 0.021764250144304532
540.0, 0.027268345040674723
541.0, 0.03338007534524255
542.0, 0.04374384876197343
543.0, 0.054722020593417194
544.0, 0.06788727331856717
545.0, 0.08416290554138209
546.0, 0.10187779131781616
547.0, 0.11786318671833593
548.0, 0.12951309991991564
549.0, 0.14110929070554426
550.0, 0.14333320514107523
551.0, 0.1414093534358844
552.0, 0.13234182800258296
553.0, 0.1163259477402861
554.0, 0.09751803004894631
555.0, 0.07988965437671103
556.0, 0.06693185103720733
557.0, 0.05445946543423124
558.0, 0.04343336330197936
559.0, 0.03610034095778186
560.0, 0.03170552242752143
561.0, 0.02683397042580821
562.0, 0.023833912617020635
563.0, 0.020564718096570057
564.0, 0.01807576204543592
565.0, 0.016807864228821686
566.0, 0.01588137374938283
567.0, 0.015050260143648084
568.0, 0.015587327220544794
569.0, 0.014953503776004778
570.0, 0.015466908165634978
571.0, 0.01490830593804181
572.0, 0.014122287727075421
573.0, 0.013436623452675548
574.0, 0.01237457023617335
575.0, 0.010340765171851963
576.0, 0.010208195041084467
577.0, 0.008439682758990376
578.0, 0.00824945736602252
579.0, 0.006978744340463935
580.0, 0.004871723852448322
581.0, 0.004402513064098674
582.0, 0.004362384686318826
583.0, 0.005953338885169935
584.0, 0.004091197221708578
585.0, 0.003357312984073489
586.0, 0.0024861985214534007
587.0, 0.0018669566876207196
588.0, 0.003630287387153375
589.0, 0.003541085928705933
590.0, 0.005088934010684647
591.0, 0.00506734203435443
592.0, 0.004700292043219295
593.0, 0.004863374914588073
594.0, 0.005497705381441212
595.0, 0.005862199125604267
596.0, 0.00611561624351037
597.0, 0.007675318138742626
598.0, 0.008754869278162797
599.0, 0.00983959912390116
600.0, 0.011797054078220022
601.0, 0.013886901219621826
602.0, 0.014039044332944372
603.0, 0.015393129776967603
604.0, 0.01802615281688015
605.0, 0.01662069548188105
606.0, 0.015092719396325316
607.0, 0.01540688440353739
608.0, 0.01597961044007558
609.0, 0.013368673594853187
610.0, 0.011559385408874832
611.0, 0.008585516560779565
612.0, 0.006460033600391522
613.0, 0.006192164761069341
614.0, 0.006140327408410375
615.0, 0.005471395137552724
616.0, 0.006091699883681192
617.0, 0.005732832008845247
618.0, 0.004629238800054533
619.0, 0.0036477792812015524
620.0, 0.00418557712164247
621.0, 0.005684409855356652
622.0, 0.006372208137563982
623.0, 0.005317885784037966
624.0, 0.008146382424905462
625.0, 0.008706808530572473
626.0, 0.007075672024345725
627.0, 0.00640183059137928
628.0, 0.007710594277035353
629.0, 0.008800395224100348
630.0, 0.0061820029871469725
631.0, 0.0055685436119479684
632.0, 0.004430039889115728
633.0, 0.0031664459924744238
634.0, 0.0030622685330750706
635.0, 0.0022427748391125124
636.0, 0.00028904478902413793
637.0, 0.0003182055620604506
638.0, 0.00022828656127915343
639.0, 0.0013896200767463374
640.0, 0.0005436445044089615
641.0, 0.0005211991648316053
642.0, 0.001468551276024499
643.0, 0.0027361282388260176
644.0, 0.0039525227270350086
645.0, 0.0016784944286601315
646.0, 0.0036247401208535463
647.0, 0.0015244704630713486
648.0, 0.0012541309020673939
649.0, 0.0016679143535293036
650.0, 0.0010537346346493179
651.0, 0.0007924281153916015
652.0, 0.0024930610356808055
653.0, 0.0010806093639640327
654.0, 0.0007081623241403215
655.0, 0.00029340075020447306
656.0, 0.0012658015393319352
657.0, 0.002677062861250458
658.0, 0.002692461800778578
659.0, 0.005827974818990611
660.0, 0.007448072207892436
661.0, 0.010157523364824896
662.0, 0.011729236028022656
663.0, 0.010147623054760713
664.0, 0.007319808592160431
665.0, 0.005688259916982037
666.0, 0.0024928559334297913
667.0, 0.0034003369969431503
668.0, 0.0025048600525696646
669.0, 0.001403440306830943
670.0, 0.0006367779700271532
671.0, 0.00034808514338416867
672.0, 0.0006630217879251166
673.0, 0.0016715127383875768
674.0, 0.0015082544313197149
675.0, 0.0012495962596173321
676.0, 0.0010366132825623169
677.0, 0.001036936429184914
678.0, 0.0017743718463886719
679.0, 0.0024247826336333132
680.0, 0.0013788580589003052
681.0, 0.0018266574652737852
682.0, 0.0016411344274237835
683.0, 0.003456432571035402
684.0, 0.004318171744644279
685.0, 0.004313099287780007
686.0, 0.004035587288992015
687.0, 0.0036672290610096333
688.0, 0.003825229554099789
689.0, 0.0044771950665114585
690.0, 0.004454319155437573
691.0, 0.004676640990724834
692.0, 0.004994003650259322
693.0, 0.005166914994800846
694.0, 0.005323379729009808
695.0, 0.005878400133857961
696.0, 0.0058143599767534054
697.0, 0.006387524044721136
698.0, 0.006473833577249005
699.0, 0.006611091505603482
700.0, 0.006965999857807717
701.0, 0.007514965315111623
702.0, 0.008461461872582995
703.0, 0.010544382929678785
704.0, 0.011280280278055312
705.0, 0.010647272674256981
706.0, 0.011414870118522418
707.0, 0.014599468696000789
708.0, 0.0175488931384069
709.0, 0.01847200168799411
710.0, 0.021850606115472623
711.0, 0.025052145691525748
712.0, 0.027679657937155537
713.0, 0.030740199217679502
714.0, 0.03371153147803693
715.0, 0.03559021336373588
716.0, 0.0364675385239691
717.0, 0.03744932363123652
718.0, 0.03739633557746193
719.0, 0.034577058758826565
720.0, 0.02993193567956543
721.0, 0.024838784525615557
722.0, 0.019724224062014406
723.0, 0.015152022141035424
724.0, 0.011756450085004411
725.0, 0.009410349419559302
726.0, 0.005973248702166862
727.0, 0.004927270601507655
728.0, 0.003328382573094155
729.0, 0.002784797574013409
730.0, 0.0022305360550901386
731.0, 0.0009343133754254447
732.0, 0.00030719053146093943
733.0, 0.001484998285978343
734.0, 0.0015003601984714247
735.0, 0.0016043284372077742
736.0, 0.0025652019642947973
737.0, 0.0031408857213192625
738.0, 0.0036423847999758185
739.0, 0.004479670213412881
740.0, 0.004263156306513229
741.0, 0.003712333166257822
742.0, 0.004280511616560443
743.0, 0.004377807083729835
744.0, 0.004176456923865355
745.0, 0.00447035765047474
746.0, 0.00482047154355825
747.0, 0.004379684504088935
748.0, 0.0042649419841239615
749.0, 0.0037903553767777726
750.0, 0.001743685943710056
751.0, 0.0017651308536538889
752.0, 0.0016690084113229746
753.0, 0.0010479818510722941
754.0, 0.0011811506741482751
755.0, 0.0024391348389829785
756.0, 0.001059212365824712
757.0, 0.0010524415086339309
758.0, 0.00122579679242508
759.0, 0.0007360032821183234
760.0, 0.0003878890865885291
761.0, 0.0009377165686287586
762.0, 0.0019419896276658601
763.0, 0.0018557135006614526
764.0, 0.0003433160815902182
765.0, 0.0014346831693336792
766.0, 0.0009806988885136337
767.0, 0.0011560787823704872
768.0, 0.0016691415635270396
769.0, 0.0012941768986057985
770.0, 0.0005189239546557801
771.0, 0.0018663556990345094
772.0, 0.0011445693967332908
773.0, 0.003616693787230684
774.0, 0.0028892955022658006
775.0, 0.0016305632694652084
776.0, 0.0013552629994450236
777.0, 0.0011224111992011619
778.0, 0.0002889526425745005
779.0, 0.0011116536589637154
780.0, 6.53157791854921e-05
781.0, 0.0028211483861935484
782.0, 0.0023648172571060417
783.0, 0.003049273424181297
784.0, 0.0041996790196697645
785.0, 0.004948526821225549
786.0, 0.005870131372267751
787.0, 0.006851684719150058
788.0, 0.008074820945004139
789.0, 0.00865068506925214
790.0, 0.009030483995878053
791.0, 0.009235379097584394
792.0, 0.009822712530387408
793.0, 0.010044108315052099
794.0, 0.009025792021509115
795.0, 0.008498431916295686
796.0, 0.008653715742839864
797.0, 0.009190597117306396
798.0, 0.009713296169536458
799.0, 0.010237610500485052
800.0, 0.011434053279359344
801.0, 0.01355390415130608
802.0, 0.015601330798082238
803.0, 0.015942545122290097
804.0, 0.01821450045200283
805.0, 0.017820002099774822
806.0, 0.01800368804167084
807.0, 0.017026553415825423
808.0, 0.01588916358343549
809.0, 0.013982296600850437
810.0, 0.011153050395576881
811.0, 0.011268726358012933
812.0, 0.00868720531815672
813.0, 0.00485734288059577
814.0, 0.0033404604737129065
815.0, 0.00408999785599678
816.0, 0.003928222808899466
817.0, 0.002885552234261405
818.0, 0.0028982493578913826
819.0, 0.0031352280005596373
820.0, 0.0008444993850248109
821.0, 0.0018793997905629796
822.0, 0.0020677126940994626
823.0, 0.0022781626736726227
824.0, 0.003766205454517155
825.0, 0.005478106800380427
826.0, 0.006704078172372942
827.0, 0.00831022371724224
828.0, 0.00651460201711119
829.0, 0.009795499263077809
830.0, 0.010644606653437924
831.0, 0.013195150454349616
832.0, 0.015592914870522787
833.0, 0.014675319150773943
834.0, 0.01269809819379269
835.0, 0.013662124706388291
836.0, 0.009280588241341904
837.0, 0.008075641462674425
838.0, 0.006520695001081002
839.0, 0.00517709833336719
840.0, 0.0035770749844661843
841.0, 0.002195665925060114
842.0, 0.0017716765197128524
843.0, 0.002010592310510216
844.0, 0.00126894192849944
845.0, 0.0004656709662258402
846.0, 0.0009854435926650684
847.0, 0.0030791977869609405
848.0, 0.0017779479767955086
849.0, 0.0017628787402332114
850.0, 0.002256271219937706
851.0, 0.0014483090459991074
852.0, 0.0031181350675731764
853.0, 0.00306918136098107
854.0, 0.001387256562370979
855.0, 0.0015223350330623416
856.0, 0.0008074702333671815
857.0, 0.00027236584857788835
858.0, 0.00035002194512698996
859.0, 0.0008500666490331566
860.0, 0.0014181615716046321
861.0, 0.0013352223280777716
862.0, 0.00046042112551383986
863.0, 0.0012856695293070285
864.0, 0.0022003523179774695
865.0, 0.0010929227028242039
866.0, 0.0006725387108842246
867.0, 0.0022667138579575735
868.0, 0.0035810349376309706
869.0, 0.0022892687771953082
870.0, 0.0036781677178993055
871.0, 0.003024635938758927
872.0, 0.0024647774341519262
873.0, 0.004625611302349467
874.0, 0.005977008151627614
875.0, 0.004834922758570454
876.0, 0.0034494955382495295
877.0, 0.004840739818581451
878.0, 0.007430506801883245
879.0, 0.00528043791827798
880.0, 0.006683735906441402
881.0, 0.007620668981888766
882.0, 0.007892882087716732
883.0, 0.008258354258645427
884.0, 0.00824868155544045
885.0, 0.0080976763580564
886.0, 0.00927550980501118
887.0, 0.01064381854416064
888.0, 0.011526421731689478
889.0, 0.013224774584981646
890.0, 0.014720370448464326
891.0, 0.01663882942263925
892.0, 0.018563781812737663
893.0, 0.020489482474051295
894.0, 0.023042331074138025
895.0, 0.026423404495513315
896.0, 0.029550330242727105
897.0, 0.03232290670594377
898.0, 0.03566491801893596
899.0, 0.04006116799683955
900.0, 0.046211205185869506
901.0, 0.05108847666412589
902.0, 0.056442217738514135
903.0, 0.06603361232579656
904.0, 0.07639435812071563
905.0, 0.08383384350159583
906.0, 0.09848111323045533
907.0, 0.11852607064147315
908.0, 0.14382374156408806
909.0, 0.1765392869814705
910.0, 0.21931622103713996
911.0, 0.27220902159862764
912.0, 0.3383555479458253
913.0, 0.4291212373683218
914.0, 0.5389915666816052
915.0, 0.6579824222014367
916.0, 0.7984051828446991
917.0, 0.9165748145509572
918.0, 0.9768784457185368
919.0, 0.9632719537449439
920.0, 0.8800701900063931
921.0, 0.7540832019826467
922.0, 0.6295048868633124
923.0, 0.5227200014088826
924.0, 0.44128730287792617
925.0, 0.38171042774018177
926.0, 0.34075406672668035
927.0, 0.3078855724118889
928.0, 0.27833866585434336
929.0, 0.24976694840134864
930.0, 0.221008260737742
931.0, 0.1947359482342029
932.0, 0.1685089126060914
933.0, 0.14922965750775408
934.0, 0.13078610631785534
935.0, 0.11720849098474606
936.0, 0.10799309882608453
937.0, 0.10044118295184094
938.0, 0.09435086267148088
939.0, 0.091696218365123
940.0, 0.09248788520303895
941.0, 0.0943956616966806
942.0, 0.10068648283419933
943.0, 0.1093155411944991
944.0, 0.11643209635456188
945.0, 0.13222475151840513
946.0, 0.14737851922648296
947.0, 0.1584168091436653
948.0, 0.1685492469424158
949.0, 0.17382146419456404
950.0, 0.1733022982360913
951.0, 0.16708165406718975
952.0, 0.14831231332255157
953.0, 0.12900051315402217
954.0, 0.10932475382412377
955.0, 0.0924441493883687
956.0, 0.0774002321183672
957.0, 0.06445383504474711
958.0, 0.05632318560021089
959.0, 0.04733709739875263
960.0, 0.03919492663119519
961.0, 0.035611621892603924
962.0, 0.031018093773794244
963.0, 0.026747232426109296
964.0, 0.022950518389775677
965.0, 0.020127633666680977
966.0, 0.01812959857721015
967.0, 0.01668138654235212
968.0, 0.016372070508594985
969.0, 0.014795012789728987
970.0, 0.015476863621667733
971.0, 0.015356252619938301
972.0, 0.014536428074693547
973.0, 0.014553632157553799
974.0, 0.013498014822605205
975.0, 0.012231878821279126
976.0, 0.011763923929425824
977.0, 0.010346211620913908
978.0, 0.009163914334781925
979.0, 0.008425258160270304
980.0, 0.006997310515034422
981.0, 0.008128451429981065
982.0, 0.007644624671685636
983.0, 0.00798538763709765
984.0, 0.00914937130550848
985.0, 0.009353127645392197
986.0, 0.00843945807312391
987.0, 0.008108079510939293
988.0, 0.007886097859746042
989.0, 0.007464732402370312
990.0, 0.007517603214007001
991.0, 0.007444322237902452
992.0, 0.007861033841080407
993.0, 0.008352009500817577
994.0, 0.008949878124997375
995.0, 0.00956068120401831
996.0, 0.010117840126832455
997.0, 0.011428454090538465
998.0, 0.011171805838361033
999.0, 0.012960678124810093
1000.0, 0.014153780336005369
1001.0, 0.01603299386201737
1002.0, 0.017409564274399613
1003.0, 0.019361378482982725
1004.0, 0.02098283283383907
1005.0, 0.023127680732018558
1006.0, 0.028301456844585078
1007.0, 0.03254498802349217
1008.0, 0.038842260243596896
1009.0, 0.04554579157130216
1010.0, 0.054225148211509616
1011.0, 0.06386266714387687
1012.0, 0.07698162135707338
1013.0, 0.09519844136070926
1014.0, 0.11381770531950076
1015.0, 0.1303934055750121
1016.0, 0.148605767512822
1017.0, 0.1650603675643575
1018.0, 0.17242427694698986
1019.0, 0.17488134275049116
1020.0, 0.17013736027391935
1021.0, 0.15634667870470287
1022.0, 0.1381346207961547
1023.0, 0.11950862928556047
1024.0, 0.10417178553130758
1025.0, 0.09104215966797212
1026.0, 0.07643454607510489
1027.0, 0.06546340111016853
1028.0, 0.05930488612950332
1029.0, 0.0509155511277711
1030.0, 0.045082004268011504
1031.0, 0.03844959409938394
1032.0, 0.036288136999914504
1033.0, 0.03547407810545002
1034.0, 0.0327731355344864
1035.0, 0.029511457984209843
1036.0, 0.028050294347788253
1037.0, 0.02705830286683298
1038.0, 0.024869048337282967
1039.0, 0.024983236804630354
1040.0, 0.025156158813578196
1041.0, 0.02504883058639316
1042.0, 0.02446904097573846
1043.0, 0.02462867906848073
1044.0, 0.02495743183057819
1045.0, 0.024963031271631415
1046.0, 0.025355274897922345
1047.0, 0.026235341821191825
1048.0, 0.02693918086822126
1049.0, 0.02947444604311309
1050.0, 0.03197723301688644
1051.0, 0.036160355274845644
1052.0, 0.03822507765606693
1053.0, 0.04580771926357439
1054.0, 0.05380055053251057
1055.0, 0.06125016637362125
1056.0, 0.07438465796453304
1057.0, 0.09316061757519518
1058.0, 0.11137209902258383
1059.0, 0.13990512218193174
1060.0, 0.16928770670949247
1061.0, 0.20481155183552865
1062.0, 0.23756141163233843
1063.0, 0.2634095575006309
1064.0, 0.2695098373952829
1065.0, 0.2543168842241656
1066.0, 0.2247267669124256
1067.0, 0.18735242321296752
1068.0, 0.15011131380906634
1069.0, 0.12382935381429788
1070.0, 0.10256237865107616
1071.0, 0.08264024303722399
1072.0, 0.07042746157452394
1073.0, 0.05952247452372978
1074.0, 0.05016884999656546
1075.0, 0.04521075230953163
1076.0, 0.040142725369094474
1077.0, 0.03424005168877992
1078.0, 0.03249115062012238
1079.0, 0.02973604843631702
1080.0, 0.02722606842134365
1081.0, 0.024004263388322348
1082.0, 0.022850671663050905
1083.0, 0.02390284339236919
1084.0, 0.022416999216597067
1085.0, 0.021998083142587666
1086.0, 0.023030027629241796
1087.0, 0.02279686965124741
1088.0, 0.0205999285040242
1089.0, 0.01853538448897163
1090.0, 0.017501730013477934
1091.0, 0.01851074951256452
1092.0, 0.020602226211812957
1093.0, 0.021374425687967682
1094.0, 0.020078985647663708
1095.0, 0.02231950912598863
1096.0, 0.023521689593302027
1097.0, 0.025165501436022676
1098.0, 0.027627404922558337
1099.0, 0.029382331043952967
1100.0, 0.0322418215585507
1101.0, 0.037498013053324064
1102.0, 0.03846558185547179
1103.0, 0.042435311496426195
1104.0, 0.04558105367001284
1105.0, 0.051834306440053574
1106.0, 0.05800309325657247
1107.0, 0.06303445880950789
1108.0, 0.06671810231350517
1109.0, 0.0673272423935064
1110.0, 0.06587572129092724
1111.0, 0.06364809658225828
1112.0, 0.05679616054890675
1113.0, 0.051984769148233884
1114.0, 0.044629377333507976
1115.0, 0.03850550636620624
1116.0, 0.034686259343305575
1117.0, 0.03241142829131409
1118.0, 0.03289355944302515
1119.0, 0.03372890626372584
1120.0, 0.036622003239643756
1121.0, 0.04214154181624596
1122.0, 0.046242188606657866
1123.0, 0.04531976679060057
1124.0, 0.039103307397790145
1125.0, 0.03469633830965116
1126.0, 0.026381538573097118
1127.0, 0.023829589780191562
1128.0, 0.020216079018870934
1129.0, 0.015894320053362037
1130.0, 0.012277788244354347
1131.0, 0.009397040032581174
1132.0, 0.005880228283546636
1133.0, 0.003315587674148947
1134.0, 0.004206184346146878
1135.0, 0.0049783703770134215
1136.0, 0.0044743147335329055
1137.0, 0.002005290296547812
1138.0, 0.0033055738733808984
1139.0, 0.0020988985352131725
1140.0, 0.0018080765861528095
1141.0, 0.002644095836831583
1142.0, 0.0019863262552491183
1143.0, 0.0006315197706058194
1144.0, 0.0016286169331386333
1145.0, 0.0029752058289367667
1146.0, 0.000720281446645906
1147.0, 0.00038215394559894966
1148.0, 0.00043850947434049083
1149.0, 0.003255059090158637
1150.0, 0.004417473825906766
1151.0, 0.0020393237002841094
1152.0, 0.0007693847437204582
1153.0, 0.0003072600563223838
1154.0, 0.0007338839180391068
1155.0, 0.0018225284648138076
1156.0, 0.002675586945503078
1157.0, 0.00236375716593122
1158.0, 0.0011078682898792189
1159.0, 0.0007875956792416313
1160.0, 0.0017520096843405002
1161.0, 0.0011698491385929975
1162.0, 0.0017002372304597629
1163.0, 0.0021007733236830255
1164.0, 0.0032013390285565214
1165.0, 0.0030587529697883166
1166.0, 0.0017627018204074934
1167.0, 0.0006480074994630479
1168.0, 0.00021661205226859823
1169.0, 0.00027504335630644256
1170.0, 0.0006470898505765843
1171.0, 0.0006743257954585656
1172.0, 0.00020080128089054608
1173.0, 0.0011101611684646829
1174.0, 9.243836599554412e-05
1175.0, 0.00039086823696925807
1176.0, 0.00021928716385852048
1177.0, 0.000487126222878052
1178.0, 0.00030499615447226785
1179.0, 5.915389572341109e-05
1180.0, 0.001691261364273019
1181.0, 0.0026886488659005974
1182.0, 0.001092106343452852
1183.0, 0.0017344292242397398
1184.0, 0.0013140628353084625
1185.0, 0.0005364594057232031
1186.0, 0.0012077341319798238
1187.0, 0.0019820443169061078
1188.0, 0.0008199262737347184
1189.0, 0.00033431223486354465
1190.0, 0.0004446600373319788
1191.0, 0.0011736781799126766
1192.0, 0.0010397230893293562
1193.0, 0.0005883685202446468
1194.0, 0.0005674497855484691
1195.0, 0.0008526442333417275
1196.0, 0.0028712980808972034
1197.0, 0.0019289453523478881
1198.0, 0.0009612890103307517
1199.0, 0.002708917771641387
1200.0, 0.0014650669814407647
1201.0, 0.000522776894120536
1202.0, 0.00014832837973222714
1203.0, 0.00036907080252122497
1204.0, 0.0007231113472411931
1205.0, 0.0005547319163432497
1206.0, 0.0007331651378559226
1207.0, 0.0014045850536258968
1208.0, 0.0015078248922693676
1209.0, 0.0020356699375726314
1210.0, 0.0017421066921686427
1211.0, 0.0021322628190783843
1212.0, 0.000615342322160539
1213.0, 0.0009627431450678096
1214.0, 0.0017230317371057123
1215.0, 0.0015403212100496314
1216.0, 0.0014538963940253608
1217.0, 0.0018825357491211035
1218.0, 0.0017655433214056415
1219.0, 0.0010772838270663462
1220.0, 0.0005570011817586339
1221.0, 0.00023828906251705843
1222.0, 0.00016943126851119217
1223.0, 0.00040012212570973845
1224.0, 0.00019089760704035872
1225.0, 0.0024946225806421326
1226.0, 0.0019190842920384255
1227.0, 0.0025703986067657243
1228.0, 0.003511908019735089
1229.0, 0.0020340946458748278
1230.0, 0.0029707527281442074
1231.0, 0.004292220526767117
1232.0, 0.005493224479128281
1233.0, 0.00667168842387618
1234.0, 0.006273652849083456
1235.0, 0.00488459720483605
1236.0, 0.0036006577313085686
1237.0, 0.0037893534747911275
1238.0, 0.006677288078890365
1239.0, 0.007322971034998923
1240.0, 0.006978205384685881
1241.0, 0.006223816801162821
1242.0, 0.006199883719497749
1243.0, 0.006455184614129641
1244.0, 0.00725783955953919
1245.0, 0.0077716718522314815
1246.0, 0.007660427073706562
1247.0, 0.00659916052230289
1248.0, 0.006365304738874311
1249.0, 0.008942907214449574
1250.0, 0.008623248460036582
1251.0, 0.006712510883595684
1252.0, 0.008075273034088176
1253.0, 0.008496462710198834
1254.0, 0.008974469814164427
1255.0, 0.009034162571035443
1256.0, 0.011049334117109887
1257.0, 0.010093822372921337
1258.0, 0.009804043689957041
1259.0, 0.0076878038853825876
1260.0, 0.006981887536533578
1261.0, 0.00795852674637641
1262.0, 0.006377579792381308
1263.0, 0.004642261310574806
1264.0, 0.004722633794710848
1265.0, 0.006554881235711708
1266.0, 0.007114923455586797
1267.0, 0.006623700926211732
1268.0, 0.004714893533233924
1269.0, 0.005142740768462519
1270.0, 0.005014066362684516
1271.0, 0.0024243842489745653
1272.0, 0.0035762842429551125
1273.0, 0.004398608863305233
1274.0, 0.0052355988273276085
1275.0, 0.005131856925506127
1276.0, 0.003773700582126787
1277.0, 0.004077715788244451
1278.0, 0.004265673776934946
1279.0, 0.0033277218516883896
1280.0, 0.003253626551301584
1281.0, 0.0026838696428682497
1282.0, 0.0032529221672044388
1283.0, 0.005074389770511143
1284.0, 0.004965259970119276
1285.0, 0.004963031466788693
1286.0, 0.0033399524274879784
1287.0, 0.00391162427347508
1288.0, 0.003751383304924622
1289.0, 0.003774834971291267
1290.0, 0.005122637343658777
1291.0, 0.00579055237906466
1292.0, 0.00406299727452025
1293.0, 0.0016798938607758907
1294.0, 0.003018145147892729
1295.0, 0.0034591345647758437
1296.0, 0.0039441566262388575
1297.0, 0.0048433982985120454
1298.0, 0.004603106946289234
1299.0, 0.004490784807285299
1300.0, 0.0031974338278915456
1301.0, 0.003510748020501657
1302.0, 0.005223199462831213
1303.0, 0.005072838738808992
1304.0, 0.004193736267641146
1305.0, 0.003937947891651101
1306.0, 0.0035770858316640205
1307.0, 0.003347276334929445
1308.0, 0.0045676029545762805
1309.0, 0.005962900032965404
1310.0, 0.005210588820195908
1311.0, 0.0062136202724597765
1312.0, 0.0059593151293005076
1313.0, 0.005944930610599154
1314.0, 0.002619910148459084
1315.0, 0.0036287638401243764
1316.0, 0.0037709001988049913
1317.0, 0.005473987033238425
1318.0, 0.004740877196945077
1319.0, 0.005622394697048414
1320.0, 0.006138920385054129
1321.0, 0.005197767789208597
1322.0, 0.003969531179327553
1323.0, 0.0036665353464272648
1324.0, 0.004100359636236358
1325.0, 0.0029582996514952156
1326.0, 0.003928605052351396
1327.0, 0.00481631943458493
1328.0, 0.002767830235296596
1329.0, 0.004066512822018239
1330.0, 0.0020442313701495127
1331.0, 0.000857236658363866
1332.0, 0.0027231106117041252
1333.0, 0.004787133564686092
1334.0, 0.0029958210802250897
1335.0, 0.003584853619472892
1336.0, 0.0038018748052286457
1337.0, 0.0037743787461961857
1338.0, 0.00241997539849988
1339.0, 0.0009384399539139976
1340.0, 0.001756726299408241
1341.0, 0.0025910617950500054
1342.0, 0.003836936557553233
1343.0, 0.0018338170990885036
1344.0, 0.004551859902693886
1345.0, 0.0035054154835472942
1346.0, 0.003454851286714085
1347.0, 0.0012750587723424176
1348.0, 0.004163686797051657
1349.0, 0.0035921849183083447
1350.0, 0.0024252180393476144
1351.0, 0.0016913629155273337
1352.0, 0.0031255347670489614
1353.0, 0.003316830657299184
1354.0, 0.0029194131216166573
1355.0, 0.002530543531386593
1356.0, 0.002743108624227095
1357.0, 0.0034502023018007865
1358.0, 0.0025486197409000707
1359.0, 0.0017115294621989842
1360.0, 0.00292003066943473
1361.0, 0.0031799595016829326
1362.0, 0.0004415250740756383
1363.0, 0.0031172994341932903
1364.0, 0.00019472474515015476
1365.0, 0.0050802085112597135
1366.0, 0.0021879155673551224
1367.0, 0.002779102457775582
1368.0, 0.003178094258075137
1369.0, 0.0034889663951944093
1370.0, 0.001527623924602963
1371.0, 0.0019208625504428373
1372.0, 0.0013583923174863794
1373.0, 7.631076096882099e-05
1374.0, 0.0010089972332923613
1375.0, 0.0019277783851540775
1376.0, 0.001296509582784027
1377.0, 0.000834777420676977
1378.0, 0.0018535443078957982
1379.0, 0.0035125518370676964
1380.0, 0.00032142129551666204
1381.0, 0.0017758162464703625
1382.0, 0.0015739045388303407
1383.0, 0.0024162381835055296
1384.0, 0.0041390164059365835
1385.0, 0.00235344881696893
1386.0, 0.001901122876920906
1387.0, 0.0038936855976351207
1388.0, 0.0018294714241679617
1389.0, 0.0007885908134495198
1390.0, 0.000976557091283127
1391.0, 0.0011344897282766025
1392.0, 0.001011640340308775
1393.0, 0.0008466835658184623
1394.0, 0.001590331038466916
1395.0, 0.002129105422744139
1396.0, 0.0012536642087290783
1397.0, 0.0019721517440552906
1398.0, 0.0022483799799445756
1399.0, 0.0012089006441582581
1400.0, 0.003457888418472878
1401.0, 0.0008474471070247916
1402.0, 0.0026017632575010413
1403.0, 0.0014701994122451635
1404.0, 0.0009223142260524328
1405.0, 0.003104119333307025
1406.0, 0.002246276157568055
1407.0, 0.002439896478739347
1408.0, 0.0028746385952490333
1409.0, 0.0023547147220956354
1410.0, 0.002361783193877682
1411.0, 0.001335877714940492
1412.0, 0.00040942443848966746
1413.0, 0.0025333018590461705
1414.0, 0.004137534572496427
1415.0, 0.003131751050277881
1416.0, 0.003328342740605755
1417.0, 0.002276189599930303
1418.0, 0.0031014361069847973
1419.0, 0.004147776751940459
1420.0, 0.001143646185153819
1421.0, 0.002058495206223575
1422.0, 0.004933116351942102
1423.0, 0.0026691768811673397
1424.0, 0.0025238157361805453
1425.0, 0.0036171618164002363
1426.0, 0.0018140452211044059
1427.0, 0.0017196300913912433
1428.0, 0.0022101782669317047
1429.0, 0.0018690212605734552
1430.0, 0.0010193977068085175
1431.0, 0.0018099376523121788
1432.0, 0.002474251645218736
1433.0, 0.0021430262627551476
1434.0, 0.002524871562503953
1435.0, 0.0026585826186779704
1436.0, 0.0013255817113188625
1437.0, 0.0011289311222258726
1438.0, 0.0026369872425152274
1439.0, 0.0036703295068304066
1440.0, 0.005458671580258539
1441.0, 0.003507572126955244
1442.0, 0.0020490670637841667
1443.0, 0.0030914600769103543
1444.0, 0.00340075912111261
1445.0, 0.00330867871796244
1446.0, 0.004384425361000451
1447.0, 0.005802361656756887
1448.0, 0.007363426748935868
1449.0, 0.00696048243054147
1450.0, 0.006823183592534674
1451.0, 0.005406804848637226
1452.0, 0.004366081211497728
1453.0, 0.0036501504431471054
1454.0, 0.0017990776289303902
1455.0, 0.001964265533951038
1456.0, 0.003516081613153978
1457.0, 0.004472316676226153
1458.0, 0.004777169886465169
1459.0, 0.004072549999071037
1460.0, 0.003877126167036079
1461.0, 0.0037170375212731204
1462.0, 0.004054073902663817
1463.0, 0.004444799779420922
1464.0, 0.0003647201851887551
1465.0, 0.0025731004529809657
1466.0, 0.005192066419401893
1467.0, 0.0022882987830890253
1468.0, 0.0064702345781862715
1469.0, 0.0026256369072309247
1470.0, 0.003320392474336312
1471.0, 0.003568387180545391
1472.0, 0.0033396756067105102
1473.0, 0.0029547970642898086
1474.0, 0.0027161925221519867
1475.0, 0.002435002681974095
1476.0, 0.002377249099957539
1477.0, 0.0025678817094096622
1478.0, 0.0026930688623499907
1479.0, 0.0029556127918755914
1480.0, 0.0027111661471130406
1481.0, 0.0025135014190359943
1482.0, 0.0024793109086539062
1483.0, 0.0034911237485751767
1484.0, 0.003818204053295706
1485.0, 0.00213766942175083
1486.0, 0.004490236450406615
1487.0, 0.0026327450204054383
1488.0, 0.003872356167172248
1489.0, 0.0037607162754228667
1490.0, 0.004767048234495347
1491.0, 0.002986636561716747
1492.0, 0.0029299889504472345
1493.0, 0.003902617353154837
1494.0, 0.00526183911806705
1495.0, 0.0014341211357737234
1496.0, 0.001422691736287614
1497.0, 0.002830404630032222
1498.0, 0.005385204472135783
1499.0, 0.003068613053617596
1500.0, 0.002406526415651262
1501.0, 0.003019032183032116
1502.0, 0.0028269828598074
1503.0, 0.00327453754530986
1504.0, 0.004399192446167505
1505.0, 0.003948009524285663
1506.0, 0.002943026543913915
1507.0, 0.001479201654841357
1508.0, 0.0026475677411864347
1509.0, 0.003715859563607803
1510.0, 0.0036618118618158306
1511.0, 0.00451037404231943
1512.0, 0.002617050260409893
1513.0, 0.0030922752576395245
1514.0, 0.003112172610765131
1515.0, 0.004556301007217654
1516.0, 0.004087798341764949
1517.0, 0.00352051058455355
1518.0, 0.0030458175827986545
1519.0, 0.0027930763858197956
1520.0, 6.418769418837943e-05
1521.0, 0.00010975937900769325
1522.0, 0.0012305618265492316
1523.0, 0.002674178147539837
1524.0, 0.0027141659605505425
1525.0, 0.0013362040936580762
1526.0, 0.0026003858304297447
1527.0, 0.0015337389786951568
1528.0, 0.0016274680678128122
1529.0, 0.003200226539909372
1530.0, 0.0037616786630356334
1531.0, 0.0020053991336135475
1532.0, 0.003955468986892573
1533.0, 0.0027054036376855076
1534.0, 0.003505688855826384
1535.0, 0.0029277215219230147
1536.0, 0.0014142473967439224
1537.0, 0.001948900802989174
1538.0, 0.002966860165830027
1539.0, 0.003025980413352463
1540.0, 0.0039519836355695545
1541.0, 0.0040009686909499974
1542.0, 0.0017474227482081274
1543.0, 0.002302896352685836
1544.0, 0.0040615857506413845
1545.0, 0.004070892447820979
1546.0, 0.004531664956487823
1547.0, 0.0040138762787653584
1548.0, 0.002910020004609324
1549.0, 0.003185764378328298
1550.0, 0.004692926213427764
1551.0, 0.0032224954710683043
1552.0, 0.0013694839225757455
1553.0, 0.0026320988558406954
1554.0, 0.001487760103683053
1555.0, 0.001770256779817482
1556.0, 0.0017402093604063544
1557.0, 0.0022383479071157904
1558.0, 0.0029335403674269974
1559.0, 0.0026806684291146555
1560.0, 0.0012117473104082906
1561.0, 0.001796004710387986
1562.0, 0.0004307361610480651
1563.0, 0.001006783376300269
1564.0, 0.0017352002683003736
1565.0, 0.001217327585238189
1566.0, 0.002119989138137111
1567.0, 0.0008499820276543461
1568.0, 0.0007530483029618796
1569.0, 0.0004676316452786241
1570.0, 5.866609075707751e-05
1571, 0.0
1572, 0.0
1573, 0.0
1574, 0.0
1575, 0.0
1576, 0.0
1577, 0.0
1578, 0.0
1579, 0.0
1580, 0.0
1581, 0.0
1582, 0.0
1583, 0.0
1584, 0.0
1585, 0.0
1586, 0.0
1587, 0.0
1588, 0.0
1589, 0.0
1590, 0.0
1591, 0.0
1592, 0.0
1593, 0.0
1594, 0.0
1595, 0.0
1596, 0.0
1597, 0.0
1598, 0.0
1599, 0.0
