30, 0.0
31, 0.0
32, 0.0
33, 0.0
34, 0.0
35, 0.0
36, 0.0
37, 0.0
38, 0.0
39, 0.0
40, 0.0
41, 0.0
42, 0.0
43, 0.0
44, 0.0
45, 0.0
46, 0.0
47, 0.0
48, 0.0
49, 0.0
50, 0.0
51, 0.0
52, 0.0
53, 0.0
54, 0.0
55, 0.0
56, 0.0
57, 0.0
58, 0.0
59, 0.0
60, 0.0
61, 0.0
62, 0.0
63, 0.0
64, 0.0
65, 0.0
66, 0.0
67, 0.0
68, 0.0
69, 0.0
70, 0.0
71, 0.0
72, 0.0
73, 0.0
74, 0.0
75, 0.0
76, 0.0
77, 0.0
78, 0.0
79, 0.0
80, 0.0
81, 0.0
82, 0.0
83, 0.0
84, 0.0
85, 0.0
86, 0.0
87, 0.0
88, 0.0
89, 0.0
90, 0.0
91, 0.0
92.0, 0.003566967464916699
93.0, 0.004100310550122803
94.0, 0.002845554883242887
95.0, 0.0019418247256226288
96.0, 0.003478628163470303
97.0, 0.0005854253420742171
98.0, 0.00023821855407853026
99.0, 0.0020234745233785774
100.0, 0.004183651391386373
101.0, 0.00452235395702126
102.0, 0.00144877920173908
103.0, 0.002897696822739393
104.0, 0.004466584128986241
105.0, 0.006496247215595125
106.0, 0.010350199932389934
107.0, 0.017857599413455223
108.0, 0.027215846627066272
109.0, 0.026597759645651944
110.0, 0.029105794097951394
111.0, 0.03227169147503485
112.0, 0.016135917554857923
113.0, 0.010436123370681347
114.0, 0.008576770123065578
115.0, 0.010131520503934982
116.0, 0.01314526101131156
117.0, 0.014656619598223796
118.0, 0.010365935306080633
119.0, 0.0081855567805048
120.0, 0.006248327050455018
121.0, 0.004728490444529189
122.0, 0.0038984353203557545
123.0, 0.0030842131985537842
124.0, 0.002385000455361084
125.0, 0.003297855181152324
126.0, 0.003465827680688049
127.0, 0.003288810424356351
128.0, 0.006544054199141475
129.0, 0.008541783305470405
130.0, 0.008777798161310017
131.0, 0.009012496149988931
132.0, 0.009660584867322032
133.0, 0.010009184659368764
134.0, 0.006832488246974904
135.0, 0.00781287932004613
136.0, 0.008178876948429493
137.0, 0.008743898595993158
138.0, 0.010830553689582313
139.0, 0.0141910388231358
140.0, 0.01728902334746107
141.0, 0.01696694736017508
142.0, 0.016664865818433232
143.0, 0.017096763673907226
144.0, 0.016132779116349576
145.0, 0.016998996036668705
146.0, 0.014290468934387176
147.0, 0.012432933189782724
148.0, 0.011548878858920695
149.0, 0.010378565597164416
150.0, 0.009506738147909274
151.0, 0.008959394511630714
152.0, 0.009010853335164087
153.0, 0.008379817798379655
154.0, 0.00699739853952355
155.0, 0.007008734038546351
156.0, 0.007154050036523479
157.0, 0.005731309512238403
158.0, 0.005363683958105799
159.0, 0.006187071767988268
160.0, 0.0069159146473646484
161.0, 0.008371015357999438
162.0, 0.009392315103039716
163.0, 0.009720793665257462
164.0, 0.010755365104157116
165.0, 0.013306049480358746
166.0, 0.015971725322747706
167.0, 0.016772500313409704
168.0, 0.016628056757216663
169.0, 0.016389888800080698
170.0, 0.01663289180129591
171.0, 0.017500413333844406
172.0, 0.017520527339796546
173.0, 0.014262757399625174
174.0, 0.012587279630160646
175.0, 0.012663971386177414
176.0, 0.01320040621055412
177.0, 0.013155928373797539
178.0, 0.014296064761935623
179.0, 0.015485915245480084
180.0, 0.015526967565120718
181.0, 0.01441490014489835
182.0, 0.013361373998453087
183.0, 0.01295775677805558
184.0, 0.01583546163909148
185.0, 0.018029571980626907
186.0, 0.01970122277348974
187.0, 0.022215768117457804
188.0, 0.025767026506441117
189.0, 0.02633701282763684
190.0, 0.02880478312416682
191.0, 0.031155465926605282
192.0, 0.03325029598611143
193.0, 0.03725324308389711
194.0, 0.036429004840504015
195.0, 0.03816260761851036
196.0, 0.039286850058327286
197.0, 0.0385518484883701
198.0, 0.0357920400981074
199.0, 0.031735509511448344
200.0, 0.032786364407857246
201.0, 0.03457500781413613
202.0, 0.035390024631850384
203.0, 0.033587723021371835
204.0, 0.027671722629600604
205.0, 0.0174455979095787
206.0, 0.009511520919218535
207.0, 0.00349864554965279
208.0, 0.0011227802497227209
209.0, 0.0025289738886702176
210.0, 0.0018027506417551144
211.0, 0.0010606941743071879
212.0, 0.0007023157443716
213.0, 0.0005462515911776863
214.0, 0.000399825135305035
215.0, 0.00020737500792072743
216.0, 0.0009395480903353463
217.0, 0.0007352778194315134
218.0, 0.0003699149654869534
219.0, 0.0007318659616020287
220.0, 0.0018213914704560798
221.0, 0.0016985043325890726
222.0, 0.00260150943456169
223.0, 0.004243243205199373
224.0, 0.004620653773837739
225.0, 0.003811901936370195
226.0, 0.0030196528457784185
227.0, 0.0009697817528496291
228.0, 0.0009450757507398687
229.0, 0.001927944628730842
230.0, 0.0038493909237910487
231.0, 0.006872613633903356
232.0, 0.011248634962728817
233.0, 0.016080571092521527
234.0, 0.022800088175491194
235.0, 0.030941968036348442
236.0, 0.039688543402890825
237.0, 0.04780970701841008
238.0, 0.053136457898492445
239.0, 0.05481520509922282
240.0, 0.05437306608778649
241.0, 0.05476974987300668
242.0, 0.05425953883759359
243.0, 0.0478894622423064
244.0, 0.04542398759800991
245.0, 0.04340543411441733
246.0, 0.041976009049781896
247.0, 0.03961765844478684
248.0, 0.03652251673492671
249.0, 0.03695116792795848
250.0, 0.03649184850672741
251.0, 0.03817474606189127
252.0, 0.0401322540271849
253.0, 0.0430955934036033
254.0, 0.047812201450694126
255.0, 0.048567374235185916
256.0, 0.052123689569186775
257.0, 0.05652071770798198
258.0, 0.06346921135138948
259.0, 0.07390582968639409
260.0, 0.0864046514381744
261.0, 0.08688557530480576
262.0, 0.09314543468771899
263.0, 0.08868000631611128
264.0, 0.084184994716391
265.0, 0.08794502864679606
266.0, 0.08874716113614182
267.0, 0.09641041191738335
268.0, 0.10534569006493348
269.0, 0.11556999945864592
270.0, 0.12803031541063073
271.0, 0.14385098286730688
272.0, 0.163335140246045
273.0, 0.18667907165543415
274.0, 0.20920296535819363
275.0, 0.23120578885004098
276.0, 0.25439574712196905
277.0, 0.2818203447459853
278.0, 0.32193836351775384
279.0, 0.37452191334246077
280.0, 0.43357551988227755
281.0, 0.49801630893508686
282.0, 0.5682198365360971
283.0, 0.6451770037649105
284.0, 0.7251693342946034
285.0, 0.8075945003733164
286.0, 0.8857779911456835
287.0, 0.9513161866797799
288.0, 0.993900273345983
289.0, 0.9998862661369712
290.0, 0.9601412872200038
291.0, 0.8852690576846104
292.0, 0.78754993413899
293.0, 0.6778993473206846
294.0, 0.5663525830939067
295.0, 0.4660792176970855
296.0, 0.38402185988542553
297.0, 0.3167136160556727
298.0, 0.2612401997465814
299.0, 0.2174624754339078
300.0, 0.1866140557146006
301.0, 0.16307886799201315
302.0, 0.1440049169978667
303.0, 0.12936304008907987
304.0, 0.12003908465598952
305.0, 0.11593887911125274
306.0, 0.11601664278004752
307.0, 0.12459339920708049
308.0, 0.13717866160589492
309.0, 0.15513233648374058
310.0, 0.17787045007018065
311.0, 0.20390043556632925
312.0, 0.2315266409076011
313.0, 0.2643031055804219
314.0, 0.30363922251971
315.0, 0.3464895538591453
316.0, 0.3888356408954214
317.0, 0.4240463108959679
318.0, 0.4408090991782764
319.0, 0.42216177227331947
320.0, 0.38447285684378546
321.0, 0.33519732703131416
322.0, 0.2842398830383941
323.0, 0.24236147255402976
324.0, 0.2205068976868411
325.0, 0.1787582776115211
326.0, 0.15332036058376947
327.0, 0.13594732621498742
328.0, 0.12354192970383988
329.0, 0.1168697505059617
330.0, 0.11003999872450418
331.0, 0.1052475583546889
332.0, 0.10306494640620804
333.0, 0.10167663090651662
334.0, 0.09991567542215123
335.0, 0.09838919791904048
336.0, 0.10291333047312874
337.0, 0.10403217268767687
338.0, 0.10744423837993546
339.0, 0.1123278644584332
340.0, 0.11841096634165203
341.0, 0.1267503216288878
342.0, 0.13813242517572238
343.0, 0.1494040516701732
344.0, 0.16738951868056515
345.0, 0.19111269830898236
346.0, 0.22041528353537118
347.0, 0.256623789315373
348.0, 0.2929248272544046
349.0, 0.33664517346294864
350.0, 0.3843188884087278
351.0, 0.4370324232650717
352.0, 0.49176527359855404
353.0, 0.5412473148306485
354.0, 0.5937536046664361
355.0, 0.6326842856016441
356.0, 0.6378262622896126
357.0, 0.6218030574743042
358.0, 0.5934888740381679
359.0, 0.5463931597230026
360.0, 0.47988719594645474
361.0, 0.41299466438842664
362.0, 0.35478009992109244
363.0, 0.3017721918798803
364.0, 0.2521614065724966
365.0, 0.2105439505633679
366.0, 0.17911342106415262
367.0, 0.15371580443170751
368.0, 0.13257575936506652
369.0, 0.11554137014048524
370.0, 0.10181095812428403
371.0, 0.08951949464998253
372.0, 0.0792629009576749
373.0, 0.07181011163633848
374.0, 0.06726813935490436
375.0, 0.06373005562908475
376.0, 0.060176297364870235
377.0, 0.057412462757787504
378.0, 0.0546801696204288
379.0, 0.05520467089870041
380.0, 0.05194405323157835
381.0, 0.048087742373920675
382.0, 0.04619530784340422
383.0, 0.04458974467852999
384.0, 0.0393122592224133
385.0, 0.03654224994604835
386.0, 0.03407505305191096
387.0, 0.030784406818377658
388.0, 0.027836213796814755
389.0, 0.0277455850275753
390.0, 0.025285952071761028
391.0, 0.023079940480439896
392.0, 0.02141055319311108
393.0, 0.020224093821159164
394.0, 0.018282973928795975
395.0, 0.014297964924659026
396.0, 0.013588242986493634
397.0, 0.011232380043163287
398.0, 0.009713291135291935
399.0, 0.00919664269026168
400.0, 0.008967060284986334
401.0, 0.008252201994988037
402.0, 0.008276128780952997
403.0, 0.007738738036115268
404.0, 0.005996228067017952
405.0, 0.0057313690435059055
406.0, 0.005981222380251375
407.0, 0.004519607354633673
408.0, 0.006224737095191257
409.0, 0.002313312489382868
410.0, 0.0006952323582608113
411.0, 0.00040697154911668436
412.0, 0.001419311864826621
413.0, 0.0031533822839061878
414.0, 0.0007114589375093042
415.0, 0.005126626406203238
416.0, 0.005503586471235335
417.0, 0.004862528622097321
418.0, 0.0033229041577750276
419.0, 0.0012544484007566948
420.0, 0.0030287824677929587
421.0, 0.004076779786042269
422.0, 0.0022292659255375444
423.0, 0.0013194171521794566
424.0, 0.0012174069607896866
425.0, 0.0008873234602644046
426.0, 0.0004965515229782419
427.0, 0.0010084192192542983
428.0, 0.0014652884197478946
429.0, 0.001503271093939472
430.0, 0.0014334882813674874
431.0, 0.0014930319595759106
432.0, 0.0014802258514848288
433.0, 0.00028205176687543226
434.0, 0.0003952866006124687
435.0, 0.0016468894652868645
436.0, 0.0020425797361810155
437.0, 0.0012951719020616085
438.0, 0.0010087022372274883
439.0, 0.002828367593894655
440.0, 0.002357912168315113
441.0, 0.004331238098088033
442.0, 0.006987330518146537
443.0, 0.010529269300238911
444.0, 0.015236446214028814
445.0, 0.017130439223746227
446.0, 0.022641600903867933
447.0, 0.027584286884115992
448.0, 0.03466470244667413
449.0, 0.04236987493609494
450.0, 0.046084045134498826
451.0, 0.04014519612474579
452.0, 0.02880508731650382
453.0, 0.01984348163770531
454.0, 0.016673705580742604
455.0, 0.012609632617130493
456.0, 0.006209863743856959
457.0, 0.004076414363936329
458.0, 0.0022191156716953463
459.0, 0.0022898931299554304
460.0, 0.0017381066445750692
461.0, 0.001499504521237045
462.0, 0.0018324376418565288
463.0, 0.002294045413455937
464.0, 0.0032504805831661755
465.0, 0.003449060987258541
466.0, 0.004159072660756097
467.0, 0.0048042256857011145
468.0, 0.0052582335279240154
469.0, 0.005763394226433735
470.0, 0.006637367167595294
471.0, 0.006291815537681808
472.0, 0.0068165226274523125
473.0, 0.006860609379516747
474.0, 0.0069925576882788
475.0, 0.007360953064698532
476.0, 0.007265196858693431
477.0, 0.007838990999372353
478.0, 0.007619082604539347
479.0, 0.0064980373117787
480.0, 0.006548387951593536
481.0, 0.006804176708746702
482.0, 0.005550293735923093
483.0, 0.005692369950167043
484.0, 0.006441794674451381
485.0, 0.005918083684369442
486.0, 0.005042306061779849
487.0, 0.0032013811220484743
488.0, 0.0015475637626774152
489.0, 0.0036998188434917228
490.0, 0.0015310174793084223
491.0, 0.001169554977047031
492.0, 0.0014752198992575496
493.0, 0.001984064721313035
494.0, 0.0022582519290507194
495.0, 0.0022629189094100473
496.0, 0.003604260540671568
497.0, 0.002192090883081512
498.0, 0.0026767193311188118
499.0, 0.0031515769995415096
500.0, 0.0024384051544426733
501.0, 0.0008416795501050284
502.0, 0.00018867106187168633
503.0, 0.001984152321435069
504.0, 0.0013590902572737065
505.0, 0.002236988069416344
506.0, 0.002580116764257431
507.0, 0.002178662240809175
508.0, 0.0029919195042520568
509.0, 0.0035423526595719473
510.0, 0.006158940969082605
511.0, 0.006501457882346438
512.0, 0.0067284896720717375
513.0, 0.00715007322359986
514.0, 0.007276605387791524
515.0, 0.0073032655340567335
516.0, 0.008222180816815952
517.0, 0.008063868335573383
518.0, 0.006546983293211173
519.0, 0.007739104981936573
520.0, 0.00955106134467233
521.0, 0.007099603276043364
522.0, 0.00799711447129329
523.0, 0.00926073365943966
524.0, 0.008708070565930034
525.0, 0.0092688636800324
526.0, 0.009633379445130315
527.0, 0.009365186118686752
528.0, 0.011561572686026034
529.0, 0.01150160779703893
530.0, 0.015338845026047185
531.0, 0.01483353410476644
532.0, 0.01618994183428416
533.0, 0.019531267578233875
534.0, 0.02103807282729928
535.0, 0.02365561075123547
536.0, 0.02847157629946557
537.0, 0.030900890222962288
538.0, 0.03702218208016677
539.0, 0.04561799881426261
540.0, 0.054626598481257144
541.0, 0.06452515297600131
542.0, 0.07807234816543154
543.0, 0.08919515284717092
544.0, 0.10586312657026264
545.0, 0.11668659946992967
546.0, 0.12485688197475495
547.0, 0.13424390864216004
548.0, 0.13480345447331035
549.0, 0.13361678681268152
550.0, 0.12753468398877477
551.0, 0.11417257877686017
552.0, 0.09955442078447896
553.0, 0.08630832489555923
554.0, 0.07373621521207711
555.0, 0.06407825197405784
556.0, 0.0589647572514219
557.0, 0.05210770111855688
558.0, 0.04932961367741204
559.0, 0.048446489677146064
560.0, 0.047013103388158485
561.0, 0.04633621075450762
562.0, 0.05129557040833392
563.0, 0.05152239030929021
564.0, 0.05588872435321537
565.0, 0.06148087159574469
566.0, 0.0660553782828428
567.0, 0.0696932399557326
568.0, 0.07444794719027024
569.0, 0.07891615488542225
570.0, 0.07941785195509629
571.0, 0.07738756806152228
572.0, 0.07128422330395859
573.0, 0.06362832848802324
574.0, 0.05706890409625384
575.0, 0.04882746770990845
576.0, 0.044633097666290644
577.0, 0.04101472808891845
578.0, 0.03589050290448012
579.0, 0.03302056507693436
580.0, 0.031125516651103365
581.0, 0.027274657299949667
582.0, 0.028349526757853186
583.0, 0.025690528069388322
584.0, 0.02579631967956398
585.0, 0.02604734842119777
586.0, 0.024649494105132883
587.0, 0.02229303115700083
588.0, 0.02174852184853095
589.0, 0.025235612887889905
590.0, 0.024480536086937954
591.0, 0.022327916758913102
592.0, 0.024021781780768803
593.0, 0.026682888181032403
594.0, 0.02717397205603253
595.0, 0.026293149564513597
596.0, 0.026296927796427554
597.0, 0.025844688694274375
598.0, 0.026499841848140217
599.0, 0.027327931721107025
600.0, 0.026473585952411637
601.0, 0.02468899869137695
602.0, 0.02566110274881374
603.0, 0.027783618360461823
604.0, 0.024870543395298785
605.0, 0.0246318119959236
606.0, 0.025212188758765203
607.0, 0.02345754181085899
608.0, 0.020105946102588115
609.0, 0.02043603100834087
610.0, 0.020749868694626982
611.0, 0.01947720877811744
612.0, 0.019657522443070747
613.0, 0.01978303529900028
614.0, 0.019624429846517254
615.0, 0.020464127597345665
616.0, 0.023183180408291544
617.0, 0.019855278941755664
618.0, 0.02070478818054929
619.0, 0.020444001114632876
620.0, 0.018666138131591518
621.0, 0.01869775213568635
622.0, 0.021190527494120873
623.0, 0.020985213774865893
624.0, 0.020199691352180322
625.0, 0.023310430010198002
626.0, 0.022372843886352068
627.0, 0.02051168427172578
628.0, 0.01933219778839894
629.0, 0.018336958674401962
630.0, 0.01655648589837808
631.0, 0.016045698272674498
632.0, 0.014750826134396515
633.0, 0.013250416281365642
634.0, 0.012301981104412146
635.0, 0.010922895169968996
636.0, 0.008973789073913194
637.0, 0.008201194509950629
638.0, 0.006888064730134602
639.0, 0.008556772330589796
640.0, 0.007844973915419608
641.0, 0.005487538430642437
642.0, 0.005372746558975104
643.0, 0.008278672755518066
644.0, 0.009843524848740565
645.0, 0.008190604814800318
646.0, 0.007406876398792969
647.0, 0.005829946330714243
648.0, 0.005445650481987175
649.0, 0.0048712316844882145
650.0, 0.003661627573243144
651.0, 0.0034592327991500977
652.0, 0.0034596459483649585
653.0, 0.0013718979849781752
654.0, 0.002051888598750868
655.0, 0.0013555408950249438
656.0, 0.0004941548390719496
657.0, 0.00046291537125552214
658.0, 0.0005314132345552107
659.0, 0.0010254070645265207
660.0, 0.0035832796775056644
661.0, 0.0021278559336204727
662.0, 0.0016342492457331749
663.0, 0.0010835826548821266
664.0, 0.0003422082949138758
665.0, 0.0007366215262758555
666.0, 0.0021728840947802044
667.0, 0.0011239462428631148
668.0, 0.0005791333424228089
669.0, 0.0010343138329088422
670.0, 0.0007912452127939254
671.0, 0.00015544087414147813
672.0, 0.0002344640151354074
673.0, 0.0008513755256836463
674.0, 0.0020080569253683794
675.0, 0.0016125824510982583
676.0, 0.0018614292711747447
677.0, 0.0033734424400034655
678.0, 0.0038240161512708513
679.0, 0.0027606161451235113
680.0, 0.003143249468037292
681.0, 0.004699597546434423
682.0, 0.005805410547346178
683.0, 0.007053560245827828
684.0, 0.008187771445203927
685.0, 0.006858670816824035
686.0, 0.005585477644138481
687.0, 0.007842391832946497
688.0, 0.0062283496755999234
689.0, 0.008414489664096065
690.0, 0.008805824049070552
691.0, 0.010376316869210393
692.0, 0.011677135940884853
693.0, 0.011299625058102662
694.0, 0.010074997536298098
695.0, 0.010836503174084413
696.0, 0.011195106664004365
697.0, 0.01445573090357779
698.0, 0.016925066896993787
699.0, 0.017501390679518454
700.0, 0.018276865376146447
701.0, 0.020155528100258384
702.0, 0.021834878480386517
703.0, 0.025260479197700917
704.0, 0.026247012951917434
705.0, 0.028235017326320624
706.0, 0.031516028003798414
707.0, 0.032276962475076276
708.0, 0.030645414521050265
709.0, 0.029274416988637107
710.0, 0.027793163157650305
711.0, 0.030014124944636792
712.0, 0.027354351742998745
713.0, 0.025392150796423124
714.0, 0.026513929824695213
715.0, 0.02601785905885067
716.0, 0.02319134456566173
717.0, 0.023748989568924163
718.0, 0.021076952837035322
719.0, 0.016466064356808356
720.0, 0.014627904187393364
721.0, 0.010894392525408133
722.0, 0.009062492244435104
723.0, 0.00899451517375563
724.0, 0.007126082509644522
725.0, 0.0039240151437900704
726.0, 0.0034937240667500063
727.0, 0.003531735089842021
728.0, 0.0027792290283693757
729.0, 0.002891739966989566
730.0, 0.0032323394392906194
731.0, 0.0029770396733938094
732.0, 0.002527482000201764
733.0, 0.002136500888627293
734.0, 0.002961466916079481
735.0, 0.0029703058070561657
736.0, 0.0031961766033931876
737.0, 0.0037673553285095
738.0, 0.004329872779967799
739.0, 0.004878943376948841
740.0, 0.006075993636510616
741.0, 0.007304881941749886
742.0, 0.008748750909279946
743.0, 0.011860258442387583
744.0, 0.012368979182695677
745.0, 0.012397133924690386
746.0, 0.012540870187327023
747.0, 0.011994645297495839
748.0, 0.014495437350017583
749.0, 0.014925818525216386
750.0, 0.012567044958101861
751.0, 0.014390903813580165
752.0, 0.013567553533983884
753.0, 0.014138934025341715
754.0, 0.017009500466602274
755.0, 0.015810993783088825
756.0, 0.01638359361785816
757.0, 0.014450518009833215
758.0, 0.012061011748077978
759.0, 0.011936517508486625
760.0, 0.01391403126493321
761.0, 0.014515392623335833
762.0, 0.0132538440824925
763.0, 0.014065830424834527
764.0, 0.010677730136648345
765.0, 0.011980655457040343
766.0, 0.011669377636621348
767.0, 0.010937499958887466
768.0, 0.012241339276089351
769.0, 0.01463604553602334
770.0, 0.014967889245592489
771.0, 0.012556124214482177
772.0, 0.015053740633281529
773.0, 0.017427711151163087
774.0, 0.01832562912699137
775.0, 0.019536111858401456
776.0, 0.020346209415825
777.0, 0.022817861283562283
778.0, 0.028205599870313146
779.0, 0.030967052708343393
780.0, 0.03018772691877862
781.0, 0.03893314803589023
782.0, 0.042593751616808936
783.0, 0.04727261795787525
784.0, 0.05303079751076059
785.0, 0.0586649063117583
786.0, 0.06477668327194629
787.0, 0.07216899557952099
788.0, 0.07575641184809627
789.0, 0.07767469396359761
790.0, 0.07928003733759284
791.0, 0.07980539741176201
792.0, 0.0786608917844144
793.0, 0.07578996231511709
794.0, 0.07133690110742522
795.0, 0.06531210795595926
796.0, 0.059593690933357535
797.0, 0.05131332504315576
798.0, 0.047658030606033776
799.0, 0.04286329274487549
800.0, 0.03808970766304846
801.0, 0.034851077953263435
802.0, 0.03155372204290857
803.0, 0.026375675162839944
804.0, 0.024692034549558307
805.0, 0.024020953764369107
806.0, 0.02110903055248348
807.0, 0.0196971545424743
808.0, 0.018441656974877825
809.0, 0.015125879682083556
810.0, 0.011319984910335196
811.0, 0.011786562757392694
812.0, 0.0076298171376534656
813.0, 0.009714753868962384
814.0, 0.00448517228130165
815.0, 0.0037722066575734646
816.0, 0.0037930062093706938
817.0, 0.00226009603519101
818.0, 0.0018101721467188266
819.0, 0.003086939460914899
820.0, 0.0018700606830810082
821.0, 0.001004391478672849
822.0, 0.0019064583170155295
823.0, 0.0021844390575303783
824.0, 0.002351275280580948
825.0, 0.0024938048673850783
826.0, 0.0026837876721113084
827.0, 0.0034553021944232157
828.0, 0.0027017852297217143
829.0, 0.002816118245908714
830.0, 0.0013144561565012931
831.0, 0.0016334628695924807
832.0, 0.002849075106804057
833.0, 0.0031077938873015853
834.0, 0.0028805707180383604
835.0, 0.003943895223428339
836.0, 0.0038575662031920515
837.0, 0.0009668686332737334
838.0, 0.0018349325726132563
839.0, 0.0018356733275389592
840.0, 0.0015475610918814673
841.0, 0.0009895289556833592
842.0, 0.0007553990876642482
843.0, 0.0011581156358753493
844.0, 0.0004176385129521467
845.0, 0.0006369435029806922
846.0, 0.002532059522766423
847.0, 0.0029743155233423178
848.0, 0.003303591095855669
849.0, 0.003605060104301072
850.0, 0.0038894505105614915
851.0, 0.0040685726586538375
852.0, 0.0039009496456380304
853.0, 0.004531297650196806
854.0, 0.002829871976393424
855.0, 0.0017970843196871934
856.0, 0.0007660094653018405
857.0, 0.0004754417857699276
858.0, 0.0016625860524894442
859.0, 0.002370825681739794
860.0, 0.0014538007902196745
861.0, 0.0046287031226908285
862.0, 0.003196500803887939
863.0, 0.0006556156524581234
864.0, 0.0016743032333617059
865.0, 0.0028811535120003176
866.0, 0.0025428648330803154
867.0, 0.0014125899667566685
868.0, 0.0007634548755218595
869.0, 0.0013992275717431293
870.0, 0.006701452521581559
871.0, 0.005133573491816474
872.0, 0.0051273324623706314
873.0, 0.0065310828226249305
874.0, 0.006227664726999884
875.0, 0.005005263351785129
876.0, 0.004136574535935333
877.0, 0.0035899164046740684
878.0, 0.0043332651202921514
879.0, 0.008145693715001573
880.0, 0.0091721781856823
881.0, 0.008923853431870705
882.0, 0.010462694053903532
883.0, 0.010993062604341143
884.0, 0.010861285848865506
885.0, 0.011754294863878804
886.0, 0.013002414888400985
887.0, 0.013815906142659972
888.0, 0.014476902337882638
889.0, 0.017583358917238136
890.0, 0.017706895544377318
891.0, 0.02107376355823948
892.0, 0.022915306210204746
893.0, 0.02325182161763406
894.0, 0.025844817729953395
895.0, 0.029349145483212446
896.0, 0.034621006378429894
897.0, 0.037004790335154504
898.0, 0.042764266522008716
899.0, 0.04571329359429088
900.0, 0.050578529793511975
901.0, 0.05939906222093653
902.0, 0.06991271531649595
903.0, 0.0796617359423688
904.0, 0.0906644928312026
905.0, 0.10860783378982483
906.0, 0.12303360016237083
907.0, 0.1515404377369895
908.0, 0.18456209193491435
909.0, 0.2275078991992457
910.0, 0.2820490565640468
911.0, 0.35096404621045396
912.0, 0.4335546333205008
913.0, 0.5180189224617897
914.0, 0.6162715384762407
915.0, 0.7130044671569097
916.0, 0.7862662203617065
917.0, 0.8202072923106604
918.0, 0.8051715518520851
919.0, 0.7445137896019276
920.0, 0.6512822181813389
921.0, 0.5471690943403789
922.0, 0.4573198588355864
923.0, 0.3723321476459612
924.0, 0.31005112739565693
925.0, 0.26315396900952126
926.0, 0.22693802617898842
927.0, 0.2002720891681361
928.0, 0.18123468564933765
929.0, 0.16684343991060333
930.0, 0.15483035621056812
931.0, 0.14547888471006531
932.0, 0.14182914003529928
933.0, 0.1425127163773726
934.0, 0.1471388093744074
935.0, 0.1516432785525853
936.0, 0.1547097411962133
937.0, 0.16574008499799334
938.0, 0.1842744082200524
939.0, 0.2031584653023838
940.0, 0.22668031680394768
941.0, 0.25480736875284415
942.0, 0.29158270109546786
943.0, 0.32828495942849073
944.0, 0.3722621074169697
945.0, 0.4174794433276827
946.0, 0.45863457504717575
947.0, 0.4925545573034046
948.0, 0.5166968944843889
949.0, 0.5272204622889896
950.0, 0.5178550807433402
951.0, 0.48986963188780486
952.0, 0.45620807487706266
953.0, 0.40823601427322354
954.0, 0.36200694792208526
955.0, 0.31505908990442705
956.0, 0.2701056010380958
957.0, 0.23417222480857616
958.0, 0.20703403260555783
959.0, 0.18317863272331888
960.0, 0.16375709671040756
961.0, 0.14942583044537638
962.0, 0.13947183166820926
963.0, 0.1308148070874086
964.0, 0.1199533654201585
965.0, 0.11355947893337824
966.0, 0.11188165232533807
967.0, 0.10780882490720349
968.0, 0.10238276713201275
969.0, 0.09637133044693101
970.0, 0.09094450581291037
971.0, 0.0841775231222302
972.0, 0.07829813623297005
973.0, 0.07307258453326042
974.0, 0.06744519739813505
975.0, 0.062004870227999116
976.0, 0.05631705404193559
977.0, 0.0492879946113487
978.0, 0.045555532478136186
979.0, 0.041316788438707286
980.0, 0.036001416769846084
981.0, 0.03548258928242703
982.0, 0.03244168955167862
983.0, 0.028529646324885548
984.0, 0.026609252668927472
985.0, 0.024366830047376584
986.0, 0.01912627054157751
987.0, 0.015902756136314578
988.0, 0.02038335612732157
989.0, 0.01759144310927433
990.0, 0.012907008383701962
991.0, 0.014908347297505979
992.0, 0.01381612457013444
993.0, 0.012646836327198017
994.0, 0.011034728118816384
995.0, 0.01005168976726466
996.0, 0.012267839570007074
997.0, 0.010597871586181262
998.0, 0.009066628806449073
999.0, 0.009615216519454928
1000.0, 0.012945848560166756
1001.0, 0.016991333396836686
1002.0, 0.018056086208724773
1003.0, 0.018628244132999745
1004.0, 0.02102916753364693
1005.0, 0.024195970204596854
1006.0, 0.02659464991263818
1007.0, 0.030032963708463943
1008.0, 0.03383628782727448
1009.0, 0.04393281489865833
1010.0, 0.050243792234228084
1011.0, 0.05865812876110715
1012.0, 0.0695659571490844
1013.0, 0.08081456904578285
1014.0, 0.09002447988138927
1015.0, 0.0984360035104023
1016.0, 0.10862904849669336
1017.0, 0.11526951359793847
1018.0, 0.11102273197361562
1019.0, 0.11087151546045793
1020.0, 0.10735978778063529
1021.0, 0.09724680765328461
1022.0, 0.09082747873618525
1023.0, 0.08393401943819849
1024.0, 0.0759958834631585
1025.0, 0.06913236695733355
1026.0, 0.06197169492054172
1027.0, 0.05792838247617329
1028.0, 0.050223927632726935
1029.0, 0.04660586360086721
1030.0, 0.04408275218183853
1031.0, 0.03993747691116884
1032.0, 0.03708372207968517
1033.0, 0.03457935981456368
1034.0, 0.03148521215593133
1035.0, 0.02945783326822623
1036.0, 0.029788766961825034
1037.0, 0.029810451803952243
1038.0, 0.029156656272855155
1039.0, 0.02628141748294308
1040.0, 0.02664056126107729
1041.0, 0.026145855640752787
1042.0, 0.02605711073774077
1043.0, 0.02565520100742869
1044.0, 0.02643189744405895
1045.0, 0.029039184242651787
1046.0, 0.031438867826744786
1047.0, 0.03344150104346944
1048.0, 0.040157621093960205
1049.0, 0.03962642195733009
1050.0, 0.04310622972485839
1051.0, 0.05150304624641474
1052.0, 0.06145017881110568
1053.0, 0.07257472297577783
1054.0, 0.08591653256640858
1055.0, 0.10344163680167735
1056.0, 0.12227977344465144
1057.0, 0.13734661874985882
1058.0, 0.1548176949713444
1059.0, 0.17117574544935316
1060.0, 0.1760960934819357
1061.0, 0.17208315965746568
1062.0, 0.15335040822754237
1063.0, 0.1353589390669081
1064.0, 0.12019866675778325
1065.0, 0.10372072045994948
1066.0, 0.08696336951906856
1067.0, 0.07446377504865218
1068.0, 0.06577002359811301
1069.0, 0.05871348474168369
1070.0, 0.05330031303302191
1071.0, 0.043493167829328425
1072.0, 0.03998063571030009
1073.0, 0.039374666867341236
1074.0, 0.037068864160376525
1075.0, 0.036703328786602075
1076.0, 0.035035292094474854
1077.0, 0.02934589538421893
1078.0, 0.026777774337213903
1079.0, 0.030684599332854053
1080.0, 0.028150120888945092
1081.0, 0.030305563179638697
1082.0, 0.025785189907693722
1083.0, 0.02474005553050649
1084.0, 0.024558361445444092
1085.0, 0.02366256120440372
1086.0, 0.025212237164515598
1087.0, 0.026241060371858846
1088.0, 0.025503579688813584
1089.0, 0.026860316612490734
1090.0, 0.025444264797398423
1091.0, 0.029102761356635285
1092.0, 0.030929564861104954
1093.0, 0.02666692767711761
1094.0, 0.027417424833737495
1095.0, 0.03174498270601378
1096.0, 0.0337383186391597
1097.0, 0.035421890290362794
1098.0, 0.038410964846104304
1099.0, 0.04289028227827532
1100.0, 0.04829623105329965
1101.0, 0.04974570831921245
1102.0, 0.05434905400471819
1103.0, 0.057228683412464953
1104.0, 0.06120641727744482
1105.0, 0.06329541143475102
1106.0, 0.06440983375306365
1107.0, 0.06612780581908696
1108.0, 0.06500492392531144
1109.0, 0.061787432704411414
1110.0, 0.058402693457101834
1111.0, 0.053164799003256526
1112.0, 0.046103436452353215
1113.0, 0.039917003691407035
1114.0, 0.02794647603780473
1115.0, 0.029852174522558454
1116.0, 0.026350526515234507
1117.0, 0.02839196664644479
1118.0, 0.02835317593447408
1119.0, 0.029588266101022238
1120.0, 0.028885463894530707
1121.0, 0.026864989850851794
1122.0, 0.02710673598806388
1123.0, 0.02470119900952134
1124.0, 0.02444812466785739
1125.0, 0.024340685737008486
1126.0, 0.02647544752614148
1127.0, 0.024706348641357467
1128.0, 0.022420624414946723
1129.0, 0.016661137117299628
1130.0, 0.014376027921451586
1131.0, 0.01174739480567478
1132.0, 0.008222733924922026
1133.0, 0.006925444277424951
1134.0, 0.006772846807851273
1135.0, 0.007611053755114055
1136.0, 0.009333258172062738
1137.0, 0.0016257546125523735
1138.0, 0.007607267050992267
1139.0, 0.005326386550651049
1140.0, 0.0061820806212317244
1141.0, 0.0047852005341764885
1142.0, 0.004222008469608765
1143.0, 0.0029438393098880395
1144.0, 0.002191507834744682
1145.0, 0.003133632222962921
1146.0, 0.0026583516768252987
1147.0, 0.004603234942551454
1148.0, 0.0011563366681079709
1149.0, 0.0031986464355100476
1150.0, 0.0005238192031945229
1151.0, 0.003674609782635156
1152.0, 0.0015982383275260175
1153.0, 0.0007528885955156703
1154.0, 0.0024603010597802222
1155.0, 0.002535610835957983
1156.0, 0.0017696161225121954
1157.0, 0.0020506045902189554
1158.0, 0.0010452849876244306
1159.0, 0.0012393465624765511
1160.0, 0.001160258013814702
1161.0, 0.001067234658674119
1162.0, 0.0012240251121901618
1163.0, 0.0023511737464832977
1164.0, 0.0017931063782307482
1165.0, 0.0023569449813278173
1166.0, 0.002683838855163263
1167.0, 0.0026609152841880947
1168.0, 0.0023054614158360704
1169.0, 0.0022177142304239355
1170.0, 0.0026836061497203657
1171.0, 0.0009021833631908729
1172.0, 0.0013678153344546657
1173.0, 0.003952604855248075
1174.0, 0.0009793523673493195
1175.0, 0.0037007451104543046
1176.0, 0.002369675327504434
1177.0, 0.0018716312617896138
1178.0, 0.0013800696856710716
1179.0, 0.0011979280837650169
1180.0, 0.0015761722252950504
1181.0, 0.0018298345506784328
1182.0, 0.0019644180874922824
1183.0, 0.002204601358172204
1184.0, 0.0011294827573449366
1185.0, 2.3973693022775393e-05
1186.0, 0.00034912274693021353
1187.0, 0.00039714857578639415
1188.0, 0.001208484334390769
1189.0, 0.0009248342666591085
1190.0, 0.0009956766868425223
1191.0, 0.000610993736557085
1192.0, 0.0009173575758490897
1193.0, 0.0010567676869490316
1194.0, 0.0003286916172474761
1195.0, 0.0010820420774425173
1196.0, 0.0026833797328385126
1197.0, 0.0018231060188874943
1198.0, 0.001761124390597402
1199.0, 0.003839168324904222
1200.0, 0.001292710244572152
1201.0, 0.00035569824373653393
1202.0, 0.0014014584634847163
1203.0, 0.003804269418580951
1204.0, 0.005084226579410258
1205.0, 0.002839270786661193
1206.0, 0.0027434709913442515
1207.0, 0.006574721540463083
1208.0, 0.006713170202434647
1209.0, 0.005964753467490213
1210.0, 0.009653619208438878
1211.0, 0.002726947088638032
1212.0, 0.007983105179772918
1213.0, 0.008165930574929075
1214.0, 0.011389726754561971
1215.0, 0.011606068194130174
1216.0, 0.012822044018531285
1217.0, 0.015113065064971832
1218.0, 0.01705173365464248
1219.0, 0.020327952674619173
1220.0, 0.022749024077875653
1221.0, 0.022973165757309396
1222.0, 0.029162787205943938
1223.0, 0.03453121243927525
1224.0, 0.030310876674253875
1225.0, 0.03867894091772804
1226.0, 0.044699674724348916
1227.0, 0.04511609546280256
1228.0, 0.05048048779127748
1229.0, 0.05160506140615951
1230.0, 0.05490123843688808
1231.0, 0.05635454253780046
1232.0, 0.05911486674000513
1233.0, 0.06521877729684089
1234.0, 0.06814846429899533
1235.0, 0.06688566510808064
1236.0, 0.06727572679022842
1237.0, 0.07379911803757484
1238.0, 0.0751030281487548
1239.0, 0.07905546803666641
1240.0, 0.08029178169309006
1241.0, 0.07955838967466487
1242.0, 0.08390106718293772
1243.0, 0.09003099098044844
1244.0, 0.09218779998407442
1245.0, 0.09299538408025936
1246.0, 0.09493285157693196
1247.0, 0.09593056261238316
1248.0, 0.09512035668839265
1249.0, 0.09434655477979516
1250.0, 0.09310888737691966
1251.0, 0.09271445917075904
1252.0, 0.09167846728683941
1253.0, 0.09021940535617026
1254.0, 0.08972048831848146
1255.0, 0.0874413229400819
1256.0, 0.08570439845848064
1257.0, 0.08371707560471861
1258.0, 0.08299448525182168
1259.0, 0.08064451450227011
1260.0, 0.07734549043676382
1261.0, 0.07577844769722028
1262.0, 0.07546212170555631
1263.0, 0.07407773937370142
1264.0, 0.06962817149158605
1265.0, 0.06335542069937165
1266.0, 0.06053157124700728
1267.0, 0.057126398207533555
1268.0, 0.05480570531171414
1269.0, 0.05260420571311192
1270.0, 0.05133416855610722
1271.0, 0.04925741479071398
1272.0, 0.047758941540449844
1273.0, 0.0453390761597011
1274.0, 0.04166952558398046
1275.0, 0.03832695845371474
1276.0, 0.03424938443965644
1277.0, 0.030052610068130654
1278.0, 0.030185005603276055
1279.0, 0.03066231437907941
1280.0, 0.029667122576769057
1281.0, 0.02303652416208917
1282.0, 0.02436244052868957
1283.0, 0.019078050660351592
1284.0, 0.021109808974840893
1285.0, 0.020945158717362567
1286.0, 0.021352643160506064
1287.0, 0.019377653296961377
1288.0, 0.01756034401589156
1289.0, 0.01634867788661485
1290.0, 0.01516423024751311
1291.0, 0.016432615076989603
1292.0, 0.017659081496055204
1293.0, 0.014212838392812184
1294.0, 0.014904440488494567
1295.0, 0.014879105277968152
1296.0, 0.010751956484853924
1297.0, 0.011221645555820907
1298.0, 0.00980740534458593
1299.0, 0.012952469680250964
1300.0, 0.00901992242318391
1301.0, 0.011548767415070191
1302.0, 0.013941901145924973
1303.0, 0.011532284637476018
1304.0, 0.010213197877868285
1305.0, 0.010615506884654223
1306.0, 0.009705667268103967
1307.0, 0.00900009977412781
1308.0, 0.010606427710431451
1309.0, 0.011999506298046123
1310.0, 0.009741564074387948
1311.0, 0.006124051772896218
1312.0, 0.006142948336703393
1313.0, 0.008636827806341408
1314.0, 0.00583445018769085
1315.0, 0.0079752634629126
1316.0, 0.00626563365505718
1317.0, 0.006984118823173952
1318.0, 0.007897980702718514
1319.0, 0.005448393948055819
1320.0, 0.00599098544716243
1321.0, 0.006677822108248096
1322.0, 0.006122525177821426
1323.0, 0.006510801579005364
1324.0, 0.006423774225314402
1325.0, 0.007883505981353237
1326.0, 0.006291480522429135
1327.0, 0.0076034842797896235
1328.0, 0.005312355352980238
1329.0, 0.004538027781010722
1330.0, 0.005395383821091266
1331.0, 0.0053303819075910105
1332.0, 0.006254594411428106
1333.0, 0.0067480393475940256
1334.0, 0.006964653021302063
1335.0, 0.004959319758052052
1336.0, 0.006118435348310793
1337.0, 0.006565510483563189
1338.0, 0.00676851084327273
1339.0, 0.008818866999160537
1340.0, 0.008052641768981277
1341.0, 0.005065822826457624
1342.0, 0.005172478214348681
1343.0, 0.006044974596121284
1344.0, 0.006804907719071108
1345.0, 0.005683721660283251
1346.0, 0.005055606614045782
1347.0, 0.005109376272793857
1348.0, 0.007049238160993208
1349.0, 0.006053656517561548
1350.0, 0.005554259768922259
1351.0, 0.004419683080044517
1352.0, 0.006909512319818754
1353.0, 0.008056151312801334
1354.0, 0.005453592054775757
1355.0, 0.004081325469184838
1356.0, 0.00337852133891141
1357.0, 0.003047850521169483
1358.0, 0.005952888454393145
1359.0, 0.0063529754364358955
1360.0, 0.005884293489052013
1361.0, 0.006825018627215001
1362.0, 0.0014492677898198917
1363.0, 0.005524027225601148
1364.0, 0.002675920580858835
1365.0, 0.0037354792364959243
1366.0, 0.0011301856632242536
1367.0, 0.006027789591162201
1368.0, 0.004939057455222753
1369.0, 0.0029454892772546462
1370.0, 0.00457768088126382
1371.0, 0.0058002439370653065
1372.0, 0.00435162590388763
1373.0, 0.00435885319389036
1374.0, 0.0056504947916977775
1375.0, 0.005373965048345501
1376.0, 0.004555321854042979
1377.0, 0.004148937695349534
1378.0, 0.005834197204717686
1379.0, 0.006279595367527784
1380.0, 0.005950228524353673
1381.0, 0.006424347902061221
1382.0, 0.006095980507631169
1383.0, 0.00639201527613584
1384.0, 0.005140614223802151
1385.0, 0.006648002831884772
1386.0, 0.005829374455546069
1387.0, 0.0033641927053094036
1388.0, 0.005657435504099083
1389.0, 0.0054026164673300564
1390.0, 0.00701530661199285
1391.0, 0.008896044263083831
1392.0, 0.008835806400291494
1393.0, 0.006487180810646618
1394.0, 0.005494154508930769
1395.0, 0.008353781097073158
1396.0, 0.008040787760331661
1397.0, 0.008404355306847723
1398.0, 0.009520673835196758
1399.0, 0.011092705177515313
1400.0, 0.01017241090703273
1401.0, 0.010393984717381746
1402.0, 0.012451028685802555
1403.0, 0.010348342607031937
1404.0, 0.009528194488048581
1405.0, 0.0076569749001051905
1406.0, 0.010853129255046256
1407.0, 0.012123046901873224
1408.0, 0.011599072226359284
1409.0, 0.013258887880759228
1410.0, 0.014085515752464988
1411.0, 0.013544289040195662
1412.0, 0.012122082871213684
1413.0, 0.011549475374739219
1414.0, 0.012460932307974681
1415.0, 0.013572261303100342
1416.0, 0.015437335185339678
1417.0, 0.014688037123921027
1418.0, 0.013237537236264833
1419.0, 0.01378609751537567
1420.0, 0.012462746345854281
1421.0, 0.013394214107169318
1422.0, 0.012719253218692654
1423.0, 0.013454874518205909
1424.0, 0.01170730955651341
1425.0, 0.010492142837527555
1426.0, 0.010771476592123302
1427.0, 0.012893940032908854
1428.0, 0.011663528660381266
1429.0, 0.01189003845766087
1430.0, 0.011849468881318576
1431.0, 0.012720183304601744
1432.0, 0.015211414189465474
1433.0, 0.012140880603359045
1434.0, 0.010768363363111638
1435.0, 0.013818865768316872
1436.0, 0.011039156441270718
1437.0, 0.01030619502204552
1438.0, 0.012994587642931781
1439.0, 0.008821743763172695
1440.0, 0.008740047211545766
1441.0, 0.010278322065019352
1442.0, 0.009104180410203931
1443.0, 0.009140365879540405
1444.0, 0.00898506730254985
1445.0, 0.00855900200399589
1446.0, 0.007815542530778988
1447.0, 0.006645079035300322
1448.0, 0.005701248227330152
1449.0, 0.005377172176099017
1450.0, 0.004370207417107589
1451.0, 0.005153024010817461
1452.0, 0.0037543694972079727
1453.0, 0.002567021713218423
1454.0, 0.004223424186408461
1455.0, 0.004807092244940834
1456.0, 0.004830338846159882
1457.0, 0.005595138326192035
1458.0, 0.005691410436810907
1459.0, 0.0050112292026353615
1460.0, 0.003722447203782546
1461.0, 0.004178817118113444
1462.0, 0.004296168251326521
1463.0, 0.003978552395856191
1464.0, 0.005862252864304615
1465.0, 0.0032176468088996038
1466.0, 0.0002525768551651333
1467.0, 0.0007327423903626311
1468.0, 0.0031185047568629823
1469.0, 0.0022915276004207914
1470.0, 0.002710535281413152
1471.0, 0.001363417038630836
1472.0, 0.002800861677954223
1473.0, 0.0031255757475283025
1474.0, 0.002491738688056581
1475.0, 0.00252165734391935
1476.0, 0.001988600154808573
1477.0, 0.0015728838886909851
1478.0, 0.0010441087734214423
1479.0, 0.0004796257941970057
1480.0, 0.0007525085381880603
1481.0, 0.001834503669689855
1482.0, 0.001518917816392189
1483.0, 0.0017679302511285858
1484.0, 0.003374643945584409
1485.0, 0.002355440932287895
1486.0, 0.003513642803244299
1487.0, 0.004297092711025196
1488.0, 0.004692956834748695
1489.0, 0.005143415530723748
1490.0, 0.006842335482909525
1491.0, 0.004242302359260779
1492.0, 0.0024605193971874387
1493.0, 0.0029909243390776495
1494.0, 0.0012919276225132857
1495.0, 0.0022313318645588295
1496.0, 0.00035829361688608863
1497.0, 0.00027301106613503867
1498.0, 0.0005423995262690807
1499.0, 0.00023829057884813435
1500.0, 0.00023957039970049187
1501.0, 0.002605585252044623
1502.0, 0.0012556446317683488
1503.0, 0.0007745352131027636
1504.0, 0.0024213392593885478
1505.0, 0.0014893886469800567
1506.0, 0.0014570117392457005
1507.0, 0.001642040922908291
1508.0, 0.0028663016869952844
1509.0, 0.004520148878097914
1510.0, 0.0030732088199827627
1511.0, 0.0011813778889137037
1512.0, 0.0006443897329386053
1513.0, 0.001439334920335957
1514.0, 0.0014040227035328537
1515.0, 0.0021137732978849734
1516.0, 0.0035095968132186923
1517.0, 0.002407728605869449
1518.0, 0.0037437055245322886
1519.0, 0.004892921167296446
1520.0, 0.004405517282765389
1521.0, 0.006936312355118676
1522.0, 0.005084450747058683
1523.0, 0.003293084435215436
1524.0, 0.001220839242412459
1525.0, 0.006499424794977871
1526.0, 0.005179136348997514
1527.0, 0.007995186340282505
1528.0, 0.005614984721603424
1529.0, 0.005389531483853379
1530.0, 0.0035603335221651854
1531.0, 0.0034119995673332665
1532.0, 0.006788495818402849
1533.0, 0.0034777132563075554
1534.0, 0.004229238094630352
1535.0, 0.004123054229745315
1536.0, 0.0013181289883879494
1537.0, 0.00020051752315723551
1538.0, 0.0018500100659019376
1539.0, 0.003614021642798561
1540.0, 0.004403302197658721
1541.0, 0.005086887468033716
1542.0, 0.005634990480390612
1543.0, 0.005956153951482414
1544.0, 0.00500932333619972
1545.0, 0.005614493097945218
1546.0, 0.005673748107668906
1547.0, 0.0031838522536976103
1548.0, 0.007765072053942472
1549.0, 0.00210343154873734
1550.0, 0.006097724337225968
1551.0, 0.00528718266281322
1552.0, 0.00481756535964645
1553.0, 0.00573939126203862
1554.0, 0.006052145360122833
1555.0, 0.006780942400238743
1556.0, 0.00759843033127639
1557.0, 0.010193606326577032
1558.0, 0.009260384128210886
1559.0, 0.00463095860585824
1560.0, 0.0032498080117595238
1561.0, 0.0063085665181948055
1562.0, 0.0063343137610781764
1563.0, 0.007260197627542058
1564.0, 0.00419816751946952
1565.0, 0.006065075136762911
1566.0, 0.004208947626077413
1567.0, 0.000963903790891014
1568.0, 0.0017370691296655328
1569.0, 0.0012835640441613018
1570.0, 0.00022566606053422321
1571, 0.0
1572, 0.0
1573, 0.0
1574, 0.0
1575, 0.0
1576, 0.0
1577, 0.0
1578, 0.0
1579, 0.0
1580, 0.0
1581, 0.0
1582, 0.0
1583, 0.0
1584, 0.0
1585, 0.0
1586, 0.0
1587, 0.0
1588, 0.0
1589, 0.0
1590, 0.0
1591, 0.0
1592, 0.0
1593, 0.0
1594, 0.0
1595, 0.0
1596, 0.0
1597, 0.0
1598, 0.0
1599, 0.0
