30, 0.0
31, 0.0
32, 0.0
33, 0.0
34, 0.0
35, 0.0
36, 0.0
37, 0.0
38, 0.0
39, 0.0
40, 0.0
41, 0.0
42, 0.0
43, 0.0
44, 0.0
45, 0.0
46, 0.0
47, 0.0
48, 0.0
49, 0.0
50, 0.0
51, 0.0
52, 0.0
53, 0.0
54, 0.0
55, 0.0
56, 0.0
57, 0.0
58, 0.0
59, 0.0
60, 0.0
61, 0.0
62, 0.0
63, 0.0
64, 0.0
65, 0.0
66, 0.0
67, 0.0
68, 0.0
69, 0.0
70, 0.0
71, 0.0
72, 0.0
73, 0.0
74, 0.0
75, 0.0
76, 0.0
77, 0.0
78, 0.0
79, 0.0
80, 0.0
81, 0.0
82, 0.0
83, 0.0
84, 0.0
85, 0.0
86, 0.0
87, 0.0
88, 0.0
89, 0.0
90, 0.0
91, 0.0
92, 0.0
93, 0.0
94, 0.0
95, 0.0
96, 0.0
97, 0.0
98, 0.0
99, 0.0
100, 0.0
101.0, 0.0004382507323861869
102.0, 0.0011180496778052593
103.0, 0.001840956551787039
104.0, 0.0020759516517105444
105.0, 0.0023752956599006124
106.0, 0.002663563348059707
107.0, 0.001438716854088118
108.0, 0.0007850246082454768
109.0, 0.0004409724462539955
110.0, 0.00024196250766370366
111.0, 0.00021633105270048541
112.0, 0.00026718889500017436
113.0, 0.000497273243403782
114.0, 0.0015181392392632602
115.0, 0.0018503459587089941
116.0, 0.0021344547736807068
117.0, 0.0027557203428005073
118.0, 0.0019084236745715603
119.0, 0.0016172186192509707
120.0, 0.0017884445577290378
121.0, 0.0020250464802856138
122.0, 0.002249558471173828
123.0, 0.0023625931951192836
124.0, 0.0023277371760431816
125.0, 0.002777829894819825
126.0, 0.0035090404968958406
127.0, 0.004457957334237504
128.0, 0.005573861000307588
129.0, 0.0077502117204615644
130.0, 0.00951714802994837
131.0, 0.010790415113330442
132.0, 0.014229640324417866
133.0, 0.01815673505057218
134.0, 0.023037433893334968
135.0, 0.02960190234934356
136.0, 0.03679152275055985
137.0, 0.045017144170589565
138.0, 0.054637228956463176
139.0, 0.06740917890988249
140.0, 0.08148287680801558
141.0, 0.09580323872511537
142.0, 0.10983209414226577
143.0, 0.12245486998552242
144.0, 0.13261855158447494
145.0, 0.14047793372086753
146.0, 0.145849336369662
147.0, 0.1470586611172722
148.0, 0.1428537780485178
149.0, 0.1323141617519703
150.0, 0.11179700065590656
151.0, 0.0899146186786206
152.0, 0.06853804730540249
153.0, 0.050037826984898975
154.0, 0.036679647738650525
155.0, 0.02684200682932623
156.0, 0.02008092405909824
157.0, 0.015404165709389916
158.0, 0.01201970929114778
159.0, 0.009708635169438718
160.0, 0.008503432064910844
161.0, 0.009018934711875164
162.0, 0.009500036592657508
163.0, 0.010155160698570212
164.0, 0.011555570742997272
165.0, 0.01329677863782432
166.0, 0.0147612921692531
167.0, 0.015696686591873125
168.0, 0.015117825918928976
169.0, 0.014795573316397944
170.0, 0.01474033093181934
171.0, 0.015023601064937676
172.0, 0.015153648046256638
173.0, 0.015254808315466434
174.0, 0.015108466572046085
175.0, 0.01379897597620134
176.0, 0.011862390883539527
177.0, 0.009921140312610266
178.0, 0.008243154896414235
179.0, 0.0073810323272994124
180.0, 0.0067970238232028905
181.0, 0.006486295197486976
182.0, 0.0065091138730022724
183.0, 0.006330316381112306
184.0, 0.006465109924561994
185.0, 0.006902427611094974
186.0, 0.00715149669979344
187.0, 0.008484940049783294
188.0, 0.00994719338969647
189.0, 0.01101002937315999
190.0, 0.014838156509057536
191.0, 0.019365669191830134
192.0, 0.024841318652343864
193.0, 0.03201194334653795
194.0, 0.03982388017577491
195.0, 0.04944174835137579
196.0, 0.060811725200912284
197.0, 0.07140352898062936
198.0, 0.08329013905079045
199.0, 0.09505896766268578
200.0, 0.10568695575456985
201.0, 0.11062745571929643
202.0, 0.11230111491687304
203.0, 0.11167322146287391
204.0, 0.11035112043656256
205.0, 0.1113418458626959
206.0, 0.11210712304378831
207.0, 0.11241253327298942
208.0, 0.11567277145810452
209.0, 0.1173643060659303
210.0, 0.1161615703303042
211.0, 0.11055433837013348
212.0, 0.1015650969525345
213.0, 0.0892319391778726
214.0, 0.07536003438560687
215.0, 0.0640279654383455
216.0, 0.053072981723518584
217.0, 0.043109331686879616
218.0, 0.03447503940134584
219.0, 0.02856456312807457
220.0, 0.023636406581092777
221.0, 0.01962457642015621
222.0, 0.016619104101379078
223.0, 0.013052427664462022
224.0, 0.010609810364011813
225.0, 0.00892698600998322
226.0, 0.00724429174123013
227.0, 0.006466890812058946
228.0, 0.0056278047713206845
229.0, 0.004621820960091776
230.0, 0.004153078808834285
231.0, 0.0036575840361947705
232.0, 0.0029766224871548516
233.0, 0.0019909251186548075
234.0, 0.002285004358664773
235.0, 0.0022194226238376868
236.0, 0.0018799879309242503
237.0, 0.0013875863103061054
238.0, 0.0016695000938274133
239.0, 0.0017674662845215694
240.0, 0.0016885421350835799
241.0, 0.0022259417328646205
242.0, 0.0025247345784363447
243.0, 0.0028558134107785215
244.0, 0.003370910870371068
245.0, 0.004772769281617676
246.0, 0.005710967876230037
247.0, 0.006545153382494666
248.0, 0.007707871382961193
249.0, 0.007764140417170401
250.0, 0.008113205055879643
251.0, 0.008487179789750153
252.0, 0.007576188688920393
253.0, 0.007527336168390724
254.0, 0.007400343922133196
255.0, 0.007024604777623019
256.0, 0.007698460789724816
257.0, 0.00827733509885921
258.0, 0.008991585712567819
259.0, 0.010039093340846975
260.0, 0.010851014459532264
261.0, 0.0116204236685841
262.0, 0.012550346642930801
263.0, 0.014056877587913776
264.0, 0.015626856252126307
265.0, 0.01708235768699464
266.0, 0.018559120507324733
267.0, 0.020887306416978512
268.0, 0.022381770520634708
269.0, 0.0237598396339495
270.0, 0.025206634315971872
271.0, 0.02426130758667113
272.0, 0.023719449732018952
273.0, 0.02272152815501907
274.0, 0.020303941343604946
275.0, 0.01957536792068086
276.0, 0.01923151214984858
277.0, 0.01907862555879488
278.0, 0.01886482223905036
279.0, 0.020201629049025383
280.0, 0.02180986050401744
281.0, 0.023611060310632415
282.0, 0.026705071580766
283.0, 0.02954862040426165
284.0, 0.03190477766131728
285.0, 0.033613923770288365
286.0, 0.03451829371930914
287.0, 0.032856075980658504
288.0, 0.03014591543453453
289.0, 0.027878960460298086
290.0, 0.025830346350253233
291.0, 0.02307153784863827
292.0, 0.020330894816633374
293.0, 0.019457317969536505
294.0, 0.01825066274563306
295.0, 0.01770815997470005
296.0, 0.01810399968436146
297.0, 0.01984912975133622
298.0, 0.020796706809219495
299.0, 0.022075170233022464
300.0, 0.02409062542299275
301.0, 0.025049898925693745
302.0, 0.026135852179980452
303.0, 0.026788987754225366
304.0, 0.026457827032089733
305.0, 0.025760554585080444
306.0, 0.024596766530271787
307.0, 0.02307871055916372
308.0, 0.021369026990790428
309.0, 0.019076124169092015
310.0, 0.017047738336092078
311.0, 0.015246971967950846
312.0, 0.013124990169374092
313.0, 0.011517179870883533
314.0, 0.010159155171274095
315.0, 0.008970297555044247
316.0, 0.007881065137807767
317.0, 0.007293634646630826
318.0, 0.006658108472797818
319.0, 0.005650244834947774
320.0, 0.004499881745250876
321.0, 0.003930502007492171
322.0, 0.003808185999049622
323.0, 0.004031404200607521
324.0, 0.0033661556619512326
325.0, 0.0028692324822806254
326.0, 0.0024868753451474544
327.0, 0.001992702489930094
328.0, 0.001669738228107439
329.0, 0.0013515160948470992
330.0, 0.0010604797577066945
331.0, 0.0009926377919172859
332.0, 0.0012107650475737398
333.0, 0.0013413071569660826
334.0, 0.0013131273257634018
335.0, 0.0015360723892955137
336.0, 0.001888421045339651
337.0, 0.0021619997293573106
338.0, 0.0022447535289406117
339.0, 0.0024453480575305567
340.0, 0.0027615893939253035
341.0, 0.0029202481564756526
342.0, 0.002633499021500813
343.0, 0.0030081923060875627
344.0, 0.0029767490597616005
345.0, 0.0027032616913692364
346.0, 0.0025018364222742723
347.0, 0.0022670850063395277
348.0, 0.001839719305707198
349.0, 0.0012797258093406158
350.0, 0.0007979872625829054
351.0, 0.0003494137945189617
352.0, 0.00029031430084625585
353.0, 0.0005714637740453245
354.0, 0.0005445714117010564
355.0, 0.0006081239001947246
356.0, 0.0005586923433627861
357.0, 0.00038875653937069874
358.0, 0.0008219762612207827
359.0, 0.0006733995850738258
360.0, 0.0007749010296578783
361.0, 0.0016018606164317666
362.0, 0.0017421452410619608
363.0, 0.0014844249408961412
364.0, 0.001423402253207251
365.0, 0.0021508651367471293
366.0, 0.0023521262379318994
367.0, 0.0021200970693316954
368.0, 0.001796503815459998
369.0, 0.0018883275902397312
370.0, 0.0014476345608193952
371.0, 0.0010285063284020172
372.0, 0.0008447103635998186
373.0, 0.001303765845688887
374.0, 0.001386990125922043
375.0, 0.0011011021974077315
376.0, 0.0006841664492220648
377.0, 0.0009602546221502419
378.0, 0.0007978047346029018
379.0, 0.0005757455095657803
380.0, 0.0004215715502840379
381.0, 0.000500703016041516
382.0, 0.0002819475720206438
383.0, 0.0001796447447221697
384.0, 0.00035781891593973387
385.0, 0.0007921772357168044
386.0, 0.0006632759605667242
387.0, 0.0007499589812450188
388.0, 0.001400370819066096
389.0, 0.0007329911763758184
390.0, 0.0009246297388371387
391.0, 0.0011443875508846198
392.0, 0.0007469315313463273
393.0, 0.00036198351294975057
394.0, 0.0003011072076793122
395.0, 0.0003871684713504892
396.0, 0.00043133464720207293
397.0, 0.0004994559165901483
398.0, 0.0006525744988723662
399.0, 0.000829267983383812
400.0, 0.0009353726104712636
401.0, 0.0007898266467326839
402.0, 0.0005259618267291063
403.0, 0.00026594446662434756
404.0, 0.00023673078297630471
405.0, 0.00014256199044026838
406.0, 7.52866467564363e-05
407.0, 5.886177808748084e-05
408.0, 0.00013018295279443022
409.0, 0.00034409973993336577
410.0, 0.00038714383067066615
411.0, 0.000348000865743956
412.0, 0.0007422320972852617
413.0, 0.0009209239456274096
414.0, 0.0008875198483594555
415.0, 0.0007505293089662225
416.0, 0.0010215060266923384
417.0, 0.0013517437237997782
418.0, 0.001730459803618663
419.0, 0.0021368033994046344
420.0, 0.0024567758166596848
421.0, 0.002699902463793615
422.0, 0.0028460449522769863
423.0, 0.0029085442170842034
424.0, 0.0030933381495158742
425.0, 0.0037241017465648465
426.0, 0.004127622921869125
427.0, 0.003996564406614333
428.0, 0.003762849003558883
429.0, 0.0043580096711414796
430.0, 0.005107622504033733
431.0, 0.005633303133785534
432.0, 0.00631095546452773
433.0, 0.006428167776235282
434.0, 0.006692274470839402
435.0, 0.007582485251934073
436.0, 0.008186288012063189
437.0, 0.009131109466592612
438.0, 0.009911710876129418
439.0, 0.010112631479072497
440.0, 0.010569014099656984
441.0, 0.011922590349587954
442.0, 0.013665143220147422
443.0, 0.015318412261599555
444.0, 0.016700197344437707
445.0, 0.018512806768701782
446.0, 0.02083745757239794
447.0, 0.023773455769265872
448.0, 0.02641855098504521
449.0, 0.02897153830830517
450.0, 0.03191394521835316
451.0, 0.035843210839424315
452.0, 0.04114998864539368
453.0, 0.04515508017680167
454.0, 0.04921641057919584
455.0, 0.055265184372052314
456.0, 0.059296870146631896
457.0, 0.06343106736126183
458.0, 0.06692934465035796
459.0, 0.0685640385397614
460.0, 0.06964254523916316
461.0, 0.06895950908686388
462.0, 0.06633092559781609
463.0, 0.06147801096205178
464.0, 0.05666677095386725
465.0, 0.05121422844109762
466.0, 0.04521459273013385
467.0, 0.03886052443806011
468.0, 0.03414931200255454
469.0, 0.030296029794286854
470.0, 0.02658844192999666
471.0, 0.021948718806434994
472.0, 0.01963649702233509
473.0, 0.016953200967235425
474.0, 0.014585549397077771
475.0, 0.014028246178002734
476.0, 0.012602231269371352
477.0, 0.011913291886834603
478.0, 0.01161166613889698
479.0, 0.010929823805106816
480.0, 0.0114302316713644
481.0, 0.0115557359730316
482.0, 0.01191132979640581
483.0, 0.013693014482709051
484.0, 0.013942864432817562
485.0, 0.014812094806555919
486.0, 0.016502831083538772
487.0, 0.019124141355764533
488.0, 0.02121170613715111
489.0, 0.023746104256263757
490.0, 0.026695351684798547
491.0, 0.029927012950100796
492.0, 0.03316125126881888
493.0, 0.03712426453719427
494.0, 0.040498082516058825
495.0, 0.041301822214994136
496.0, 0.04297283706996019
497.0, 0.04416622686847416
498.0, 0.044202939147440994
499.0, 0.0422292183652872
500.0, 0.03885986789857156
501.0, 0.03588123687237883
502.0, 0.0328997255287115
503.0, 0.029357472007818606
504.0, 0.027068611592830284
505.0, 0.024231250142705732
506.0, 0.02137399365912389
507.0, 0.019122870323525287
508.0, 0.01698821428015926
509.0, 0.015345329769131116
510.0, 0.014040846048490119
511.0, 0.012912872088865398
512.0, 0.011490128988910586
513.0, 0.010447190301516016
514.0, 0.0094501334287143
515.0, 0.008263919091317488
516.0, 0.008943620764322934
517.0, 0.008761324753235981
518.0, 0.00809879281386798
519.0, 0.007326679878559392
520.0, 0.008144925953247853
521.0, 0.007959914194515508
522.0, 0.007828947425914121
523.0, 0.008383135332213748
524.0, 0.008924421645809928
525.0, 0.008592084667655743
526.0, 0.00885086051342765
527.0, 0.010309549200306885
528.0, 0.011175819991796874
529.0, 0.011686200866246763
530.0, 0.01184976532730237
531.0, 0.011737786028109933
532.0, 0.011831412988799238
533.0, 0.012861012558800912
534.0, 0.01357270217453896
535.0, 0.013653934301803484
536.0, 0.013839305961024699
537.0, 0.014520152044687467
538.0, 0.014718563667012035
539.0, 0.014541791130649285
540.0, 0.015489197302199168
541.0, 0.016906979653562085
542.0, 0.01726995926216559
543.0, 0.017202607672114685
544.0, 0.01953797152288201
545.0, 0.020730000856757552
546.0, 0.021304230975574892
547.0, 0.021755087432373997
548.0, 0.023005639281962986
549.0, 0.02358494384662853
550.0, 0.02418230579024995
551.0, 0.024511295024591734
552.0, 0.02395005657710208
553.0, 0.023946214057752917
554.0, 0.02517968276467688
555.0, 0.026744610456767386
556.0, 0.02741158241970838
557.0, 0.028442949190890444
558.0, 0.029777590677672477
559.0, 0.03092771713636045
560.0, 0.03145271258916319
561.0, 0.03287995235620071
562.0, 0.03365835765486129
563.0, 0.033898450913959245
564.0, 0.03372336731270787
565.0, 0.033701270122581936
566.0, 0.03266019322965382
567.0, 0.03177106035728867
568.0, 0.03148237483261762
569.0, 0.030471034238552627
570.0, 0.029124934127046927
571.0, 0.028021026725464995
572.0, 0.027507431258825536
573.0, 0.028192469177859947
574.0, 0.027391622583058
575.0, 0.026836515259439638
576.0, 0.026731930548164612
577.0, 0.02632280984336077
578.0, 0.026377411284181515
579.0, 0.02584370047190319
580.0, 0.024671024160972225
581.0, 0.023104879067597492
582.0, 0.021375736466576024
583.0, 0.01944330648983068
584.0, 0.017413985345736537
585.0, 0.015445623760756843
586.0, 0.013490829386765697
587.0, 0.01201070231747441
588.0, 0.010877813184730146
589.0, 0.00993315957690259
590.0, 0.00875434734940932
591.0, 0.007396086582183294
592.0, 0.005815707121848515
593.0, 0.00416816869580554
594.0, 0.004311459195416638
595.0, 0.004325227420644875
596.0, 0.003772122176350708
597.0, 0.0027685529012638874
598.0, 0.0029562019559666547
599.0, 0.0025648638339603766
600.0, 0.002162431696365181
601.0, 0.0017818233322345694
602.0, 0.0010396173121211187
603.0, 0.0008135681516507939
604.0, 0.0004955168704805726
605.0, 0.00023351137181921902
606.0, 0.0004973628619507095
607.0, 0.00042835897875330295
608.0, 0.00047263253226619
609.0, 0.0005522883903831606
610.0, 0.0005353427448762265
611.0, 0.00027131530707464956
612.0, 0.00020234337509273756
613.0, 0.00031634772824419756
614.0, 0.00054237286379434
615.0, 0.00014355796608310107
616.0, 0.00036927243006092657
617.0, 0.00048359701099321865
618.0, 0.00024827379878915876
619.0, 0.0003103119941656252
620.0, 0.00046258946556197137
621.0, 0.0007345256114856449
622.0, 0.0009481429964359204
623.0, 0.0005403537975108716
624.0, 0.0008155910467735486
625.0, 0.0006799937301957242
626.0, 0.0006269743437281151
627.0, 0.0017786437098098083
628.0, 0.001460961901684075
629.0, 0.0011929154023891035
630.0, 0.0011615278413057626
631.0, 0.001456331106938692
632.0, 0.0012614216554347804
633.0, 0.0011391451309720245
634.0, 0.0010864762296109037
635.0, 0.0011192474972086875
636.0, 0.001377828126026423
637.0, 0.001104804861226953
638.0, 0.0009650139708440632
639.0, 0.0011031643209926155
640.0, 0.0012101127360281939
641.0, 0.0008993385213477555
642.0, 0.0009103510558395732
643.0, 0.000976672731966223
644.0, 0.0003382795114968798
645.0, 0.0007063041365903567
646.0, 0.0007554196026571393
647.0, 0.0005457237317672852
648.0, 0.00025672354214186036
649.0, 0.0007165755559845858
650.0, 0.00049202737487065
651.0, 0.0005138002158530212
652.0, 0.0010831010275931803
653.0, 0.0002913983477934355
654.0, 0.000220869592471279
655.0, 0.00033869762046852525
656.0, 0.00039595232309378424
657.0, 0.00014703904939403532
658.0, 0.00029743050630756966
659.0, 0.000658846461132767
660.0, 0.0009475087106827308
661.0, 0.0007484860252822071
662.0, 0.0007955117702917971
663.0, 0.0010776836354694454
664.0, 0.0010168041209844398
665.0, 0.0002563396999772838
666.0, 0.0010185266703720227
667.0, 0.0005899730021661903
668.0, 0.0004811741361898888
669.0, 0.0009972939917819287
670.0, 0.00022693501295400917
671.0, 5.1635558808468644e-05
672.0, 0.0004378386427662683
673.0, 0.0010034042401736553
674.0, 0.0009291612613664762
675.0, 0.0005459612360140095
676.0, 0.00039159632198424213
677.0, 0.0003762415759506928
678.0, 0.0003511650306422282
679.0, 0.0002891289817635588
680.0, 0.00012510048376699015
681.0, 9.131019359007713e-05
682.0, 0.0002448559057761162
683.0, 0.00013903193881267917
684.0, 0.00040757611208605294
685.0, 0.0005367159583244548
686.0, 0.00042743996406500415
687.0, 0.00018003120707012796
688.0, 0.00041840057698396373
689.0, 0.0005597047769616265
690.0, 0.00045728900285365735
691.0, 3.9088857025218536e-05
692.0, 0.0005690473520987616
693.0, 0.000625414711712694
694.0, 0.00041917062343575936
695.0, 0.00018391461034246326
696.0, 0.0005223942267689292
697.0, 0.00045206608798825356
698.0, 0.00027153420286012153
699.0, 0.00011320708550101874
700.0, 0.0001018398731000946
701.0, 0.0002851055571200033
702.0, 0.000454520416416469
703.0, 0.0004249224458799283
704.0, 5.8289030791517716e-05
705.0, 0.0005908187732697119
706.0, 0.00036613508270349446
707.0, 0.0002792588156536062
708.0, 0.0006332204148522643
709.0, 0.00045715999792783483
710.0, 0.0005677575100002601
711.0, 0.0007734563416495994
712.0, 0.0008268151518964496
713.0, 0.00031609303218023204
714.0, 0.000521296608966898
715.0, 0.00033596384751488547
716.0, 7.408953655714443e-05
717.0, 0.00012611699818948594
718.0, 0.0009530143775570475
719.0, 0.00048256687404793237
720.0, 0.00022400799384211898
721.0, 0.0005421528241166002
722.0, 0.00041381612913354247
723.0, 0.00021611361619008787
724.0, 0.0004231142819907922
725.0, 0.0007607057040951292
726.0, 0.0007087063937380675
727.0, 0.00017340088284168963
728.0, 9.815047752480191e-05
729.0, 0.00017129108512517312
730.0, 0.0001718893896748047
731.0, 0.00012997873629405784
732.0, 8.169096434287504e-05
733.0, 9.266848498589949e-05
734.0, 0.00013400966867181587
735.0, 9.724885533894052e-05
736.0, 0.00025272546046666255
737.0, 0.0004447958086891594
738.0, 0.0006356059255613533
739.0, 0.000764514673176331
740.0, 0.0003670511431859124
741.0, 0.00032342774774505077
742.0, 0.0003010020842270903
743.0, 0.00019373355202822627
744.0, 0.0001189798074155969
745.0, 0.00048122484147400884
746.0, 0.00047496726908314327
747.0, 0.00043046397471919074
748.0, 0.0008937625927034794
749.0, 0.0003508284324041438
750.0, 0.00015855895495263264
751.0, 8.367257164270383e-05
752.0, 5.0430691338002514e-05
753.0, 0.00035543620444185157
754.0, 0.0007262277220918678
755.0, 0.0007908609235019473
756.0, 0.0005793607995828346
757.0, 0.0002792553331030953
758.0, 0.00031095098403553816
759.0, 0.0003192373715656519
760.0, 0.0003732242573467649
761.0, 0.0004679888547735097
762.0, 0.0002439995129872917
763.0, 8.132875795930111e-05
764.0, 0.000220052832174763
765.0, 0.0006944512284557902
766.0, 0.0014378264762907299
767.0, 0.0011314792919861704
768.0, 0.0008825782534068437
769.0, 0.0007659209526378538
770.0, 0.0007592864047925613
771.0, 0.0005183936150235419
772.0, 0.0001770284327571208
773.0, 0.0005088206368651678
774.0, 0.0011444896718150288
775.0, 0.0007217827764646491
776.0, 0.0004544026799472771
777.0, 0.0002926572327802239
778.0, 0.00018033521119551144
779.0, 9.841584358040971e-05
780.0, 0.00032582811587452597
781.0, 0.00044467171599149276
782.0, 0.00037119160240083895
783.0, 0.00019615006635910901
784.0, 0.00019579072416812504
785.0, 9.273863655377405e-05
786.0, 0.0002763419477256506
787.0, 0.000531893280303766
788.0, 0.0007105015194955795
789.0, 0.0014267911524207897
790.0, 0.0016676113156164735
791.0, 0.002020750345032057
792.0, 0.002649823549536402
793.0, 0.0034950789018986742
794.0, 0.0033862659515547663
795.0, 0.0038647727701254853
796.0, 0.004253894709231379
797.0, 0.0039751241360081
798.0, 0.0035353156617422355
799.0, 0.0038237772300002844
800.0, 0.003834538913412813
801.0, 0.0036130556622343663
802.0, 0.0038535546161645976
803.0, 0.004795186682071408
804.0, 0.004385640398344099
805.0, 0.0038592706786969152
806.0, 0.003989635834655517
807.0, 0.003280295129875096
808.0, 0.0030124609836809
809.0, 0.0028476466590808686
810.0, 0.002785903954010038
811.0, 0.0029610634109907123
812.0, 0.002590726059355572
813.0, 0.0027532618340274863
814.0, 0.0025045383605368406
815.0, 0.0016553862835653474
816.0, 0.0021439377797289414
817.0, 0.002062252433385079
818.0, 0.0024312227112365456
819.0, 0.0026891099610219806
820.0, 0.0018732812709447127
821.0, 0.0021564034940724395
822.0, 0.0022781951754236108
823.0, 0.0021873985695746233
824.0, 0.002083358359941334
825.0, 0.0027054806358619613
826.0, 0.002678249972729069
827.0, 0.0021243115472430137
828.0, 0.00194893802360852
829.0, 0.002877868354527159
830.0, 0.0024509044893968658
831.0, 0.0022079209946896643
832.0, 0.0022255851573221978
833.0, 0.0025115463054700103
834.0, 0.003016134461428366
835.0, 0.002383958323976891
836.0, 0.00244559832650976
837.0, 0.0027165766864231285
838.0, 0.0027094878185241317
839.0, 0.0022201556099702277
840.0, 0.002556719600593063
841.0, 0.002313207424429791
842.0, 0.001900167150172575
843.0, 0.002393020551946697
844.0, 0.002848098390134841
845.0, 0.0024063744959977027
846.0, 0.0019945998011391174
847.0, 0.0020413136240081836
848.0, 0.0023549298229210104
849.0, 0.0032217880673595114
850.0, 0.003482013282141228
851.0, 0.003465585567786025
852.0, 0.0036096093811939325
853.0, 0.0035877722267070905
854.0, 0.0033989977021805706
855.0, 0.003156957115390244
856.0, 0.0029058600543580624
857.0, 0.0026643228093465167
858.0, 0.003057740023395819
859.0, 0.003490671729023667
860.0, 0.0038503323847880566
861.0, 0.004015657601164976
862.0, 0.0037520069704074016
863.0, 0.003912769056459086
864.0, 0.003734160611900264
865.0, 0.003468481211995435
866.0, 0.003502395735961547
867.0, 0.00356039984026315
868.0, 0.0037233807129970617
869.0, 0.003911619333174873
870.0, 0.004170844836353355
871.0, 0.004644753078548898
872.0, 0.005348085328565207
873.0, 0.005686206980850281
874.0, 0.005471882331883382
875.0, 0.004961609076448551
876.0, 0.005579642513833914
877.0, 0.005925359868610421
878.0, 0.0060976356464788216
879.0, 0.006470349506405075
880.0, 0.00724077175816148
881.0, 0.006430239815335155
882.0, 0.006842380040734198
883.0, 0.0071407402568753825
884.0, 0.007271513778456251
885.0, 0.00789922693060583
886.0, 0.00781838259556386
887.0, 0.008421428627340074
888.0, 0.009368001614678661
889.0, 0.010121887255815315
890.0, 0.009600579454329402
891.0, 0.011141682882275915
892.0, 0.012001551197500222
893.0, 0.012365415686292812
894.0, 0.012804963382174305
895.0, 0.014182279686590669
896.0, 0.0145150708564644
897.0, 0.015390880393386576
898.0, 0.016993783368814037
899.0, 0.018934296588615483
900.0, 0.01922031947099151
901.0, 0.02089732845956481
902.0, 0.023101780455522008
903.0, 0.025466480279284297
904.0, 0.028007052481707914
905.0, 0.031667530930285376
906.0, 0.03579691174295599
907.0, 0.04068946630149111
908.0, 0.04627436491910526
909.0, 0.05151553500885727
910.0, 0.05895862135734592
911.0, 0.0665064038897616
912.0, 0.07436881945336597
913.0, 0.08279633386738082
914.0, 0.09008455096970643
915.0, 0.09311241530283712
916.0, 0.09463383418252969
917.0, 0.09538534459851082
918.0, 0.09528933117902748
919.0, 0.08940892327265004
920.0, 0.0840868566396081
921.0, 0.07869619955988655
922.0, 0.07364654680795538
923.0, 0.07036083908310276
924.0, 0.06753697474382754
925.0, 0.06629087221420728
926.0, 0.06552103951044683
927.0, 0.0647534293729687
928.0, 0.06478552352852911
929.0, 0.06675107267410864
930.0, 0.0700383011742597
931.0, 0.07322232395257326
932.0, 0.07595533656949396
933.0, 0.08274453482436013
934.0, 0.09112756556156522
935.0, 0.09816229861375585
936.0, 0.10669395858348854
937.0, 0.12003140151229708
938.0, 0.13352225228202735
939.0, 0.15251519942242306
940.0, 0.1761063529762985
941.0, 0.20422975042542052
942.0, 0.23715885322009972
943.0, 0.28207363562125887
944.0, 0.34458374637137534
945.0, 0.4262711699376431
946.0, 0.5246928653487064
947.0, 0.6331192970734014
948.0, 0.7574923035698822
949.0, 0.8717652689883986
950.0, 0.9562921795098517
951.0, 0.9940235498081136
952.0, 0.9654280943445346
953.0, 0.8680185060652821
954.0, 0.7620415049458673
955.0, 0.6496850774169965
956.0, 0.5357989872271492
957.0, 0.4415072434130803
958.0, 0.3654753154605695
959.0, 0.3051504976901959
960.0, 0.2554616483046541
961.0, 0.21269711056162433
962.0, 0.1826949614830403
963.0, 0.15746733379363906
964.0, 0.1361097344566633
965.0, 0.11876030506181665
966.0, 0.10535770388624255
967.0, 0.09489647151825752
968.0, 0.08572693274194182
969.0, 0.07808475242596255
970.0, 0.07167271500034571
971.0, 0.066003607195372
972.0, 0.061504481221469835
973.0, 0.05736953325341593
974.0, 0.05343127207563545
975.0, 0.05021111222917621
976.0, 0.04834450539427533
977.0, 0.04426391264544277
978.0, 0.04209232437807564
979.0, 0.040423019176770304
980.0, 0.03864620401147303
981.0, 0.03668153832684675
982.0, 0.03815969838100035
983.0, 0.03710236280837176
984.0, 0.03693957278266299
985.0, 0.03828955016927465
986.0, 0.039374032180500694
987.0, 0.039527649043122295
988.0, 0.041061103979297645
989.0, 0.04177564426813872
990.0, 0.041717833657391866
991.0, 0.04347454355904911
992.0, 0.04420075044399078
993.0, 0.044553958003199855
994.0, 0.04445018206058564
995.0, 0.043593844966598176
996.0, 0.04135079254025444
997.0, 0.04074760118831218
998.0, 0.037073959405226196
999.0, 0.033739569706080094
1000.0, 0.031810204580189794
1001.0, 0.02821400253105723
1002.0, 0.02591747430296757
1003.0, 0.02312115559681692
1004.0, 0.020274392690978856
1005.0, 0.018144810923836123
1006.0, 0.01798753448552915
1007.0, 0.015681076506419794
1008.0, 0.014770625159375564
1009.0, 0.014347387020875351
1010.0, 0.013726673342041704
1011.0, 0.01318779093622332
1012.0, 0.012350921269853028
1013.0, 0.012271901758776406
1014.0, 0.012303012873303881
1015.0, 0.011969443038022285
1016.0, 0.011361723442494876
1017.0, 0.012398060164015566
1018.0, 0.012584318403715438
1019.0, 0.012856807258597197
1020.0, 0.013810264748114394
1021.0, 0.01487088252661263
1022.0, 0.015721377526215306
1023.0, 0.01737218431566848
1024.0, 0.019397231595333724
1025.0, 0.021383609077633193
1026.0, 0.023153601586389804
1027.0, 0.024243432182794275
1028.0, 0.02511908159280373
1029.0, 0.025351171342845816
1030.0, 0.024578849351658386
1031.0, 0.022588455444374676
1032.0, 0.021151675606339307
1033.0, 0.0195841948660705
1034.0, 0.01793840984825353
1035.0, 0.016420932766485232
1036.0, 0.015445630698121316
1037.0, 0.01433780899302952
1038.0, 0.013523623819362122
1039.0, 0.012823979509751334
1040.0, 0.012143646699057254
1041.0, 0.011556202349859936
1042.0, 0.011252757064603262
1043.0, 0.011467109360998273
1044.0, 0.011416101972149621
1045.0, 0.01096527601203509
1046.0, 0.010829163765533337
1047.0, 0.009964895876789993
1048.0, 0.009409516319440132
1049.0, 0.008683255559424738
1050.0, 0.008015084657945192
1051.0, 0.008366694756957714
1052.0, 0.009265590113588771
1053.0, 0.008629261362859618
1054.0, 0.008576205455874345
1055.0, 0.009345858090450503
1056.0, 0.009660787961160043
1057.0, 0.009924163810170484
1058.0, 0.010687701601136355
1059.0, 0.011753885569224673
1060.0, 0.012829959850351546
1061.0, 0.013625883843135478
1062.0, 0.01491298913322116
1063.0, 0.016404565952303305
1064.0, 0.017853907386797593
1065.0, 0.01911827093994233
1066.0, 0.020256575795586502
1067.0, 0.02271288116855411
1068.0, 0.023155590016932705
1069.0, 0.024016889827421204
1070.0, 0.025341423527464175
1071.0, 0.026342295390572604
1072.0, 0.025997729669566594
1073.0, 0.025248673823666336
1074.0, 0.024881528513393123
1075.0, 0.024123498448212224
1076.0, 0.022232821278297836
1077.0, 0.01976166542432235
1078.0, 0.019610321820349486
1079.0, 0.017683676816992393
1080.0, 0.015724934224638897
1081.0, 0.014846466039096326
1082.0, 0.012695018425734195
1083.0, 0.01249532841552192
1084.0, 0.011178197099718694
1085.0, 0.010006603082817606
1086.0, 0.009379413432099118
1087.0, 0.007891955503164034
1088.0, 0.00735582399967021
1089.0, 0.006803511230706038
1090.0, 0.0062703431539206465
1091.0, 0.005455008249546052
1092.0, 0.0038254940442979967
1093.0, 0.00443475831445375
1094.0, 0.004462613768555103
1095.0, 0.003480800230525141
1096.0, 0.0023135168383872787
1097.0, 0.002327091985410182
1098.0, 0.002713577925983651
1099.0, 0.002528196520458936
1100.0, 0.00226889208999197
1101.0, 0.002050157008751987
1102.0, 0.0018442470646077528
1103.0, 0.0015553523975177848
1104.0, 0.001601700105311251
1105.0, 0.0012749441863875233
1106.0, 0.0011748273012223082
1107.0, 0.0014696026331072825
1108.0, 0.0005276152802459582
1109.0, 0.0004795305019109581
1110.0, 0.00031436266725335944
1111.0, 0.00034455874943458494
1112.0, 0.0005922361921641233
1113.0, 0.0005183817985957283
1114.0, 0.0005786456351137048
1115.0, 0.000461603433598965
1116.0, 0.00042590232965189484
1117.0, 0.0005580669768542745
1118.0, 0.0007745271348849127
1119.0, 0.0006715203345372444
1120.0, 0.0009025958452295237
1121.0, 0.0008858471834732857
1122.0, 0.0008652521861773519
1123.0, 0.0012348872328153057
1124.0, 0.0013190259089091779
1125.0, 0.0007447306946918189
1126.0, 0.0005469182999171748
1127.0, 0.0005386455478514149
1128.0, 0.0004860222810897264
1129.0, 0.0006618160751729648
1130.0, 0.0005196195502086006
1131.0, 0.0002710650445803241
1132.0, 0.0002713649998166048
1133.0, 0.0004932191497127222
1134.0, 0.00044727408234718907
1135.0, 0.0003857722955178107
1136.0, 0.0006066037915565753
1137.0, 0.0004293732176809154
1138.0, 0.00022772725159991015
1139.0, 0.0007088260038792193
1140.0, 0.00011133031750066593
1141.0, 0.000135340427876476
1142.0, 0.00033879693334271224
1143.0, 0.00046517402813023263
1144.0, 0.00038982964794082476
1145.0, 0.0002479160672354541
1146.0, 0.0002938342037644799
1147.0, 0.00013984970006163144
1148.0, 2.7929883814038532e-05
1149.0, 0.00015628158026789176
1150.0, 0.0005583402395702109
1151.0, 0.00013222653087761294
1152.0, 0.000498299064289912
1153.0, 0.0004971179630179399
1154.0, 0.0004042770965366002
1155.0, 0.0010257858575475306
1156.0, 0.0002286753661103054
1157.0, 0.00039552201455951824
1158.0, 0.0002741560805391579
1159.0, 6.0662769999161115e-05
1160.0, 0.00018431378330599482
1161.0, 0.0007236798070326456
1162.0, 0.00019007433912744453
1163.0, 0.00015891256271286845
1164.0, 0.0001774202414717995
1165.0, 0.00021121356386101094
1166.0, 0.0007858691853372687
1167.0, 0.0006746817260954814
1168.0, 0.0004979452754421775
1169.0, 0.0005433845505836971
1170.0, 0.0005991240023507592
1171.0, 0.0004049783686781659
1172.0, 0.0005941828979150188
1173.0, 0.0002949774668226093
1174.0, 0.00020141591458328203
1175.0, 0.00029718796278692936
1176.0, 0.0004105233604411469
1177.0, 0.00031310086466831847
1178.0, 0.0009865364311565092
1179.0, 0.0008227041552507562
1180.0, 0.000589216548660889
1181.0, 0.0005269649701120473
1182.0, 0.0005098376272058722
1183.0, 0.0007567655119811372
1184.0, 0.000669395291198818
1185.0, 0.0005032549135006446
1186.0, 0.0007668815955912798
1187.0, 0.001382497100929784
1188.0, 0.000798481935650637
1189.0, 0.0003823218782449073
1190.0, 0.00016898596351050938
1191.0, 0.0004990375533047422
1192.0, 0.0011447214043498939
1193.0, 0.0014373680583683864
1194.0, 0.0011875533336168779
1195.0, 0.0008703351225799735
1196.0, 0.00118412657874625
1197.0, 0.001182281962234005
1198.0, 0.00047860532760376725
1199.0, 0.0015049912266503307
1200.0, 0.0007303527667494696
1201.0, 0.0009905738693578043
1202.0, 0.0011384268739479183
1203.0, 0.00111674066372286
1204.0, 0.0018407136185129313
1205.0, 0.0009009943639502236
1206.0, 0.0006618312430938302
1207.0, 0.000506762141341245
1208.0, 0.000647802537327447
1209.0, 0.0011759780892218819
1210.0, 0.0012132575606994638
1211.0, 0.0010445844698537623
1212.0, 0.0006927010649933955
1213.0, 0.0007125128467697424
1214.0, 0.0008939992271580941
1215.0, 0.0005397057134631557
1216.0, 0.0010113975448619611
1217.0, 0.0006286140095911939
1218.0, 0.0007658876418770032
1219.0, 0.0010265753401801636
1220.0, 0.0009208930477970846
1221.0, 0.0008491409119206574
1222.0, 0.0006709030160285412
1223.0, 0.0005624758835732392
1224.0, 0.0007238830821552227
1225.0, 0.0007731888053784451
1226.0, 0.0001960284200923706
1227.0, 0.0003558930005412229
1228.0, 0.0005726352577735212
1229.0, 0.001078240307841043
1230.0, 0.001090750232941639
1231.0, 0.0006229951968399556
1232.0, 0.0012734445540698673
1233.0, 0.0006446637445132866
1234.0, 0.0002587811600037187
1235.0, 0.00019371227039680482
1236.0, 0.00048139057153434166
1237.0, 0.000947474407844336
1238.0, 0.0006826226780335142
1239.0, 0.00039120273147141447
1240.0, 0.000831858301158193
1241.0, 0.0008830652186659325
1242.0, 0.0003049468100173639
1243.0, 4.2197577085965104e-05
1244.0, 6.611219672590154e-05
1245.0, 0.0003514729494989918
1246.0, 0.00047979233620109685
1247.0, 0.0005490593354345703
1248.0, 0.0007627347373811708
1249.0, 0.0011721172614290413
1250.0, 0.0004222781143062474
1251.0, 0.0006277354913463449
1252.0, 0.0008270972959942927
1253.0, 0.0008290071500947951
1254.0, 0.0008984874975735254
1255.0, 0.0004359927858844525
1256.0, 0.0003780426471378714
1257.0, 0.0004101483856303363
1258.0, 0.00035650075280215643
1259.0, 0.00026691133995306705
1260.0, 0.00040709989879649563
1261.0, 0.000399262844940039
1262.0, 0.0004633003932467673
1263.0, 0.0007359005544489109
1264.0, 0.0007532365665772954
1265.0, 0.0005222263424018205
1266.0, 0.0015658742869495725
1267.0, 0.0004933743796198416
1268.0, 0.0012078908918150787
1269.0, 0.0011029455252105345
1270.0, 0.0003023538909317825
1271.0, 0.00029740634553604667
1272.0, 0.0003097435489834293
1273.0, 0.00030494241596238026
1274.0, 0.000511573372354312
1275.0, 0.0005807731398946427
1276.0, 0.0003595389531970781
1277.0, 4.233210352635837e-05
1278.0, 0.00042970764833516364
1279.0, 0.0011950044610524917
1280.0, 0.0007533693605503663
1281.0, 0.0004702550669448906
1282.0, 0.0009163255123605467
1283.0, 0.00024387379219776862
1284.0, 0.00019226105329639277
1285.0, 0.0005765347804030498
1286.0, 0.0007487956157356275
1287.0, 0.0008229480721197931
1288.0, 0.0009111141749933483
1289.0, 0.0002599745544770781
1290.0, 0.0006950357057186757
1291.0, 0.000896732342434197
1292.0, 0.0010440543559268763
1293.0, 0.0008315384946604263
1294.0, 0.00016597919910385864
1295.0, 0.0012829825435248638
1296.0, 0.0015246663346625401
1297.0, 0.0008176264191660984
1298.0, 0.0006288364865085721
1299.0, 0.0009934255693187582
1300.0, 0.0007406510223304854
1301.0, 0.0006979619441009968
1302.0, 0.0006445633903622179
1303.0, 0.00048330791112525303
1304.0, 0.00044945552895709294
1305.0, 0.0005504695516559186
1306.0, 0.0005069011864570022
1307.0, 0.0009851498233657819
1308.0, 0.0005972494113079437
1309.0, 0.00035920894245563726
1310.0, 0.00023120681079628988
1311.0, 0.00023609316608555773
1312.0, 0.0008839931546877013
1313.0, 0.0005637648631701654
1314.0, 0.0009176845856335319
1315.0, 0.0010977822697344286
1316.0, 0.0008132217854261246
1317.0, 0.00036178661666410586
1318.0, 0.0007402572080633227
1319.0, 0.0013006834976038413
1320.0, 0.0007137801544041963
1321.0, 0.0003595415972907101
1322.0, 0.00047765352620539553
1323.0, 0.0006774091205054917
1324.0, 0.0004902989850548104
1325.0, 0.0008923484137019233
1326.0, 0.0008336702639935597
1327.0, 0.00073070829137798
1328.0, 0.0006195991344101889
1329.0, 0.0004083606195200851
1330.0, 0.0003975636903152572
1331.0, 0.0005574080428682119
1332.0, 0.00043386192365050733
1333.0, 0.0003528364301688364
1334.0, 0.00046435633233469093
1335.0, 0.0006092142883832123
1336.0, 6.56911101915075e-05
1337.0, 0.0002624374649595544
1338.0, 0.00039793479610750665
1339.0, 0.000406273884286327
1340.0, 0.0004494717861537631
1341.0, 0.0006524274170330443
1342.0, 0.0004876612923817405
1343.0, 0.000624481448624368
1344.0, 0.0009073083616924459
1345.0, 0.0010223510984104002
1346.0, 0.0009637935600689181
1347.0, 0.0009935336710001008
1348.0, 0.0014423069358709996
1349.0, 0.0006515431682998626
1350.0, 0.0006431920344783635
1351.0, 0.0006566883781054367
1352.0, 0.0007059641639570252
1353.0, 0.001325865333604075
1354.0, 0.0017064217613998998
1355.0, 0.0015019188367162042
1356.0, 0.0008241734900283359
1357.0, 0.0007831828991839004
1358.0, 0.0011098378534549593
1359.0, 0.0008454779443848466
1360.0, 0.0010457980289889917
1361.0, 0.0011432273202747418
1362.0, 0.0013035076223362422
1363.0, 0.0016442157586312677
1364.0, 0.0018188302337476972
1365.0, 0.0014997375839366056
1366.0, 0.0017113561756035304
1367.0, 0.0012721325791053431
1368.0, 0.0011716842367010326
1369.0, 0.0012862996317013471
1370.0, 0.0013319531847794167
1371.0, 0.0011858817659552688
1372.0, 0.0014094244087514357
1373.0, 0.0007110465698097817
1374.0, 0.0012501076698983838
1375.0, 0.001482299131060714
1376.0, 0.001230625190722717
1377.0, 0.001235498335805478
1378.0, 0.0019359279026930176
1379.0, 0.0018856687901137711
1380.0, 0.0009924096856381763
1381.0, 0.0009101199888545301
1382.0, 0.001447832870267621
1383.0, 0.0016857982418236452
1384.0, 0.0015103026252668138
1385.0, 0.0020333228561389984
1386.0, 0.001331925920351886
1387.0, 0.0013034580942775451
1388.0, 0.0016313668268903767
1389.0, 0.0018704331044363679
1390.0, 0.003139763566371059
1391.0, 0.0012846587100310463
1392.0, 0.0013697104622995252
1393.0, 0.0015782417115076256
1394.0, 0.0011871073198753666
1395.0, 0.0005920729563867551
1396.0, 0.0010418721366797677
1397.0, 0.0008576319394489461
1398.0, 0.0013534049394072283
1399.0, 0.0014427037912818498
1400.0, 0.0014794159337703217
1401.0, 0.0016590068708471663
1402.0, 0.0016305043905189992
1403.0, 0.0017058033611676037
1404.0, 0.001838361829555706
1405.0, 0.0017642549951050017
1406.0, 0.0014938489321441222
1407.0, 0.0013173168207494899
1408.0, 0.001579394449863377
1409.0, 0.0019995069568929207
1410.0, 0.0017334493665844266
1411.0, 0.0022102363715175723
1412.0, 0.0016253626872934027
1413.0, 0.0009412695895983088
1414.0, 0.0016509733967042018
1415.0, 0.0008518017778148799
1416.0, 0.0018632340692789886
1417.0, 0.001282610770142399
1418.0, 0.0014742962221270437
1419.0, 0.001759985700693181
1420.0, 0.0013858734571290628
1421.0, 0.0021792241447758853
1422.0, 0.0010301106921081179
1423.0, 0.0007527519993072863
1424.0, 0.0008253200634089704
1425.0, 0.0009475258566584083
1426.0, 0.0010954765887212
1427.0, 0.0013735865367033306
1428.0, 0.0006920890632487869
1429.0, 0.00115529747001617
1430.0, 0.0009053581939044281
1431.0, 0.0006673388772463282
1432.0, 0.0010050382549713713
1433.0, 0.0017653029012106194
1434.0, 0.002154204444278297
1435.0, 0.0012964171722416199
1436.0, 0.0015086408194479588
1437.0, 0.0008980204800541757
1438.0, 0.0005378484978359405
1439.0, 0.0015926799370467879
1440.0, 0.0015520886201888992
1441.0, 0.0015711232255824984
1442.0, 0.0013399959374029262
1443.0, 0.001805592384678287
1444.0, 0.0016549145470470955
1445.0, 0.0008928965928508971
1446.0, 0.0015823063925620672
1447.0, 0.0004908666862832886
1448.0, 0.0015079837904702607
1449.0, 0.0016805413376047161
1450.0, 0.0016318194164691236
1451.0, 0.0016401673300406525
1452.0, 0.0014056981502003551
1453.0, 0.0012188051863966614
1454.0, 0.0018148876691804778
1455.0, 0.001832042992013381
1456.0, 0.0018027314299829528
1457.0, 0.0017980707146727454
1458.0, 0.0016203056748979594
1459.0, 0.0011623650291182855
1460.0, 0.001736369456547444
1461.0, 0.0017237404670319317
1462.0, 0.0010701354949189904
1463.0, 0.0013914892692205318
1464.0, 0.0021703078315899113
1465.0, 0.0013569767106350657
1466.0, 0.0012131554988293162
1467.0, 0.0009785772987438955
1468.0, 0.0006885639526703157
1469.0, 0.0012048613439141502
1470.0, 0.0016904617575422133
1471.0, 0.0013025430954427405
1472.0, 0.0011415014780109672
1473.0, 0.0018765610758045385
1474.0, 0.0017250655775410929
1475.0, 0.0013521624741959673
1476.0, 0.0008200280973825243
1477.0, 0.0008545234892474719
1478.0, 0.002132500718140456
1479.0, 0.001188333671510236
1480.0, 0.002199808753753376
1481.0, 0.0018938758322767173
1482.0, 0.0010481324399187813
1483.0, 0.0005351158788288036
1484.0, 0.0007129677785003733
1485.0, 0.0011927121307825429
1486.0, 0.0009749143067803756
1487.0, 0.0015289167796019665
1488.0, 0.0009066273320551903
1489.0, 0.00040509992453110756
1490.0, 0.0005290479444387219
1491.0, 0.0006066577542096542
1492.0, 0.001612720898205086
1493.0, 0.0008872766285433502
1494.0, 0.0010926655815706402
1495.0, 0.0011876838301273349
1496.0, 0.0010526855397021359
1497.0, 0.001182836377968565
1498.0, 0.0018728064497225195
1499.0, 0.000450443926369585
1500.0, 0.0010130741521573025
1501.0, 0.0009805643357371143
1502.0, 0.0007732443816921705
1503.0, 0.0011694136124679988
1504.0, 0.002052760240164912
1505.0, 0.0013623666758166113
1506.0, 0.0005478759260269879
1507.0, 0.0009837306986560778
1508.0, 0.0009865057387233775
1509.0, 0.00101766636894899
1510.0, 0.0012188051968422412
1511.0, 0.0007748915741706766
1512.0, 0.0006777601238419792
1513.0, 0.001079357255760649
1514.0, 0.000438810726865543
1515.0, 0.0007022338436587272
1516.0, 0.001457170787713807
1517.0, 0.001408570605599711
1518.0, 0.0005045154523521405
1519.0, 0.00015131423373375958
1520.0, 2.730546285668331e-05
1521, 0.0
1522, 0.0
1523, 0.0
1524, 0.0
1525, 0.0
1526, 0.0
1527, 0.0
1528, 0.0
1529, 0.0
1530, 0.0
1531, 0.0
1532, 0.0
1533, 0.0
1534, 0.0
1535, 0.0
1536, 0.0
1537, 0.0
1538, 0.0
1539, 0.0
1540, 0.0
1541, 0.0
1542, 0.0
1543, 0.0
1544, 0.0
1545, 0.0
1546, 0.0
1547, 0.0
1548, 0.0
1549, 0.0
1550, 0.0
1551, 0.0
1552, 0.0
1553, 0.0
1554, 0.0
1555, 0.0
1556, 0.0
1557, 0.0
1558, 0.0
1559, 0.0
1560, 0.0
1561, 0.0
1562, 0.0
1563, 0.0
1564, 0.0
1565, 0.0
1566, 0.0
1567, 0.0
1568, 0.0
1569, 0.0
1570, 0.0
1571, 0.0
1572, 0.0
1573, 0.0
1574, 0.0
1575, 0.0
1576, 0.0
1577, 0.0
1578, 0.0
1579, 0.0
1580, 0.0
1581, 0.0
1582, 0.0
1583, 0.0
1584, 0.0
1585, 0.0
1586, 0.0
1587, 0.0
1588, 0.0
1589, 0.0
1590, 0.0
1591, 0.0
1592, 0.0
1593, 0.0
1594, 0.0
1595, 0.0
1596, 0.0
1597, 0.0
1598, 0.0
1599, 0.0
