30, 0.0
31, 0.0
32, 0.0
33, 0.0
34, 0.0
35, 0.0
36, 0.0
37, 0.0
38, 0.0
39, 0.0
40, 0.0
41, 0.0
42, 0.0
43, 0.0
44, 0.0
45, 0.0
46, 0.0
47, 0.0
48, 0.0
49, 0.0
50, 0.0
51, 0.0
52, 0.0
53, 0.0
54, 0.0
55, 0.0
56, 0.0
57, 0.0
58, 0.0
59, 0.0
60, 0.0
61, 0.0
62, 0.0
63, 0.0
64, 0.0
65, 0.0
66, 0.0
67, 0.0
68, 0.0
69, 0.0
70, 0.0
71, 0.0
72, 0.0
73, 0.0
74.0, 0.00011110154741128346
75.0, 0.0008142758981156034
76.0, 0.0012230749582091574
77.0, 0.0011381326618780713
78.0, 0.0003550561931626989
79.0, 0.0002621225880425796
80.0, 0.0003273414710237744
81.0, 0.000407799764737748
82.0, 8.762564981901145e-05
83.0, 0.0003881949188534127
84.0, 0.0007295601577072722
85.0, 0.0008605585939160438
86.0, 0.00042918870187019624
87.0, 0.0005713344029407425
88.0, 0.0011242368979250883
89.0, 0.00175036545257885
90.0, 0.0033933755188390673
91.0, 0.004747350698325073
92.0, 0.005350289153666436
93.0, 0.00623333915045596
94.0, 0.00828765784537003
95.0, 0.01115597630359329
96.0, 0.014392532702013395
97.0, 0.01922927861150035
98.0, 0.024758028275040096
99.0, 0.030751238749299147
100.0, 0.03649988369336722
101.0, 0.04312596450463325
102.0, 0.04922264930642237
103.0, 0.05263877079564529
104.0, 0.050961374938063915
105.0, 0.04556130071670217
106.0, 0.03694403618932492
107.0, 0.02815845557983859
108.0, 0.021729263331697137
109.0, 0.017029201801457693
110.0, 0.013937560155371813
111.0, 0.013467579127246903
112.0, 0.013785307973574282
113.0, 0.014677981695586057
114.0, 0.016067025875575024
115.0, 0.017046996621975827
116.0, 0.017173280520964895
117.0, 0.01600721475730251
118.0, 0.013014205732712858
119.0, 0.01076918124389225
120.0, 0.009349969301410082
121.0, 0.008921483261865312
122.0, 0.008115260883293462
123.0, 0.00764637277917026
124.0, 0.007818404729415033
125.0, 0.008602466986023401
126.0, 0.00990154866902594
127.0, 0.011543475155258437
128.0, 0.013315917417931197
129.0, 0.016558491814398165
130.0, 0.020830439216302996
131.0, 0.026187094333499743
132.0, 0.033826706506317486
133.0, 0.04384478597726942
134.0, 0.056487784546951865
135.0, 0.07270538609792157
136.0, 0.08988545604156233
137.0, 0.11186889983074509
138.0, 0.13850213988069227
139.0, 0.16793683453400504
140.0, 0.20033265047533516
141.0, 0.22736373710313668
142.0, 0.24364181178871458
143.0, 0.23156840339334672
144.0, 0.20936680782454584
145.0, 0.1832105268894569
146.0, 0.16635416360071562
147.0, 0.1544206381701218
148.0, 0.14010849470167536
149.0, 0.12137123346179128
150.0, 0.10022018702729603
151.0, 0.07961138423269994
152.0, 0.061315614493318835
153.0, 0.04806220137884178
154.0, 0.039083346201128154
155.0, 0.03291841777249556
156.0, 0.029399766981142997
157.0, 0.028828066188164848
158.0, 0.030843600201944564
159.0, 0.0350366989535656
160.0, 0.04149251378754157
161.0, 0.04981634657961904
162.0, 0.0602717127586956
163.0, 0.07299937553009606
164.0, 0.08886747404753112
165.0, 0.10556347202630742
166.0, 0.11618636962603769
167.0, 0.11858329278806169
168.0, 0.1110777311934467
169.0, 0.09843673770452563
170.0, 0.08549319620192233
171.0, 0.07694322481068319
172.0, 0.06984741277179553
173.0, 0.06315014857960939
174.0, 0.056204407056962474
175.0, 0.04682985728428187
176.0, 0.03798209031218952
177.0, 0.03064635078881885
178.0, 0.025355092121511744
179.0, 0.021595800292158185
180.0, 0.019171625689360313
181.0, 0.017531018187187244
182.0, 0.016033732171904673
183.0, 0.01574571096250628
184.0, 0.015224405948348955
185.0, 0.014418230264363284
186.0, 0.014247448187040846
187.0, 0.014086680382632893
188.0, 0.014468712122837124
189.0, 0.015769255984212572
190.0, 0.016875695929088313
191.0, 0.019090293762366203
192.0, 0.02257753364801587
193.0, 0.02792697902928284
194.0, 0.03353678916622363
195.0, 0.03995044140374702
196.0, 0.04725087216081499
197.0, 0.05510607970117502
198.0, 0.06443465981466648
199.0, 0.07357434182251918
200.0, 0.08131304152003539
201.0, 0.0868932773707381
202.0, 0.09026791528386768
203.0, 0.0921741578271993
204.0, 0.09404099363040631
205.0, 0.095666654982928
206.0, 0.09659127661709464
207.0, 0.09680951186952182
208.0, 0.09747816244392775
209.0, 0.09561061506741711
210.0, 0.09094497267077796
211.0, 0.08281013156812803
212.0, 0.07517908547565558
213.0, 0.06480609107816393
214.0, 0.05328050812635356
215.0, 0.044533518773078096
216.0, 0.03661574603770611
217.0, 0.029568095600790368
218.0, 0.023541012710396634
219.0, 0.01952689835259594
220.0, 0.0157926450123041
221.0, 0.012588198690938735
222.0, 0.010178440948966883
223.0, 0.008251948957322452
224.0, 0.007138463068902815
225.0, 0.006498596336447636
226.0, 0.005656303226294743
227.0, 0.004598772234624495
228.0, 0.004176920312252799
229.0, 0.004400781060678976
230.0, 0.00399530199515002
231.0, 0.0038408783668002345
232.0, 0.0037814825227286525
233.0, 0.003731506816122256
234.0, 0.0034233639286517918
235.0, 0.0032592793213226503
236.0, 0.003210153907188911
237.0, 0.0032407001772309747
238.0, 0.003355380163128084
239.0, 0.0033758601394558363
240.0, 0.003342803956326776
241.0, 0.0036039189670503814
242.0, 0.0036573404099110277
243.0, 0.003828785499696363
244.0, 0.0042946120888835305
245.0, 0.0054922060516435205
246.0, 0.006569073145034801
247.0, 0.007710712296653934
248.0, 0.009161691529795318
249.0, 0.010072146949684802
250.0, 0.011305285777397436
251.0, 0.012791743843337512
252.0, 0.01407332550975634
253.0, 0.016447029649632267
254.0, 0.0192451846289691
255.0, 0.022271195670085474
256.0, 0.025407317406545643
257.0, 0.02813431242607927
258.0, 0.030150791912675303
259.0, 0.03112484820264222
260.0, 0.03257843770078199
261.0, 0.032596906026359805
262.0, 0.03188352922052089
263.0, 0.03178759436522209
264.0, 0.03103819678957933
265.0, 0.030849294785815138
266.0, 0.03128818563308334
267.0, 0.031694080220365864
268.0, 0.03195802551119191
269.0, 0.03239666896679894
270.0, 0.033122027346568716
271.0, 0.03333366394078135
272.0, 0.032244094065884035
273.0, 0.030563888796820468
274.0, 0.028937491725259012
275.0, 0.029492064853024427
276.0, 0.02961387825970089
277.0, 0.029929365273632443
278.0, 0.03233877963947053
279.0, 0.03574961457321021
280.0, 0.039525233530666275
281.0, 0.043792919640089585
282.0, 0.05007625029672389
283.0, 0.05489169959532878
284.0, 0.05953094414590064
285.0, 0.06454846463973062
286.0, 0.06841210821982692
287.0, 0.07046062206239447
288.0, 0.07070950869204705
289.0, 0.06891580716955135
290.0, 0.06606330752004637
291.0, 0.062258463552664386
292.0, 0.058218037902105786
293.0, 0.05558148228495121
294.0, 0.05118992419234847
295.0, 0.04839461092991139
296.0, 0.04751634577393696
297.0, 0.04676399793444677
298.0, 0.0466140324091842
299.0, 0.047097373238851735
300.0, 0.04822262350899969
301.0, 0.04922338978489954
302.0, 0.050462157825550934
303.0, 0.050935979150335084
304.0, 0.04965755169309671
305.0, 0.04746934392500708
306.0, 0.04495599888731906
307.0, 0.04217632893010313
308.0, 0.03916801481946663
309.0, 0.03636191125108891
310.0, 0.033888822144018796
311.0, 0.03160463252139515
312.0, 0.028925990161137897
313.0, 0.027311939258196114
314.0, 0.025988871704486008
315.0, 0.024694915543900953
316.0, 0.023139823015380586
317.0, 0.022714649462364164
318.0, 0.02266557408422163
319.0, 0.022539039321665757
320.0, 0.020785143508103676
321.0, 0.019855395629716843
322.0, 0.018827905439103565
323.0, 0.0166383851139523
324.0, 0.015312875820178113
325.0, 0.014495508716828908
326.0, 0.013514505367815928
327.0, 0.010964954203884478
328.0, 0.010078469479248339
329.0, 0.00919288369352135
330.0, 0.008223654119343485
331.0, 0.007883280130826157
332.0, 0.007318017659433894
333.0, 0.0074206441865602366
334.0, 0.008201935652420592
335.0, 0.0072527808023486835
336.0, 0.007651049714201494
337.0, 0.008268917542486959
338.0, 0.008507202478447745
339.0, 0.00901438112504513
340.0, 0.010069062065740533
341.0, 0.01049418814268536
342.0, 0.00905478060277155
343.0, 0.009771832265726997
344.0, 0.009694428776317028
345.0, 0.008789567849471856
346.0, 0.007072295549975799
347.0, 0.006977081400014953
348.0, 0.0064166784517690765
349.0, 0.005356042198316141
350.0, 0.004327861786267798
351.0, 0.003568149320816067
352.0, 0.0030212742375732306
353.0, 0.0026100128880795887
354.0, 0.0020051075965151566
355.0, 0.0023431061307361265
356.0, 0.0023812586905856683
357.0, 0.001795899498260771
358.0, 0.0021331017966944275
359.0, 0.001954812272144357
360.0, 0.0017865614850835834
361.0, 0.0019342144845679733
362.0, 0.001953290644336161
363.0, 0.001837209709936125
364.0, 0.0017574402689706857
365.0, 0.0018829741157199188
366.0, 0.0018267128040918758
367.0, 0.001791373838692266
368.0, 0.0017746127651324683
369.0, 0.0017675050703488044
370.0, 0.0017727622136898401
371.0, 0.0012731040509634944
372.0, 0.0005593803327756892
373.0, 0.00037961513379910133
374.0, 0.000259978781361758
375.0, 0.0001607378338795711
376.0, 0.0001611636933471881
377.0, 0.0005695511111641026
378.0, 0.0010199690325635375
379.0, 0.0011457154002180614
380.0, 0.0010523594747168354
381.0, 0.001857347530514148
382.0, 0.001858847818498837
383.0, 0.0016636221189527615
384.0, 0.0015404077760240327
385.0, 0.0018413031123741181
386.0, 0.001767191339514957
387.0, 0.0021045227292342816
388.0, 0.00316697310444096
389.0, 0.0021512383524175402
390.0, 0.001574724922913674
391.0, 0.0015961431049445782
392.0, 0.0023539435510772475
393.0, 0.0015140466850762603
394.0, 0.0013790006120695587
395.0, 0.0015218915568692543
396.0, 0.0014830894714468346
397.0, 0.0016649314451715072
398.0, 0.0015050413781775853
399.0, 0.001250073661679455
400.0, 0.0012940118242357294
401.0, 0.0007413615360337823
402.0, 0.00036539002651396317
403.0, 0.0002177498107562738
404.0, 0.0003022485821037843
405.0, 0.00013929484316454457
406.0, 6.161879402067284e-05
407.0, 8.531207869408907e-05
408.0, 0.0001478854739639054
409.0, 0.0001183417836759324
410.0, 0.00010951549388295069
411.0, 0.0001283333363567133
412.0, 0.00012706558789208705
413.0, 0.0008920587013028519
414.0, 0.0011918805840474647
415.0, 0.0010263033680851011
416.0, 0.00183875128283293
417.0, 0.002112044575382432
418.0, 0.0021200996662588275
419.0, 0.0020897727768597768
420.0, 0.00291630698895659
421.0, 0.002617162947730534
422.0, 0.002591854682653387
423.0, 0.003329219810236575
424.0, 0.004103580932831864
425.0, 0.004504575757912381
426.0, 0.004701488764386848
427.0, 0.00478397298947365
428.0, 0.004903862676560328
429.0, 0.006051888603801855
430.0, 0.007048274128589932
431.0, 0.007245394623414505
432.0, 0.007874495508892793
433.0, 0.00848482049952719
434.0, 0.009102549705895784
435.0, 0.00973250377649053
436.0, 0.00994774081617769
437.0, 0.010910018687529588
438.0, 0.012275420379999733
439.0, 0.013765995081409152
440.0, 0.015107245111465004
441.0, 0.016791709871908474
442.0, 0.01877745403336742
443.0, 0.02103172611425775
444.0, 0.022469876858857627
445.0, 0.02510596652676889
446.0, 0.028297449691826976
447.0, 0.03134332820979946
448.0, 0.03464199671670756
449.0, 0.03893805903893524
450.0, 0.04361281969936515
451.0, 0.047909016000996875
452.0, 0.05551057183000023
453.0, 0.061677439610506986
454.0, 0.0681603742480493
455.0, 0.07751433985985959
456.0, 0.08450635662802304
457.0, 0.09283598142007293
458.0, 0.10126943130083534
459.0, 0.10779811039185383
460.0, 0.11210540069319255
461.0, 0.11670281880464893
462.0, 0.11964289437408807
463.0, 0.11764549256842788
464.0, 0.11467161378470625
465.0, 0.11080523990531754
466.0, 0.10477600610485681
467.0, 0.09443571859744623
468.0, 0.08450475261345625
469.0, 0.07558020765276807
470.0, 0.0670468677308235
471.0, 0.05784160625969358
472.0, 0.05141746066540892
473.0, 0.04582054687621463
474.0, 0.04076520447220596
475.0, 0.03603700643734686
476.0, 0.033595102414226724
477.0, 0.030931431112922427
478.0, 0.02850105244520072
479.0, 0.02738861955056351
480.0, 0.027573328484794494
481.0, 0.027400281680551086
482.0, 0.02708288472823706
483.0, 0.02716786551129598
484.0, 0.029576847647592473
485.0, 0.030907543400613784
486.0, 0.03189263683396028
487.0, 0.03407815872533314
488.0, 0.03697471195231476
489.0, 0.040442505417398064
490.0, 0.04395609653720802
491.0, 0.04672262063964251
492.0, 0.05195715790643788
493.0, 0.05679344741829463
494.0, 0.06117253329091793
495.0, 0.06523256880876914
496.0, 0.06826306074917092
497.0, 0.07079069463411639
498.0, 0.07279869672962609
499.0, 0.07421967488007856
500.0, 0.07268943824268667
501.0, 0.07243844625821641
502.0, 0.07187191294174447
503.0, 0.06885280333503875
504.0, 0.06698426659508534
505.0, 0.06383015904382076
506.0, 0.05996556695176366
507.0, 0.0560826477314602
508.0, 0.05168715489566221
509.0, 0.04773707969780287
510.0, 0.04428628017575267
511.0, 0.04136882148288377
512.0, 0.0380230228240197
513.0, 0.03550385542956428
514.0, 0.0334580134568306
515.0, 0.03161674379838633
516.0, 0.03148500648574085
517.0, 0.031930369698151786
518.0, 0.03189204610154681
519.0, 0.030786633717194443
520.0, 0.033035215045753075
521.0, 0.033881241665079866
522.0, 0.0350005056007001
523.0, 0.03743679624461572
524.0, 0.040604987998559924
525.0, 0.04404573778942924
526.0, 0.047659391353488935
527.0, 0.051411521516966936
528.0, 0.05546178705712068
529.0, 0.060371484509110555
530.0, 0.06447906505615146
531.0, 0.06710069040219487
532.0, 0.0687290507944653
533.0, 0.07073115331061859
534.0, 0.07141997897402193
535.0, 0.07044980950054962
536.0, 0.06923238974285062
537.0, 0.06803633391310988
538.0, 0.06706573937308664
539.0, 0.06641848909770379
540.0, 0.06624282343108791
541.0, 0.06851883633173458
542.0, 0.07101456029307993
543.0, 0.07423184718506044
544.0, 0.0811109183387251
545.0, 0.08644380832002296
546.0, 0.0925002728743314
547.0, 0.09881794755865662
548.0, 0.10354281497555534
549.0, 0.10896696260735354
550.0, 0.11367955546537802
551.0, 0.11785787559933777
552.0, 0.12205555149838043
553.0, 0.12549889651501367
554.0, 0.13162565138285576
555.0, 0.13973491560314902
556.0, 0.14863893219050395
557.0, 0.15758343796232946
558.0, 0.16653506435527454
559.0, 0.175101676668417
560.0, 0.18290459465975503
561.0, 0.18996701487696402
562.0, 0.19259995324461748
563.0, 0.19203973403249855
564.0, 0.18911228237229616
565.0, 0.18250356455302913
566.0, 0.17048001265732965
567.0, 0.158252956107948
568.0, 0.1479191791385641
569.0, 0.13439182578789086
570.0, 0.1221685602914212
571.0, 0.10973403467460978
572.0, 0.09762022666032386
573.0, 0.09102975689167513
574.0, 0.0821073053430391
575.0, 0.07430306537773151
576.0, 0.06794675931132646
577.0, 0.06128865169987403
578.0, 0.056640781658969346
579.0, 0.05232732691831404
580.0, 0.048055726913625293
581.0, 0.04378607581087965
582.0, 0.04047557707605324
583.0, 0.03692980127587264
584.0, 0.03341691402060673
585.0, 0.03047109475559806
586.0, 0.027215973128517534
587.0, 0.024750766241418556
588.0, 0.022630883050479465
589.0, 0.020386213956992905
590.0, 0.018288287579544427
591.0, 0.016691166352981422
592.0, 0.015203306662358074
593.0, 0.01362824918969237
594.0, 0.01266368441690686
595.0, 0.012095564876598205
596.0, 0.011336596851222888
597.0, 0.010246314104080554
598.0, 0.009446295783775652
599.0, 0.009326777507344262
600.0, 0.008700272325823986
601.0, 0.007673808022832193
602.0, 0.007597971986054508
603.0, 0.007814132855362454
604.0, 0.007664801224071142
605.0, 0.007260585263846779
606.0, 0.007012304916317574
607.0, 0.007233679001286118
608.0, 0.007198609456836759
609.0, 0.006942954845097692
610.0, 0.0065779957842436775
611.0, 0.006915321680713749
612.0, 0.006947812182166578
613.0, 0.007252338384562397
614.0, 0.008144713182946208
615.0, 0.007905730717307945
616.0, 0.00842534191797967
617.0, 0.009015586635456815
618.0, 0.009328306934697989
619.0, 0.009267387093844911
620.0, 0.009806795538429442
621.0, 0.010770081868920813
622.0, 0.011590012995515117
623.0, 0.010699846862605429
624.0, 0.012122130194313834
625.0, 0.012961104682605822
626.0, 0.013364856003915968
627.0, 0.014308978652402757
628.0, 0.014084449558840613
629.0, 0.014565595000270225
630.0, 0.01539463548437751
631.0, 0.016096253961860665
632.0, 0.01649261186201626
633.0, 0.017046951597895963
634.0, 0.017368812678422236
635.0, 0.017329475380332474
636.0, 0.017788449278957025
637.0, 0.017613337616378424
638.0, 0.017779450458472824
639.0, 0.018320141286874654
640.0, 0.018140280896688628
641.0, 0.01798419933352901
642.0, 0.017700181725573878
643.0, 0.017379506383586662
644.0, 0.017248840759755874
645.0, 0.016997780733067732
646.0, 0.016763253118858675
647.0, 0.01649554989796692
648.0, 0.01613536384276545
649.0, 0.015734758352474437
650.0, 0.01575051318545903
651.0, 0.015578055316555242
652.0, 0.015019027527976963
653.0, 0.01529102342598196
654.0, 0.015573983370694138
655.0, 0.015312128216146251
656.0, 0.014856302789071772
657.0, 0.015897044843722417
658.0, 0.015950965473158604
659.0, 0.015678959514055856
660.0, 0.015228835809511615
661.0, 0.014689567241181522
662.0, 0.014912603589550795
663.0, 0.015285316461309463
664.0, 0.015075869244943479
665.0, 0.01382147871800184
666.0, 0.013872808899555444
667.0, 0.012779429919116807
668.0, 0.012469712539723652
669.0, 0.01321204675429836
670.0, 0.012010532757340795
671.0, 0.01056439494281148
672.0, 0.010389132729247796
673.0, 0.01075244793263277
674.0, 0.009315529735367253
675.0, 0.008899541704721238
676.0, 0.00803471629673177
677.0, 0.007111608333553207
678.0, 0.006682866158319834
679.0, 0.006774608960622437
680.0, 0.006072395751974741
681.0, 0.0058594614763190405
682.0, 0.0064569705361157
683.0, 0.005404274306965226
684.0, 0.0041808993916208305
685.0, 0.0038386928976716053
686.0, 0.003997612650920433
687.0, 0.0029990024838865478
688.0, 0.003413419336888248
689.0, 0.0033108904774016585
690.0, 0.0028936196559757725
691.0, 0.0026315112659187883
692.0, 0.002616362831730687
693.0, 0.002924041046345586
694.0, 0.002750752952024538
695.0, 0.0019046103453038356
696.0, 0.002147737965473856
697.0, 0.0017424690062314493
698.0, 0.0016048148531197961
699.0, 0.0017816030397092705
700.0, 0.0017769188576927336
701.0, 0.0019262106928033898
702.0, 0.0019954079956661847
703.0, 0.001737101652434629
704.0, 0.000965080196937809
705.0, 0.0013210503949024751
706.0, 0.0017689201239866675
707.0, 0.0015296548724975877
708.0, 0.0006429783188944026
709.0, 0.0014564557000573664
710.0, 0.0005681601379143868
711.0, 0.0004124648511670613
712.0, 0.0007858435081129935
713.0, 0.00012284615278638562
714.0, 0.0010227634410078527
715.0, 0.0008375707533069404
716.0, 0.0003046580514909323
717.0, 0.00023777807564111846
718.0, 0.00018188247744949272
719.0, 0.0006036299189426632
720.0, 0.0006589034698243308
721.0, 0.00023571805762310154
722.0, 0.00023386220371141435
723.0, 0.0004301400833426697
724.0, 0.0004909973279126611
725.0, 0.0005149200168753347
726.0, 0.0007255281724474079
727.0, 0.00035589414081788127
728.0, 0.0003368723118258273
729.0, 0.000451721894137635
730.0, 0.0005004836767578501
731.0, 0.0002046204527472232
732.0, 0.00013810903059474462
733.0, 0.0003554059403990555
734.0, 0.0005606573303248831
735.0, 4.229512406914485e-05
736.0, 0.00031236729873336793
737.0, 0.00047306563046289836
738.0, 0.000606807589656239
739.0, 0.0008334750353131198
740.0, 0.0008395089544921738
741.0, 0.0005894167159527336
742.0, 0.00042225059842711027
743.0, 0.00037245683449287315
744.0, 7.437262740834369e-05
745.0, 3.707494196935353e-05
746.0, 0.0005414415807988956
747.0, 0.001175081757696658
748.0, 0.0013412790979551348
749.0, 0.0010725134878225404
750.0, 0.0006623856967966454
751.0, 0.0005527804525108229
752.0, 0.0008370475058573336
753.0, 0.0007780417440758075
754.0, 0.0006956226934467502
755.0, 0.000782963594853255
756.0, 0.0008528845883641399
757.0, 0.0005311752759553912
758.0, 0.0005940416468091732
759.0, 0.0010502073818244506
760.0, 0.001272377189801819
761.0, 0.0008870189013499099
762.0, 0.000330509636374511
763.0, 0.00017839042516886423
764.0, 0.0005382732900964104
765.0, 0.0008800729197082737
766.0, 8.738258637386515e-05
767.0, 0.00023437106072588071
768.0, 0.0005858849364724377
769.0, 0.0007012025952475413
770.0, 0.0003814452988337746
771.0, 0.0006830566409738214
772.0, 0.0007380182891587964
773.0, 0.0004739164683574632
774.0, 0.0002318805780384021
775.0, 0.0008269787226305359
776.0, 0.0007485978182595973
777.0, 0.0011059522961148923
778.0, 0.0013516280681632473
779.0, 0.0010960835889574935
780.0, 0.0016654667502067244
781.0, 0.0015732462032993077
782.0, 0.0012836103082779775
783.0, 0.0012062560926782199
784.0, 0.0019429145597626033
785.0, 0.0015049698183644163
786.0, 0.0015810037106667046
787.0, 0.001724824145823173
788.0, 0.0015364825114299004
789.0, 0.0018688927948677361
790.0, 0.0020215772148034945
791.0, 0.0021003796119504936
792.0, 0.002254581601257758
793.0, 0.0027431929367003746
794.0, 0.0026045856621487546
795.0, 0.0030128559403443055
796.0, 0.003579913280928305
797.0, 0.003799301442166068
798.0, 0.0027482338803300806
799.0, 0.002850457791551081
800.0, 0.0029652849095472226
801.0, 0.002714540125051663
802.0, 0.0020129663669271928
803.0, 0.002663180570040398
804.0, 0.002106338539967291
805.0, 0.001583562212286317
806.0, 0.0020011796006775768
807.0, 0.0026276711133024853
808.0, 0.0025051735468236353
809.0, 0.0019725000174775974
810.0, 0.0017110587805488234
811.0, 0.0027298176577377985
812.0, 0.0017771537762072565
813.0, 0.0014755677931752005
814.0, 0.0014872426823937736
815.0, 0.0015214233406571898
816.0, 0.0013649899618656
817.0, 0.0005158665015608298
818.0, 0.00019431647056593243
819.0, 0.00036969872414341793
820.0, 0.0006744875632383469
821.0, 0.0014428472216231134
822.0, 0.0015832223808684629
823.0, 0.0012099214488809872
824.0, 0.0006031367805524526
825.0, 0.0004747570201453072
826.0, 0.0009066588429444655
827.0, 0.0007514656899855378
828.0, 0.0007073271718143483
829.0, 0.0014990497537603596
830.0, 0.001300737730638803
831.0, 0.0011468066158719906
832.0, 0.0011993221981637743
833.0, 0.0014161589641335218
834.0, 0.0015687072903776105
835.0, 0.0013449048057573463
836.0, 0.0013336833115839431
837.0, 0.0013343348221839138
838.0, 0.0012432046547132354
839.0, 0.0015085123319146091
840.0, 0.0018692671777172697
841.0, 0.0017419423296263573
842.0, 0.0014374304361207536
843.0, 0.0016212697582063105
844.0, 0.0019435148938871138
845.0, 0.001776515459274038
846.0, 0.0018166996120005162
847.0, 0.002106151533154085
848.0, 0.0015853108499710947
849.0, 0.0020776669987043494
850.0, 0.0023900212031997352
851.0, 0.00230549370093939
852.0, 0.0018337250806521885
853.0, 0.0017348910021584675
854.0, 0.0017387997169399582
855.0, 0.0016644116696118499
856.0, 0.001799601447410707
857.0, 0.0027787930573447287
858.0, 0.0018335101946028074
859.0, 0.002175485633350652
860.0, 0.002684643674945515
861.0, 0.002712903070195092
862.0, 0.002668993953217388
863.0, 0.003604968735801917
864.0, 0.003835938813471906
865.0, 0.003476925872679458
866.0, 0.0030462724024378877
867.0, 0.0036191313850018132
868.0, 0.003668725620006777
869.0, 0.003820698918875913
870.0, 0.004137307603761817
871.0, 0.004309723409248458
872.0, 0.004334175207845338
873.0, 0.004081927274797343
874.0, 0.0042428711405824585
875.0, 0.004938665134682129
876.0, 0.004891965662342275
877.0, 0.005457624358190484
878.0, 0.005950705491558363
879.0, 0.006235947683915345
880.0, 0.006292366452582677
881.0, 0.006240834227020022
882.0, 0.006595616175016648
883.0, 0.006919043125441459
884.0, 0.007149511283686894
885.0, 0.007427529671662277
886.0, 0.007226234912946935
887.0, 0.007439431878659281
888.0, 0.007853579270545474
889.0, 0.008279956060384836
890.0, 0.00853237781969064
891.0, 0.0095715192334161
892.0, 0.010516393705825286
893.0, 0.011001766890002469
894.0, 0.011048655203443615
895.0, 0.012447820963034683
896.0, 0.01330071819334266
897.0, 0.014312050739966099
898.0, 0.015401974917334952
899.0, 0.016257822231820568
900.0, 0.017950402952378014
901.0, 0.019755345670515668
902.0, 0.021708651841473456
903.0, 0.023506212288419964
904.0, 0.024415930007245696
905.0, 0.02749303138529173
906.0, 0.03130250556748333
907.0, 0.03503020826528736
908.0, 0.038531300328876784
909.0, 0.04330952310700591
910.0, 0.04945862307307524
911.0, 0.055474595708674294
912.0, 0.061225033326373586
913.0, 0.06688430193742127
914.0, 0.0732407523886693
915.0, 0.07499483954323523
916.0, 0.07567487958189885
917.0, 0.07549541014788051
918.0, 0.07358743687757893
919.0, 0.07097675125586358
920.0, 0.06688958900994231
921.0, 0.06358026386801359
922.0, 0.06126695947276604
923.0, 0.05840149658803964
924.0, 0.05708501618527402
925.0, 0.055721561052510964
926.0, 0.055197240009779144
927.0, 0.055908823422185235
928.0, 0.05736481826002497
929.0, 0.05948896975611745
930.0, 0.062203573352469885
931.0, 0.06584165307001834
932.0, 0.07045684186261576
933.0, 0.07501070516262084
934.0, 0.08354293512605797
935.0, 0.09123359349398319
936.0, 0.10067748179271349
937.0, 0.11517418021858263
938.0, 0.1292120948043802
939.0, 0.1468977990798496
940.0, 0.16952748230216902
941.0, 0.1977545718305601
942.0, 0.23185314357749892
943.0, 0.27672470129483484
944.0, 0.33795887107972267
945.0, 0.41660319164551013
946.0, 0.5116862042188477
947.0, 0.6198943237248826
948.0, 0.744565498925668
949.0, 0.8596287518521014
950.0, 0.9490018596590082
951.0, 0.9949098634777467
952.0, 0.9705551432755711
953.0, 0.8847508957103952
954.0, 0.786408631996384
955.0, 0.6799848354095896
956.0, 0.5713453688321736
957.0, 0.47721134571920576
958.0, 0.39924799801001915
959.0, 0.33685263596304027
960.0, 0.28499708687780917
961.0, 0.23991482375917517
962.0, 0.2079248841244394
963.0, 0.18400654354889512
964.0, 0.16353321686988456
965.0, 0.14610151700895982
966.0, 0.13186034262619867
967.0, 0.12039259162498582
968.0, 0.11168828671738161
969.0, 0.10478709348484562
970.0, 0.09848448549468747
971.0, 0.0916145913967005
972.0, 0.08569839503523025
973.0, 0.08020109925775494
974.0, 0.07441690325662367
975.0, 0.06832015547090599
976.0, 0.06224974014859495
977.0, 0.057229682663935307
978.0, 0.05243817828418448
979.0, 0.04816800741920626
980.0, 0.04441428676414721
981.0, 0.040981698963604936
982.0, 0.038940218277314455
983.0, 0.0366247324847506
984.0, 0.035460965974184584
985.0, 0.03517998391813836
986.0, 0.03401028765484468
987.0, 0.0336189004058632
988.0, 0.03438013031326856
989.0, 0.034740348562005474
990.0, 0.03421320005350247
991.0, 0.03347736628096092
992.0, 0.03413855225739781
993.0, 0.03383265047691783
994.0, 0.03349077661118387
995.0, 0.033117553016255005
996.0, 0.03133836507494521
997.0, 0.029366580876351057
998.0, 0.027675178163682243
999.0, 0.026534671743742345
1000.0, 0.02554685912115088
1001.0, 0.02321273596530292
1002.0, 0.022414150057207382
1003.0, 0.02116903686107118
1004.0, 0.01966126852101826
1005.0, 0.01847694821448093
1006.0, 0.018805599778380463
1007.0, 0.0172468328867747
1008.0, 0.0173258695677672
1009.0, 0.017881971759980596
1010.0, 0.01803016747402361
1011.0, 0.01795128654206694
1012.0, 0.017968427876102932
1013.0, 0.01810894293565389
1014.0, 0.017765235584579955
1015.0, 0.0172259127917696
1016.0, 0.018753168545070063
1017.0, 0.018406707818266484
1018.0, 0.01864617240064037
1019.0, 0.01957821077867693
1020.0, 0.020873883583336878
1021.0, 0.021681847532944196
1022.0, 0.022863697330884687
1023.0, 0.023985923641642017
1024.0, 0.025337281869034327
1025.0, 0.02693576253082337
1026.0, 0.02816094917877334
1027.0, 0.02862702298279011
1028.0, 0.0295580072783139
1029.0, 0.029601668420465892
1030.0, 0.028170732435581183
1031.0, 0.02633727867794462
1032.0, 0.024777521203741402
1033.0, 0.024050773004109002
1034.0, 0.022891737788967588
1035.0, 0.021092009101944486
1036.0, 0.020409000485606343
1037.0, 0.019878163795696697
1038.0, 0.02014360328331207
1039.0, 0.020995260114499297
1040.0, 0.022031659617945114
1041.0, 0.022630664245061313
1042.0, 0.024223267669676092
1043.0, 0.02534315016670267
1044.0, 0.025638806321843736
1045.0, 0.025548190685595867
1046.0, 0.02644646731738309
1047.0, 0.025870462880435395
1048.0, 0.026164824061783238
1049.0, 0.025635596609364972
1050.0, 0.02492403787515472
1051.0, 0.027057723602390036
1052.0, 0.027675634461797965
1053.0, 0.028217088630336565
1054.0, 0.029405937715560347
1055.0, 0.03141957627388094
1056.0, 0.03394400140533787
1057.0, 0.03594666183809677
1058.0, 0.038144486943644175
1059.0, 0.04137813983333609
1060.0, 0.04519676393116984
1061.0, 0.048450154504748835
1062.0, 0.0521027088649208
1063.0, 0.05709977301723621
1064.0, 0.061463458756030445
1065.0, 0.06587406949942023
1066.0, 0.07179615251251034
1067.0, 0.0766050073588236
1068.0, 0.07903361523085944
1069.0, 0.08186291559568787
1070.0, 0.08485514096060265
1071.0, 0.0867309531678206
1072.0, 0.08584058515222473
1073.0, 0.08319163322830381
1074.0, 0.08110444175145172
1075.0, 0.07757262429364117
1076.0, 0.07128009221533782
1077.0, 0.06676354605902801
1078.0, 0.06279482336144236
1079.0, 0.057370963169213356
1080.0, 0.051920215065963206
1081.0, 0.04728862698008253
1082.0, 0.04176903337811421
1083.0, 0.03829315371996697
1084.0, 0.034379573247744266
1085.0, 0.03063677818431563
1086.0, 0.027385675597457172
1087.0, 0.024169205262068255
1088.0, 0.023014392856877817
1089.0, 0.020991800799406473
1090.0, 0.018913160388071597
1091.0, 0.017034888205572023
1092.0, 0.01501270830476101
1093.0, 0.013398429480021084
1094.0, 0.013438976365890433
1095.0, 0.012315788649831442
1096.0, 0.010312042078108463
1097.0, 0.009424411046944227
1098.0, 0.010049162319419455
1099.0, 0.008890897827926033
1100.0, 0.0078071227708122505
1101.0, 0.007228638320139371
1102.0, 0.006951787784000085
1103.0, 0.006075263205226256
1104.0, 0.005804220590483397
1105.0, 0.004890368670113554
1106.0, 0.004485695276993671
1107.0, 0.004989085445140431
1108.0, 0.003619907774995751
1109.0, 0.004184395788537478
1110.0, 0.0039989958484897
1111.0, 0.0031515984762778603
1112.0, 0.002155553378271482
1113.0, 0.0017740508757727134
1114.0, 0.001678412271567758
1115.0, 0.0015085461808807096
1116.0, 0.0013312019471424113
1117.0, 0.0014813930591658397
1118.0, 0.002275311820916707
1119.0, 0.0006753374259673617
1120.0, 0.0008885442379441223
1121.0, 0.0018077179539402685
1122.0, 0.0026451574400673666
1123.0, 0.0027894807722694866
1124.0, 0.0018727599726942703
1125.0, 0.0015116952574458415
1126.0, 0.0012941914640771058
1127.0, 0.000806587070965097
1128.0, 0.00018213602675155535
1129.0, 0.000941247066990725
1130.0, 0.0009062265610892771
1131.0, 0.00037911607577022335
1132.0, 2.0701956348856024e-05
1133.0, 0.0001224828133670705
1134.0, 0.0004637729404917131
1135.0, 0.0003806329043407382
1136.0, 0.0001974593764774566
1137.0, 0.00017284637365473881
1138.0, 0.0004684441556343769
1139.0, 0.0010082917577813135
1140.0, 0.00032242649369781126
1141.0, 0.0005681301892548884
1142.0, 0.0003755420438325685
1143.0, 0.00022276372420360942
1144.0, 0.0006750178005854984
1145.0, 0.0010213105053760118
1146.0, 0.0008420531893478637
1147.0, 0.0006790428413511166
1148.0, 0.0006297367158571842
1149.0, 0.0005915408163002531
1150.0, 0.0002672769251168042
1151.0, 0.0004113863684545116
1152.0, 0.0003695376743583235
1153.0, 0.0003904673874162454
1154.0, 0.000396414770630367
1155.0, 0.00020136985088238367
1156.0, 0.0003753963010751572
1157.0, 0.00020863094946166815
1158.0, 0.00023318335991235963
1159.0, 0.0003483207187011942
1160.0, 0.00035787376522604267
1161.0, 0.00024482876721316913
1162.0, 0.0003362086091084829
1163.0, 0.0002930592549570926
1164.0, 0.00025162157395939113
1165.0, 0.00038040555939608577
1166.0, 0.000795017808592268
1167.0, 0.0006205429318142269
1168.0, 0.0005802603687027065
1169.0, 0.0004989928312570671
1170.0, 0.0003483039660339537
1171.0, 0.00018821830900934584
1172.0, 0.00016988801809854232
1173.0, 4.7320569033814535e-05
1174.0, 9.801857371902949e-05
1175.0, 0.00014528742181693812
1176.0, 0.00017560825382169327
1177.0, 0.0005742518510438776
1178.0, 0.0003714682899509699
1179.0, 0.00039135694817166915
1180.0, 0.00024308077022734172
1181.0, 9.659577623117773e-05
1182.0, 0.00039512247605347597
1183.0, 0.0006513996773747017
1184.0, 0.0006201746488205259
1185.0, 0.00045762406971053596
1186.0, 0.00035175088626595663
1187.0, 0.0004392429886109615
1188.0, 0.0007142900352300001
1189.0, 0.0009344641849538565
1190.0, 0.0006773516295365601
1191.0, 0.00045216995334411463
1192.0, 0.0003862826191053726
1193.0, 0.0002538496286490342
1194.0, 0.00011580790980514883
1195.0, 0.0003158180857983834
1196.0, 0.0006232846574312753
1197.0, 0.0006183878475047323
1198.0, 0.0002793405784610104
1199.0, 0.0007893079216960858
1200.0, 0.0007952057388764552
1201.0, 0.0011264910022804116
1202.0, 0.0007990114257322039
1203.0, 0.00015381704693097348
1204.0, 0.0006062014656180775
1205.0, 0.0007500655045977954
1206.0, 0.0011259033321125503
1207.0, 0.001239297199338441
1208.0, 0.0009428588890768145
1209.0, 0.0005481774699134558
1210.0, 0.0012587151880420922
1211.0, 0.0008470717152891874
1212.0, 0.0012129784427102387
1213.0, 0.0009720702562775667
1214.0, 0.00019838457987571994
1215.0, 0.00020646294978744704
1216.0, 0.00022453056400579435
1217.0, 0.00014427194298214033
1218.0, 0.0005096400302541926
1219.0, 0.0010161563772950806
1220.0, 0.0011916177561624298
1221.0, 0.0007378251477881863
1222.0, 0.0005703743487526967
1223.0, 0.00034540539358898553
1224.0, 0.0005709445707911593
1225.0, 0.000855212821965042
1226.0, 0.0004739204123450724
1227.0, 0.0009775667366788278
1228.0, 0.0003040907205823705
1229.0, 0.00022400029201716446
1230.0, 0.00030366111066421455
1231.0, 0.000214485009196297
1232.0, 0.0005397119247402695
1233.0, 0.0002023868363609558
1234.0, 0.00018550146583776983
1235.0, 0.0006770064773377822
1236.0, 0.0008887659955142483
1237.0, 0.00011772172444234562
1238.0, 2.3388211945984106e-05
1239.0, 0.0006970754215391072
1240.0, 0.0005852685733226695
1241.0, 0.00038525821888000215
1242.0, 0.00040873885675386063
1243.0, 0.0002716050403056106
1244.0, 0.00037772717563119796
1245.0, 0.00047169053958338387
1246.0, 0.00046104842076589265
1247.0, 0.0004443848118641335
1248.0, 0.00043657040848990895
1249.0, 0.0001165101004953564
1250.0, 0.0005059870490144114
1251.0, 0.0006230232517778502
1252.0, 0.0007672264220686571
1253.0, 0.0007247138455531892
1254.0, 0.00021092686436691963
1255.0, 0.000539287720967201
1256.0, 0.00040663096906157475
1257.0, 0.0005380865726397895
1258.0, 0.0009305872991417384
1259.0, 0.0010839687978127636
1260.0, 0.00021492398916429198
1261.0, 0.00012416809501774272
1262.0, 0.0006021272074171294
1263.0, 0.0011791701000843104
1264.0, 0.0013645724300273712
1265.0, 0.0009062780531705686
1266.0, 0.00010025393169601018
1267.0, 9.700347964898483e-05
1268.0, 0.0002964086615672015
1269.0, 0.0006026976204320567
1270.0, 0.0007127652528976073
1271.0, 0.000401842837535858
1272.0, 0.0003240491937634376
1273.0, 0.00021969753695278145
1274.0, 0.00022008629979444486
1275.0, 0.00016130085825708423
1276.0, 0.00014449427205710653
1277.0, 0.00047535988996379717
1278.0, 0.00048286872516553744
1279.0, 0.0006162695316376886
1280.0, 0.0006633825452066197
1281.0, 0.0006890124441877197
1282.0, 0.0007192782255864078
1283.0, 0.0006201203156469012
1284.0, 0.0008848068727876066
1285.0, 0.0007693163178972217
1286.0, 0.00043154648185819944
1287.0, 0.0003542596186030648
1288.0, 0.0006850560932029389
1289.0, 0.0003867277430034486
1290.0, 0.0011095138128120407
1291.0, 0.0010937467367114942
1292.0, 0.0007290698942042579
1293.0, 0.0006190037042180407
1294.0, 0.001012165121816956
1295.0, 0.0004538099894680546
1296.0, 0.0003871552678529966
1297.0, 0.00040480911898179876
1298.0, 0.0006294565295206358
1299.0, 0.0008518193564012913
1300.0, 0.0006573364768190867
1301.0, 0.0005431270724183309
1302.0, 0.0005896777171402964
1303.0, 0.0005338525368518458
1304.0, 0.0005001518982775337
1305.0, 0.0006065967422920883
1306.0, 0.0008478881339410272
1307.0, 0.0009944044033133106
1308.0, 0.0009895403403091744
1309.0, 0.0006566196211607662
1310.0, 0.000439894560933165
1311.0, 0.0006106966901554891
1312.0, 0.0008445733594996018
1313.0, 0.00017232661524116914
1314.0, 0.0003461866539161926
1315.0, 0.00044913090074946287
1316.0, 0.0004990837860162288
1317.0, 0.0006622284516101175
1318.0, 0.0006716054158378389
1319.0, 0.00016898524916176782
1320.0, 0.00040284078337306294
1321.0, 0.0002945661058558162
1322.0, 0.0003507493358687045
1323.0, 0.001008344513496601
1324.0, 0.0005424436941518474
1325.0, 0.0009493351269165224
1326.0, 0.0009268960796435888
1327.0, 0.0005942034098109563
1328.0, 0.0005354537220113438
1329.0, 0.0011661663412106745
1330.0, 0.001699544111090463
1331.0, 0.0008857205856559749
1332.0, 0.0008604304047494973
1333.0, 0.0005794640184619012
1334.0, 0.0002571048593843394
1335.0, 0.0005654551441451669
1336.0, 0.00037767861765713204
1337.0, 0.0010776097857339321
1338.0, 0.0009014023713828996
1339.0, 0.000708043837073865
1340.0, 0.0007469728063434662
1341.0, 0.0007938923512906711
1342.0, 0.001200585081758233
1343.0, 0.0009642204777721447
1344.0, 0.0009250448295025323
1345.0, 0.0006615942006055469
1346.0, 0.0006385965554875591
1347.0, 0.0015679118604609167
1348.0, 0.0020151286805195575
1349.0, 0.0010311843044572356
1350.0, 0.0009684417913186672
1351.0, 0.0009019486224188761
1352.0, 0.0004639945800944575
1353.0, 0.00020429757219537744
1354.0, 0.0015936409965049527
1355.0, 0.0013543108705248135
1356.0, 0.0017380884871611452
1357.0, 0.0019565569482366566
1358.0, 0.0016353522170291606
1359.0, 0.0011907342211104057
1360.0, 0.0019509129068295437
1361.0, 0.0017868842164228014
1362.0, 0.001848347496576542
1363.0, 0.0019608132549746474
1364.0, 0.0020359534980221687
1365.0, 0.0020912628634148713
1366.0, 0.0019368365972294772
1367.0, 0.0015417452517220323
1368.0, 0.0015333800200219973
1369.0, 0.0011691828644988032
1370.0, 0.0008992586416089747
1371.0, 0.001436211364431943
1372.0, 0.001339702344472175
1373.0, 0.0021084812406019066
1374.0, 0.002026032711079007
1375.0, 0.001793570825102142
1376.0, 0.0013880531720935649
1377.0, 0.0006881169481711856
1378.0, 0.0008551582172980997
1379.0, 0.002030300068898293
1380.0, 0.0012359332366088513
1381.0, 0.0013653085815550487
1382.0, 0.00181974139872711
1383.0, 0.0012789330413549428
1384.0, 0.0014863221952327113
1385.0, 0.0012986802896299869
1386.0, 0.0009267464346500779
1387.0, 0.0011259694172557665
1388.0, 0.0012586868890804724
1389.0, 0.0010625842257132134
1390.0, 0.0020456916340335354
1391.0, 0.0016358984643209038
1392.0, 0.0011860827375120772
1393.0, 0.0013016066030279293
1394.0, 0.0013811112396703755
1395.0, 0.0013046648553457622
1396.0, 0.00210927383600314
1397.0, 0.0019191505945878034
1398.0, 0.001588842780966392
1399.0, 0.001136842736946095
1400.0, 0.0009041816660866127
1401.0, 0.0010392993823776558
1402.0, 0.0012648383463758337
1403.0, 0.0005930236301938434
1404.0, 0.0004722619682849417
1405.0, 0.0012751623601061253
1406.0, 0.0015404918395714412
1407.0, 0.000959202599111867
1408.0, 0.0006732827056454603
1409.0, 0.0022508214994188813
1410.0, 0.0015705608592085122
1411.0, 0.0010983169873799064
1412.0, 0.0007330320872257929
1413.0, 0.0009963369809881041
1414.0, 0.002120567083759864
1415.0, 0.0019689760807267754
1416.0, 0.0023197685900959776
1417.0, 0.002301208879303824
1418.0, 0.002149617213116601
1419.0, 0.0016690462879641321
1420.0, 0.0011014818709774575
1421.0, 0.0017308898708218077
1422.0, 0.0008748634044000207
1423.0, 0.0011096415471764875
1424.0, 0.001352934843975319
1425.0, 0.0011993672753318175
1426.0, 0.0008525462113947004
1427.0, 0.0008490891776630501
1428.0, 0.00041627362280689226
1429.0, 9.456970849433976e-05
1430.0, 0.00030026085225968714
1431.0, 0.000414675746178023
1432.0, 0.0003898848072760604
1433.0, 0.0006443294710378976
1434.0, 0.0008401383099166357
1435.0, 0.0010163823432740257
1436.0, 0.0011301632261031085
1437.0, 0.0012183639614418162
1438.0, 0.0012686210578112883
1439.0, 0.0012618063975542795
1440.0, 0.0012352535341821794
1441.0, 0.0013914281831177962
1442.0, 0.0013285093713818607
1443.0, 0.0014963915690750708
1444.0, 0.0015330397892235014
1445.0, 0.0012417443109036797
1446.0, 0.001043907466692243
1447.0, 0.0016485056772148573
1448.0, 0.001661887592084528
1449.0, 0.0013883924952665767
1450.0, 0.0012881924913022353
1451.0, 0.0015752090215151945
1452.0, 0.0019895717084536077
1453.0, 0.0015197878103082583
1454.0, 0.0018642243165591208
1455.0, 0.0010215040774808433
1456.0, 0.0014903168513248186
1457.0, 0.0024446056575063864
1458.0, 0.002377297357463024
1459.0, 0.0016657368697764496
1460.0, 0.0011724251050655443
1461.0, 0.000799538610023615
1462.0, 0.0008200204100555252
1463.0, 0.001527928927086018
1464.0, 0.0017528711239137799
1465.0, 0.0003039514565852351
1466.0, 0.0021151594858850147
1467.0, 0.001178208985777004
1468.0, 0.0009395936303425186
1469.0, 0.0016597651675485043
1470.0, 0.0022012315548326274
1471.0, 0.0014973127122493166
1472.0, 5.4537027811062165e-05
1473.0, 0.000585813525069877
1474.0, 0.0003456000425509955
1475.0, 0.0005156936763208081
1476.0, 0.001032302842439183
1477.0, 0.0013809951272338971
1478.0, 0.001213364294426311
1479.0, 0.0013782112902912687
1480.0, 0.0012115464394199587
1481.0, 0.001078593347691501
1482.0, 0.0009709404557196323
1483.0, 0.0008081568217118114
1484.0, 0.0008574103684208903
1485.0, 0.0018943354741155593
1486.0, 0.0012287988789711948
1487.0, 0.0015193073430842471
1488.0, 0.001765948879249974
1489.0, 0.0018340005318827068
1490.0, 0.0014013717994669395
1491.0, 0.0004023368513900602
1492.0, 0.0012406147488343913
1493.0, 0.0008312832957300573
1494.0, 0.001162354718976433
1495.0, 0.0012512774723612314
1496.0, 0.000858725636236957
1497.0, 0.0005229038815080972
1498.0, 0.0010583612126683648
1499.0, 0.0010190953802840844
1500.0, 0.0006362383197717021
1501.0, 0.0002998428941890541
1502.0, 0.0005042602237981999
1503.0, 0.0008650071843456472
1504.0, 0.0006342776925652786
1505.0, 3.221333086647724e-05
1506.0, 0.0009656110773565512
1507.0, 0.0005879045340700256
1508.0, 0.0006658656002704884
1509.0, 0.0008920623551347816
1510.0, 0.0006625660223222791
1511.0, 0.00019964259926604833
1512.0, 0.001124110788838318
1513.0, 0.0007655237146013551
1514.0, 0.0006930702694176339
1515.0, 0.00037828497803244534
1516.0, 0.00010818558940779095
1517.0, 0.00037419130576323825
1518.0, 0.0009687471627755564
1519.0, 0.0006937645991447703
1520.0, 0.0008298064946516723
1521.0, 0.001064367674650874
1522.0, 0.0006415911186257734
1523, 0.0
1524, 0.0
1525, 0.0
1526, 0.0
1527, 0.0
1528, 0.0
1529, 0.0
1530, 0.0
1531, 0.0
1532, 0.0
1533, 0.0
1534, 0.0
1535, 0.0
1536, 0.0
1537, 0.0
1538, 0.0
1539, 0.0
1540, 0.0
1541, 0.0
1542, 0.0
1543, 0.0
1544, 0.0
1545, 0.0
1546, 0.0
1547, 0.0
1548, 0.0
1549, 0.0
1550, 0.0
1551, 0.0
1552, 0.0
1553, 0.0
1554, 0.0
1555, 0.0
1556, 0.0
1557, 0.0
1558, 0.0
1559, 0.0
1560, 0.0
1561, 0.0
1562, 0.0
1563, 0.0
1564, 0.0
1565, 0.0
1566, 0.0
1567, 0.0
1568, 0.0
1569, 0.0
1570, 0.0
1571, 0.0
1572, 0.0
1573, 0.0
1574, 0.0
1575, 0.0
1576, 0.0
1577, 0.0
1578, 0.0
1579, 0.0
1580, 0.0
1581, 0.0
1582, 0.0
1583, 0.0
1584, 0.0
1585, 0.0
1586, 0.0
1587, 0.0
1588, 0.0
1589, 0.0
1590, 0.0
1591, 0.0
1592, 0.0
1593, 0.0
1594, 0.0
1595, 0.0
1596, 0.0
1597, 0.0
1598, 0.0
1599, 0.0
