30, 0.0
31, 0.0
32, 0.0
33, 0.0
34, 0.0
35, 0.0
36, 0.0
37, 0.0
38, 0.0
39, 0.0
40, 0.0
41, 0.0
42, 0.0
43, 0.0
44, 0.0
45, 0.0
46, 0.0
47, 0.0
48, 0.0
49, 0.0
50, 0.0
51, 0.0
52, 0.0
53, 0.0
54, 0.0
55, 0.0
56, 0.0
57, 0.0
58, 0.0
59, 0.0
60, 0.0
61, 0.0
62, 0.0
63, 0.0
64, 0.0
65, 0.0
66, 0.0
67, 0.0
68, 0.0
69, 0.0
70, 0.0
71, 0.0
72, 0.0
73, 0.0
74, 0.0
75, 0.0
76, 0.0
77, 0.0
78, 0.0
79, 0.0
80.0, 4.6293181555626746e-05
81.0, 0.0001215905847260765
82.0, 0.00017134481310468225
83.0, 0.0003770671329279321
84.0, 0.00040445123738968127
85.0, 7.899561110442645e-05
86.0, 0.0015685892827708822
87.0, 0.002187940049573686
88.0, 0.0025080250445318696
89.0, 0.004020385273141416
90.0, 0.006098760616470625
91.0, 0.008762051349331602
92.0, 0.012074499793109051
93.0, 0.015914146257324988
94.0, 0.02152889276302116
95.0, 0.029245927371515865
96.0, 0.04039654458274841
97.0, 0.05459750533283926
98.0, 0.07250630657173761
99.0, 0.0943834431720271
100.0, 0.11786371058462963
101.0, 0.14462043869752825
102.0, 0.16733649987142368
103.0, 0.1744059500623878
104.0, 0.1563537642446454
105.0, 0.12976027524967862
106.0, 0.0981054212935828
107.0, 0.06895262393225832
108.0, 0.048172089262586155
109.0, 0.03309413698686438
110.0, 0.022744659274130614
111.0, 0.016725338671939594
112.0, 0.013033465024877563
113.0, 0.011178230252532105
114.0, 0.009925473384873384
115.0, 0.008997647914286939
116.0, 0.007889354129935341
117.0, 0.006254460474436473
118.0, 0.005938889258923822
119.0, 0.005843905231052188
120.0, 0.0056749213776020975
121.0, 0.004626877525851342
122.0, 0.0049220060605989465
123.0, 0.005533348541042498
124.0, 0.006089830357004727
125.0, 0.005754027325365905
126.0, 0.005377549906295029
127.0, 0.005384914899188682
128.0, 0.006669065824626283
129.0, 0.008407684205351219
130.0, 0.00958833015708484
131.0, 0.01020384274987446
132.0, 0.012749566732709494
133.0, 0.014885935666432438
134.0, 0.017697176141834466
135.0, 0.022472615880562
136.0, 0.027560678688000505
137.0, 0.03476028986112251
138.0, 0.04369197610274224
139.0, 0.05193244609769745
140.0, 0.062292935843704475
141.0, 0.07192280085246351
142.0, 0.07914988080238633
143.0, 0.08645809772321605
144.0, 0.0907400790752655
145.0, 0.092352044212379
146.0, 0.09158740832077862
147.0, 0.08766740508925076
148.0, 0.0807433206810979
149.0, 0.07066892456172533
150.0, 0.05738996712993766
151.0, 0.046636280541607567
152.0, 0.03786848564032155
153.0, 0.030967749020830736
154.0, 0.026048347358732907
155.0, 0.022252336322243983
156.0, 0.01951227101525984
157.0, 0.018115158725337
158.0, 0.017371992979350496
159.0, 0.017165541301299173
160.0, 0.01750771015009839
161.0, 0.01958963367860255
162.0, 0.02258091897922654
163.0, 0.026399946062294313
164.0, 0.031088073670650983
165.0, 0.03813185805406604
166.0, 0.044829121919655886
167.0, 0.05091957863750284
168.0, 0.06133796383593191
169.0, 0.07284806472848479
170.0, 0.08552827541756207
171.0, 0.09972428977364613
172.0, 0.10820444376232434
173.0, 0.10942305047989628
174.0, 0.10337548846691468
175.0, 0.08918958970849482
176.0, 0.0749201872296697
177.0, 0.06232165061862385
178.0, 0.052352938199302645
179.0, 0.04808556067126226
180.0, 0.04461460536310699
181.0, 0.04193145095188991
182.0, 0.0402178702072487
183.0, 0.03794469415061294
184.0, 0.0342380980782317
185.0, 0.029485851936495007
186.0, 0.02662866921368656
187.0, 0.022760712530579836
188.0, 0.01976521549864067
189.0, 0.018832004115813445
190.0, 0.01880313410359951
191.0, 0.019853612643978884
192.0, 0.02227494754279822
193.0, 0.026955619852733512
194.0, 0.031148697270247574
195.0, 0.03831939809687688
196.0, 0.04875838956556457
197.0, 0.058795845212332734
198.0, 0.07041119741836706
199.0, 0.0803899472313415
200.0, 0.08618106801428913
201.0, 0.08777774134501737
202.0, 0.08369520795325337
203.0, 0.07574846939213267
204.0, 0.06750114249574268
205.0, 0.060862221807881735
206.0, 0.054630305746061536
207.0, 0.048476335056943744
208.0, 0.04189689363982165
209.0, 0.03766797081531619
210.0, 0.03374561042199738
211.0, 0.028599614751038945
212.0, 0.02498858296660394
213.0, 0.0211366414803889
214.0, 0.017480050365237827
215.0, 0.015280572991001287
216.0, 0.012857398993869975
217.0, 0.010454186797175396
218.0, 0.008226219678659346
219.0, 0.007014412807538866
220.0, 0.005834289945268466
221.0, 0.005192187006921823
222.0, 0.005543629453963338
223.0, 0.005135498775582718
224.0, 0.005042831426549053
225.0, 0.005102082789174179
226.0, 0.004914648783062941
227.0, 0.004896065010163735
228.0, 0.00480964140944902
229.0, 0.004665944760924327
230.0, 0.00490363158300179
231.0, 0.005305139164678259
232.0, 0.0055661317941131565
233.0, 0.005482452341886519
234.0, 0.0066982500497246
235.0, 0.007767404244417051
236.0, 0.008801074854358902
237.0, 0.010006911300422005
238.0, 0.013308256995708218
239.0, 0.01556784614772693
240.0, 0.016877737296152124
241.0, 0.020172715835434927
242.0, 0.02444844337568242
243.0, 0.029235396235867253
244.0, 0.03438898729767773
245.0, 0.040847355325160366
246.0, 0.04639043788176009
247.0, 0.05223353696540466
248.0, 0.05995640512786011
249.0, 0.0591039256089569
250.0, 0.05680919484092273
251.0, 0.05313871189225319
252.0, 0.04591061456554877
253.0, 0.03831057088834418
254.0, 0.03145276340704018
255.0, 0.025681637552078886
256.0, 0.020656443589517213
257.0, 0.0181863104715508
258.0, 0.016546868009724613
259.0, 0.014509271452877746
260.0, 0.014968287511655076
261.0, 0.014280785346052607
262.0, 0.013151058480924462
263.0, 0.013065296114401265
264.0, 0.013086020415548542
265.0, 0.012324448790027998
266.0, 0.011061864308392289
267.0, 0.01143900894243176
268.0, 0.010673932851792873
269.0, 0.01045340177976935
270.0, 0.011417916185612454
271.0, 0.01079561354659393
272.0, 0.009485495061517333
273.0, 0.008285428666063625
274.0, 0.008040621101188325
275.0, 0.009292486886967854
276.0, 0.010160672466803819
277.0, 0.010802291014357476
278.0, 0.011819141771289688
279.0, 0.01362352251342652
280.0, 0.015551632419544475
281.0, 0.01782347427228974
282.0, 0.022558360805970838
283.0, 0.0265895021641134
284.0, 0.03004809462188339
285.0, 0.03293561942824864
286.0, 0.03480777648856966
287.0, 0.03444188168916446
288.0, 0.0325653254673977
289.0, 0.029746746508766582
290.0, 0.027688506166732546
291.0, 0.025108354310578146
292.0, 0.022505724048248556
293.0, 0.021233425064804516
294.0, 0.019859595400874928
295.0, 0.01926162230564168
296.0, 0.019619259146852544
297.0, 0.020965003149933964
298.0, 0.0207906634090801
299.0, 0.021197395749335043
300.0, 0.023015841078909065
301.0, 0.02420116463148276
302.0, 0.022864258673876297
303.0, 0.021343709723966577
304.0, 0.021712409299774034
305.0, 0.020795797858355176
306.0, 0.018959086363578282
307.0, 0.016904669823704664
308.0, 0.015875718721858723
309.0, 0.012869857109990035
310.0, 0.010994472177258557
311.0, 0.010200540096269516
312.0, 0.008815811173657637
313.0, 0.007189053214094178
314.0, 0.006035636046469672
315.0, 0.00543316689570117
316.0, 0.004064881172910349
317.0, 0.0033782158416233734
318.0, 0.002865754318794458
319.0, 0.0022417290555907824
320.0, 0.0015743947626289294
321.0, 0.001293309701638695
322.0, 0.0011757923317139657
323.0, 0.00098630289933605
324.0, 0.0010518325852295416
325.0, 0.0013873508344676197
326.0, 0.0015155183516020587
327.0, 0.0003937128356838905
328.0, 0.0005843146181975278
329.0, 0.0007727027203291222
330.0, 0.0009497932868148231
331.0, 0.001911460289123638
332.0, 0.0019907506470058533
333.0, 0.0021681610725584545
334.0, 0.002636439881826598
335.0, 0.0024047040372347154
336.0, 0.0028502439909294957
337.0, 0.0036692704378244348
338.0, 0.004661562248818596
339.0, 0.004296264218543994
340.0, 0.005075641772335344
341.0, 0.005626488328329075
342.0, 0.004558890961439058
343.0, 0.0058527361814208435
344.0, 0.006808574349500323
345.0, 0.006814983043135946
346.0, 0.0048661899276119846
347.0, 0.005277331771799285
348.0, 0.005491329475743355
349.0, 0.005354889749338615
350.0, 0.005230691766784224
351.0, 0.005537685067478033
352.0, 0.005189425612847646
353.0, 0.004556586233538237
354.0, 0.006723564698835751
355.0, 0.006643933102102284
356.0, 0.006457665667783504
357.0, 0.006963237484580803
358.0, 0.008112869998790436
359.0, 0.008593382968285714
360.0, 0.009076357271689593
361.0, 0.009924192311276978
362.0, 0.009727079942551205
363.0, 0.01007935558416127
364.0, 0.010534207345380206
365.0, 0.010667094713025852
366.0, 0.00993556196147373
367.0, 0.009767196018015558
368.0, 0.009214523033558391
369.0, 0.006754120093705624
370.0, 0.007379455749852619
371.0, 0.006552257015360196
372.0, 0.004706554862861496
373.0, 0.003625322525835002
374.0, 0.004164669514241926
375.0, 0.003755108339860002
376.0, 0.002560548532793042
377.0, 0.0025601731392188793
378.0, 0.0014502215077647818
379.0, 0.0009465406623270526
380.0, 0.001282618611873045
381.0, 0.0012677640460437884
382.0, 0.0006637804528313463
383.0, 0.0002918255196472964
384.0, 0.00040368833926426683
385.0, 0.00028311192324318737
386.0, 0.00018472439295917785
387.0, 0.0005807315699253525
388.0, 0.0016168586317750807
389.0, 0.0005645254892617379
390.0, 0.001397719939677622
391.0, 0.0020987612802849816
392.0, 0.0010989570306223762
393.0, 0.0010838249518773963
394.0, 0.001585643036486071
395.0, 0.001736912858048536
396.0, 0.0005493426466328344
397.0, 0.0014901382010611686
398.0, 0.0013166170515072708
399.0, 0.0009117700972996925
400.0, 0.0017565288240787955
401.0, 0.002180887869228322
402.0, 0.001549074738823797
403.0, 0.0006557312689087867
404.0, 0.0011871536963748127
405.0, 0.0008665809005678705
406.0, 0.0005504310128119441
407.0, 0.0005235657611884267
408.0, 0.0012816778213194933
409.0, 0.001022500817270649
410.0, 0.0008574382491154172
411.0, 0.001060179173408502
412.0, 0.0018934879738994241
413.0, 0.0007972557772485698
414.0, 0.00031159348463444194
415.0, 0.0007953035661907781
416.0, 0.0009663735620677244
417.0, 0.0010888111157317994
418.0, 0.00122105045132901
419.0, 0.0012565584708911174
420.0, 0.0004177393251760682
421.0, 0.0005312210850577777
422.0, 0.0007220613546885292
423.0, 0.0006874376632612188
424.0, 0.0008403562428343165
425.0, 0.0005090674457172169
426.0, 0.0005765411727501186
427.0, 0.0013796606169460897
428.0, 0.0015326999495185608
429.0, 0.0008598671954953542
430.0, 0.00025605312891172245
431.0, 0.0002763628533705594
432.0, 0.0011465239032326584
433.0, 0.0007066603021297632
434.0, 0.00031152792751526986
435.0, 0.0008627487447526538
436.0, 0.0004052669276481437
437.0, 0.00040544318592543213
438.0, 0.000839596133466439
439.0, 0.0016876586151124522
440.0, 0.001909238768229244
441.0, 0.0013871707733467428
442.0, 0.0013008805242966416
443.0, 0.002793647919359899
444.0, 0.0026276093039023928
445.0, 0.002406963072640422
446.0, 0.00263498996367033
447.0, 0.0038712475290820754
448.0, 0.004989716761471767
449.0, 0.00531520616840635
450.0, 0.005409955691987149
451.0, 0.005966369764150577
452.0, 0.007052328708812731
453.0, 0.008642534738478
454.0, 0.010197707785757668
455.0, 0.010996819705466928
456.0, 0.011898385670359042
457.0, 0.013710525887805297
458.0, 0.015745002772902493
459.0, 0.016969505771103836
460.0, 0.01799239434004585
461.0, 0.019414972917177132
462.0, 0.020510873252494066
463.0, 0.020099150128640487
464.0, 0.01963028993306386
465.0, 0.019111927472577513
466.0, 0.01792423873033664
467.0, 0.015041524898923145
468.0, 0.013994813742208248
469.0, 0.013077086861878112
470.0, 0.01156741688795153
471.0, 0.008440163336617835
472.0, 0.009914519588428138
473.0, 0.009190549483628411
474.0, 0.00739344669479537
475.0, 0.007194934025281738
476.0, 0.0075926567551754965
477.0, 0.008242323343872404
478.0, 0.009002634675123435
479.0, 0.009685445633891898
480.0, 0.010538868132970326
481.0, 0.010616408812861319
482.0, 0.010644670637798326
483.0, 0.011935158598789639
484.0, 0.013055550649186783
485.0, 0.014552395735092403
486.0, 0.01640805633199342
487.0, 0.018545146382355836
488.0, 0.02036193375123458
489.0, 0.02308720046689838
490.0, 0.026445831980307914
491.0, 0.02991412194610536
492.0, 0.033064966842636115
493.0, 0.03598393282212885
494.0, 0.038296518172582075
495.0, 0.03943826905852694
496.0, 0.03997074713402615
497.0, 0.03989192795440239
498.0, 0.039199233254085086
499.0, 0.03787572542205574
500.0, 0.034814913096288584
501.0, 0.03198673100013391
502.0, 0.02890438130793348
503.0, 0.024885607857163893
504.0, 0.02310573526122198
505.0, 0.021084297134908916
506.0, 0.018629385527949165
507.0, 0.01558601354424659
508.0, 0.015310151171540961
509.0, 0.014151707044794652
510.0, 0.013406979341425705
511.0, 0.014346900719117144
512.0, 0.012719037058983975
513.0, 0.012201815672802475
514.0, 0.011951081728287589
515.0, 0.01128832528826025
516.0, 0.012466007451807952
517.0, 0.01308848831499675
518.0, 0.013234066474888171
519.0, 0.013025001256864642
520.0, 0.013791481056943644
521.0, 0.014220087974388756
522.0, 0.014850073785567538
523.0, 0.015923749353521907
524.0, 0.01601862053884595
525.0, 0.017268153841635187
526.0, 0.018685804298687242
527.0, 0.019836226833071794
528.0, 0.02162703262551768
529.0, 0.024002148786689555
530.0, 0.02552163055242118
531.0, 0.026087624654736453
532.0, 0.0294544399805923
533.0, 0.032360055458793065
534.0, 0.03555087650496425
535.0, 0.03928414138184237
536.0, 0.043476489729447655
537.0, 0.048844357718312935
538.0, 0.054453192232373784
539.0, 0.06056681133785111
540.0, 0.06922979405663887
541.0, 0.07983182725786027
542.0, 0.08972138701660096
543.0, 0.09977125722299596
544.0, 0.11428617286771459
545.0, 0.12527233385684386
546.0, 0.13408505335737278
547.0, 0.14077312142317608
548.0, 0.14491790196119558
549.0, 0.14240884607489845
550.0, 0.13746238531737995
551.0, 0.12988947453231517
552.0, 0.11855052917379057
553.0, 0.10359482735165174
554.0, 0.09086378972504718
555.0, 0.08011589036391598
556.0, 0.07057429192754255
557.0, 0.06262961236952436
558.0, 0.054757961661666306
559.0, 0.04781438031804858
560.0, 0.04263306371553955
561.0, 0.03838935361578311
562.0, 0.03413235993838827
563.0, 0.03053217902504913
564.0, 0.028050983816555974
565.0, 0.026284948748449076
566.0, 0.022459873533792904
567.0, 0.019791610216942812
568.0, 0.01943840696306309
569.0, 0.017175947880617132
570.0, 0.01513285793939167
571.0, 0.013073235045818036
572.0, 0.011155283857915671
573.0, 0.010543581559990635
574.0, 0.009241410604330346
575.0, 0.008163339906157007
576.0, 0.007534390408119524
577.0, 0.007321289353646368
578.0, 0.00666552461698872
579.0, 0.006323724340252127
580.0, 0.006275544809532754
581.0, 0.006221583588004508
582.0, 0.006081267394391764
583.0, 0.006334487507871885
584.0, 0.006665606204256825
585.0, 0.006562077585682804
586.0, 0.007047118564752209
587.0, 0.007882262394234351
588.0, 0.008687251115320715
589.0, 0.009097797288215598
590.0, 0.009368731267740396
591.0, 0.009601442714351677
592.0, 0.01034230747132647
593.0, 0.01184486943517389
594.0, 0.012971097157508615
595.0, 0.014942724032325138
596.0, 0.015697143203997593
597.0, 0.014800243136850452
598.0, 0.014758605372949792
599.0, 0.0163302836644918
600.0, 0.017070691234520933
601.0, 0.016619349581089182
602.0, 0.015940236573569997
603.0, 0.016746430221856647
604.0, 0.017175339058370223
605.0, 0.01665772319958633
606.0, 0.014651082803376602
607.0, 0.015088491746396579
608.0, 0.016356847940011677
609.0, 0.016793787195678925
610.0, 0.014561025027464279
611.0, 0.016077882420554107
612.0, 0.01681829761788475
613.0, 0.017653968296810627
614.0, 0.019199291789848104
615.0, 0.020531093198091387
616.0, 0.02189366851409067
617.0, 0.023768461906654582
618.0, 0.02600737840482623
619.0, 0.026488257951299388
620.0, 0.027199635202954184
621.0, 0.029396112205246756
622.0, 0.03274964911560502
623.0, 0.035211553350921
624.0, 0.037460614884183806
625.0, 0.03926707071186663
626.0, 0.04203664508352268
627.0, 0.048245508448261164
628.0, 0.047714475999823966
629.0, 0.05002200929221859
630.0, 0.05429665737566434
631.0, 0.05895318405365241
632.0, 0.05862861320592071
633.0, 0.059266616786531175
634.0, 0.05895919066624855
635.0, 0.05725312845082986
636.0, 0.059701960602896224
637.0, 0.057305447074622054
638.0, 0.055200436111466
639.0, 0.05400527316231292
640.0, 0.04953826150722546
641.0, 0.048118036431478994
642.0, 0.04508424646670265
643.0, 0.04094503405588944
644.0, 0.03825104671993614
645.0, 0.03616999586150999
646.0, 0.034513361185885216
647.0, 0.032845635916006456
648.0, 0.030741132497327805
649.0, 0.029281594738619073
650.0, 0.027577476782782703
651.0, 0.026086270098642488
652.0, 0.02501283302046038
653.0, 0.023831542313763908
654.0, 0.022776804559578357
655.0, 0.02126987839558733
656.0, 0.019563764371666417
657.0, 0.019060756068148475
658.0, 0.017980911672392654
659.0, 0.01731811143563326
660.0, 0.016638539096869333
661.0, 0.01500042712118291
662.0, 0.014112784287349326
663.0, 0.014905068632688057
664.0, 0.015023134451430133
665.0, 0.012730131576176638
666.0, 0.013589747071953264
667.0, 0.013614115043140442
668.0, 0.013151642611901958
669.0, 0.01227165706758097
670.0, 0.010505451263260693
671.0, 0.010201756977643464
672.0, 0.010861916184290306
673.0, 0.011050616721658633
674.0, 0.007887094134797372
675.0, 0.00982257570497353
676.0, 0.009085259686273345
677.0, 0.00786568187621843
678.0, 0.009086687236509267
679.0, 0.008470900151745883
680.0, 0.007025548198606041
681.0, 0.0061706310877969045
682.0, 0.006473839742553495
683.0, 0.0064780871318499186
684.0, 0.006575866934287403
685.0, 0.0066761384295380335
686.0, 0.00673056503187699
687.0, 0.006680164390295039
688.0, 0.006526894162302776
689.0, 0.006109871165886228
690.0, 0.005512698393379035
691.0, 0.004837029821277915
692.0, 0.0030192435675215927
693.0, 0.004496756130752662
694.0, 0.0051477763860519
695.0, 0.003249001160496977
696.0, 0.003548848601364805
697.0, 0.0023335732654652334
698.0, 0.0025862215746611937
699.0, 0.0038010746933223923
700.0, 0.0027599772888217524
701.0, 0.0026885321143562007
702.0, 0.0020645716600543327
703.0, 0.0014219321200258774
704.0, 0.0014873544613589035
705.0, 0.0014784346010285605
706.0, 0.0016479799069490915
707.0, 0.0017541063152533268
708.0, 0.0017531252496472047
709.0, 0.00210122119874363
710.0, 0.001923234472883305
711.0, 0.001988313886006427
712.0, 0.002142615059186476
713.0, 0.0017107242423185054
714.0, 0.0019219486012972964
715.0, 0.0021932907845914305
716.0, 0.002321672606261954
717.0, 0.0021845945560870356
718.0, 0.0022693546711972474
719.0, 0.0020661756419491544
720.0, 0.0013703076911789356
721.0, 0.0004958293687133482
722.0, 0.0008926510922042169
723.0, 0.0013178304388070073
724.0, 0.0009395890625503467
725.0, 0.0006874897414216661
726.0, 0.00211829695342301
727.0, 0.0006935980757523303
728.0, 0.0016049027873303648
729.0, 0.002603474450016691
730.0, 0.002181682197827931
731.0, 0.0008602151237066506
732.0, 0.0005791135424816501
733.0, 0.0008801380856482573
734.0, 0.0011582834723413938
735.0, 0.00032181851532901836
736.0, 0.0011646263009658462
737.0, 0.0010984560101752025
738.0, 0.0007759784974192538
739.0, 0.0009632016319631117
740.0, 0.0007688671200257016
741.0, 0.0003363723478464284
742.0, 0.0003005007986709978
743.0, 0.000747133660094284
744.0, 0.0010698495440469892
745.0, 0.000537877975565397
746.0, 0.00028730399223811593
747.0, 0.0005179486193735959
748.0, 0.001234023144018051
749.0, 0.0008513057022866132
750.0, 0.0014743863482210911
751.0, 0.0016182495053148897
752.0, 0.0009105900907822779
753.0, 0.0016136508757398787
754.0, 0.0009015011389946437
755.0, 0.000931820590234706
756.0, 0.0014878021636163966
757.0, 0.0014651916208189785
758.0, 0.0008872212710304777
759.0, 0.001250410661310092
760.0, 0.0012326003963628828
761.0, 0.00030831827474797624
762.0, 0.0011950533701306477
763.0, 0.0018215871703123586
764.0, 0.0014263233173942087
765.0, 0.0008189761036353876
766.0, 0.0020211443664676964
767.0, 0.0005888567841653337
768.0, 5.372087766611163e-05
769.0, 0.0007521803712125965
770.0, 0.00231574677240988
771.0, 0.0008793277795893185
772.0, 0.0013396564456943617
773.0, 0.001054426204220876
774.0, 0.000248349926928419
775.0, 0.0012301356715396336
776.0, 0.0007028282598061223
777.0, 0.0010762085737877683
778.0, 0.0012147290923227266
779.0, 0.0003545645329653543
780.0, 0.0016972217339329845
781.0, 0.0008835183330051704
782.0, 0.0001634809800400885
783.0, 0.00012016904718122064
784.0, 0.0004092911296694579
785.0, 0.0014137999880680558
786.0, 0.0008771797771729462
787.0, 0.00032032166231482
788.0, 0.0010467406679335464
789.0, 0.001417225905383703
790.0, 0.0010415200772260636
791.0, 0.0007888860930528825
792.0, 0.0007116997611783015
793.0, 0.00029820502563345446
794.0, 0.0011149659327822845
795.0, 0.0011039309989324326
796.0, 0.0007415884154930964
797.0, 0.0006331996644183175
798.0, 0.001497435139712855
799.0, 0.0006842558491653403
800.0, 0.00023910139336301742
801.0, 0.0004644131666455829
802.0, 0.0007461652906558997
803.0, 0.0009609289579495012
804.0, 0.0005189713098113511
805.0, 0.00013957285353095894
806.0, 0.0002850904267955032
807.0, 0.00029936813955821866
808.0, 0.00034029704241978387
809.0, 0.0004433245609991838
810.0, 0.00048408198046956787
811.0, 0.0002389453148675856
812.0, 0.0001752259003233876
813.0, 0.000829725071284514
814.0, 0.0011292866171643797
815.0, 0.0007829416197338913
816.0, 0.0016404836439726511
817.0, 0.001068733952216903
818.0, 0.0009982405122107908
819.0, 0.001134286600956025
820.0, 0.0006144338546534225
821.0, 0.0007857884455739722
822.0, 0.0011711882612128704
823.0, 0.001694985341610991
824.0, 0.0018768013033254663
825.0, 0.0002448112755948762
826.0, 0.00019198076953323267
827.0, 0.00021148446044501503
828.0, 0.0003891973211187463
829.0, 0.0009915901426723094
830.0, 0.0020497360013069627
831.0, 0.001289666008022333
832.0, 0.0005730901166565948
833.0, 0.0004911674628599722
834.0, 0.0008690352742816056
835.0, 0.0022180355881483652
836.0, 0.0020802533715347576
837.0, 0.0012951433559692616
838.0, 0.0007884371859953529
839.0, 0.0014769715803238843
840.0, 0.002224620866288692
841.0, 0.0017972975811402687
842.0, 0.0011642673425203396
843.0, 0.0021622271179792415
844.0, 0.002350299157420886
845.0, 0.0020803716347032107
846.0, 0.0021065444059103484
847.0, 0.0025165372006020993
848.0, 0.00230823980266785
849.0, 0.003200153838998681
850.0, 0.0033186072150219893
851.0, 0.0027236551162195945
852.0, 0.001811895246203187
853.0, 0.0015240730139389853
854.0, 0.0023821133011875735
855.0, 0.0034221844176001402
856.0, 0.003837343199905128
857.0, 0.0026914739861037965
858.0, 0.0036148112642840524
859.0, 0.0037968395623701233
860.0, 0.003730611715474034
861.0, 0.0038300701508806483
862.0, 0.004364524193794919
863.0, 0.004014863301703361
864.0, 0.004544333158293164
865.0, 0.005020256772464819
866.0, 0.004306368326684815
867.0, 0.004686149611820601
868.0, 0.005129797407763968
869.0, 0.004687944386463336
870.0, 0.003903147207817286
871.0, 0.004522159406782318
872.0, 0.0045017440980280625
873.0, 0.004490834461539238
874.0, 0.004625510956554309
875.0, 0.004783361104142861
876.0, 0.004160673022968037
877.0, 0.004930182513358725
878.0, 0.005408057002583623
879.0, 0.0055412564395328255
880.0, 0.005530434939665614
881.0, 0.005218082609487239
882.0, 0.005658949427676928
883.0, 0.0057740984136742425
884.0, 0.0059721399053357695
885.0, 0.007592377227213602
886.0, 0.005038235722435126
887.0, 0.0055940823610117546
888.0, 0.006126940186334189
889.0, 0.005670234872764119
890.0, 0.00715109538945937
891.0, 0.007724243898623656
892.0, 0.008381827815300667
893.0, 0.008669833839882886
894.0, 0.008363580968196789
895.0, 0.009348494243489368
896.0, 0.009407119992481611
897.0, 0.010088264106170558
898.0, 0.010865110098494049
899.0, 0.010520853330711715
900.0, 0.01058587107144224
901.0, 0.011556761579216835
902.0, 0.012951938506576931
903.0, 0.014200020649301787
904.0, 0.014469994131896228
905.0, 0.01637095492100105
906.0, 0.01805365201442783
907.0, 0.019822934024200902
908.0, 0.02170992980827144
909.0, 0.022826663720355973
910.0, 0.02591115526989282
911.0, 0.029775071946591153
912.0, 0.03312004357843283
913.0, 0.035221961730054985
914.0, 0.03927333974584614
915.0, 0.040758151881708005
916.0, 0.04094183728927208
917.0, 0.04158030017128116
918.0, 0.04449687080471906
919.0, 0.043599504650394576
920.0, 0.04435749730579605
921.0, 0.04362092696719017
922.0, 0.04159919784456755
923.0, 0.041549827839866105
924.0, 0.0426662090488603
925.0, 0.04427192356558516
926.0, 0.04579128013564694
927.0, 0.04702906092922749
928.0, 0.048485019679618574
929.0, 0.0510462698676688
930.0, 0.055667854170397046
931.0, 0.06018776797604677
932.0, 0.06355667806993791
933.0, 0.07055916311093866
934.0, 0.07900473666473852
935.0, 0.08712347136141449
936.0, 0.09630099343886868
937.0, 0.10828811150424364
938.0, 0.12175994358426843
939.0, 0.14037852774045462
940.0, 0.1625957527539296
941.0, 0.18962943863687592
942.0, 0.22379198439008904
943.0, 0.2678044739882787
944.0, 0.33038610128154383
945.0, 0.4114808511479317
946.0, 0.5090818326686858
947.0, 0.6187048666845038
948.0, 0.7478229462259172
949.0, 0.8700600365136435
950.0, 0.9582621263218708
951.0, 0.9927395698906037
952.0, 0.9580006698456368
953.0, 0.8564060259158763
954.0, 0.7451782161738623
955.0, 0.6340459167978426
956.0, 0.5286548078245771
957.0, 0.4330305667436866
958.0, 0.3639821836622199
959.0, 0.30966677626903166
960.0, 0.264633618577678
961.0, 0.22598342522372522
962.0, 0.20059129552835797
963.0, 0.18210249686160934
964.0, 0.16648741620665944
965.0, 0.15491258851544035
966.0, 0.14854634281001633
967.0, 0.14304058563167368
968.0, 0.13952228300561673
969.0, 0.1381924803779257
970.0, 0.13778683689465177
971.0, 0.1367599881651887
972.0, 0.13725439248045795
973.0, 0.13815671022652112
974.0, 0.13900100916001135
975.0, 0.13938183058528944
976.0, 0.1389639983498526
977.0, 0.13855910945698655
978.0, 0.13844886481997196
979.0, 0.137618216284815
980.0, 0.1357469236926438
981.0, 0.13310620293626127
982.0, 0.13567351560570343
983.0, 0.13033813501645394
984.0, 0.12776759117965056
985.0, 0.12877894744174445
986.0, 0.12571770058185214
987.0, 0.12089244517642665
988.0, 0.12012731264158183
989.0, 0.11783467494410971
990.0, 0.11346653337164381
991.0, 0.11212811084602821
992.0, 0.10721959903518564
993.0, 0.10139203590100951
994.0, 0.09519796224090772
995.0, 0.08860636791896025
996.0, 0.0807998311749793
997.0, 0.07578198305781451
998.0, 0.06498018694275218
999.0, 0.05693915511438635
1000.0, 0.053329009983744284
1001.0, 0.04399804917665814
1002.0, 0.040735837910435856
1003.0, 0.0356230486600346
1004.0, 0.031052829685231494
1005.0, 0.02843808744327313
1006.0, 0.026671135507602084
1007.0, 0.023025087832174718
1008.0, 0.022282304892112
1009.0, 0.021628124101450368
1010.0, 0.01939981031451031
1011.0, 0.016975248521241697
1012.0, 0.017569878299788153
1013.0, 0.016516676772771157
1014.0, 0.015013682730091916
1015.0, 0.014312651615604749
1016.0, 0.015029951927301345
1017.0, 0.0141625980968029
1018.0, 0.01244639981841184
1019.0, 0.011276742858740176
1020.0, 0.011433991079248425
1021.0, 0.012459945729641745
1022.0, 0.011883901289632919
1023.0, 0.012903231168109128
1024.0, 0.012495268651541063
1025.0, 0.010363418877923868
1026.0, 0.012564963682482258
1027.0, 0.012782503690732264
1028.0, 0.01339033866084404
1029.0, 0.014439898108010767
1030.0, 0.015069484192386184
1031.0, 0.012919113908847854
1032.0, 0.014087954355419536
1033.0, 0.015538334850212991
1034.0, 0.016800056147799072
1035.0, 0.018071584738513127
1036.0, 0.02046063322735677
1037.0, 0.02253813766475421
1038.0, 0.025647319664942925
1039.0, 0.029734845800532164
1040.0, 0.03394659656813738
1041.0, 0.03632167485942352
1042.0, 0.042548697965813835
1043.0, 0.04401651671342762
1044.0, 0.04229826248653681
1045.0, 0.038717083946944494
1046.0, 0.033823549337785926
1047.0, 0.028661173593078206
1048.0, 0.02573545055411391
1049.0, 0.02183556825240274
1050.0, 0.017640927533744633
1051.0, 0.017804829288611525
1052.0, 0.01506114390523786
1053.0, 0.013122705331516927
1054.0, 0.011754717993439986
1055.0, 0.010763167344008099
1056.0, 0.009994856439793608
1057.0, 0.009704650974643726
1058.0, 0.009920091074024964
1059.0, 0.009970643760718581
1060.0, 0.009998169120985233
1061.0, 0.01061536535744892
1062.0, 0.011827135476599292
1063.0, 0.012390450137044241
1064.0, 0.01246252533266161
1065.0, 0.012110960034246951
1066.0, 0.011777921722926622
1067.0, 0.01555278740492917
1068.0, 0.014682231274097153
1069.0, 0.015779740682979108
1070.0, 0.018340629292875017
1071.0, 0.019889844017601695
1072.0, 0.020354397978467144
1073.0, 0.022605516466182602
1074.0, 0.026427328503385344
1075.0, 0.029543058000160934
1076.0, 0.030291941265007293
1077.0, 0.030892490641578018
1078.0, 0.0357309513200622
1079.0, 0.03612486878208765
1080.0, 0.03441261473329142
1081.0, 0.03283516464618552
1082.0, 0.02951369599886779
1083.0, 0.027293648789236055
1084.0, 0.023235542358369003
1085.0, 0.019272070461353163
1086.0, 0.016035251000629584
1087.0, 0.011617322595365312
1088.0, 0.011372901932666636
1089.0, 0.010109925224180838
1090.0, 0.009040919547511472
1091.0, 0.008234643766248386
1092.0, 0.006610662449025391
1093.0, 0.006273886454804578
1094.0, 0.005771906024818604
1095.0, 0.0042835329714880745
1096.0, 0.002995542026906106
1097.0, 0.003775302418746797
1098.0, 0.003174965446428994
1099.0, 0.004346702259562224
1100.0, 0.003941896337313359
1101.0, 0.002827841954686996
1102.0, 0.002659856228323879
1103.0, 0.0015676484240065942
1104.0, 0.001986356205135615
1105.0, 0.001173496369942366
1106.0, 0.0006394318219832065
1107.0, 0.0014489225617011405
1108.0, 0.0013968292561578764
1109.0, 0.0010636827905021644
1110.0, 0.0019166389256893724
1111.0, 0.0019438992090141586
1112.0, 0.0008813754633622914
1113.0, 0.0013600574253332437
1114.0, 0.001141581557303682
1115.0, 0.0004583016720713279
1116.0, 0.0006448120230622636
1117.0, 0.0014998521426707791
1118.0, 0.0016253255572768678
1119.0, 0.0003675671924358824
1120.0, 0.0014894340924878895
1121.0, 0.002243474301133219
1122.0, 0.0023042375951802118
1123.0, 0.00221639331825792
1124.0, 0.0016475067342084952
1125.0, 0.000734687350390768
1126.0, 0.0008260888005553557
1127.0, 0.0009766929477079411
1128.0, 0.0004668799804319552
1129.0, 0.0003109208765411491
1130.0, 0.00043361705087618046
1131.0, 0.0005399674821565301
1132.0, 0.0004511389739423039
1133.0, 0.0002851745151683636
1134.0, 0.0005046495346303409
1135.0, 0.001926989655840082
1136.0, 0.0009589232034600021
1137.0, 0.0001355449784506369
1138.0, 0.00033360562674475695
1139.0, 0.0011838742159644608
1140.0, 0.0008094773361173094
1141.0, 0.0006523070056378248
1142.0, 0.0008212654817950179
1143.0, 0.0011062505994498125
1144.0, 0.0014126208075563404
1145.0, 0.0023125083553093297
1146.0, 0.0007188117714304812
1147.0, 0.0009450124982845647
1148.0, 0.0009651143766531888
1149.0, 5.043306044893537e-05
1150.0, 4.492521014205044e-05
1151.0, 0.0001726752935980448
1152.0, 0.0008442321232023507
1153.0, 0.001062217835489842
1154.0, 0.001304642662704153
1155.0, 0.002431171140269705
1156.0, 0.0010483778459466364
1157.0, 0.0009311161181651903
1158.0, 0.0011799654670719068
1159.0, 0.001252982157427107
1160.0, 0.0009307783796131987
1161.0, 0.0006353851134573434
1162.0, 0.0016965294609611048
1163.0, 0.0013008384955486042
1164.0, 0.0010037092314689848
1165.0, 0.0013258850820028632
1166.0, 0.001311564793544084
1167.0, 0.001714378288232892
1168.0, 0.0011854340832837657
1169.0, 0.0019201299423441934
1170.0, 0.0022250727430245102
1171.0, 5.120353786555066e-05
1172.0, 0.000292397669324713
1173.0, 0.00038521979280054853
1174.0, 0.0016512108693779767
1175.0, 0.0023356867225615336
1176.0, 0.0016881061030649173
1177.0, 0.0015319052900226054
1178.0, 0.0009804135628786923
1179.0, 0.00046104990445529576
1180.0, 0.00076526229090998
1181.0, 0.0013198710155967895
1182.0, 0.0010627467800174567
1183.0, 0.002459870244756589
1184.0, 0.0025422034539300717
1185.0, 0.0017661252456472433
1186.0, 0.0016017878576976374
1187.0, 0.0026079711647953503
1188.0, 0.002657723261116385
1189.0, 0.002526577203756422
1190.0, 0.00217945381500349
1191.0, 0.0024263531261447292
1192.0, 0.0024144885290934637
1193.0, 0.0005134868710538643
1194.0, 0.002127240186013862
1195.0, 0.0013191300222052487
1196.0, 0.001682318301672905
1197.0, 0.002371730971307392
1198.0, 0.0023444221564658143
1199.0, 0.0036129272516843237
1200.0, 0.003362773218575243
1201.0, 0.003918893920571647
1202.0, 0.002739193416853956
1203.0, 0.0011224103023118254
1204.0, 0.0031101635507946117
1205.0, 0.0005105910905735275
1206.0, 0.0020389115719659763
1207.0, 0.0019887269804377133
1208.0, 0.0013846365655635676
1209.0, 0.0021555188122324496
1210.0, 0.003046994593066169
1211.0, 0.001859191307815096
1212.0, 0.002124999327196881
1213.0, 0.00170517560461451
1214.0, 0.0008540653179233865
1215.0, 0.001709888453206449
1216.0, 0.0014086426670442758
1217.0, 0.001717288693567285
1218.0, 0.0017529386942878322
1219.0, 0.0016366827241681692
1220.0, 0.0015241865609456398
1221.0, 0.0010273973019791832
1222.0, 0.0015912053635470163
1223.0, 0.0010675349082103324
1224.0, 0.001772176496128332
1225.0, 0.002669259463551542
1226.0, 0.0011189857108395331
1227.0, 0.0008025379767163614
1228.0, 0.0019446813683528733
1229.0, 0.0029866469761446746
1230.0, 0.0027348900198116578
1231.0, 0.0012018651040445905
1232.0, 0.00022183810435104053
1233.0, 0.0011789753402939075
1234.0, 0.0011943275210260433
1235.0, 0.001740285340380968
1236.0, 0.0025512435441273373
1237.0, 0.0026179998407297447
1238.0, 0.0017132488397578307
1239.0, 0.0023005073093570433
1240.0, 0.0021300268673703046
1241.0, 0.001996080602789815
1242.0, 0.0024742428268640483
1243.0, 0.003364157133318523
1244.0, 0.0031018868321252206
1245.0, 0.0034655890474228805
1246.0, 0.003763338557493178
1247.0, 0.00327310775774252
1248.0, 0.0023563606456268055
1249.0, 0.0038240574487633967
1250.0, 0.0018136664251137296
1251.0, 0.001388913970719406
1252.0, 0.0017891403119234207
1253.0, 0.0016565413192115984
1254.0, 0.00032527076093215356
1255.0, 0.0019568399314010337
1256.0, 0.0015748504666813932
1257.0, 0.0025089189815569735
1258.0, 0.003589889712210183
1259.0, 0.003688073925478463
1260.0, 0.0027943373919401895
1261.0, 0.0030780816052185323
1262.0, 0.00353544842928741
1263.0, 0.0035040324643025576
1264.0, 0.002681988900729074
1265.0, 0.001547846259607616
1266.0, 0.0019865117429445404
1267.0, 0.0006327744035519401
1268.0, 0.001761795370333304
1269.0, 0.0014191055942251237
1270.0, 0.0006222764743787587
1271.0, 0.0020980525788573574
1272.0, 0.0014357704991943285
1273.0, 0.00244607877219692
1274.0, 0.002652532903608104
1275.0, 0.002375867747942149
1276.0, 0.001926835826981211
1277.0, 0.0013314232414539345
1278.0, 0.001594224831826372
1279.0, 0.001974050973822487
1280.0, 0.0019619126880684626
1281.0, 0.0017375708590651995
1282.0, 0.0015071422830852629
1283.0, 0.0012407126389892345
1284.0, 0.0019399213803488191
1285.0, 0.0015201797050173997
1286.0, 0.0018074455511044602
1287.0, 0.0026586140204334753
1288.0, 0.003101384521807144
1289.0, 0.002298281829468077
1290.0, 0.0026848880460203996
1291.0, 0.0016119990450838351
1292.0, 0.001092940305458252
1293.0, 0.0015265516576294887
1294.0, 0.002052146273882217
1295.0, 0.0016749859633127739
1296.0, 0.0021794614224909616
1297.0, 0.0019024428530118843
1298.0, 0.002215094658696372
1299.0, 0.002790049974159094
1300.0, 0.002018252398883416
1301.0, 0.002196549554797627
1302.0, 0.0017624038452110106
1303.0, 0.0017877198319495068
1304.0, 0.001788407090148722
1305.0, 0.001562570314688365
1306.0, 0.0015480306967002283
1307.0, 0.0011826816834145883
1308.0, 0.0014775639257930632
1309.0, 0.0016143550871105417
1310.0, 0.0016384565411890132
1311.0, 0.0014530469017250325
1312.0, 0.0004595186277833458
1313.0, 0.0008741783449017454
1314.0, 0.0032421336589313556
1315.0, 0.003748572414968848
1316.0, 0.0028795727815018385
1317.0, 0.0020357113010610463
1318.0, 0.0010077092133162218
1319.0, 0.0002759848559859992
1320.0, 0.0019566907480898996
1321.0, 0.0016807991264221915
1322.0, 0.0009349293900898802
1323.0, 0.0017929246501249374
1324.0, 0.00039313658756303077
1325.0, 0.0020940230080752236
1326.0, 0.0016492767694240278
1327.0, 0.0008807246229577244
1328.0, 0.00042255325230405215
1329.0, 0.00019984546677402374
1330.0, 0.0006383043126259498
1331.0, 0.002326930354690395
1332.0, 0.001298577232278415
1333.0, 0.000373096004372322
1334.0, 0.0005938514389920746
1335.0, 0.0012805229712673234
1336.0, 0.0010109765300935312
1337.0, 0.001221660827647408
1338.0, 0.0012960021360325976
1339.0, 0.0016275177623973824
1340.0, 0.001989368159927722
1341.0, 0.0017545373718136775
1342.0, 0.0006678767856142194
1343.0, 0.0008406661647954362
1344.0, 0.00124912516688503
1345.0, 0.0016572807191882262
1346.0, 0.0021081209965083843
1347.0, 0.0024306197216333136
1348.0, 0.0007237112463174905
1349.0, 0.0008807650864036272
1350.0, 0.0027570050330268784
1351.0, 0.00291854468936853
1352.0, 0.001365540729827916
1353.0, 0.0008955945548120424
1354.0, 0.003393310687184921
1355.0, 0.0010386408722760664
1356.0, 0.0024093097636181966
1357.0, 0.003958262654101767
1358.0, 0.003378529321152088
1359.0, 0.0013030126651382503
1360.0, 0.002115261315812277
1361.0, 0.0017225963456324672
1362.0, 0.0015218356827973083
1363.0, 0.0018091704492785134
1364.0, 0.0018573127923060969
1365.0, 0.0010836457271577735
1366.0, 0.0020752628314495416
1367.0, 0.0028927892106687518
1368.0, 0.002106746260096827
1369.0, 0.0017858702520378545
1370.0, 0.0025338585074809743
1371.0, 0.0036298904515392493
1372.0, 0.004188967532455259
1373.0, 0.004300864437733213
1374.0, 0.0038923957663033774
1375.0, 0.0034422714916683347
1376.0, 0.0026779828942028777
1377.0, 0.0014484495419180593
1378.0, 0.0013423185217301596
1379.0, 0.002612964587395931
1380.0, 0.0030081179787598234
1381.0, 0.002096263236230686
1382.0, 0.002078702326229752
1383.0, 0.004055712399845474
1384.0, 0.003465549521050493
1385.0, 0.003955990824143019
1386.0, 0.0024636021980847323
1387.0, 0.001973097437026916
1388.0, 0.002359345202639243
1389.0, 0.0027836887041045224
1390.0, 0.003743919911577853
1391.0, 0.0016398161155331352
1392.0, 0.001963411778047285
1393.0, 0.0026277888494824053
1394.0, 0.0023491788779825395
1395.0, 0.002077409873715918
1396.0, 0.004831117283325496
1397.0, 0.002609516078280202
1398.0, 0.0037263989561269473
1399.0, 0.003328531567622709
1400.0, 0.0022606187008129995
1401.0, 0.0019054521493048929
1402.0, 0.002228289957949454
1403.0, 0.0012148036828385305
1404.0, 0.0012515537146354997
1405.0, 0.0026015365499505055
1406.0, 0.0019998074184979825
1407.0, 0.0010331770170947077
1408.0, 0.003740245906415748
1409.0, 0.002915828261866515
1410.0, 0.0025376647811167245
1411.0, 0.0033449051086430863
1412.0, 0.003141403232531745
1413.0, 0.0027615671594572854
1414.0, 0.004055079985400631
1415.0, 0.005330242922228775
1416.0, 0.004588061162394961
1417.0, 0.002331353175511328
1418.0, 0.0033055519920188675
1419.0, 0.0040624054535624635
1420.0, 0.0020571338492209506
1421.0, 0.0034460142818246633
1422.0, 0.0013287484920927774
1423.0, 0.003774375639737691
1424.0, 0.0038713326910441454
1425.0, 0.003776143265266571
1426.0, 0.005120011450480425
1427.0, 0.005292407074746737
1428.0, 0.0021542516712264852
1429.0, 0.0023127848676687277
1430.0, 0.0029070405372778984
1431.0, 0.0036418451472511495
1432.0, 0.004243429329479309
1433.0, 0.004284643591495706
1434.0, 0.003912106294770338
1435.0, 0.0044474779145307775
1436.0, 0.0039586494441553755
1437.0, 0.0035537941979898987
1438.0, 0.003445795158983753
1439.0, 0.0037571422349552746
1440.0, 0.005644645179370791
1441.0, 0.005237348148218464
1442.0, 0.004685855820648162
1443.0, 0.004807903196353535
1444.0, 0.004866954712249216
1445.0, 0.0046868298227662215
1446.0, 0.005160056679378367
1447.0, 0.004237698689694472
1448.0, 0.004298065658188934
1449.0, 0.0041188331915333
1450.0, 0.00465369879945839
1451.0, 0.004896247033875589
1452.0, 0.003610058292086493
1453.0, 0.004951974413388503
1454.0, 0.006948020778262294
1455.0, 0.005987736986101459
1456.0, 0.0046677116048656955
1457.0, 0.005300926957304282
1458.0, 0.006694810002713669
1459.0, 0.003301299123009447
1460.0, 0.005079620360200699
1461.0, 0.0028842411308469132
1462.0, 0.004045237772307405
1463.0, 0.005855619438160596
1464.0, 0.005596690923042562
1465.0, 0.003996716775384156
1466.0, 0.005907262233742954
1467.0, 0.003349696171468585
1468.0, 0.002244665231651126
1469.0, 0.003663726848940398
1470.0, 0.005199953060381215
1471.0, 0.0045555402004035924
1472.0, 0.003301234762807478
1473.0, 0.0053147396918996935
1474.0, 0.0050811977281073305
1475.0, 0.00332124520083029
1476.0, 0.0014676523050917792
1477.0, 0.0013064446884734075
1478.0, 0.0034208261842516687
1479.0, 0.002513310503717207
1480.0, 0.005848640148513138
1481.0, 0.004072634838472696
1482.0, 0.0036158172743871926
1483.0, 0.004241480441407595
1484.0, 0.003655361199182602
1485.0, 0.004091377283306139
1486.0, 0.0019987952033849138
1487.0, 0.004152433761574425
1488.0, 0.0026339070643190484
1489.0, 0.0016524056014036146
1490.0, 0.0022166423499233776
1491.0, 0.0012224876312559951
1492.0, 0.003508321915949202
1493.0, 0.004062118193247474
1494.0, 0.0025319564247647587
1495.0, 0.0015998690330956502
1496.0, 0.001517274095376451
1497.0, 0.0016839336073000124
1498.0, 0.0021711144352192075
1499.0, 0.0020842902481777925
1500.0, 0.0016153031731446115
1501.0, 0.0007332883199105771
1502.0, 0.0007988965108179469
1503.0, 0.0013202501141856794
1504.0, 0.0010737805467403625
1505.0, 0.0013976102055224264
1506.0, 0.0007976652149473632
1507.0, 0.0009290715002045704
1508.0, 0.0014218632818592464
1509.0, 0.0017518374463815023
1510.0, 0.0016939625273861057
1511.0, 0.0015715931521619415
1512.0, 0.002387794184028108
1513.0, 0.0019151541726798987
1514.0, 0.0007030458858367132
1515.0, 0.001655613725966665
1516.0, 0.0025250151405305527
1517.0, 0.0014235696877926544
1518.0, 0.0017802008416774326
1519.0, 0.00022367674673464105
1520.0, 1.1713517373390813e-05
1521, 0.0
1522, 0.0
1523, 0.0
1524, 0.0
1525, 0.0
1526, 0.0
1527, 0.0
1528, 0.0
1529, 0.0
1530, 0.0
1531, 0.0
1532, 0.0
1533, 0.0
1534, 0.0
1535, 0.0
1536, 0.0
1537, 0.0
1538, 0.0
1539, 0.0
1540, 0.0
1541, 0.0
1542, 0.0
1543, 0.0
1544, 0.0
1545, 0.0
1546, 0.0
1547, 0.0
1548, 0.0
1549, 0.0
1550, 0.0
1551, 0.0
1552, 0.0
1553, 0.0
1554, 0.0
1555, 0.0
1556, 0.0
1557, 0.0
1558, 0.0
1559, 0.0
1560, 0.0
1561, 0.0
1562, 0.0
1563, 0.0
1564, 0.0
1565, 0.0
1566, 0.0
1567, 0.0
1568, 0.0
1569, 0.0
1570, 0.0
1571, 0.0
1572, 0.0
1573, 0.0
1574, 0.0
1575, 0.0
1576, 0.0
1577, 0.0
1578, 0.0
1579, 0.0
1580, 0.0
1581, 0.0
1582, 0.0
1583, 0.0
1584, 0.0
1585, 0.0
1586, 0.0
1587, 0.0
1588, 0.0
1589, 0.0
1590, 0.0
1591, 0.0
1592, 0.0
1593, 0.0
1594, 0.0
1595, 0.0
1596, 0.0
1597, 0.0
1598, 0.0
1599, 0.0
