30, 0.0
31, 0.0
32, 0.0
33, 0.0
34, 0.0
35, 0.0
36, 0.0
37, 0.0
38, 0.0
39, 0.0
40, 0.0
41, 0.0
42, 0.0
43, 0.0
44, 0.0
45, 0.0
46, 0.0
47, 0.0
48, 0.0
49, 0.0
50, 0.0
51, 0.0
52, 0.0
53, 0.0
54, 0.0
55, 0.0
56, 0.0
57, 0.0
58, 0.0
59, 0.0
60, 0.0
61, 0.0
62, 0.0
63, 0.0
64, 0.0
65, 0.0
66, 0.0
67, 0.0
68, 0.0
69, 0.0
70, 0.0
71, 0.0
72, 0.0
73, 0.0
74, 0.0
75, 0.0
76, 0.0
77, 0.0
78, 0.0
79, 0.0
80, 0.0
81, 0.0
82, 0.0
83, 0.0
84, 0.0
85, 0.0
86, 0.0
87, 0.0
88, 0.0
89, 0.0
90, 0.0
91, 0.0
92, 0.0
93, 0.0
94, 0.0
95, 0.0
96, 0.0
97, 0.0
98, 0.0
99, 0.0
100, 0.0
101, 0.0
102, 0.0
103, 0.0
104, 0.0
105, 0.0
106, 0.0
107, 0.0
108, 0.0
109, 0.0
110, 0.0
111, 0.0
112, 0.0
113, 0.0
114, 0.0
115, 0.0
116, 0.0
117, 0.0
118, 0.0
119, 0.0
120, 0.0
121, 0.0
122, 0.0
123, 0.0
124, 0.0
125, 0.0
126, 0.0
127, 0.0
128, 0.0
129, 0.0
130, 0.0
131, 0.0
132, 0.0
133, 0.0
134, 0.0
135, 0.0
136, 0.0
137, 0.0
138, 0.0
139, 0.0
140, 0.0
141, 0.0
142, 0.0
143, 0.0
144, 0.0
145, 0.0
146, 0.0
147, 0.0
148, 0.0
149, 0.0
150, 0.0
151, 0.0
152, 0.0
153, 0.0
154, 0.0
155, 0.0
156, 0.0
157, 0.0
158, 0.0
159, 0.0
160, 0.0
161, 0.0
162, 0.0
163, 0.0
164, 0.0
165, 0.0
166, 0.0
167, 0.0
168, 0.0
169, 0.0
170, 0.0
171, 0.0
172, 0.0
173, 0.0
174, 0.0
175, 0.0
176, 0.0
177, 0.0
178, 0.0
179, 0.0
180, 0.0
181, 0.0
182, 0.0
183, 0.0
184, 0.0
185, 0.0
186, 0.0
187.0, 0.018760533307450453
188.0, 0.019919769412424324
189.0, 0.018367613537415076
190.0, 0.020745732112515618
191.0, 0.019924975174188737
192.0, 0.017701560717453733
193.0, 0.018520910621601907
194.0, 0.019377967156191056
195.0, 0.01882935366132967
196.0, 0.018786271316362787
197.0, 0.019541889121630015
198.0, 0.01901737851542847
199.0, 0.020586960049688983
200.0, 0.022353532215172556
201.0, 0.022343258927446253
202.0, 0.020126272367025938
203.0, 0.019931918861291007
204.0, 0.020540266738033552
205.0, 0.021312726863615305
206.0, 0.0217678859535697
207.0, 0.021248533050305385
208.0, 0.020423132753202972
209.0, 0.019896573827483072
210.0, 0.019642314321756806
211.0, 0.01929713044930436
212.0, 0.018834926818426273
213.0, 0.018335413449788954
214.0, 0.01835910796694065
215.0, 0.019136696048569476
216.0, 0.019598255858538135
217.0, 0.01904592473994014
218.0, 0.019086845256532887
219.0, 0.019638557058911255
220.0, 0.019051693696259014
221.0, 0.01871309039067063
222.0, 0.017904501069954087
223.0, 0.017857034716733135
224.0, 0.018881706666073902
225.0, 0.016945819204711582
226.0, 0.01691759987881367
227.0, 0.017427977122690376
228.0, 0.01724592047751524
229.0, 0.01627935828476487
230.0, 0.015994757543907605
231.0, 0.01663748732435768
232.0, 0.017365726393152467
233.0, 0.017487739347754428
234.0, 0.017640289373207777
235.0, 0.018275975761824444
236.0, 0.01776332778503507
237.0, 0.01663910379581159
238.0, 0.017281508979155244
239.0, 0.016856480271913582
240.0, 0.01681413660358693
241.0, 0.016609366123010245
242.0, 0.015819984511360092
243.0, 0.01681787607549096
244.0, 0.01658771774827194
245.0, 0.015021428997660161
246.0, 0.01401252221727854
247.0, 0.015674583356464638
248.0, 0.015596530140462323
249.0, 0.015689970868727757
250.0, 0.016207391077819214
251.0, 0.016707916915530446
252.0, 0.0173055568721145
253.0, 0.015770303925447295
254.0, 0.015204942369361284
255.0, 0.01584322027422764
256.0, 0.01592895775532493
257.0, 0.016211569288063814
258.0, 0.01579998467840853
259.0, 0.015598213739589955
260.0, 0.015954199572488025
261.0, 0.015566516129404651
262.0, 0.01688180802726102
263.0, 0.0166092111661341
264.0, 0.015384562862713901
265.0, 0.015601953753797098
266.0, 0.01525708230308157
267.0, 0.015615615102163527
268.0, 0.015825464317785247
269.0, 0.015787938854721104
270.0, 0.016649335285426354
271.0, 0.016184983329606335
272.0, 0.015376756717019475
273.0, 0.015508077295624338
274.0, 0.01659727176044076
275.0, 0.016547803798834172
276.0, 0.01629902118586669
277.0, 0.016931301317083085
278.0, 0.017625957108145338
279.0, 0.016774210100515823
280.0, 0.01627623776137494
281.0, 0.016718459254013347
282.0, 0.01604175422967641
283.0, 0.014352395750324
284.0, 0.015607577383330094
285.0, 0.015105385595175365
286.0, 0.015025162284431567
287.0, 0.015640539318046907
288.0, 0.01593510625819226
289.0, 0.016720574549157045
290.0, 0.01637340436899513
291.0, 0.015848196929801696
292.0, 0.01593709789253302
293.0, 0.016520799425157134
294.0, 0.017071425726664816
295.0, 0.016528096372642454
296.0, 0.016445306408491175
297.0, 0.017808305926080167
298.0, 0.019235211056999043
299.0, 0.01932638609969225
300.0, 0.018097864431966842
301.0, 0.017765127270743617
302.0, 0.019371742197917072
303.0, 0.019173724583444636
304.0, 0.019051202682044837
305.0, 0.018931384698361423
306.0, 0.01860991982337329
307.0, 0.018410767730595284
308.0, 0.0188155555839997
309.0, 0.019232647863987103
310.0, 0.019531542918901763
311.0, 0.019922059494215494
312.0, 0.020556412303717138
313.0, 0.020072989747837618
314.0, 0.020256500732599218
315.0, 0.02133798184899604
316.0, 0.02214218252802414
317.0, 0.021099429385490087
318.0, 0.02145567891022576
319.0, 0.021511426036302947
320.0, 0.021303923889723846
321.0, 0.021871114307472964
322.0, 0.021611198168440877
323.0, 0.022708346056371204
324.0, 0.022896878674598404
325.0, 0.022091911721306815
326.0, 0.022659438442364337
327.0, 0.022438006425192097
328.0, 0.022226361717651712
329.0, 0.022824615433211494
330.0, 0.02391265317306339
331.0, 0.02399409176939944
332.0, 0.023883037434619857
333.0, 0.023390517738380037
334.0, 0.023616218372726556
335.0, 0.025122703946926228
336.0, 0.025381786804034898
337.0, 0.02644562425682605
338.0, 0.025610232672203265
339.0, 0.024409304061142258
340.0, 0.025721808373668605
341.0, 0.025571654295441802
342.0, 0.025562286697916332
343.0, 0.025872821616777703
344.0, 0.02588611593652053
345.0, 0.025216748777679876
346.0, 0.025100114977997082
347.0, 0.02516858357373878
348.0, 0.02592942177370263
349.0, 0.02665838151821492
350.0, 0.025554344991058117
351.0, 0.025430777851122903
352.0, 0.025749250897432865
353.0, 0.02608732799730454
354.0, 0.026260946285326815
355.0, 0.026395226842302215
356.0, 0.028612098600818345
357.0, 0.02843410263012902
358.0, 0.02711644066133748
359.0, 0.02703513174249384
360.0, 0.02764144869106876
361.0, 0.028004274100861388
362.0, 0.02788513467474738
363.0, 0.02740051617548672
364.0, 0.027016243887323224
365.0, 0.027654802050894087
366.0, 0.028091941089197322
367.0, 0.027913214104653042
368.0, 0.027508754648789435
369.0, 0.027405649422294842
370.0, 0.02751730100576793
371.0, 0.028569623748919477
372.0, 0.02829390884384825
373.0, 0.027612817338069907
374.0, 0.028767272796543245
375.0, 0.026711114673082747
376.0, 0.027095660748034357
377.0, 0.027627465279218905
378.0, 0.026916536449247533
379.0, 0.026229460153324682
380.0, 0.026826164271667285
381.0, 0.0267835783901204
382.0, 0.02685236819539198
383.0, 0.02734289970238141
384.0, 0.027464462245494498
385.0, 0.027358643901072448
386.0, 0.027640515411047343
387.0, 0.027902238569982574
388.0, 0.027738739859594803
389.0, 0.02722543496771011
390.0, 0.02708796246584688
391.0, 0.02699745757976272
392.0, 0.0269726285947657
393.0, 0.027219104390695602
394.0, 0.027597987376113187
395.0, 0.026522716009585213
396.0, 0.027008881665709375
397.0, 0.028040690303786902
398.0, 0.02828395799298144
399.0, 0.02773140212077975
400.0, 0.028093009658017653
401.0, 0.027558784374614242
402.0, 0.026793572855136574
403.0, 0.026643654701382607
404.0, 0.027403827554027607
405.0, 0.02829956713341424
406.0, 0.028579997008073982
407.0, 0.02818181288957684
408.0, 0.02770488246411973
409.0, 0.027638870783041353
410.0, 0.026207201701503917
411.0, 0.027667584216099227
412.0, 0.02878523407645717
413.0, 0.027845112299581583
414.0, 0.027620701666035093
415.0, 0.02932051014664821
416.0, 0.028972713048153343
417.0, 0.027772956097697588
418.0, 0.027223313598538697
419.0, 0.027233389557040567
420.0, 0.027230841132383558
421.0, 0.02742927777004082
422.0, 0.027822053643626693
423.0, 0.02785025806782109
424.0, 0.027213367034828614
425.0, 0.028381621184035345
426.0, 0.02836975302065717
427.0, 0.02849315634086577
428.0, 0.02893672492901565
429.0, 0.02852981326464265
430.0, 0.02911411871297017
431.0, 0.02975484535936036
432.0, 0.029555275937279836
433.0, 0.028256559027529916
434.0, 0.026879702757568086
435.0, 0.027533856338294086
436.0, 0.028797446545861388
437.0, 0.029128184433304234
438.0, 0.029421893369624932
439.0, 0.030480541322510716
440.0, 0.02947711415917273
441.0, 0.030110156808597625
442.0, 0.03055381163842154
443.0, 0.030046805293223146
444.0, 0.029389825163741588
445.0, 0.029775489671056875
446.0, 0.030052361441708687
447.0, 0.030642495269641905
448.0, 0.031144115079077446
449.0, 0.03103498077670117
450.0, 0.030694654325548187
451.0, 0.03152171781147595
452.0, 0.031104647273974082
453.0, 0.03087718384478
454.0, 0.03162058003293058
455.0, 0.030694484846174104
456.0, 0.030493592487790648
457.0, 0.0308631083678889
458.0, 0.03164029218632936
459.0, 0.03220290928201516
460.0, 0.031931137108368764
461.0, 0.03260858073642863
462.0, 0.03306920971332223
463.0, 0.03243744505771444
464.0, 0.03194553193987282
465.0, 0.03295570664486293
466.0, 0.03306543470008447
467.0, 0.03283418238612632
468.0, 0.03177001137520441
469.0, 0.03092355395225476
470.0, 0.03158203615344596
471.0, 0.03165415588449413
472.0, 0.031210294131015656
473.0, 0.030720915787632457
474.0, 0.03109967427215103
475.0, 0.03235822995752928
476.0, 0.032726769867242746
477.0, 0.031609171308740004
478.0, 0.032758274708725055
479.0, 0.03305334375960253
480.0, 0.03182754559890732
481.0, 0.033989252748225736
482.0, 0.03278853454788454
483.0, 0.03326776455115822
484.0, 0.032836434423568456
485.0, 0.031669723364093634
486.0, 0.032888758144965106
487.0, 0.031768712746751415
488.0, 0.03187713153400008
489.0, 0.032716976714403184
490.0, 0.032926473649753894
491.0, 0.03229095318677176
492.0, 0.032528891746765834
493.0, 0.03268272448551946
494.0, 0.03330509172488825
495.0, 0.0332797478476978
496.0, 0.03247724304253386
497.0, 0.03328485443497422
498.0, 0.0338781417932214
499.0, 0.03351819721275136
500.0, 0.033305681116282314
501.0, 0.03360580359415903
502.0, 0.03359185076580535
503.0, 0.03304813831681838
504.0, 0.03242632200148488
505.0, 0.032329937943322
506.0, 0.032642408791602295
507.0, 0.03280008059443984
508.0, 0.03231082351825268
509.0, 0.03279186192158731
510.0, 0.032957006506790246
511.0, 0.03247817182870826
512.0, 0.03229535310308243
513.0, 0.0331962842732093
514.0, 0.03136865925437391
515.0, 0.030937065796863988
516.0, 0.03073203551211932
517.0, 0.030121246352215577
518.0, 0.03008002874450196
519.0, 0.02905107429936873
520.0, 0.029433142412367767
521.0, 0.02913757176734405
522.0, 0.028567795431531217
523.0, 0.028776335799248844
524.0, 0.028943178225207464
525.0, 0.0286036634260229
526.0, 0.028959260883699767
527.0, 0.028671532785338034
528.0, 0.027613549166056364
529.0, 0.02731287665695763
530.0, 0.0264581220988527
531.0, 0.02497515265962935
532.0, 0.02393819540626215
533.0, 0.024604929597447946
534.0, 0.026022434638028377
535.0, 0.023297793618603634
536.0, 0.02359957930396141
537.0, 0.023796185712395657
538.0, 0.022723026027264837
539.0, 0.02147464376486358
540.0, 0.021893586863094335
541.0, 0.021093009411589522
542.0, 0.02087879206329047
543.0, 0.020775822432296528
544.0, 0.0203894813076336
545.0, 0.019857414104264833
546.0, 0.019231817795764362
547.0, 0.020157531772276097
548.0, 0.019960926463967573
549.0, 0.019697075508459522
550.0, 0.01982305813685553
551.0, 0.019044513884605662
552.0, 0.017923778620337744
553.0, 0.01818485571875182
554.0, 0.018045391989798865
555.0, 0.01779982031001872
556.0, 0.018079993818109333
557.0, 0.0172502597862173
558.0, 0.016891917209560892
559.0, 0.01741076640857751
560.0, 0.016823405087478833
561.0, 0.01577541823009006
562.0, 0.01619919701444655
563.0, 0.014788964230070412
564.0, 0.014771744374912578
565.0, 0.015278673824654017
566.0, 0.015634340622775175
567.0, 0.01563462256167174
568.0, 0.0154126776766645
569.0, 0.01535588046387976
570.0, 0.015478792881304
571.0, 0.014780119899028958
572.0, 0.01398231845819769
573.0, 0.014187735107109661
574.0, 0.014491422709885383
575.0, 0.013330245929729518
576.0, 0.01178426422052122
577.0, 0.01201156748001874
578.0, 0.013289124015536325
579.0, 0.012856118109712962
580.0, 0.012444974148854426
581.0, 0.012453638900221607
582.0, 0.012740052334964018
583.0, 0.01197910385529138
584.0, 0.01053442854530606
585.0, 0.010711633720199332
586.0, 0.010724813622547577
587.0, 0.009184467464235156
588.0, 0.008448635369109317
589.0, 0.0085671289063877
590.0, 0.00838608479029336
591.0, 0.008846158477042208
592.0, 0.009237936136517045
593.0, 0.007951498110430152
594.0, 0.006666091628931123
595.0, 0.006565196881794599
596.0, 0.006814699543741294
597.0, 0.0067260461693130795
598.0, 0.006023770748557851
599.0, 0.0059098746551698575
600.0, 0.004965850858900853
601.0, 0.003711834099057426
602.0, 0.004925511220800297
603.0, 0.0031748699158894523
604.0, 0.002585525744892649
605.0, 0.0030529859002383698
606.0, 0.002815924702995646
607.0, 0.001667678447661955
608.0, 0.0020188539577429064
609.0, 0.002489896733043031
610.0, 0.002132053186086381
611.0, 0.001953439080346572
612.0, 0.001975285838529026
613.0, 0.0016797519078419522
614.0, 0.0014125290186720947
615.0, 0.0008161052332329998
616.0, 0.000602621635479461
617.0, 0.0009045546110079147
618.0, 0.0017654530447845259
619.0, 0.0025308554952521737
620.0, 0.0013746580443092869
621.0, 0.0011410207893530807
622.0, 0.0007581606026142715
623.0, 0.0005284327412278426
624.0, 0.0006372534877599142
625.0, 0.0005146748084870152
626.0, 3.422223212130471e-05
627.0, 0.00037377900195472157
628.0, 0.0009568479022593346
629.0, 0.0008571555459076552
630.0, 0.0004840462205072016
631.0, 0.0009100430868798444
632.0, 0.0008801021090485666
633.0, 0.002434651457668373
634.0, 0.0026143608105028316
635.0, 0.0022609529612899744
636.0, 0.0027478699366347047
637.0, 0.003319712244834256
638.0, 0.002791347573456147
639.0, 0.003740204182189137
640.0, 0.003438046576120904
641.0, 0.0029809760908780323
642.0, 0.0034403208209627307
643.0, 0.0035069475574114324
644.0, 0.003595974461206407
645.0, 0.00407881577730802
646.0, 0.004092824405373809
647.0, 0.0037717816519739038
648.0, 0.0037376852542373848
649.0, 0.004247559560620695
650.0, 0.004473729048564286
651.0, 0.0049069904635962594
652.0, 0.005573623569893108
653.0, 0.0058683740443525746
654.0, 0.005849865195176444
655.0, 0.006138149190419004
656.0, 0.006090288152508207
657.0, 0.006622660956801043
658.0, 0.007306300161164215
659.0, 0.007611634265493391
660.0, 0.007252978495807638
661.0, 0.006791310930067248
662.0, 0.00789100738208711
663.0, 0.008195591670837865
664.0, 0.008232319499250034
665.0, 0.007525720464240032
666.0, 0.006739527624707974
667.0, 0.007305008820210976
668.0, 0.007549200308343109
669.0, 0.00779680728578666
670.0, 0.008019910817709133
671.0, 0.008225399214822992
672.0, 0.008423769511563156
673.0, 0.0086321289168769
674.0, 0.009077580385417273
675.0, 0.011509080522841823
676.0, 0.013046167668599624
677.0, 0.011780986925876678
678.0, 0.009525601227676138
679.0, 0.008827238047482866
680.0, 0.008543398033588232
681.0, 0.010263924115871447
682.0, 0.010948288595800505
683.0, 0.010437714949472026
684.0, 0.009870123745169978
685.0, 0.010006538932832761
686.0, 0.010760467911708092
687.0, 0.00946362682972712
688.0, 0.009729142128828314
689.0, 0.010265394090578549
690.0, 0.010779267814156036
691.0, 0.01142900628913975
692.0, 0.011160836993313076
693.0, 0.01080086764334484
694.0, 0.01128370491231713
695.0, 0.012352941755674062
696.0, 0.012952881364557115
697.0, 0.012976912565671782
698.0, 0.013360483506344147
699.0, 0.0131387292497953
700.0, 0.011841352378153954
701.0, 0.01208254714546013
702.0, 0.012180893621290493
703.0, 0.011826810698460952
704.0, 0.012549312537172548
705.0, 0.012282732529692364
706.0, 0.012644331724602376
707.0, 0.013552869558994192
708.0, 0.01345166560984458
709.0, 0.01327952420314914
710.0, 0.014056976566087549
711.0, 0.013774459050041207
712.0, 0.013870194974112522
713.0, 0.014303162975602858
714.0, 0.014760339491161
715.0, 0.014960298149475028
716.0, 0.014951285039139521
717.0, 0.015036583730076436
718.0, 0.014957822313115958
719.0, 0.014960831703801738
720.0, 0.015328710344588794
721.0, 0.016140740892023213
722.0, 0.01658577895330488
723.0, 0.016353372812417073
724.0, 0.01750948857402161
725.0, 0.01671196073113339
726.0, 0.01741213740419289
727.0, 0.017980081289922022
728.0, 0.018470318451481168
729.0, 0.01933707033142321
730.0, 0.01893175038683183
731.0, 0.01832740545435334
732.0, 0.019328301441025666
733.0, 0.019246060377241216
734.0, 0.01932688671692045
735.0, 0.02016543076855709
736.0, 0.02018264516978578
737.0, 0.019736475859185143
738.0, 0.021179122515626186
739.0, 0.02135823515092295
740.0, 0.021583481893382703
741.0, 0.02190982714627222
742.0, 0.021961364631123387
743.0, 0.02304561982463939
744.0, 0.022823032399513353
745.0, 0.022934144374634355
746.0, 0.02322053930059427
747.0, 0.022859785094238336
748.0, 0.023089630215696072
749.0, 0.02497371707546226
750.0, 0.025810427630863407
751.0, 0.025572096646009217
752.0, 0.026711465138292145
753.0, 0.02653972157357958
754.0, 0.025639212225006675
755.0, 0.026367953248093934
756.0, 0.02804496887955979
757.0, 0.02745201656276377
758.0, 0.027979675364491363
759.0, 0.02868651292446228
760.0, 0.02846895084047582
761.0, 0.028227314965813616
762.0, 0.028786851454681406
763.0, 0.028800650612134864
764.0, 0.02919921792101469
765.0, 0.029215125119537756
766.0, 0.03028064369784047
767.0, 0.03114236064518563
768.0, 0.031125629759257728
769.0, 0.031291753883103485
770.0, 0.031169643163992254
771.0, 0.03181736244815177
772.0, 0.03258799118272967
773.0, 0.032225963450790436
774.0, 0.03206655815500879
775.0, 0.032609734348303984
776.0, 0.032258733583581375
777.0, 0.03310448716607128
778.0, 0.033170642939905376
779.0, 0.03369471615154916
780.0, 0.033814737858521265
781.0, 0.033756211711104205
782.0, 0.03419085972163393
783.0, 0.0342972838741989
784.0, 0.03555466773168187
785.0, 0.03553822355913383
786.0, 0.035226742105402484
787.0, 0.03508631969543097
788.0, 0.03499021694698169
789.0, 0.035074777940255215
790.0, 0.03557256479236602
791.0, 0.03618943482914704
792.0, 0.036418806176445155
793.0, 0.03631938141068317
794.0, 0.036545920474208196
795.0, 0.036941772799479286
796.0, 0.03695623588616326
797.0, 0.03736201048570109
798.0, 0.03678313435136002
799.0, 0.03695591654299082
800.0, 0.03795835620374776
801.0, 0.03815521290746127
802.0, 0.03780178914575324
803.0, 0.038397751366627035
804.0, 0.03843877492290972
805.0, 0.039668343394608854
806.0, 0.039124492937568395
807.0, 0.03871699004746192
808.0, 0.03962359515920539
809.0, 0.040664442730570315
810.0, 0.040249650616789694
811.0, 0.04046142151549283
812.0, 0.040628767005625996
813.0, 0.04061183635536332
814.0, 0.041509849013358587
815.0, 0.04224399206373492
816.0, 0.042036585089872874
817.0, 0.04204979045020528
818.0, 0.04306172798338007
819.0, 0.043798952699370966
820.0, 0.043638254055740046
821.0, 0.044219849000882494
822.0, 0.045187886602294544
823.0, 0.04602703148931013
824.0, 0.04669986978495445
825.0, 0.046006515290663456
826.0, 0.046495874525195546
827.0, 0.046029373890415476
828.0, 0.04731114408289798
829.0, 0.04839966713096135
830.0, 0.04888268637406948
831.0, 0.05068098940744027
832.0, 0.050330848267652564
833.0, 0.0507136175315324
834.0, 0.05193277759919112
835.0, 0.052730288773507196
836.0, 0.0534913893906019
837.0, 0.05472642836260356
838.0, 0.05559171635817383
839.0, 0.05522525345051375
840.0, 0.05660318494440761
841.0, 0.059102578096369006
842.0, 0.05984301965015272
843.0, 0.05978793776339637
844.0, 0.06102967797984429
845.0, 0.06346828074571471
846.0, 0.06455883243584168
847.0, 0.06493335646963148
848.0, 0.06612902391926177
849.0, 0.06706054850001388
850.0, 0.06857628048455214
851.0, 0.07072581528238583
852.0, 0.07202242051073851
853.0, 0.07248022117097921
854.0, 0.0754105062471038
855.0, 0.07669541449831413
856.0, 0.07759235162519452
857.0, 0.07866389412545646
858.0, 0.08041123530644638
859.0, 0.08209567548532916
860.0, 0.08302141855006599
861.0, 0.08579495820780658
862.0, 0.08712662335648677
863.0, 0.08860097415808105
864.0, 0.0904397403303371
865.0, 0.09128095745559872
866.0, 0.09220430402012157
867.0, 0.09501559462670285
868.0, 0.09758031992059828
869.0, 0.0973928428689778
870.0, 0.09956946841702935
871.0, 0.10235849980781904
872.0, 0.1030329298699847
873.0, 0.10460555127118147
874.0, 0.10793226786545423
875.0, 0.10900735307070114
876.0, 0.11092701126347806
877.0, 0.11351830464769955
878.0, 0.11457604775714791
879.0, 0.11516443145168095
880.0, 0.11770117221970913
881.0, 0.12095402688377399
882.0, 0.12216212803476538
883.0, 0.12246978770494213
884.0, 0.12548738954269972
885.0, 0.12757533491992643
886.0, 0.13177870870944194
887.0, 0.13306787578083346
888.0, 0.13471281929010498
889.0, 0.13881940073422552
890.0, 0.14037946386648784
891.0, 0.14178717170699984
892.0, 0.14329218606157476
893.0, 0.14451568417267266
894.0, 0.148445740587909
895.0, 0.15078374767427216
896.0, 0.15117667763213888
897.0, 0.15304407371651294
898.0, 0.15621190604194823
899.0, 0.15952294847775983
900.0, 0.1608887619109957
901.0, 0.1642702047546439
902.0, 0.1658805783381555
903.0, 0.16735263913708018
904.0, 0.17073186780761482
905.0, 0.1739431620140209
906.0, 0.17527900525454151
907.0, 0.17746015492643577
908.0, 0.18168024661372767
909.0, 0.18455923832624116
910.0, 0.18689759063545297
911.0, 0.18806885026156475
912.0, 0.1892516704758941
913.0, 0.1926282417359797
914.0, 0.19516327791562613
915.0, 0.1998286523190222
916.0, 0.202718132163822
917.0, 0.20528837553467247
918.0, 0.20791773315724943
919.0, 0.21073074266032663
920.0, 0.2136575456742896
921.0, 0.21604590706440854
922.0, 0.2181251710225504
923.0, 0.22242141373935395
924.0, 0.22446293685885294
925.0, 0.22849929974314986
926.0, 0.232139237536938
927.0, 0.23430971056142477
928.0, 0.23724473081218497
929.0, 0.24171558416534705
930.0, 0.24457314149425122
931.0, 0.24670054422205293
932.0, 0.2506965412252494
933.0, 0.25195733775345674
934.0, 0.25508728324040403
935.0, 0.2592110966350207
936.0, 0.26226051276296847
937.0, 0.2669766552952202
938.0, 0.2700418346196662
939.0, 0.2751542021076446
940.0, 0.27914246135963205
941.0, 0.2831839794332456
942.0, 0.28839664251986885
943.0, 0.29289538739478915
944.0, 0.29623468859434027
945.0, 0.3007181964607721
946.0, 0.305741505301327
947.0, 0.31222094099931463
948.0, 0.31568544971198764
949.0, 0.3197832517530473
950.0, 0.32590992185789947
951.0, 0.3311515523226009
952.0, 0.3362179277529878
953.0, 0.3435898504091339
954.0, 0.3491954710644645
955.0, 0.3542705791121052
956.0, 0.36108353667004434
957.0, 0.36698933275511436
958.0, 0.37068045147661327
959.0, 0.3761931387938998
960.0, 0.38413002218090064
961.0, 0.3906963704003884
962.0, 0.3967024588542579
963.0, 0.4041774287626342
964.0, 0.40992363770262896
965.0, 0.4185113646770223
966.0, 0.426595799238609
967.0, 0.43476995828140114
968.0, 0.4433521256869187
969.0, 0.4511644105498247
970.0, 0.4584339965740049
971.0, 0.4652061954059355
972.0, 0.47250460559182245
973.0, 0.48078388590607407
974.0, 0.48909728045343437
975.0, 0.4975389701335454
976.0, 0.5055340824297399
977.0, 0.5138280991619215
978.0, 0.5229838536038218
979.0, 0.5311573931636312
980.0, 0.5435963920122302
981.0, 0.5522027949062739
982.0, 0.5598768662359395
983.0, 0.5686137900193697
984.0, 0.5783817804289058
985.0, 0.5889970257127942
986.0, 0.5992683916765088
987.0, 0.607570599754625
988.0, 0.6167216271228154
989.0, 0.6290863523473248
990.0, 0.6399612781014985
991.0, 0.6500725787768574
992.0, 0.6586478626236554
993.0, 0.6679552054329004
994.0, 0.6788941381191782
995.0, 0.6886889888861693
996.0, 0.6963727489900756
997.0, 0.7079330389069295
998.0, 0.7182184452852167
999.0, 0.7277365774857362
1000.0, 0.7372994934025604
1001.0, 0.7460337813541315
1002.0, 0.7551722666745088
1003.0, 0.7640963510404665
1004.0, 0.7725367557983112
1005.0, 0.7861375007795008
1006.0, 0.7942776182105901
1007.0, 0.8045328001470428
1008.0, 0.8149766107686119
1009.0, 0.821287310959856
1010.0, 0.8301847108113363
1011.0, 0.8411025232608437
1012.0, 0.8493443554677895
1013.0, 0.8571053663195047
1014.0, 0.8647985900295883
1015.0, 0.8718074729086975
1016.0, 0.8797358796145609
1017.0, 0.8868245428270528
1018.0, 0.8956145774002021
1019.0, 0.9035312456629382
1020.0, 0.9113659969048813
1021.0, 0.9210143809572701
1022.0, 0.9287426752835117
1023.0, 0.9326902159424326
1024.0, 0.9382128673417802
1025.0, 0.9412153479585041
1026.0, 0.9469258764678419
1027.0, 0.9515140145513911
1028.0, 0.9563176059500055
1029.0, 0.9623410211204053
1030.0, 0.968075737411372
1031.0, 0.9726962078968147
1032.0, 0.9737004749869449
1033.0, 0.976723026060683
1034.0, 0.9825787699549939
1035.0, 0.9896736818444596
1036.0, 0.9899390672235363
1037.0, 0.9908309855024401
1038.0, 0.993688686007421
1039.0, 0.9943507358671412
1040.0, 0.9948233239069052
1041.0, 0.9966235724113867
1042.0, 0.997256938677328
1043.0, 0.9965669221860273
1044.0, 0.9985042454565037
1045.0, 0.9986545444769704
1046.0, 0.9996419248010018
1047.0, 0.9982482164208581
1048.0, 0.9967988207918279
1049.0, 0.999959449620907
1050.0, 0.9989856910125507
1051.0, 0.9970483070558838
1052.0, 0.9924329288753901
1053.0, 0.9939866994169718
1054.0, 0.9931900797972987
1055.0, 0.9890748972050629
1056.0, 0.9877917230523625
1057.0, 0.9865940977555456
1058.0, 0.9822646062164059
1059.0, 0.9782405609446259
1060.0, 0.9721835016169843
1061.0, 0.9712530702810959
1062.0, 0.9670852314150908
1063.0, 0.9621368987840453
1064.0, 0.9589790361782419
1065.0, 0.9543452534100063
1066.0, 0.9468669448418499
1067.0, 0.9406003322753526
1068.0, 0.9371946604336353
1069.0, 0.9321794149422308
1070.0, 0.9259757597855031
1071.0, 0.9211365547305992
1072.0, 0.9143419970023642
1073.0, 0.9089353162461153
1074.0, 0.9018512811892474
1075.0, 0.8965728857460156
1076.0, 0.8913060686115782
1077.0, 0.8837189857155006
1078.0, 0.8773797929539762
1079.0, 0.8703868472021168
1080.0, 0.8634198771404208
1081.0, 0.8579176136335445
1082.0, 0.8510987932341618
1083.0, 0.8441315050701278
1084.0, 0.8383900996747796
1085.0, 0.8306653027594291
1086.0, 0.822696969208409
1087.0, 0.8156217109751974
1088.0, 0.8065353884143994
1089.0, 0.799357844607479
1090.0, 0.7912890820800498
1091.0, 0.7836239027256546
1092.0, 0.7794001225290194
1093.0, 0.7713494651596668
1094.0, 0.763422202155085
1095.0, 0.7550352939413391
1096.0, 0.7478074134115827
1097.0, 0.7432391622546431
1098.0, 0.7365958663245249
1099.0, 0.7290647727745239
1100.0, 0.7223123123909768
1101.0, 0.7142750900105581
1102.0, 0.7048925294782032
1103.0, 0.6958430287636319
1104.0, 0.6910360367885914
1105.0, 0.6835555356641189
1106.0, 0.6760716493014888
1107.0, 0.671108269829615
1108.0, 0.6616747509030615
1109.0, 0.6538332915029865
1110.0, 0.6489516169836785
1111.0, 0.6411265521913672
1112.0, 0.6357338672711548
1113.0, 0.6255785834791873
1114.0, 0.6191298621415688
1115.0, 0.6131983045233359
1116.0, 0.6047884282537015
1117.0, 0.5975460876005136
1118.0, 0.592220752347857
1119.0, 0.5857415318703224
1120.0, 0.5806688892465974
1121.0, 0.5728463052524028
1122.0, 0.5676137565174434
1123.0, 0.5622365239018385
1124.0, 0.553171993018469
1125.0, 0.5476729571531554
1126.0, 0.5431436387230667
1127.0, 0.5365949185529431
1128.0, 0.5305564465384969
1129.0, 0.5253437067878874
1130.0, 0.5183201659149236
1131.0, 0.5100889324511114
1132.0, 0.5066886798642496
1133.0, 0.5008195219484115
1134.0, 0.4962170662979905
1135.0, 0.494433175055924
1136.0, 0.4908597807663754
1137.0, 0.4859317940142852
1138.0, 0.4811868741579895
1139.0, 0.47611073974422863
1140.0, 0.4709266092529243
1141.0, 0.4650679937681065
1142.0, 0.4617687069970319
1143.0, 0.4612934207558763
1144.0, 0.45550997945589683
1145.0, 0.450987274423295
1146.0, 0.448064398083313
1147.0, 0.4456804524600174
1148.0, 0.4419249375791181
1149.0, 0.4376757852198189
1150.0, 0.4341446098461606
1151.0, 0.4299879692494988
1152.0, 0.42724275606683465
1153.0, 0.4256101835066106
1154.0, 0.4217611222983517
1155.0, 0.4175244635236733
1156.0, 0.41508206976326545
1157.0, 0.41249688739862206
1158.0, 0.41030303834469634
1159.0, 0.4079788345293681
1160.0, 0.40525889747847305
1161.0, 0.4032714254075916
1162.0, 0.40189007042203934
1163.0, 0.40059716038351284
1164.0, 0.3999388912735967
1165.0, 0.3957007331179903
1166.0, 0.39534096537447105
1167.0, 0.3936993939191466
1168.0, 0.39162179952101694
1169.0, 0.3891287241221149
1170.0, 0.3885509655805106
1171.0, 0.3888382039900857
1172.0, 0.38730584833804516
1173.0, 0.38609200315634357
1174.0, 0.3846443774300552
1175.0, 0.38485294186218144
1176.0, 0.38309358517997466
1177.0, 0.3835376373725952
1178.0, 0.3827561166104862
1179.0, 0.38116107145681305
1180.0, 0.3801311027646986
1181.0, 0.3813638553625771
1182.0, 0.38153604009072184
1183.0, 0.37897054939456326
1184.0, 0.377509808782322
1185.0, 0.3791453803073649
1186.0, 0.3796145312413524
1187.0, 0.3783324325650865
1188.0, 0.37942885550624994
1189.0, 0.37943571504641616
1190.0, 0.3792933439098204
1191.0, 0.3791785179662537
1192.0, 0.378212269442759
1193.0, 0.38027937780068066
1194.0, 0.38184408452728996
1195.0, 0.38030851650844166
1196.0, 0.3796418173531005
1197.0, 0.38110113617459374
1198.0, 0.38132092155002534
1199.0, 0.38161185781593165
1200.0, 0.38147439825947627
1201.0, 0.3823935899793853
1202.0, 0.38344984579518976
1203.0, 0.38375588892123474
1204.0, 0.3845730464816526
1205.0, 0.3859257189931793
1206.0, 0.38639315337492197
1207.0, 0.38716320911520125
1208.0, 0.38819275167022005
1209.0, 0.388580046936487
1210.0, 0.3906724727728138
1211.0, 0.39148609853032285
1212.0, 0.3929857810041692
1213.0, 0.3926461850836087
1214.0, 0.3948748980992168
1215.0, 0.3931927635940561
1216.0, 0.39347509401885056
1217.0, 0.39355393045436204
1218.0, 0.39353230883164453
1219.0, 0.3943198568661648
1220.0, 0.39462565721569165
1221.0, 0.3962750112065386
1222.0, 0.3997714213956344
1223.0, 0.3998517138937895
1224.0, 0.40142093182880595
1225.0, 0.4023761567174694
1226.0, 0.40156254029629745
1227.0, 0.4023219039300742
1228.0, 0.40158921354421034
1229.0, 0.4034268013947401
1230.0, 0.40540167274508443
1231.0, 0.40477143131882687
1232.0, 0.40549090145150596
1233.0, 0.406949191275286
1234.0, 0.40736522845499124
1235.0, 0.4077759259168169
1236.0, 0.4062353316142594
1237.0, 0.4051488180640176
1238.0, 0.4076310059602215
1239.0, 0.40827143199637805
1240.0, 0.4096175197227987
1241.0, 0.41103174203596304
1242.0, 0.41372294650975655
1243.0, 0.41255965225783187
1244.0, 0.414113982312753
1245.0, 0.41678401969515216
1246.0, 0.41468452720026544
1247.0, 0.41288405862498345
1248.0, 0.4142329445849773
1249.0, 0.41401211558048645
1250.0, 0.4123939269411252
1251.0, 0.41510520253881367
1252.0, 0.4162274622558837
1253.0, 0.41716382549326614
1254.0, 0.4171113199415547
1255.0, 0.4170133577587559
1256.0, 0.4162861478027081
1257.0, 0.4157554090548534
1258.0, 0.4160734713810168
1259.0, 0.41649342782161636
1260.0, 0.41630685246375637
1261.0, 0.41583374225600195
1262.0, 0.4158846132887617
1263.0, 0.4163653732909208
1264.0, 0.4157507115435825
1265.0, 0.4150511721708005
1266.0, 0.4145986889179355
1267.0, 0.4147568404646961
1268.0, 0.4152844241975277
1269.0, 0.41262034044894186
1270.0, 0.41324501875211295
1271.0, 0.41222643505608214
1272.0, 0.41119837097671486
1273.0, 0.4101988667522147
1274.0, 0.4086764406383636
1275.0, 0.40912078191363516
1276.0, 0.40900557218200084
1277.0, 0.40972870949447543
1278.0, 0.40834031949201277
1279.0, 0.4077570958588609
1280.0, 0.4061157851540911
1281.0, 0.403843679511656
1282.0, 0.4037603291601713
1283.0, 0.40313651467113604
1284.0, 0.4025904356547177
1285.0, 0.4012874804714505
1286.0, 0.4011945779164217
1287.0, 0.39984493037808144
1288.0, 0.39791134164240294
1289.0, 0.3973131758687721
1290.0, 0.39623183403895285
1291.0, 0.3959065753410012
1292.0, 0.3945765214396067
1293.0, 0.39252827581682026
1294.0, 0.3936409021392843
1295.0, 0.38881049107436016
1296.0, 0.38713716473627335
1297.0, 0.3855888186064853
1298.0, 0.38523480071279254
1299.0, 0.38329775953306977
1300.0, 0.3800549402619014
1301.0, 0.3786336276676702
1302.0, 0.37754078674847047
1303.0, 0.37443839144225577
1304, 0.0
1305, 0.0
1306, 0.0
1307, 0.0
1308, 0.0
1309, 0.0
1310, 0.0
1311, 0.0
1312, 0.0
1313, 0.0
1314, 0.0
1315, 0.0
1316, 0.0
1317, 0.0
1318, 0.0
1319, 0.0
1320, 0.0
1321, 0.0
1322, 0.0
1323, 0.0
1324, 0.0
1325, 0.0
1326, 0.0
1327, 0.0
1328, 0.0
1329, 0.0
1330, 0.0
1331, 0.0
1332, 0.0
1333, 0.0
1334, 0.0
1335, 0.0
1336, 0.0
1337, 0.0
1338, 0.0
1339, 0.0
1340, 0.0
1341, 0.0
1342, 0.0
1343, 0.0
1344, 0.0
1345, 0.0
1346, 0.0
1347, 0.0
1348, 0.0
1349, 0.0
1350, 0.0
1351, 0.0
1352, 0.0
1353, 0.0
1354, 0.0
1355, 0.0
1356, 0.0
1357, 0.0
1358, 0.0
1359, 0.0
1360, 0.0
1361, 0.0
1362, 0.0
1363, 0.0
1364, 0.0
1365, 0.0
1366, 0.0
1367, 0.0
1368, 0.0
1369, 0.0
1370, 0.0
1371, 0.0
1372, 0.0
1373, 0.0
1374, 0.0
1375, 0.0
1376, 0.0
1377, 0.0
1378, 0.0
1379, 0.0
1380, 0.0
1381, 0.0
1382, 0.0
1383, 0.0
1384, 0.0
1385, 0.0
1386, 0.0
1387, 0.0
1388, 0.0
1389, 0.0
1390, 0.0
1391, 0.0
1392, 0.0
1393, 0.0
1394, 0.0
1395, 0.0
1396, 0.0
1397, 0.0
1398, 0.0
1399, 0.0
1400, 0.0
1401, 0.0
1402, 0.0
1403, 0.0
1404, 0.0
1405, 0.0
1406, 0.0
1407, 0.0
1408, 0.0
1409, 0.0
1410, 0.0
1411, 0.0
1412, 0.0
1413, 0.0
1414, 0.0
1415, 0.0
1416, 0.0
1417, 0.0
1418, 0.0
1419, 0.0
1420, 0.0
1421, 0.0
1422, 0.0
1423, 0.0
1424, 0.0
1425, 0.0
1426, 0.0
1427, 0.0
1428, 0.0
1429, 0.0
1430, 0.0
1431, 0.0
1432, 0.0
1433, 0.0
1434, 0.0
1435, 0.0
1436, 0.0
1437, 0.0
1438, 0.0
1439, 0.0
1440, 0.0
1441, 0.0
1442, 0.0
1443, 0.0
1444, 0.0
1445, 0.0
1446, 0.0
1447, 0.0
1448, 0.0
1449, 0.0
1450, 0.0
1451, 0.0
1452, 0.0
1453, 0.0
1454, 0.0
1455, 0.0
1456, 0.0
1457, 0.0
1458, 0.0
1459, 0.0
1460, 0.0
1461, 0.0
1462, 0.0
1463, 0.0
1464, 0.0
1465, 0.0
1466, 0.0
1467, 0.0
1468, 0.0
1469, 0.0
1470, 0.0
1471, 0.0
1472, 0.0
1473, 0.0
1474, 0.0
1475, 0.0
1476, 0.0
1477, 0.0
1478, 0.0
1479, 0.0
1480, 0.0
1481, 0.0
1482, 0.0
1483, 0.0
1484, 0.0
1485, 0.0
1486, 0.0
1487, 0.0
1488, 0.0
1489, 0.0
1490, 0.0
1491, 0.0
1492, 0.0
1493, 0.0
1494, 0.0
1495, 0.0
1496, 0.0
1497, 0.0
1498, 0.0
1499, 0.0
1500, 0.0
1501, 0.0
1502, 0.0
1503, 0.0
1504, 0.0
1505, 0.0
1506, 0.0
1507, 0.0
1508, 0.0
1509, 0.0
1510, 0.0
1511, 0.0
1512, 0.0
1513, 0.0
1514, 0.0
1515, 0.0
1516, 0.0
1517, 0.0
1518, 0.0
1519, 0.0
1520, 0.0
1521, 0.0
1522, 0.0
1523, 0.0
1524, 0.0
1525, 0.0
1526, 0.0
1527, 0.0
1528, 0.0
1529, 0.0
1530, 0.0
1531, 0.0
1532, 0.0
1533, 0.0
1534, 0.0
1535, 0.0
1536, 0.0
1537, 0.0
1538, 0.0
1539, 0.0
1540, 0.0
1541, 0.0
1542, 0.0
1543, 0.0
1544, 0.0
1545, 0.0
1546, 0.0
1547, 0.0
1548, 0.0
1549, 0.0
1550, 0.0
1551, 0.0
1552, 0.0
1553, 0.0
1554, 0.0
1555, 0.0
1556, 0.0
1557, 0.0
1558, 0.0
1559, 0.0
1560, 0.0
1561, 0.0
1562, 0.0
1563, 0.0
1564, 0.0
1565, 0.0
1566, 0.0
1567, 0.0
1568, 0.0
1569, 0.0
1570, 0.0
1571, 0.0
1572, 0.0
1573, 0.0
1574, 0.0
1575, 0.0
1576, 0.0
1577, 0.0
1578, 0.0
1579, 0.0
1580, 0.0
1581, 0.0
1582, 0.0
1583, 0.0
1584, 0.0
1585, 0.0
1586, 0.0
1587, 0.0
1588, 0.0
1589, 0.0
1590, 0.0
1591, 0.0
1592, 0.0
1593, 0.0
1594, 0.0
1595, 0.0
1596, 0.0
1597, 0.0
1598, 0.0
1599, 0.0
