30, 0.0
31, 0.0
32, 0.0
33, 0.0
34, 0.0
35, 0.0
36, 0.0
37, 0.0
38, 0.0
39, 0.0
40, 0.0
41, 0.0
42, 0.0
43, 0.0
44, 0.0
45, 0.0
46, 0.0
47, 0.0
48, 0.0
49, 0.0
50, 0.0
51, 0.0
52, 0.0
53, 0.0
54, 0.0
55, 0.0
56, 0.0
57, 0.0
58, 0.0
59, 0.0
60, 0.0
61, 0.0
62, 0.0
63, 0.0
64, 0.0
65, 0.0
66, 0.0
67, 0.0
68, 0.0
69, 0.0
70, 0.0
71, 0.0
72, 0.0
73, 0.0
74, 0.0
75, 0.0
76, 0.0
77, 0.0
78, 0.0
79, 0.0
80, 0.0
81, 0.0
82, 0.0
83, 0.0
84, 0.0
85, 0.0
86, 0.0
87, 0.0
88, 0.0
89, 0.0
90, 0.0
91, 0.0
92, 0.0
93, 0.0
94, 0.0
95, 0.0
96, 0.0
97, 0.0
98, 0.0
99, 0.0
100, 0.0
101, 0.0
102, 0.0
103, 0.0
104.0, 0.744424636897593
105.0, 0.7485200032359619
106.0, 0.7538007772918489
107.0, 0.7607645155488496
108.0, 0.7659332578099258
109.0, 0.7721978331035769
110.0, 0.7775816385554453
111.0, 0.7820422795790216
112.0, 0.7872756886413953
113.0, 0.7938878855688348
114.0, 0.8005212492975634
115.0, 0.8065622818881704
116.0, 0.812112698345094
117.0, 0.8182177256075771
118.0, 0.8232854881947015
119.0, 0.8274861572173353
120.0, 0.8317295868829714
121.0, 0.8367833066266249
122.0, 0.8429022526750041
123.0, 0.8494725334836759
124.0, 0.8555763483001046
125.0, 0.8603397597148477
126.0, 0.8644789464353715
127.0, 0.8687600116791283
128.0, 0.8736327759102487
129.0, 0.8792847909593262
130.0, 0.8845220732323962
131.0, 0.8890157792646556
132.0, 0.893219807525846
133.0, 0.8980703036908241
134.0, 0.9018830536908191
135.0, 0.9067770422731212
136.0, 0.9124001197715438
137.0, 0.9168760284140736
138.0, 0.9204412897776787
139.0, 0.9256194926330826
140.0, 0.9299446521069455
141.0, 0.9315426713940002
142.0, 0.9359893566539605
143.0, 0.9409067044009568
144.0, 0.9456501472812474
145.0, 0.9497040097094098
146.0, 0.9516051278498076
147.0, 0.9545658929915347
148.0, 0.9581186176083453
149.0, 0.9616604084153787
150.0, 0.9648298521449399
151.0, 0.9672985310802956
152.0, 0.9706726064436584
153.0, 0.9737931251509147
154.0, 0.9750015942455975
155.0, 0.9790089004754922
156.0, 0.9816990194209995
157.0, 0.9834844812370114
158.0, 0.9860336206438829
159.0, 0.988528660125985
160.0, 0.989048640281377
161.0, 0.9901767673953478
162.0, 0.9926999754306216
163.0, 0.9949706631508763
164.0, 0.9957851136428898
165.0, 0.9964164913675412
166.0, 0.9969504147824729
167.0, 0.9971201745512466
168.0, 0.9981223491541835
169.0, 0.997938347433099
170.0, 0.9972722388372415
171.0, 0.997774643396719
172.0, 0.9995584688207563
173.0, 0.9997134227970702
174.0, 0.9980735435586465
175.0, 0.9967432515019606
176.0, 0.9976138304749256
177.0, 0.9973744000972661
178.0, 0.9965325460310988
179.0, 0.9958427147531301
180.0, 0.9954091331814271
181.0, 0.9943891774429773
182.0, 0.9934368273237025
183.0, 0.9921972581532925
184.0, 0.990626059283143
185.0, 0.9895651660701864
186.0, 0.9868098280693619
187.0, 0.9839383630766878
188.0, 0.981279970843005
189.0, 0.9779723808591431
190.0, 0.9777411851187174
191.0, 0.9766041370469619
192.0, 0.9740799100729006
193.0, 0.9713666351804414
194.0, 0.9689503097286427
195.0, 0.9657601054283556
196.0, 0.9632531506428419
197.0, 0.9614981482175288
198.0, 0.9587341422122387
199.0, 0.9547524667411328
200.0, 0.949804334417834
201.0, 0.9447030491956749
202.0, 0.9403416102716005
203.0, 0.938775382165235
204.0, 0.9353628191625057
205.0, 0.9312154804940945
206.0, 0.9282959942405552
207.0, 0.9269180336978213
208.0, 0.9225100779032936
209.0, 0.9172821411301993
210.0, 0.9132571675267088
211.0, 0.90995619112187
212.0, 0.9054128440171937
213.0, 0.9006604953932454
214.0, 0.8970945976333943
215.0, 0.8944588320199947
216.0, 0.8909382045483853
217.0, 0.8858312656596419
218.0, 0.8820277664788504
219.0, 0.8791232221250647
220.0, 0.874981066993217
221.0, 0.8701231144096033
222.0, 0.8662686428051395
223.0, 0.8629812509138215
224.0, 0.8591713371052321
225.0, 0.8543669692644835
226.0, 0.8508250935692449
227.0, 0.8466577634653232
228.0, 0.8418517036963791
229.0, 0.8380678411375369
230.0, 0.8352918914051249
231.0, 0.8321121968032049
232.0, 0.8282741018961334
233.0, 0.8247625516520398
234.0, 0.8233785083775905
235.0, 0.8205049552382638
236.0, 0.8158097030173386
237.0, 0.8113784778362003
238.0, 0.8090161182425498
239.0, 0.8066765516568041
240.0, 0.8025859941108382
241.0, 0.798720094880473
242.0, 0.7962890405223493
243.0, 0.793757682174538
244.0, 0.7912617827079458
245.0, 0.7884808311718722
246.0, 0.7858638709057297
247.0, 0.7844079124502519
248.0, 0.7836804783571852
249.0, 0.7822110322082391
250.0, 0.7790948009576943
251.0, 0.7754012681391302
252.0, 0.7736572153238601
253.0, 0.7725145006394953
254.0, 0.7703554425653095
255.0, 0.7681639474363227
256.0, 0.7669649317649223
257.0, 0.7655650644044302
258.0, 0.7652051470322278
259.0, 0.7640148548917363
260.0, 0.7625471823861573
261.0, 0.7625836192403884
262.0, 0.7619641919961985
263.0, 0.7618749266898022
264.0, 0.7613843102446892
265.0, 0.7602566738564093
266.0, 0.7604266334322358
267.0, 0.759828133809038
268.0, 0.7598091592182475
269.0, 0.7603274421470828
270.0, 0.760361379774809
271.0, 0.7597106407351069
272.0, 0.7593872578056757
273.0, 0.7592542167345169
274.0, 0.7592876574630096
275.0, 0.7598815090964373
276.0, 0.7607502264950722
277.0, 0.7612685608575678
278.0, 0.762168416401691
279.0, 0.763755419539194
280.0, 0.7645306744124886
281.0, 0.7644770769529575
282.0, 0.7664279427925135
283.0, 0.76882131015154
284.0, 0.768753221324849
285.0, 0.768981603445592
286.0, 0.7697686632909312
287.0, 0.770991720768044
288.0, 0.7725320228799994
289.0, 0.7743478723972165
290.0, 0.7765520337472606
291.0, 0.7784194469889063
292.0, 0.779669304105181
293.0, 0.7808154339556355
294.0, 0.782750050495498
295.0, 0.7838086709796053
296.0, 0.7849937249591452
297.0, 0.7871321489558595
298.0, 0.7901280921163298
299.0, 0.7929020870245022
300.0, 0.7950737503472823
301.0, 0.7958505313988816
302.0, 0.7967420085204937
303.0, 0.7998318404057461
304.0, 0.8034062450266897
305.0, 0.8054530195021706
306.0, 0.8069720206125104
307.0, 0.8088558563961247
308.0, 0.810929654474839
309.0, 0.8129519868302758
310.0, 0.8166004341240706
311.0, 0.8192964790554681
312.0, 0.8199775213852057
313.0, 0.822835926198805
314.0, 0.8269045316515948
315.0, 0.8283750489036199
316.0, 0.8299307129794811
317.0, 0.833775977157138
318.0, 0.8335709777076554
319.0, 0.8359443789226855
320.0, 0.8381461412431163
321.0, 0.8400348792220864
322.0, 0.8432557936492099
323.0, 0.845002469155783
324.0, 0.8450641773507329
325.0, 0.8466292084340191
326.0, 0.8496317070485321
327.0, 0.8517336917829866
328.0, 0.8538252674803807
329.0, 0.8558776607599233
330.0, 0.8568411246594113
331.0, 0.8573040836246661
332.0, 0.8591063966854794
333.0, 0.8621916291386911
334.0, 0.8641002110445702
335.0, 0.8653831875727702
336.0, 0.8669585571525731
337.0, 0.8689235100253768
338.0, 0.8708438223386737
339.0, 0.871521537520466
340.0, 0.8724390937971342
341.0, 0.8734350271069193
342.0, 0.8716515452717877
343.0, 0.8747016481519114
344.0, 0.876492835965485
345.0, 0.8759379878495168
346.0, 0.8754196649039877
347.0, 0.876079554664567
348.0, 0.876431011688944
349.0, 0.877473366904299
350.0, 0.8773690922021914
351.0, 0.8751039269588993
352.0, 0.875100281964881
353.0, 0.875996180001009
354.0, 0.8760746424925513
355.0, 0.8749604912830914
356.0, 0.8738960565124424
357.0, 0.8747909278625555
358.0, 0.8736179899299144
359.0, 0.8720850821024135
360.0, 0.8715240972145782
361.0, 0.8710988667233639
362.0, 0.8692289432916155
363.0, 0.8683979498952821
364.0, 0.8657037428151847
365.0, 0.8629466381623483
366.0, 0.8625523680006713
367.0, 0.8617953505847749
368.0, 0.8596880658803424
369.0, 0.8595202374647674
370.0, 0.8592460617634494
371.0, 0.8560722874975152
372.0, 0.8523259196077542
373.0, 0.8501306659521901
374.0, 0.8482009066435527
375.0, 0.8457692812332231
376.0, 0.8431131448438515
377.0, 0.8422773253326242
378.0, 0.8391079161774582
379.0, 0.836682380921942
380.0, 0.8351618926242772
381.0, 0.8329005050837635
382.0, 0.8308325317831473
383.0, 0.8287567078554479
384.0, 0.8264480643362558
385.0, 0.8240486472505687
386.0, 0.8216951778066149
387.0, 0.8191901905561191
388.0, 0.8175418204898218
389.0, 0.8142370880610625
390.0, 0.8110996318215097
391.0, 0.8094480117690256
392.0, 0.806541560042768
393.0, 0.8033511868835058
394.0, 0.8009760141682526
395.0, 0.7992034235235813
396.0, 0.7970965221030287
397.0, 0.7938339730468963
398.0, 0.7908055575358685
399.0, 0.7881794919839955
400.0, 0.7865437874562602
401.0, 0.7852050189134748
402.0, 0.7822212608674205
403.0, 0.7806107712201741
404.0, 0.7767243935008258
405.0, 0.7738214272113807
406.0, 0.7727678741179271
407.0, 0.7698956695332122
408.0, 0.7680486281222566
409.0, 0.7649160743301388
410.0, 0.7621397208745663
411.0, 0.7603438799095207
412.0, 0.7581647463482467
413.0, 0.7556074338353878
414.0, 0.7541548847310866
415.0, 0.7520696575297307
416.0, 0.7496968978351516
417.0, 0.7483357536545708
418.0, 0.7443570853054412
419.0, 0.7427661623002545
420.0, 0.7413094192086482
421.0, 0.7393748561603325
422.0, 0.7375863958301082
423.0, 0.7346458336734246
424.0, 0.7330193576225287
425.0, 0.7309432793105414
426.0, 0.728221605047476
427.0, 0.7259952828185641
428.0, 0.7240209399239401
429.0, 0.7205703542938758
430.0, 0.7201890125726925
431.0, 0.7190612017698597
432.0, 0.7158669546911078
433.0, 0.7142933530001194
434.0, 0.7130265080422254
435.0, 0.710753717230071
436.0, 0.708135399325342
437.0, 0.7058764083518136
438.0, 0.7036041927458059
439.0, 0.699904797373192
440.0, 0.6990044354486713
441.0, 0.6981192501714975
442.0, 0.6968584423002995
443.0, 0.6959566494482444
444.0, 0.6937088851875978
445.0, 0.6918092630266088
446.0, 0.690013677642741
447.0, 0.6881546143321586
448.0, 0.6861509489210363
449.0, 0.6839881840534037
450.0, 0.6823074929564379
451.0, 0.6810417690703271
452.0, 0.6794270364909195
453.0, 0.677548367700203
454.0, 0.6758994244351312
455.0, 0.6740063014078808
456.0, 0.672421307350693
457.0, 0.6710058107014051
458.0, 0.6696404340004534
459.0, 0.6681362015331646
460.0, 0.6657574439346565
461.0, 0.6634816548180937
462.0, 0.6625312880055538
463.0, 0.6610253013028996
464.0, 0.6582413267681304
465.0, 0.6562728828280375
466.0, 0.6544542592017183
467.0, 0.6530867375891295
468.0, 0.651579543656664
469.0, 0.6497711089909055
470.0, 0.6481609069594745
471.0, 0.6477394297557785
472.0, 0.6454475884633771
473.0, 0.643898202676378
474.0, 0.6422540086655498
475.0, 0.6395737780678046
476.0, 0.6377338327991402
477.0, 0.6342196801747311
478.0, 0.63244471627909
479.0, 0.6308088564245432
480.0, 0.6285057169705301
481.0, 0.6269838484686339
482.0, 0.6253537930457935
483.0, 0.6234728342613172
484.0, 0.62184894899538
485.0, 0.61964399986317
486.0, 0.6167560048867166
487.0, 0.6146104606528916
488.0, 0.6125740114684509
489.0, 0.6111264890346121
490.0, 0.6095517806195018
491.0, 0.6072847639611098
492.0, 0.6047017447848112
493.0, 0.602777781498061
494.0, 0.6007638181922718
495.0, 0.5984978943743745
496.0, 0.5962045979256233
497.0, 0.5939751456039848
498.0, 0.5916419917691991
499.0, 0.589009724867639
500.0, 0.585590973257373
501.0, 0.5831373190138051
502.0, 0.581526410659501
503.0, 0.5796765304891873
504.0, 0.5773125305754809
505.0, 0.574403423232204
506.0, 0.5724031402248674
507.0, 0.5701527382626647
508.0, 0.567603648703085
509.0, 0.5658568943735702
510.0, 0.5630245306057661
511.0, 0.560432769343393
512.0, 0.5580518616921208
513.0, 0.5555977154996155
514.0, 0.5532875296038808
515.0, 0.5513350389434383
516.0, 0.5482473380044262
517.0, 0.5465078422668498
518.0, 0.5430044267893099
519.0, 0.5385644181867254
520.0, 0.5358219400546318
521.0, 0.5337826640184278
522.0, 0.5312105707491778
523.0, 0.5280665441632272
524.0, 0.5246539947347302
525.0, 0.5211448490108429
526.0, 0.517970595563606
527.0, 0.5166163326170768
528.0, 0.5127930966610351
529.0, 0.5094196121766642
530.0, 0.5070867204389089
531.0, 0.5046070679274544
532.0, 0.5013441278147308
533.0, 0.497803585636485
534.0, 0.49588409864163585
535.0, 0.49339422106428626
536.0, 0.48988713039439247
537.0, 0.48655955564803804
538.0, 0.4844863474289433
539.0, 0.48049425792585393
540.0, 0.47773695230166735
541.0, 0.47494799553733547
542.0, 0.4715166257324504
543.0, 0.4682028388458377
544.0, 0.46500573509223775
545.0, 0.4614845763749
546.0, 0.459333430762303
547.0, 0.45686020631484514
548.0, 0.45360550723876847
549.0, 0.4506702498812426
550.0, 0.4473482209392661
551.0, 0.4443820602614341
552.0, 0.4421027556977103
553.0, 0.4392253031584725
554.0, 0.4354783457658721
555.0, 0.4323395680194925
556.0, 0.4291597663597067
557.0, 0.4261144282537657
558.0, 0.42363862259747376
559.0, 0.42102350726726695
560.0, 0.4178956233457967
561.0, 0.4147913116122882
562.0, 0.411525150487854
563.0, 0.40802957971568005
564.0, 0.405430330910973
565.0, 0.4031898313579365
566.0, 0.4001879306051136
567.0, 0.3959918955202636
568.0, 0.39442159558333045
569.0, 0.3917209244144878
570.0, 0.3884430820471471
571.0, 0.3854137380411143
572.0, 0.38207393148008817
573.0, 0.37763948756592797
574.0, 0.374917067759651
575.0, 0.37281380101213335
576.0, 0.3702119765854678
577.0, 0.3673237849976358
578.0, 0.36424142563524714
579.0, 0.3602607508399023
580.0, 0.358090849017458
581.0, 0.3553739404205257
582.0, 0.3522420280682517
583.0, 0.34898075794174066
584.0, 0.346075274644387
585.0, 0.3442120974541412
586.0, 0.3428757317495981
587.0, 0.33927538984469957
588.0, 0.33538118982124576
589.0, 0.33228327813851544
590.0, 0.32934315008140685
591.0, 0.32586476678796555
592.0, 0.32457208836107576
593.0, 0.32154452211436246
594.0, 0.3184470792663086
595.0, 0.3153871996827439
596.0, 0.3120654967059471
597.0, 0.3095031967220886
598.0, 0.30876043138374
599.0, 0.3047223175317646
600.0, 0.30167255973455426
601.0, 0.2995147763850804
602.0, 0.2966642509247036
603.0, 0.2934824075901818
604.0, 0.29172773674110275
605.0, 0.2891936558035304
606.0, 0.2866632393044976
607.0, 0.28405523302379343
608.0, 0.28121608311805835
609.0, 0.27832447814854516
610.0, 0.27563416742859215
611.0, 0.2730790214230582
612.0, 0.27088716381547506
613.0, 0.2685007270547848
614.0, 0.2662510848050646
615.0, 0.2643505203487461
616.0, 0.26194223724582144
617.0, 0.2592541155108751
618.0, 0.25684071123530755
619.0, 0.2543554003553569
620.0, 0.2520063893388093
621.0, 0.24970871267397005
622.0, 0.24696488712560213
623.0, 0.24551449028741554
624.0, 0.24349469081660663
625.0, 0.24094911136264247
626.0, 0.23867317591522602
627.0, 0.23663440493722698
628.0, 0.2342721225634381
629.0, 0.23175582156361674
630.0, 0.23009281147434735
631.0, 0.22820985077064415
632.0, 0.22617387032355138
633.0, 0.22419387251361197
634.0, 0.22220841639973568
635.0, 0.22014471131154298
636.0, 0.21818918486786884
637.0, 0.215588696608722
638.0, 0.21359060738123495
639.0, 0.2118994085826729
640.0, 0.20988335250076645
641.0, 0.20778172862718872
642.0, 0.20609041426895072
643.0, 0.20453955373096513
644.0, 0.20267172856732216
645.0, 0.2008659685447536
646.0, 0.1989365760061692
647.0, 0.19685634797618254
648.0, 0.19577787916985365
649.0, 0.19447710071095137
650.0, 0.1923473016973557
651.0, 0.1902756694019205
652.0, 0.18859996081700112
653.0, 0.18712384983539457
654.0, 0.18549481582331884
655.0, 0.18315515298336987
656.0, 0.18131382302523708
657.0, 0.1797833407533143
658.0, 0.17816814435963724
659.0, 0.17647012969777404
660.0, 0.17476707633098193
661.0, 0.1729966822054584
662.0, 0.17140676794353682
663.0, 0.1699763931008918
664.0, 0.1685316898693511
665.0, 0.1668825681060761
666.0, 0.16529496545040348
667.0, 0.1642392416555706
668.0, 0.16313962655503478
669.0, 0.16144631124915498
670.0, 0.15950823226934988
671.0, 0.1581815857063373
672.0, 0.1572039772555352
673.0, 0.15583861927757975
674.0, 0.1541487664551223
675.0, 0.15232378085312395
676.0, 0.15143953120655906
677.0, 0.14985845785803673
678.0, 0.14808175871088955
679.0, 0.14695378159751168
680.0, 0.1459636956254293
681.0, 0.14451655142497016
682.0, 0.14329255499735
683.0, 0.14227334227916585
684.0, 0.14108179363523757
685.0, 0.1395393982938065
686.0, 0.13795486417727437
687.0, 0.13676007472033408
688.0, 0.1357022931952863
689.0, 0.13497683049125453
690.0, 0.13341507258506427
691.0, 0.13233200395799793
692.0, 0.13124012823602368
693.0, 0.12963057491620367
694.0, 0.1289920049015827
695.0, 0.12759902676636775
696.0, 0.12629554685260855
697.0, 0.1252620072090368
698.0, 0.12428400331834365
699.0, 0.12320462921090478
700.0, 0.12220165795814272
701.0, 0.12164624376000958
702.0, 0.1205644146883425
703.0, 0.11886602843989358
704.0, 0.11790429739638761
705.0, 0.11706598903740349
706.0, 0.11615768633961042
707.0, 0.11550862100682883
708.0, 0.11481404739021657
709.0, 0.11381855976579733
710.0, 0.1124584500071699
711.0, 0.11154175041074767
712.0, 0.11041367706865111
713.0, 0.10908236688867542
714.0, 0.10813582186339267
715.0, 0.10749220968671927
716.0, 0.10699848054535543
717.0, 0.10545238653840495
718.0, 0.10451331136935155
719.0, 0.10421173421894898
720.0, 0.10354134822628352
721.0, 0.10228702107226814
722.0, 0.10134975523908359
723.0, 0.10080724572857498
724.0, 0.10016584533434318
725.0, 0.09923973306781403
726.0, 0.09797829242277138
727.0, 0.09697056145230921
728.0, 0.09628133441646042
729.0, 0.09513477201046674
730.0, 0.09420615371250587
731.0, 0.09452031588684068
732.0, 0.09413949720544106
733.0, 0.0929003725070227
734.0, 0.0916706289109193
735.0, 0.09077854888172575
736.0, 0.0899608678468733
737.0, 0.08966190802619829
738.0, 0.08859425915838172
739.0, 0.08803076658989156
740.0, 0.08696495187815166
741.0, 0.08596685733721121
742.0, 0.08568784168252197
743.0, 0.0850471341559547
744.0, 0.08357652052023336
745.0, 0.08329218191210429
746.0, 0.08330332479220733
747.0, 0.08205024789797517
748.0, 0.08117115578718034
749.0, 0.08069076938547141
750.0, 0.0795395105287047
751.0, 0.07950070500583689
752.0, 0.07846091008855396
753.0, 0.07841324866165723
754.0, 0.07691564794184788
755.0, 0.07666412737579521
756.0, 0.07748904434648256
757.0, 0.07685764345660209
758.0, 0.07516127984611617
759.0, 0.07392667328482024
760.0, 0.07324135658552659
761.0, 0.07273747658698637
762.0, 0.07213771448167786
763.0, 0.07134987349849853
764.0, 0.07066834098847241
765.0, 0.07032083151109055
766.0, 0.06969742066298142
767.0, 0.06852692001253337
768.0, 0.0686946946562344
769.0, 0.06789659310752934
770.0, 0.0668636384135263
771.0, 0.06636065673295367
772.0, 0.06584371422464039
773.0, 0.06533913345880468
774.0, 0.0647803145282732
775.0, 0.06448849286453748
776.0, 0.06389839557826155
777.0, 0.06325285447890042
778.0, 0.06272057876740054
779.0, 0.06232940008073455
780.0, 0.06201656015971239
781.0, 0.06102908671031665
782.0, 0.06092241286874702
783.0, 0.06053148234819941
784.0, 0.059608827860760515
785.0, 0.0586968650567591
786.0, 0.058348055064553414
787.0, 0.05796673765539269
788.0, 0.056995137332311104
789.0, 0.057023709412612214
790.0, 0.05598474758477638
791.0, 0.05588219493686431
792.0, 0.05587388060736881
793.0, 0.05522418272876417
794.0, 0.05448094454673401
795.0, 0.054192876257381166
796.0, 0.053789811667471286
797.0, 0.05269032216934944
798.0, 0.05250747015707154
799.0, 0.052155908523002184
800.0, 0.05146411371844999
801.0, 0.05122793510526586
802.0, 0.05090111059750342
803.0, 0.04975774262104428
804.0, 0.04957751143169288
805.0, 0.04892605475408829
806.0, 0.04878137123008261
807.0, 0.048380400176585646
808.0, 0.04788612128632676
809.0, 0.04717276668315502
810.0, 0.046517024667513236
811.0, 0.0465698493920842
812.0, 0.04599320697549757
813.0, 0.045324921587142956
814.0, 0.04467294895439016
815.0, 0.044513672942645965
816.0, 0.04422206455265585
817.0, 0.04386015361672639
818.0, 0.0434444110460284
819.0, 0.04276299652831368
820.0, 0.04244695065642208
821.0, 0.042545847403035374
822.0, 0.04194197689718815
823.0, 0.04183265426968653
824.0, 0.04095347760314004
825.0, 0.04025766522016407
826.0, 0.039986272083778605
827.0, 0.039415705062853544
828.0, 0.03942620986991538
829.0, 0.03919756717138572
830.0, 0.03872584081755471
831.0, 0.03817237068928623
832.0, 0.037911277316472806
833.0, 0.03731619724950315
834.0, 0.03683348461290676
835.0, 0.037189273460154305
836.0, 0.03717638013219634
837.0, 0.03669173981214054
838.0, 0.03590756010744743
839.0, 0.035913709825941574
840.0, 0.0359855352117424
841.0, 0.03543959317132998
842.0, 0.03466335605409235
843.0, 0.03431170907564901
844.0, 0.03427361837719892
845.0, 0.03399762878237173
846.0, 0.0336739342079782
847.0, 0.03365108086077784
848.0, 0.03303356691415959
849.0, 0.0325192812737765
850.0, 0.032630734664617564
851.0, 0.03272230069928231
852.0, 0.03228973624507842
853.0, 0.03191821739146255
854.0, 0.03152455899316153
855.0, 0.031151360326586712
856.0, 0.031126059520682037
857.0, 0.031108297867916676
858.0, 0.030665270023736122
859.0, 0.030429516260709513
860.0, 0.030475298462544247
861.0, 0.0298076415348793
862.0, 0.029875556958744255
863.0, 0.028810854143443535
864.0, 0.02972063993721413
865.0, 0.0292171436201087
866.0, 0.028740781321851976
867.0, 0.029123114764803355
868.0, 0.02917251434331983
869.0, 0.028644362367609925
870.0, 0.028202461116056968
871.0, 0.027917057052320133
872.0, 0.02777862506347077
873.0, 0.027117574802439745
874.0, 0.02773001742932121
875.0, 0.02793419619948279
876.0, 0.027301670405138864
877.0, 0.026696525075191168
878.0, 0.026253928547700003
879.0, 0.026539457938129882
880.0, 0.026514233284411985
881.0, 0.026025430402033606
882.0, 0.025538185905019047
883.0, 0.025521846240544325
884.0, 0.02541209600557271
885.0, 0.025116463193459358
886.0, 0.024984403069092692
887.0, 0.02481090497769536
888.0, 0.024732937029391968
889.0, 0.02420387075139358
890.0, 0.02426417871654853
891.0, 0.024421251355670318
892.0, 0.024391231841819447
893.0, 0.023975047703831496
894.0, 0.023798471080899407
895.0, 0.02369338812563276
896.0, 0.023019333366061597
897.0, 0.02303575811242202
898.0, 0.022708552147097282
899.0, 0.022551998932443904
900.0, 0.022377669879556587
901.0, 0.022199585325781687
902.0, 0.0222309846183883
903.0, 0.02220199449617
904.0, 0.022039753574644858
905.0, 0.022133753994567722
906.0, 0.02191282459950726
907.0, 0.021483126586295562
908.0, 0.021622076136463095
909.0, 0.021892033921009302
910.0, 0.021590788777846714
911.0, 0.02120770558189086
912.0, 0.020789012056614882
913.0, 0.020614867724131413
914.0, 0.020810088633286587
915.0, 0.02025418541436246
916.0, 0.020133400984406014
917.0, 0.020324110257483867
918.0, 0.02026404021432349
919.0, 0.02024561419037564
920.0, 0.02014268870459863
921.0, 0.01987335138321895
922.0, 0.01968988898438746
923.0, 0.019690394850301083
924.0, 0.019486379097121514
925.0, 0.019231227709410197
926.0, 0.019125232713540778
927.0, 0.0187142386583441
928.0, 0.019040126413885947
929.0, 0.018873568581823742
930.0, 0.01877938802708668
931.0, 0.018866952778409055
932.0, 0.018725812508574302
933.0, 0.01847301697330322
934.0, 0.018110940789523945
935.0, 0.018249606505746085
936.0, 0.018243071956475166
937.0, 0.018236921674777973
938.0, 0.018116602340951183
939.0, 0.017953526222445306
940.0, 0.017869201154216453
941.0, 0.01733508548572194
942.0, 0.01681947260187182
943.0, 0.017175990641870052
944.0, 0.016844891440814164
945.0, 0.016345797383765296
946.0, 0.016571112721236056
947.0, 0.016872229066421992
948.0, 0.016812854550741836
949.0, 0.016554064537141613
950.0, 0.016595198867277495
951.0, 0.016332429568446532
952.0, 0.01593084682944925
953.0, 0.016180535839348396
954.0, 0.01595405880192017
955.0, 0.016172300862200884
956.0, 0.016045630067812067
957.0, 0.015762068868837034
958.0, 0.015697489648269378
959.0, 0.01564622104095953
960.0, 0.01545552400544277
961.0, 0.015042720597736918
962.0, 0.014868809077080767
963.0, 0.015060232647069311
964.0, 0.014210827829857338
965.0, 0.014445838376389077
966.0, 0.014325129535416377
967.0, 0.014605293022886162
968.0, 0.014897225621598993
969.0, 0.014630017442720803
970.0, 0.014314906620396249
971.0, 0.014378257834071902
972.0, 0.014143727340405853
973.0, 0.0134013723380345
974.0, 0.01314300830642239
975.0, 0.013226012202253433
976.0, 0.013188959727456257
977.0, 0.012884125547807304
978.0, 0.013170458343553036
979.0, 0.01313622440771486
980.0, 0.013189900087056203
981.0, 0.013235171565669642
982.0, 0.013289812738713215
983.0, 0.013335118431112042
984.0, 0.012656446786113147
985.0, 0.012121500711686384
986.0, 0.012339205596041864
987.0, 0.012367546207538268
988.0, 0.012431903775853757
989.0, 0.012650517710692862
990.0, 0.012242247689914774
991.0, 0.012057805151593751
992.0, 0.012371600515100696
993.0, 0.012284992053545824
994.0, 0.011804113952742107
995.0, 0.011665953345549871
996.0, 0.011668807441946896
997.0, 0.011683343169628591
998.0, 0.011684388250211501
999.0, 0.011690628506508429
1000.0, 0.011345853872837508
1001.0, 0.011342744080280569
1002.0, 0.010977929963848375
1003.0, 0.01083013180118292
1004.0, 0.011034752729215787
1005.0, 0.01086946047624242
1006.0, 0.010842781136533405
1007.0, 0.011056756972663213
1008.0, 0.010635916946354657
1009.0, 0.010911423708225107
1010.0, 0.010494196826858513
1011.0, 0.010420625312217505
1012.0, 0.01054616316303738
1013.0, 0.010174162818120405
1014.0, 0.010331135142216322
1015.0, 0.010638147004894082
1016.0, 0.010067862927751853
1017.0, 0.00994948924293839
1018.0, 0.010137492783528122
1019.0, 0.009552087645714904
1020.0, 0.009648540551495726
1021.0, 0.009687254485935713
1022.0, 0.009575702015438975
1023.0, 0.009108016969935684
1024.0, 0.008879140379641461
1025.0, 0.00888919422901544
1026.0, 0.009098332659896765
1027.0, 0.009178119249730676
1028.0, 0.008693122848773757
1029.0, 0.0084985592412901
1030.0, 0.008686394132898873
1031.0, 0.008559421167311615
1032.0, 0.008262191571158404
1033.0, 0.008269450521436884
1034.0, 0.00819687707709235
1035.0, 0.008483479095523693
1036.0, 0.008195785867842306
1037.0, 0.0076860527396352555
1038.0, 0.007681557268498219
1039.0, 0.007678788895355877
1040.0, 0.007362909460008709
1041.0, 0.0077581582716180035
1042.0, 0.008585927296089542
1043.0, 0.007169675036682176
1044.0, 0.006759145140770195
1045.0, 0.006401107329273109
1046.0, 0.006239580963242271
1047.0, 0.006479021377524835
1048.0, 0.006451508834172666
1049.0, 0.0063547773781772844
1050.0, 0.006002601706867058
1051.0, 0.00574223069796102
1052.0, 0.005946987077663012
1053.0, 0.0059354961166261455
1054.0, 0.00599052687658447
1055.0, 0.005823925973612474
1056.0, 0.005539558703804662
1057.0, 0.005147276242965356
1058.0, 0.005358609206814098
1059.0, 0.005280321847929369
1060.0, 0.004902792964374989
1061.0, 0.004419937026056768
1062.0, 0.004401438365607458
1063.0, 0.004427750910149305
1064.0, 0.00422507542391944
1065.0, 0.004254735643463581
1066.0, 0.00410158066551315
1067.0, 0.003763848649765388
1068.0, 0.003548337295382188
1069.0, 0.003575984780611708
1070.0, 0.003812049664047295
1071.0, 0.0037448104123189814
1072.0, 0.00391414262541177
1073.0, 0.003659477581988668
1074.0, 0.0031438617883020005
1075.0, 0.0028859589165424553
1076.0, 0.003320096236978381
1077.0, 0.004104520609070379
1078.0, 0.004101558566040549
1079.0, 0.0035160327605191183
1080.0, 0.003659625345128629
1081.0, 0.0033518173151786818
1082.0, 0.0032789025652546918
1083.0, 0.0033304110808904377
1084.0, 0.0037782263575899862
1085.0, 0.004268679773401125
1086.0, 0.003416157418775313
1087.0, 0.002693523337422645
1088.0, 0.0031512601666253857
1089.0, 0.0037527445951804077
1090.0, 0.003709385914345148
1091.0, 0.0032228246821089527
1092.0, 0.002815151939573209
1093.0, 0.0030854165596975063
1094.0, 0.002815479429796178
1095.0, 0.0028739632496364333
1096.0, 0.0019385309385463543
1097.0, 0.0023280896585114066
1098.0, 0.003949124663037031
1099.0, 0.0030708836967525337
1100.0, 0.0015302768877559763
1101.0, 0.0011530539739297648
1102.0, 0.001013541966437987
1103.0, 0.0012300245760714368
1104.0, 0.0013196821195715005
1105.0, 0.0005982928517879702
1106.0, 0.0005348605088786123
1107.0, 0.001194497137738002
1108.0, 0.0010844893280239957
1109.0, 0.0008773741418750631
1110.0, 0.0009175581710294745
1111.0, 0.0007375529966635518
1112.0, 0.0005560332428169815
1113.0, 0.0004117524020283943
1114.0, 5.944273813009991e-05
1115.0, 0.0006235936381248295
1116.0, 0.000693812790054231
1117.0, 0.0005975040764962182
1118.0, 0.0007966573350271755
1119.0, 0.000628678810873492
1120.0, 0.0004679431131717123
1121.0, 0.0003692043920407168
1122.0, 0.0008829449677385048
1123.0, 0.0010889367003089623
1124.0, 0.0013042911662798566
1125.0, 0.0013593026670339924
1126.0, 0.001294768842570821
1127.0, 0.0010509275447366077
1128.0, 0.0016671337905504054
1129.0, 0.001933842120389991
1130.0, 0.0017604038115135421
1131.0, 0.0015718005403994606
1132.0, 0.0013150931692504138
1133.0, 0.0014382319910538665
1134.0, 0.0019879350868578336
1135.0, 0.0022072238452026274
1136.0, 0.00217424490682785
1137.0, 0.0020802850356628757
1138.0, 0.0019729187119235715
1139.0, 0.002133668057637219
1140.0, 0.002374518228822072
1141.0, 0.0027081980390518665
1142.0, 0.0026308949490392794
1143.0, 0.0023333146671382973
1144.0, 0.002301056778220779
1145.0, 0.0025313309349032464
1146.0, 0.002657640893041025
1147.0, 0.0031895963026287934
1148.0, 0.00336242149345906
1149.0, 0.0031221106370399538
1150.0, 0.003398458213755025
1151.0, 0.003893901114402599
1152.0, 0.0041571304553806
1153.0, 0.003871777834580606
1154.0, 0.0041468736492016114
1155.0, 0.004012035845835925
1156.0, 0.004098027773840179
1157.0, 0.004311130897465903
1158.0, 0.0042274598959536535
1159.0, 0.004572337129867074
1160.0, 0.00448379578427893
1161.0, 0.004450293289772509
1162.0, 0.005158058083672046
1163.0, 0.005590795324066464
1164.0, 0.005578284091302204
1165.0, 0.005642988441107175
1166.0, 0.005981601427985456
1167.0, 0.006572112792946905
1168.0, 0.0067511137285360834
1169.0, 0.00632820542610129
1170.0, 0.006359969462331241
1171.0, 0.006395869524873136
1172.0, 0.0066928762910505426
1173.0, 0.007141528286898178
1174.0, 0.0073703050599669044
1175.0, 0.0074466969465092295
1176.0, 0.007633973943395391
1177.0, 0.007694355259124256
1178.0, 0.00794308451676703
1179.0, 0.008088592108611865
1180.0, 0.007970681736529636
1181.0, 0.008219142308428412
1182.0, 0.008307368730160332
1183.0, 0.00830765497823033
1184.0, 0.008637248907819372
1185.0, 0.008812595860030718
1186.0, 0.008599038231566514
1187.0, 0.00844866597739629
1188.0, 0.00895717930138346
1189.0, 0.009589087235186698
1190.0, 0.00980551838134259
1191.0, 0.009458784131433562
1192.0, 0.01033746435978296
1193.0, 0.009940543762584263
1194.0, 0.010335302893724132
1195.0, 0.010392456004148306
1196.0, 0.01061127417372469
1197.0, 0.01105633430431977
1198.0, 0.010830879028446663
1199.0, 0.010783368044588097
1200.0, 0.011007311862584239
1201.0, 0.01148041849241493
1202.0, 0.011689305000993164
1203.0, 0.01133686908716697
1204.0, 0.011676554879812914
1205.0, 0.012247762929020096
1206.0, 0.01201600820741887
1207.0, 0.012092948782826261
1208.0, 0.012563983873863553
1209.0, 0.013428047913805767
1210.0, 0.012864970482308058
1211.0, 0.013042580705991617
1212.0, 0.012764842691687431
1213.0, 0.013200571390095818
1214.0, 0.013285619260239998
1215.0, 0.013491634162845715
1216.0, 0.013376968666258511
1217.0, 0.013877551389330918
1218.0, 0.014256132534045268
1219.0, 0.014194715270492559
1220.0, 0.01412256502977283
1221.0, 0.014224480889481889
1222.0, 0.014202591247220805
1223.0, 0.014840828118205291
1224.0, 0.015187691931688747
1225.0, 0.01480765533151601
1226.0, 0.01548312374722062
1227.0, 0.015862829747440656
1228.0, 0.015457245953086712
1229.0, 0.014966765671250102
1230.0, 0.015431390589789921
1231.0, 0.01712392404078801
1232.0, 0.016275623016783196
1233.0, 0.01555417021232355
1234.0, 0.016007982957547445
1235.0, 0.01645767092670851
1236.0, 0.016565385336257617
1237.0, 0.016577858564046595
1238.0, 0.016520055265219012
1239.0, 0.01662238882280196
1240.0, 0.01678462642907336
1241.0, 0.016438169862732853
1242.0, 0.01648932252029272
1243.0, 0.016867487827873083
1244.0, 0.01690522715066994
1245.0, 0.016593981671389774
1246.0, 0.017106134959481586
1247.0, 0.017664550039511524
1248.0, 0.017279232481066793
1249.0, 0.017605399666952487
1250.0, 0.01821013814725417
1251.0, 0.018064309768948027
1252.0, 0.017823386009323428
1253.0, 0.017694170265892456
1254.0, 0.017674039150287705
1255.0, 0.017871400439823257
1256.0, 0.018065135096308582
1257.0, 0.01844242445420714
1258.0, 0.018864265354666867
1259.0, 0.019261420659989283
1260.0, 0.01892244406414227
1261.0, 0.019218232275089467
1262.0, 0.019569194177037452
1263.0, 0.019402217750535137
1264.0, 0.019734156084954033
1265.0, 0.020315094911718644
1266.0, 0.020307527409980892
1267.0, 0.020003714872904924
1268.0, 0.02008587214733367
1269.0, 0.020367060229686082
1270.0, 0.02041966752566543
1271.0, 0.020336043809765992
1272.0, 0.020519348050490417
1273.0, 0.021148592500804884
1274.0, 0.021524187387381086
1275.0, 0.021343151108213006
1276.0, 0.021410446219713126
1277.0, 0.02155856254341241
1278.0, 0.02153310688234071
1279.0, 0.021511742325586523
1280.0, 0.021488841383932956
1281.0, 0.021899600230805023
1282.0, 0.022780745196844823
1283.0, 0.02253380569060328
1284.0, 0.022642691295728663
1285.0, 0.023022867323946136
1286, 0.0
1287, 0.0
1288, 0.0
1289, 0.0
1290, 0.0
1291, 0.0
1292, 0.0
1293, 0.0
1294, 0.0
1295, 0.0
1296, 0.0
1297, 0.0
1298, 0.0
1299, 0.0
1300, 0.0
1301, 0.0
1302, 0.0
1303, 0.0
1304, 0.0
1305, 0.0
1306, 0.0
1307, 0.0
1308, 0.0
1309, 0.0
1310, 0.0
1311, 0.0
1312, 0.0
1313, 0.0
1314, 0.0
1315, 0.0
1316, 0.0
1317, 0.0
1318, 0.0
1319, 0.0
1320, 0.0
1321, 0.0
1322, 0.0
1323, 0.0
1324, 0.0
1325, 0.0
1326, 0.0
1327, 0.0
1328, 0.0
1329, 0.0
1330, 0.0
1331, 0.0
1332, 0.0
1333, 0.0
1334, 0.0
1335, 0.0
1336, 0.0
1337, 0.0
1338, 0.0
1339, 0.0
1340, 0.0
1341, 0.0
1342, 0.0
1343, 0.0
1344, 0.0
1345, 0.0
1346, 0.0
1347, 0.0
1348, 0.0
1349, 0.0
1350, 0.0
1351, 0.0
1352, 0.0
1353, 0.0
1354, 0.0
1355, 0.0
1356, 0.0
1357, 0.0
1358, 0.0
1359, 0.0
1360, 0.0
1361, 0.0
1362, 0.0
1363, 0.0
1364, 0.0
1365, 0.0
1366, 0.0
1367, 0.0
1368, 0.0
1369, 0.0
1370, 0.0
1371, 0.0
1372, 0.0
1373, 0.0
1374, 0.0
1375, 0.0
1376, 0.0
1377, 0.0
1378, 0.0
1379, 0.0
1380, 0.0
1381, 0.0
1382, 0.0
1383, 0.0
1384, 0.0
1385, 0.0
1386, 0.0
1387, 0.0
1388, 0.0
1389, 0.0
1390, 0.0
1391, 0.0
1392, 0.0
1393, 0.0
1394, 0.0
1395, 0.0
1396, 0.0
1397, 0.0
1398, 0.0
1399, 0.0
1400, 0.0
1401, 0.0
1402, 0.0
1403, 0.0
1404, 0.0
1405, 0.0
1406, 0.0
1407, 0.0
1408, 0.0
1409, 0.0
1410, 0.0
1411, 0.0
1412, 0.0
1413, 0.0
1414, 0.0
1415, 0.0
1416, 0.0
1417, 0.0
1418, 0.0
1419, 0.0
1420, 0.0
1421, 0.0
1422, 0.0
1423, 0.0
1424, 0.0
1425, 0.0
1426, 0.0
1427, 0.0
1428, 0.0
1429, 0.0
1430, 0.0
1431, 0.0
1432, 0.0
1433, 0.0
1434, 0.0
1435, 0.0
1436, 0.0
1437, 0.0
1438, 0.0
1439, 0.0
1440, 0.0
1441, 0.0
1442, 0.0
1443, 0.0
1444, 0.0
1445, 0.0
1446, 0.0
1447, 0.0
1448, 0.0
1449, 0.0
1450, 0.0
1451, 0.0
1452, 0.0
1453, 0.0
1454, 0.0
1455, 0.0
1456, 0.0
1457, 0.0
1458, 0.0
1459, 0.0
1460, 0.0
1461, 0.0
1462, 0.0
1463, 0.0
1464, 0.0
1465, 0.0
1466, 0.0
1467, 0.0
1468, 0.0
1469, 0.0
1470, 0.0
1471, 0.0
1472, 0.0
1473, 0.0
1474, 0.0
1475, 0.0
1476, 0.0
1477, 0.0
1478, 0.0
1479, 0.0
1480, 0.0
1481, 0.0
1482, 0.0
1483, 0.0
1484, 0.0
1485, 0.0
1486, 0.0
1487, 0.0
1488, 0.0
1489, 0.0
1490, 0.0
1491, 0.0
1492, 0.0
1493, 0.0
1494, 0.0
1495, 0.0
1496, 0.0
1497, 0.0
1498, 0.0
1499, 0.0
1500, 0.0
1501, 0.0
1502, 0.0
1503, 0.0
1504, 0.0
1505, 0.0
1506, 0.0
1507, 0.0
1508, 0.0
1509, 0.0
1510, 0.0
1511, 0.0
1512, 0.0
1513, 0.0
1514, 0.0
1515, 0.0
1516, 0.0
1517, 0.0
1518, 0.0
1519, 0.0
1520, 0.0
1521, 0.0
1522, 0.0
1523, 0.0
1524, 0.0
1525, 0.0
1526, 0.0
1527, 0.0
1528, 0.0
1529, 0.0
1530, 0.0
1531, 0.0
1532, 0.0
1533, 0.0
1534, 0.0
1535, 0.0
1536, 0.0
1537, 0.0
1538, 0.0
1539, 0.0
1540, 0.0
1541, 0.0
1542, 0.0
1543, 0.0
1544, 0.0
1545, 0.0
1546, 0.0
1547, 0.0
1548, 0.0
1549, 0.0
1550, 0.0
1551, 0.0
1552, 0.0
1553, 0.0
1554, 0.0
1555, 0.0
1556, 0.0
1557, 0.0
1558, 0.0
1559, 0.0
1560, 0.0
1561, 0.0
1562, 0.0
1563, 0.0
1564, 0.0
1565, 0.0
1566, 0.0
1567, 0.0
1568, 0.0
1569, 0.0
1570, 0.0
1571, 0.0
1572, 0.0
1573, 0.0
1574, 0.0
1575, 0.0
1576, 0.0
1577, 0.0
1578, 0.0
1579, 0.0
1580, 0.0
1581, 0.0
1582, 0.0
1583, 0.0
1584, 0.0
1585, 0.0
1586, 0.0
1587, 0.0
1588, 0.0
1589, 0.0
1590, 0.0
1591, 0.0
1592, 0.0
1593, 0.0
1594, 0.0
1595, 0.0
1596, 0.0
1597, 0.0
1598, 0.0
1599, 0.0
