30, 0.0
31, 0.0
32, 0.0
33, 0.0
34, 0.0
35, 0.0
36, 0.0
37, 0.0
38, 0.0
39, 0.0
40, 0.0
41, 0.0
42, 0.0
43, 0.0
44, 0.0
45, 0.0
46, 0.0
47, 0.0
48, 0.0
49, 0.0
50, 0.0
51, 0.0
52, 0.0
53, 0.0
54, 0.0
55, 0.0
56, 0.0
57, 0.0
58, 0.0
59, 0.0
60, 0.0
61, 0.0
62, 0.0
63, 0.0
64, 0.0
65, 0.0
66, 0.0
67, 0.0
68, 0.0
69, 0.0
70, 0.0
71, 0.0
72, 0.0
73, 0.0
74, 0.0
75, 0.0
76, 0.0
77, 0.0
78, 0.0
79, 0.0
80, 0.0
81, 0.0
82, 0.0
83, 0.0
84, 0.0
85, 0.0
86, 0.0
87, 0.0
88, 0.0
89, 0.0
90, 0.0
91, 0.0
92, 0.0
93.0, 0.001533781431483595
94.0, 0.02046048937967627
95.0, 0.023700180239755363
96.0, 0.011145694529492416
97.0, 0.0012959216895983606
98.0, 0.0033400377537215354
99.0, 0.003992374895528061
100.0, 0.00400928402401993
101.0, 0.02873906330365684
102.0, 0.06781990207280782
103.0, 0.11496029610680096
104.0, 0.1464180175289577
105.0, 0.1607148090446707
106.0, 0.1694040147657238
107.0, 0.1882611927592805
108.0, 0.23385010385856397
109.0, 0.3003942204652506
110.0, 0.38243588594247063
111.0, 0.46930632328897887
112.0, 0.539844761867918
113.0, 0.5626671188189406
114.0, 0.5362295801490197
115.0, 0.48078431810691036
116.0, 0.4318880090888056
117.0, 0.4190382222226971
118.0, 0.4152605700644361
119.0, 0.4001693000123069
120.0, 0.3602445774691424
121.0, 0.3168044282325262
122.0, 0.29357092925617634
123.0, 0.30379159839168957
124.0, 0.3450686009304807
125.0, 0.40370282971723637
126.0, 0.45337060694030523
127.0, 0.47195738711759583
128.0, 0.45473281458066767
129.0, 0.42042486618499125
130.0, 0.37651584829613677
131.0, 0.3325764089746627
132.0, 0.2976403137283968
133.0, 0.2845202632650202
134.0, 0.2910075372483109
135.0, 0.318586894672262
136.0, 0.36722518255804465
137.0, 0.42562720124063885
138.0, 0.493148520243353
139.0, 0.5496855981371774
140.0, 0.5649730179824741
141.0, 0.5196607769196269
142.0, 0.43233148299614504
143.0, 0.3377756225722474
144.0, 0.26699450219422594
145.0, 0.23486702241314703
146.0, 0.2394603556956204
147.0, 0.27404668076916294
148.0, 0.3212573547054577
149.0, 0.3668306113885751
150.0, 0.4016956130858258
151.0, 0.41472461569098984
152.0, 0.41117751621914733
153.0, 0.3983316063828101
154.0, 0.3880861067651851
155.0, 0.3916175074319495
156.0, 0.4060671036457701
157.0, 0.43117916766284664
158.0, 0.46938644803677915
159.0, 0.5175626428892119
160.0, 0.5789047327480017
161.0, 0.6492109954378131
162.0, 0.721302570925175
163.0, 0.795505153959915
164.0, 0.8478551987638597
165.0, 0.8679534863640709
166.0, 0.8540981672265862
167.0, 0.8086652204458415
168.0, 0.7546176420806463
169.0, 0.6967376131558926
170.0, 0.6429618581881754
171.0, 0.6088860823839375
172.0, 0.596209839856448
173.0, 0.5967353918511865
174.0, 0.6088331278096718
175.0, 0.6340056630081959
176.0, 0.6700862381716629
177.0, 0.7145633433205076
178.0, 0.7590686276473775
179.0, 0.7987829933840032
180.0, 0.8377185238113718
181.0, 0.8734804226840193
182.0, 0.9041090373607901
183.0, 0.9300089551400155
184.0, 0.952305953727546
185.0, 0.9615277073823454
186.0, 0.9659182027088199
187.0, 0.9632998113053096
188.0, 0.9475170244531497
189.0, 0.924313263840875
190.0, 0.8923517518152274
191.0, 0.8539180720411296
192.0, 0.8109034689190334
193.0, 0.7624971325574457
194.0, 0.7063603639005079
195.0, 0.6468012000954695
196.0, 0.5881996131662353
197.0, 0.5319719238507659
198.0, 0.47485801200861816
199.0, 0.4223213344612931
200.0, 0.37563691396620125
201.0, 0.3345937482970136
202.0, 0.3002429172183694
203.0, 0.27560095949859786
204.0, 0.25449536060572087
205.0, 0.23331486107444618
206.0, 0.2124980569016804
207.0, 0.19204629949053154
208.0, 0.1745624582426478
209.0, 0.16091282558552775
210.0, 0.15051640177412168
211.0, 0.1420491078056758
212.0, 0.13734538522708756
213.0, 0.13611645111665652
214.0, 0.13689993032655332
215.0, 0.13794746283758236
216.0, 0.1385529142898726
217.0, 0.14021809691191714
218.0, 0.14256671253648326
219.0, 0.14415208180907485
220.0, 0.14355452711840205
221.0, 0.14417339377033925
222.0, 0.1443087379628022
223.0, 0.1415417055799175
224.0, 0.1341689568924427
225.0, 0.1275785393706928
226.0, 0.1199767272661102
227.0, 0.11035949791993163
228.0, 0.09873999194589272
229.0, 0.0837308257183484
230.0, 0.07135011424327163
231.0, 0.059701396080676594
232.0, 0.045378509933949845
233.0, 0.029099288454646915
234.0, 0.013374572765354085
235.0, 0.0037335628865912724
236.0, 0.014985314549108666
237.0, 0.025638929327403154
238.0, 0.03279901765618874
239.0, 0.0371024854423938
240.0, 0.038404048219104744
241.0, 0.03651432891794279
242.0, 0.031826997317892194
243.0, 0.028704106615144727
244.0, 0.019894670743907755
245.0, 0.007792859346477714
246.0, 0.0029522391947223877
247.0, 0.0191363898920431
248.0, 0.03734965469989101
249.0, 0.05609579038859034
250.0, 0.07501975966181824
251.0, 0.09436020750540977
252.0, 0.1166576883689791
253.0, 0.1367412203731199
254.0, 0.15568316422132863
255.0, 0.17693449070565057
256.0, 0.20046630901361365
257.0, 0.22323594682709513
258.0, 0.24696107362856903
259.0, 0.2709657748008032
260.0, 0.2926420225022981
261.0, 0.31705020393748645
262.0, 0.33962609182091613
263.0, 0.3593002268430977
264.0, 0.37656275814758394
265.0, 0.3906132645662554
266.0, 0.402305585833683
267.0, 0.41075115096366666
268.0, 0.41472869407615337
269.0, 0.413234434610068
270.0, 0.4070747004486106
271.0, 0.3956657461132634
272.0, 0.37885502328023307
273.0, 0.35728991157591744
274.0, 0.33323498179225286
275.0, 0.3095980317881927
276.0, 0.28773784748843206
277.0, 0.2674572131811912
278.0, 0.24812473822732467
279.0, 0.23038690189646865
280.0, 0.21797010778169454
281.0, 0.20889085517851144
282.0, 0.201340871691251
283.0, 0.19553357435491772
284.0, 0.19408656162198692
285.0, 0.19585449188517273
286.0, 0.19651256890630103
287.0, 0.19690367511736226
288.0, 0.20174320083081937
289.0, 0.20409596112671555
290.0, 0.20564556714388038
291.0, 0.2063072892424278
292.0, 0.20452008381599762
293.0, 0.19757209451750227
294.0, 0.18677223877978216
295.0, 0.1760590588708649
296.0, 0.16530595846977025
297.0, 0.15206978255347295
298.0, 0.14218882857705517
299.0, 0.13398792049871527
300.0, 0.12783600096960585
301.0, 0.12392603193780512
302.0, 0.1224105393460956
303.0, 0.12502056221697216
304.0, 0.13263457072050527
305.0, 0.14148304817296745
306.0, 0.14851822527490158
307.0, 0.1546233716832923
308.0, 0.15815384697562224
309.0, 0.15269162921216659
310.0, 0.13925710351765813
311.0, 0.1202523801051555
312.0, 0.09540138132160174
313.0, 0.07177466996536552
314.0, 0.05086367683477759
315.0, 0.03353747084386444
316.0, 0.02028659801159553
317.0, 0.009055715839090135
318.0, 0.0010226670810899513
319.0, 0.0041721354836915655
320.0, 0.0067271385384228164
321.0, 0.0093544898942365
322.0, 0.009890630076813496
323.0, 0.009882200194697224
324.0, 0.00930280061876
325.0, 0.007978596461858816
326.0, 0.006145536036681117
327.0, 0.0030061125425533885
328.0, 0.00046975386537668616
329.0, 0.0018349710073316656
330.0, 0.004847144112278166
331.0, 0.008322115919023243
332.0, 0.01136290093952136
333.0, 0.01480018641146872
334.0, 0.018674971170999557
335.0, 0.02243956195486789
336.0, 0.025843359005839932
337.0, 0.02950271617444008
338.0, 0.0324262539262684
339.0, 0.034719499675035785
340.0, 0.036758391218173335
341.0, 0.03813667665073643
342.0, 0.03927131554244691
343.0, 0.04109835982907736
344.0, 0.04294105229528463
345.0, 0.0434791470990505
346.0, 0.041914389470940325
347.0, 0.04106039898840551
348.0, 0.040647742667141676
349.0, 0.04041710821149185
350.0, 0.04052772604714611
351.0, 0.040107219766885374
352.0, 0.04121611675861526
353.0, 0.04393683759508243
354.0, 0.046958633252406144
355.0, 0.0488392776033211
356.0, 0.05162501034019074
357.0, 0.05602986056577728
358.0, 0.06016932010363781
359.0, 0.06388213573596858
360.0, 0.06857746238765151
361.0, 0.07245998615674741
362.0, 0.07547000316460312
363.0, 0.07689476521579394
364.0, 0.0760984954101103
365.0, 0.07308019700791878
366.0, 0.06871203935340883
367.0, 0.06399121052140913
368.0, 0.05847734091343509
369.0, 0.053222489624014054
370.0, 0.050060937147254646
371.0, 0.04633590510604833
372.0, 0.042877496219745986
373.0, 0.041147918264497915
374.0, 0.04037438565304196
375.0, 0.038372902001187884
376.0, 0.03730412419025061
377.0, 0.03577852177305794
378.0, 0.032880907404953204
379.0, 0.02901247583571076
380.0, 0.025569072117516658
381.0, 0.02129165230493958
382.0, 0.017360052930731795
383.0, 0.013076362604725663
384.0, 0.00849967568265487
385.0, 0.004990422423482167
386.0, 0.003109730955472874
387.0, 0.0024313565458347237
388.0, 0.002382134548081391
389.0, 0.002398860550010589
390.0, 0.0020194519739914728
391.0, 0.0025331056649486395
392.0, 0.0022316954578848218
393.0, 0.0017532586332047618
394.0, 0.0016318134233758493
395.0, 0.001680350714343278
396.0, 0.002123917505468889
397.0, 0.002075877178383154
398.0, 0.0024924634472668124
399.0, 0.003920164707382066
400.0, 0.005540881927639981
401.0, 0.00659907803926677
402.0, 0.009202074713214135
403.0, 0.011850343076352795
404.0, 0.014065772295749901
405.0, 0.01667650069582735
406.0, 0.0204213280076452
407.0, 0.023829229986822256
408.0, 0.026915401803438713
409.0, 0.029410417244645905
410.0, 0.031507773662754625
411.0, 0.0345580373185495
412.0, 0.03829080469594678
413.0, 0.04167329614055416
414.0, 0.04528155593686418
415.0, 0.04917640257876567
416.0, 0.05171231903456975
417.0, 0.05512157641959193
418.0, 0.05935988679081066
419.0, 0.06295950881994909
420.0, 0.06600989517094925
421.0, 0.07014828761197264
422.0, 0.07311535796535512
423.0, 0.07841544827985465
424.0, 0.08221106540039476
425.0, 0.08396421785147426
426.0, 0.08705593709005666
427.0, 0.09045042882301875
428.0, 0.09327607564206798
429.0, 0.09521970282984116
430.0, 0.09636373058740702
431.0, 0.09684488201740356
432.0, 0.09544105207119752
433.0, 0.09410967273944984
434.0, 0.09237851877832184
435.0, 0.08972922044772032
436.0, 0.08621678249731704
437.0, 0.08280045669840676
438.0, 0.08085547051262736
439.0, 0.07861486769617472
440.0, 0.07767529584026661
441.0, 0.07831466176175687
442.0, 0.0777163481527563
443.0, 0.07628986903185407
444.0, 0.0769643903885145
445.0, 0.07682783130840534
446.0, 0.07527283286836435
447.0, 0.07439159458685325
448.0, 0.0727993190593498
449.0, 0.06996840767921181
450.0, 0.06726828935764904
451.0, 0.06471992454041164
452.0, 0.06191097676380794
453.0, 0.05995646164101395
454.0, 0.057901814127261954
455.0, 0.05452359201559175
456.0, 0.05232261323682008
457.0, 0.05177179703643693
458.0, 0.0508987661294614
459.0, 0.05233920656831295
460.0, 0.05337195353832394
461.0, 0.055096874697324445
462.0, 0.05820209476239188
463.0, 0.061633304396199476
464.0, 0.06387893385470102
465.0, 0.06719948462536444
466.0, 0.07021326667243313
467.0, 0.07303186981310407
468.0, 0.07611442783726652
469.0, 0.07871156805373779
470.0, 0.08095136217686433
471.0, 0.08275012135985675
472.0, 0.08459392331805962
473.0, 0.08592436113002382
474.0, 0.08558067729875662
475.0, 0.0845317583314277
476.0, 0.08343042298218042
477.0, 0.08167948881154004
478.0, 0.08023118334421021
479.0, 0.07910476949212504
480.0, 0.07516970991141457
481.0, 0.07099582253435062
482.0, 0.0681741854006771
483.0, 0.06548013082756965
484.0, 0.061957375711712975
485.0, 0.05816108409400762
486.0, 0.05427586445186027
487.0, 0.049139744223221725
488.0, 0.046050624613034656
489.0, 0.043056470866123006
490.0, 0.03715808982507392
491.0, 0.033533385014405226
492.0, 0.02980431650059391
493.0, 0.026922938985726435
494.0, 0.02400327717468256
495.0, 0.02055504052946323
496.0, 0.017591121072367176
497.0, 0.016091584949802618
498.0, 0.0140862017584125
499.0, 0.012363647153919516
500.0, 0.011254037730650805
501.0, 0.01060763257848094
502.0, 0.01061934964205658
503.0, 0.010992818306926107
504.0, 0.01092846871548976
505.0, 0.010721521168565971
506.0, 0.010923931105179452
507.0, 0.011201185386422684
508.0, 0.01058690125717334
509.0, 0.010383127941146155
510.0, 0.009365626306645817
511.0, 0.007721575076783818
512.0, 0.0055374294312735784
513.0, 0.0020752031556776087
514.0, 0.0010784653129903732
515.0, 0.0007820478972255767
516.0, 0.003068680907315679
517.0, 0.0045394065451121075
518.0, 0.0053309874434200166
519.0, 0.006333992988897672
520.0, 0.006267450931561164
521.0, 0.0062667706189263464
522.0, 0.006409366053277539
523.0, 0.006408315636739149
524.0, 0.006096726677119014
525.0, 0.004771605400159504
526.0, 0.0039044639025768955
527.0, 0.0028704261515726318
528.0, 0.00140418572177008
529.0, 0.0006451177348460914
530.0, 0.003612797340747787
531.0, 0.006810184347256505
532.0, 0.009580650490954388
533.0, 0.012918564493377001
534.0, 0.018033114725962984
535.0, 0.024033452137555922
536.0, 0.02910234201131158
537.0, 0.035991149079133325
538.0, 0.04216747727271367
539.0, 0.049309838421448406
540.0, 0.05731652790851383
541.0, 0.06517683692031864
542.0, 0.07365284533517466
543.0, 0.08270860661077006
544.0, 0.09201822288123034
545.0, 0.10183724925294521
546.0, 0.11189889941639775
547.0, 0.12231377289787819
548.0, 0.13479966193787404
549.0, 0.1463493600805513
550.0, 0.15852786766598018
551.0, 0.17070846775430928
552.0, 0.1813296298236246
553.0, 0.1892495685288674
554.0, 0.19325338341708226
555.0, 0.1944723732264457
556.0, 0.19250448867059067
557.0, 0.18680972891203906
558.0, 0.17788751284061194
559.0, 0.16726557934770608
560.0, 0.15679761430187153
561.0, 0.1465115562356552
562.0, 0.13769547396443518
563.0, 0.13162894846337525
564.0, 0.12813224780388097
565.0, 0.12597721983421378
566.0, 0.125590655290909
567.0, 0.1281128889195797
568.0, 0.13160299398896017
569.0, 0.13439307072587592
570.0, 0.13598732797302804
571.0, 0.13669769228923415
572.0, 0.13727613929908528
573.0, 0.13579383897660932
574.0, 0.1341263713579888
575.0, 0.1312630125276037
576.0, 0.12694081216505568
577.0, 0.12370057196153056
578.0, 0.11990763391250615
579.0, 0.1156982193610358
580.0, 0.11186231026503408
581.0, 0.1080942736314631
582.0, 0.10483986325028669
583.0, 0.10293280773846131
584.0, 0.09959393556915681
585.0, 0.09754724849968786
586.0, 0.0964700151501045
587.0, 0.09486020444970386
588.0, 0.092807044713026
589.0, 0.09139484858950421
590.0, 0.08908076371877283
591.0, 0.08629987744863543
592.0, 0.08419893530186463
593.0, 0.08138530411245545
594.0, 0.07752265277813708
595.0, 0.07372796418778267
596.0, 0.069441564799921
597.0, 0.06580388200684226
598.0, 0.06183685324141508
599.0, 0.05748348189790501
600.0, 0.05338176304122706
601.0, 0.049734167935889875
602.0, 0.045879370583608685
603.0, 0.042398072979342845
604.0, 0.04075850582102236
605.0, 0.03858449262107241
606.0, 0.03519028261536215
607.0, 0.03233058913281636
608.0, 0.03109363459877906
609.0, 0.030204109059949996
610.0, 0.029098563517097227
611.0, 0.02758176471700675
612.0, 0.026954302980562204
613.0, 0.028103818819123636
614.0, 0.029194098540120745
615.0, 0.02904349611026669
616.0, 0.029231911713150118
617.0, 0.031102372812425963
618.0, 0.03246098997971298
619.0, 0.03211812823020948
620.0, 0.03204681557965916
621.0, 0.03301720469774095
622.0, 0.031142387790506845
623.0, 0.028292325672077706
624.0, 0.026108622040621927
625.0, 0.023893236884477642
626.0, 0.02067412982742172
627.0, 0.018025572070084813
628.0, 0.014687353690946389
629.0, 0.013143510822171143
630.0, 0.011403486887659893
631.0, 0.008692044604235323
632.0, 0.006827522038884746
633.0, 0.006152500704259087
634.0, 0.004416028255461451
635.0, 0.004401419744649435
636.0, 0.0034969699873695762
637.0, 0.002321136508015705
638.0, 0.002723132420972078
639.0, 0.002739739838544095
640.0, 0.002532062050356007
641.0, 0.0027754510748583907
642.0, 0.0019843564564543683
643.0, 0.001609796433346633
644.0, 0.0022812250922680023
645.0, 0.00266426956172253
646.0, 0.003085877011692432
647.0, 0.003069727080336245
648.0, 0.004215505817319199
649.0, 0.0061709824688007805
650.0, 0.007168006522822257
651.0, 0.006286437364308658
652.0, 0.005925039112853715
653.0, 0.007146013754126726
654.0, 0.007621129498369469
655.0, 0.007898070313909706
656.0, 0.008468385651600558
657.0, 0.008542111642423064
658.0, 0.007609376623240308
659.0, 0.007462911057339514
660.0, 0.007681488932355727
661.0, 0.006954521843722648
662.0, 0.005264375300212054
663.0, 0.0033366793874264012
664.0, 0.0017120923056513553
665.0, 0.0003802783983376184
666.0, 0.001277350396259747
667.0, 0.001953027796093161
668.0, 0.0028780646062639397
669.0, 0.0038429523289670977
670.0, 0.0047509253351815306
671.0, 0.00569812459024094
672.0, 0.0057216625289540695
673.0, 0.004557971580569329
674.0, 0.003713851948071561
675.0, 0.002980571366258807
676.0, 0.0018817083715703881
677.0, 0.0005446426194407135
678.0, 0.0005460654623897506
679.0, 0.0017923086170192014
680.0, 0.004391462352212118
681.0, 0.006358144122400199
682.0, 0.009170029216878667
683.0, 0.012306384760917112
684.0, 0.01502296550070433
685.0, 0.018277755052288056
686.0, 0.020317823481503204
687.0, 0.02477232199008896
688.0, 0.029714421528297244
689.0, 0.03483809662732359
690.0, 0.03925996304948756
691.0, 0.043251083584135874
692.0, 0.04854398923016589
693.0, 0.05183356662213834
694.0, 0.05391136963631417
695.0, 0.05390857309702214
696.0, 0.05356186979684951
697.0, 0.053334018217194565
698.0, 0.052408019241548726
699.0, 0.05145518048954154
700.0, 0.05095928881086487
701.0, 0.04974642021374043
702.0, 0.05051845375019541
703.0, 0.05247506733380097
704.0, 0.055558814147903306
705.0, 0.06066534820225639
706.0, 0.06637281739863636
707.0, 0.0741874932357282
708.0, 0.08329296344125098
709.0, 0.09329248650418928
710.0, 0.10403553881580578
711.0, 0.11559623736083559
712.0, 0.1277170782123135
713.0, 0.13925853467471727
714.0, 0.14729592081131077
715.0, 0.15902023824959372
716.0, 0.1691741730896163
717.0, 0.17863307820930097
718.0, 0.19086926672651244
719.0, 0.2049101541990297
720.0, 0.21874110774273414
721.0, 0.23327945570416064
722.0, 0.24817062161834105
723.0, 0.26517012400030693
724.0, 0.283544891780804
725.0, 0.30233749074544436
726.0, 0.3216707388240569
727.0, 0.3411244308987824
728.0, 0.3638920666895677
729.0, 0.38974401971036043
730.0, 0.41745647502475774
731.0, 0.44950127623888053
732.0, 0.4836699730977064
733.0, 0.5164892668230171
734.0, 0.5516730800905136
735.0, 0.5909318715416522
736.0, 0.6290982855265265
737.0, 0.6702518816993581
738.0, 0.7138973847132188
739.0, 0.7595937372580936
740.0, 0.8074271025393287
741.0, 0.8551341949670523
742.0, 0.9001461881957065
743.0, 0.9419343901537105
744.0, 0.9727830024882552
745.0, 0.9928772828901578
746.0, 0.9996035872184917
747.0, 0.9910288143707996
748.0, 0.9684014596668942
749.0, 0.9316710240267312
750.0, 0.8870117465956884
751.0, 0.8350862268259379
752.0, 0.7749219175428974
753.0, 0.7121542802466688
754.0, 0.6508709312860734
755.0, 0.5894606014931546
756.0, 0.5244899894380307
757.0, 0.46449453820457043
758.0, 0.4086135099583566
759.0, 0.35619369098822606
760.0, 0.30840358469836854
761.0, 0.2671244612156766
762.0, 0.23197603926127283
763.0, 0.20041666829242588
764.0, 0.17478389794622176
765.0, 0.15286070948216351
766.0, 0.13393940322089282
767.0, 0.11856187555092465
768.0, 0.10542167345369624
769.0, 0.09334279652241179
770.0, 0.08298567970083781
771.0, 0.07503254551510927
772.0, 0.06709418569998706
773.0, 0.05997591665885994
774.0, 0.0537205342221471
775.0, 0.04840905250023441
776.0, 0.04396331865161595
777.0, 0.03999694598012186
778.0, 0.03619741592788134
779.0, 0.03274222086395565
780.0, 0.02948969848274401
781.0, 0.02578746995491925
782.0, 0.023555534430509
783.0, 0.02148931110503394
784.0, 0.019225933377723194
785.0, 0.017842159933530995
786.0, 0.016867286780754352
787.0, 0.014835044885724288
788.0, 0.01425939770481297
789.0, 0.012731041020328838
790.0, 0.011015200629841302
791.0, 0.009515473023491733
792.0, 0.008279629262624781
793.0, 0.0075728651693000686
794.0, 0.0061315709460976085
795.0, 0.0055739933318501925
796.0, 0.004701083709383953
797.0, 0.0031165958018744676
798.0, 0.0022550120566859097
799.0, 0.0018811266074026279
800.0, 0.0008740934468514691
801.0, 0.0001971554232472759
802.0, 0.0005627828333340796
803.0, 0.00031586915476566223
804.0, 0.0014869153643139329
805.0, 0.0004189982444830775
806.0, 0.0017551187254526315
807.0, 0.0013695898045849816
808.0, 0.0013899209657532504
809.0, 0.0016406497921165907
810.0, 0.0018334065713616213
811.0, 0.0013108272592284836
812.0, 0.0015320533835995415
813.0, 0.0013073103476200574
814.0, 0.0016765388037934086
815.0, 0.001954117736482035
816.0, 0.0017180259059624138
817.0, 0.0020498294289925598
818.0, 0.0014281573734643094
819.0, 0.0007411938701669623
820.0, 0.0005527145739770066
821.0, 0.0007124263907875736
822.0, 0.0004258086837406567
823.0, 7.449571564540361e-05
824.0, 0.0001437842957330942
825.0, 5.421463566261859e-05
826.0, 7.310018888563076e-05
827.0, 0.0003569463738594138
828.0, 0.00014930875486257386
829.0, 0.000936122913427605
830.0, 0.0008641556604017944
831.0, 0.0008302066212552995
832.0, 0.0014488900134110947
833.0, 0.001410939801318087
834.0, 0.0015597497568766087
835.0, 0.0019626970237823934
836.0, 0.002189054655788907
837.0, 0.0026912931738743598
838.0, 0.002999186165745266
839.0, 0.0032931112715453075
840.0, 0.0031643395435965167
841.0, 0.0027455660070369067
842.0, 0.0036513081176056932
843.0, 0.004652078387159615
844.0, 0.004430330439212077
845.0, 0.004537425550518411
846.0, 0.004614406202935615
847.0, 0.005280707729603931
848.0, 0.005785823615015811
849.0, 0.005248697593911656
850.0, 0.004902272358755451
851.0, 0.006097381576923483
852.0, 0.006550805101204573
853.0, 0.006702304414519907
854.0, 0.007219208123435303
855.0, 0.0071396003227597845
856.0, 0.0072824674912908074
857.0, 0.007903553435662345
858.0, 0.008021406098449072
859.0, 0.008298156754469611
860.0, 0.008009648489857132
861.0, 0.0075410106744
862.0, 0.008200218420603608
863.0, 0.008587197392874587
864.0, 0.008712907823116015
865.0, 0.008961971091989434
866.0, 0.009055416014314534
867.0, 0.008746565344124704
868.0, 0.00821294585425628
869.0, 0.008467105446527783
870.0, 0.008478353887877202
871.0, 0.008310988089921796
872.0, 0.008110257379076209
873.0, 0.007899954252483814
874.0, 0.00787451697259254
875.0, 0.007527341656261365
876.0, 0.006457796314470733
877.0, 0.0066403886172516045
878.0, 0.006227821608231358
879.0, 0.006531753962244768
880.0, 0.006600223820508449
881.0, 0.006295768515704411
882.0, 0.0060539945466695465
883.0, 0.005845580642165205
884.0, 0.0056517763100828915
885.0, 0.005684864194824985
886.0, 0.005239323923116644
887.0, 0.004809271734055932
888.0, 0.004248258294619681
889.0, 0.003969612632528749
890.0, 0.004552984019159802
891.0, 0.004260127489562214
892.0, 0.003305600708253348
893.0, 0.003335527525832087
894.0, 0.003816034385762564
895.0, 0.0035044551082089705
896.0, 0.003721085872693726
897.0, 0.0038068429248482192
898.0, 0.003364300918019449
899.0, 0.0032583916968477976
900.0, 0.0034438354303331672
901.0, 0.0034018200063148183
902.0, 0.0032455085010612266
903.0, 0.003396019793123589
904.0, 0.0030578002588400282
905.0, 0.003218316455828778
906.0, 0.003317375716005198
907.0, 0.0032032498679101335
908.0, 0.0032965973363038394
909.0, 0.003192063755183572
910.0, 0.0031437700083007335
911.0, 0.0030346074534858916
912.0, 0.002620082156974131
913.0, 0.0030212763559302014
914.0, 0.002847747630250438
915.0, 0.002990736204673137
916.0, 0.003049978314715653
917.0, 0.002708761017243623
918.0, 0.0030036727235255344
919.0, 0.0033636458846650697
920.0, 0.0031081348848984395
921.0, 0.0030132132938639746
922.0, 0.00298002584043363
923.0, 0.00275697482421291
924.0, 0.002870467186883089
925.0, 0.0021773586878733823
926.0, 0.0020913264438299777
927.0, 0.002153151295124401
928.0, 0.0022295922977737083
929.0, 0.0021440663537107855
930.0, 0.0019450589477621647
931.0, 0.0021353519492491807
932.0, 0.00249420085926856
933.0, 0.0024458859328464074
934.0, 0.0021872961984381353
935.0, 0.00222609191391944
936.0, 0.0023785622590391468
937.0, 0.0022494786994166744
938.0, 0.0022177773658224836
939.0, 0.002313742823660352
940.0, 0.0023722062719715217
941.0, 0.002455003610828196
942.0, 0.0015765823152060277
943.0, 0.002595172682205683
944.0, 0.002113319255387834
945.0, 0.0021650646536482943
946.0, 0.0022098715515375036
947.0, 0.0019531122661755253
948.0, 0.0017429689468451003
949.0, 0.0015959008074320684
950.0, 0.0014636039230627874
951.0, 0.0016474420172290657
952.0, 0.0018425211447110784
953.0, 0.0017069347850072023
954.0, 0.0017631349515109592
955.0, 0.0014243580953972694
956.0, 0.0017631970154403471
957.0, 0.0020869673035226024
958.0, 0.0019393179403370717
959.0, 0.001682660790489984
960.0, 0.0016609923645944584
961.0, 0.0017723940734938918
962.0, 0.0018452899087833998
963.0, 0.0018769067754021817
964.0, 0.0012798875878989582
965.0, 0.0014507375983655445
966.0, 0.001407025085984562
967.0, 0.0013607444481726933
968.0, 0.0013991798853058377
969.0, 0.0009075580668441676
970.0, 0.00046651815319887716
971.0, 0.0006962385633706068
972.0, 0.0008409468815709589
973.0, 0.0013361533219864597
974.0, 0.0006006955688152268
975.0, 0.0004964419605660021
976.0, 0.0009722587082387372
977.0, 0.0006581130664401615
978.0, 0.0006107346336090303
979.0, 0.0006765044110862237
980.0, 0.0004586177549035129
981.0, 0.0003728768540145244
982.0, 0.0005559766926384932
983.0, 0.000813839153367063
984.0, 0.0005290316412869711
985.0, 0.0003582460398437882
986.0, 0.00027319380653880425
987.0, 0.0006167346083404307
988.0, 0.00022702227353974867
989.0, 0.00019318471585136402
990.0, 0.00024005156181835746
991.0, 3.7160217020719825e-05
992.0, 0.00014147165431328354
993.0, 0.0004124614833984454
994.0, 7.708266356858427e-05
995.0, 0.00014652039906912486
996.0, 0.00011846709833875371
997.0, 0.00017206566446879907
998.0, 0.0002798446057378665
999.0, 0.0005667742532280366
1000.0, 0.00029008772729053283
1001.0, 0.00014599218939272812
1002.0, 0.00013484624116961104
1003.0, 4.356150589683462e-05
1004.0, 7.12589856810033e-05
1005.0, 5.3792340910641347e-05
1006.0, 0.0003458409091488883
1007.0, 3.5080092220496264e-05
1008.0, 0.0001838677219100564
1009.0, 0.0005753362388908772
1010.0, 0.0004946626782881847
1011.0, 0.0006281759007377981
1012.0, 0.00010274874243306983
1013.0, 0.00011612852332585683
1014.0, 0.00035125920476031074
1015.0, 0.0002622837714080998
1016.0, 0.0002194830980951597
1017.0, 0.00018003591829499345
1018.0, 0.0005768684946839116
1019.0, 0.00032943522553746755
1020.0, 0.00021346230684978943
1021.0, 5.068147082452474e-05
1022.0, 0.00017704154921665437
1023.0, 0.00019505960398043853
1024.0, 0.0001139946534842997
1025.0, 0.0002983317479817686
1026.0, 0.0007667702664961644
1027.0, 0.0005462007512620632
1028.0, 0.0004209418935147099
1029.0, 0.0007236453738995899
1030.0, 0.0005887555410034831
1031.0, 0.0007338756175797931
1032.0, 0.0004939564160535181
1033.0, 0.00044793943929105206
1034.0, 0.00022809861045114285
1035.0, 0.0005527217087269398
1036.0, 0.000647539616709783
1037.0, 0.00046448756882317256
1038.0, 0.0007827966812079012
1039.0, 0.0008833607394057049
1040.0, 0.0005273668697932589
1041.0, 0.000574829596949216
1042.0, 0.001611725577688202
1043.0, 0.0010276053607170374
1044.0, 0.0011375132638948241
1045.0, 0.001128017232208571
1046.0, 0.0010502354281157324
1047.0, 0.0011480838302279925
1048.0, 0.0012897949050109155
1049.0, 0.0017811049231420528
1050.0, 0.002250260240907323
1051.0, 0.0016859834139155508
1052.0, 0.0008447465370427058
1053.0, 0.0017969110847555457
1054.0, 0.0015660964174680008
1055.0, 0.002140277243022436
1056.0, 0.0020073362608770177
1057.0, 0.0019601354699207104
1058.0, 0.0024752636469857823
1059.0, 0.002333308696940432
1060.0, 0.0023507551298251536
1061.0, 0.002658014456321604
1062.0, 0.002925955143630546
1063.0, 0.0029741884435663226
1064.0, 0.002774545462649287
1065.0, 0.003346078445624673
1066.0, 0.00424022242644217
1067.0, 0.004232778333241316
1068.0, 0.003922019700794817
1069.0, 0.0037862847157957187
1070.0, 0.003936889595488984
1071.0, 0.004904801499833408
1072.0, 0.004871460959226314
1073.0, 0.005273740390595773
1074.0, 0.005976313514284214
1075.0, 0.006405510351638381
1076.0, 0.006929126836074728
1077.0, 0.007080972509681492
1078.0, 0.00709916614001795
1079.0, 0.007764813187392163
1080.0, 0.008075565494457813
1081.0, 0.008476719075738312
1082.0, 0.008610342173286408
1083.0, 0.008899492793512431
1084.0, 0.009676502949147469
1085.0, 0.009719387620947276
1086.0, 0.009069849505818264
1087.0, 0.008713385025618744
1088.0, 0.008783045684598687
1089.0, 0.008901192267640336
1090.0, 0.008604869793788982
1091.0, 0.007791788905715929
1092.0, 0.007355730284901792
1093.0, 0.007043960653381806
1094.0, 0.006113185789210912
1095.0, 0.005534918138711881
1096.0, 0.00523112763909946
1097.0, 0.004814080429107598
1098.0, 0.004655303473328115
1099.0, 0.004581939172274231
1100.0, 0.004201318980436128
1101.0, 0.0038823194297983796
1102.0, 0.0036491958586274253
1103.0, 0.002742776609187559
1104.0, 0.002354182431731772
1105.0, 0.0031818090691946768
1106.0, 0.0026192618687670088
1107.0, 0.002481559311271047
1108.0, 0.0019793859623286687
1109.0, 0.0019003504248923068
1110.0, 0.0021121247738988508
1111.0, 0.0020091529523586344
1112.0, 0.0016525586266075657
1113.0, 0.0009607418189846618
1114.0, 0.0009986953793064415
1115.0, 0.001294529002007802
1116.0, 0.0015161505864947358
1117.0, 0.0014910315005556456
1118.0, 0.0013368820188711678
1119.0, 0.0013089463318772265
1120.0, 0.0011857871711205327
1121.0, 0.0012424573833862925
1122.0, 0.0010387077713667494
1123.0, 0.001298388800509712
1124.0, 0.0007593264866609389
1125.0, 0.0006502839722032024
1126.0, 0.0005739473597628891
1127.0, 0.00046343531578056744
1128.0, 0.0003715097285890919
1129.0, 0.00037978943843783834
1130.0, 0.0004290926814228212
1131.0, 0.0004620866219998307
1132.0, 0.0004236787849971587
1133.0, 0.00032811452814784117
1134.0, 0.000356158012867841
1135.0, 0.00019513447738493607
1136.0, 0.0006635500956439672
1137.0, 0.00017044795236904976
1138.0, 0.00014849074864999978
1139.0, 0.0002731887662464624
1140.0, 0.00026916728018096394
1141.0, 0.0003016025354484761
1142.0, 0.0007481507429983816
1143.0, 0.00024173214065059947
1144.0, 7.042245896052524e-05
1145.0, 0.0002880134957662725
1146.0, 0.00014900870454010053
1147.0, 0.00020522563564402446
1148.0, 0.00011021897652986171
1149.0, 3.840847555778346e-05
1150.0, 4.7296707336039325e-05
1151.0, 8.635346072609351e-05
1152.0, 0.0003001482597052655
1153.0, 0.00019486533055209786
1154.0, 8.747182184072169e-05
1155.0, 0.00035983143150515704
1156.0, 8.38662157022739e-05
1157.0, 0.00027268618277743925
1158.0, 6.0595955969398916e-05
1159.0, 0.00022860168656282438
1160.0, 0.0002255352066392543
1161.0, 0.0003291694497339407
1162.0, 0.0004423284903309757
1163.0, 0.0003779022012854662
1164.0, 0.00024120313499048616
1165.0, 0.00023505047319925465
1166.0, 0.0002741903981916938
1167.0, 0.0003430937037607938
1168.0, 0.00043206959064506106
1169.0, 0.00022948901188246223
1170.0, 2.4257896636965808e-05
1171.0, 0.00031991871646509237
1172.0, 0.00014723254316447012
1173.0, 0.00015634445049566816
1174.0, 0.0005611007874110835
1175.0, 0.0007771383233161832
1176.0, 0.0009968045154018755
1177.0, 0.0009680956141611716
1178.0, 0.0007928134429104412
1179.0, 0.0008260172414271389
1180.0, 0.0004742290643945753
1181.0, 0.0006773106960495524
1182.0, 0.0009371861904130217
1183.0, 0.0005500233983861987
1184.0, 0.0006883913386646662
1185.0, 0.0010514438797053368
1186.0, 0.0009172976648926313
1187.0, 0.0009564931311953971
1188.0, 0.0009366684012099501
1189.0, 0.001137743380646188
1190.0, 0.000903669286757209
1191.0, 0.0011953856393777335
1192.0, 0.0011346645666061137
1193.0, 0.001201441691319142
1194.0, 0.00128351462922635
1195.0, 0.0008337243271070191
1196.0, 0.0007675784731403679
1197.0, 0.0013864594080714046
1198.0, 0.0009796758919108758
1199.0, 0.0007821071437218007
1200.0, 0.0008123730305787651
1201.0, 0.001199219408298395
1202.0, 0.00142773605647198
1203.0, 0.001215908969885152
1204.0, 0.0007919870492692655
1205.0, 0.0007908308579759308
1206.0, 0.0008272796673866522
1207.0, 0.000540224718020056
1208.0, 0.0009729814367128803
1209.0, 0.0009261492222582505
1210.0, 0.0008098163492702553
1211.0, 0.0005638677849984075
1212.0, 0.0009096222455215588
1213.0, 0.0009522351512971903
1214.0, 0.0007040138160336024
1215.0, 0.0008693710135509783
1216.0, 0.0007927553031117707
1217.0, 0.00010071365157312423
1218.0, 0.000654704671114841
1219.0, 0.00046815637391877367
1220.0, 0.0003065901448323116
1221.0, 0.0003794953834437712
1222.0, 0.00022256502819378252
1223.0, 0.00043368227317770546
1224.0, 0.0006810315693332324
1225.0, 0.0006077482737682367
1226.0, 0.0006294117342314699
1227.0, 0.00048201690029833994
1228.0, 0.0006300204745599025
1229.0, 0.00024331917643415028
1230.0, 0.0003992501877067053
1231.0, 0.0010066607290119241
1232.0, 0.0006502839542409437
1233.0, 0.0003677598326452292
1234.0, 0.0006571080555789653
1235.0, 0.00038287259751057577
1236.0, 0.0003421967166288615
1237.0, 0.00030384919762258005
1238.0, 3.8483158636947725e-06
1239.0, 0.0006502562624609247
1240.0, 0.0008537556971749602
1241.0, 0.0007644532619433782
1242.0, 0.0003148972636616413
1243.0, 0.00038071747183234797
1244.0, 0.000368604191624197
1245.0, 0.0004463613497239651
1246.0, 0.0007527551057210194
1247.0, 0.0008480934539646545
1248.0, 0.0006748401339355019
1249.0, 0.0004664852068101432
1250.0, 0.0004995801902684244
1251.0, 0.0008324180885902534
1252.0, 0.001129034090195254
1253.0, 0.000926008677735788
1254.0, 0.00027205042635077237
1255.0, 0.00011054154989054664
1256.0, 0.00015275464722492723
1257.0, 0.00019993405936650507
1258.0, 0.0007362156865616793
1259.0, 0.0008703805751620401
1260.0, 0.0009800470202784275
1261.0, 0.00086199393253228
1262.0, 0.0008324724547805087
1263.0, 0.0006189528434543682
1264.0, 0.0009537598034828228
1265.0, 0.0013890609123369045
1266.0, 0.0011013075950515384
1267.0, 0.0011002579639206613
1268.0, 0.000803148329899699
1269.0, 0.000882451623487703
1270.0, 0.00119113541596017
1271.0, 0.0006606902337949171
1272.0, 0.0005773403316242811
1273.0, 0.0008361829296634245
1274.0, 0.0005920052342035516
1275.0, 0.0005703311673945733
1276.0, 0.0010419794598804995
1277.0, 0.0012039444527051288
1278.0, 0.0007350453737840244
1279.0, 0.00014675722427759033
1280.0, 4.072659782472958e-05
1281.0, 0.00037254801389722197
1282.0, 0.0005387411606096893
1283.0, 0.0006130908708927304
1284.0, 0.0007582226174581434
1285.0, 0.0001596964901486125
1286, 0.0
1287, 0.0
1288, 0.0
1289, 0.0
1290, 0.0
1291, 0.0
1292, 0.0
1293, 0.0
1294, 0.0
1295, 0.0
1296, 0.0
1297, 0.0
1298, 0.0
1299, 0.0
1300, 0.0
1301, 0.0
1302, 0.0
1303, 0.0
1304, 0.0
1305, 0.0
1306, 0.0
1307, 0.0
1308, 0.0
1309, 0.0
1310, 0.0
1311, 0.0
1312, 0.0
1313, 0.0
1314, 0.0
1315, 0.0
1316, 0.0
1317, 0.0
1318, 0.0
1319, 0.0
1320, 0.0
1321, 0.0
1322, 0.0
1323, 0.0
1324, 0.0
1325, 0.0
1326, 0.0
1327, 0.0
1328, 0.0
1329, 0.0
1330, 0.0
1331, 0.0
1332, 0.0
1333, 0.0
1334, 0.0
1335, 0.0
1336, 0.0
1337, 0.0
1338, 0.0
1339, 0.0
1340, 0.0
1341, 0.0
1342, 0.0
1343, 0.0
1344, 0.0
1345, 0.0
1346, 0.0
1347, 0.0
1348, 0.0
1349, 0.0
1350, 0.0
1351, 0.0
1352, 0.0
1353, 0.0
1354, 0.0
1355, 0.0
1356, 0.0
1357, 0.0
1358, 0.0
1359, 0.0
1360, 0.0
1361, 0.0
1362, 0.0
1363, 0.0
1364, 0.0
1365, 0.0
1366, 0.0
1367, 0.0
1368, 0.0
1369, 0.0
1370, 0.0
1371, 0.0
1372, 0.0
1373, 0.0
1374, 0.0
1375, 0.0
1376, 0.0
1377, 0.0
1378, 0.0
1379, 0.0
1380, 0.0
1381, 0.0
1382, 0.0
1383, 0.0
1384, 0.0
1385, 0.0
1386, 0.0
1387, 0.0
1388, 0.0
1389, 0.0
1390, 0.0
1391, 0.0
1392, 0.0
1393, 0.0
1394, 0.0
1395, 0.0
1396, 0.0
1397, 0.0
1398, 0.0
1399, 0.0
1400, 0.0
1401, 0.0
1402, 0.0
1403, 0.0
1404, 0.0
1405, 0.0
1406, 0.0
1407, 0.0
1408, 0.0
1409, 0.0
1410, 0.0
1411, 0.0
1412, 0.0
1413, 0.0
1414, 0.0
1415, 0.0
1416, 0.0
1417, 0.0
1418, 0.0
1419, 0.0
1420, 0.0
1421, 0.0
1422, 0.0
1423, 0.0
1424, 0.0
1425, 0.0
1426, 0.0
1427, 0.0
1428, 0.0
1429, 0.0
1430, 0.0
1431, 0.0
1432, 0.0
1433, 0.0
1434, 0.0
1435, 0.0
1436, 0.0
1437, 0.0
1438, 0.0
1439, 0.0
1440, 0.0
1441, 0.0
1442, 0.0
1443, 0.0
1444, 0.0
1445, 0.0
1446, 0.0
1447, 0.0
1448, 0.0
1449, 0.0
1450, 0.0
1451, 0.0
1452, 0.0
1453, 0.0
1454, 0.0
1455, 0.0
1456, 0.0
1457, 0.0
1458, 0.0
1459, 0.0
1460, 0.0
1461, 0.0
1462, 0.0
1463, 0.0
1464, 0.0
1465, 0.0
1466, 0.0
1467, 0.0
1468, 0.0
1469, 0.0
1470, 0.0
1471, 0.0
1472, 0.0
1473, 0.0
1474, 0.0
1475, 0.0
1476, 0.0
1477, 0.0
1478, 0.0
1479, 0.0
1480, 0.0
1481, 0.0
1482, 0.0
1483, 0.0
1484, 0.0
1485, 0.0
1486, 0.0
1487, 0.0
1488, 0.0
1489, 0.0
1490, 0.0
1491, 0.0
1492, 0.0
1493, 0.0
1494, 0.0
1495, 0.0
1496, 0.0
1497, 0.0
1498, 0.0
1499, 0.0
1500, 0.0
1501, 0.0
1502, 0.0
1503, 0.0
1504, 0.0
1505, 0.0
1506, 0.0
1507, 0.0
1508, 0.0
1509, 0.0
1510, 0.0
1511, 0.0
1512, 0.0
1513, 0.0
1514, 0.0
1515, 0.0
1516, 0.0
1517, 0.0
1518, 0.0
1519, 0.0
1520, 0.0
1521, 0.0
1522, 0.0
1523, 0.0
1524, 0.0
1525, 0.0
1526, 0.0
1527, 0.0
1528, 0.0
1529, 0.0
1530, 0.0
1531, 0.0
1532, 0.0
1533, 0.0
1534, 0.0
1535, 0.0
1536, 0.0
1537, 0.0
1538, 0.0
1539, 0.0
1540, 0.0
1541, 0.0
1542, 0.0
1543, 0.0
1544, 0.0
1545, 0.0
1546, 0.0
1547, 0.0
1548, 0.0
1549, 0.0
1550, 0.0
1551, 0.0
1552, 0.0
1553, 0.0
1554, 0.0
1555, 0.0
1556, 0.0
1557, 0.0
1558, 0.0
1559, 0.0
1560, 0.0
1561, 0.0
1562, 0.0
1563, 0.0
1564, 0.0
1565, 0.0
1566, 0.0
1567, 0.0
1568, 0.0
1569, 0.0
1570, 0.0
1571, 0.0
1572, 0.0
1573, 0.0
1574, 0.0
1575, 0.0
1576, 0.0
1577, 0.0
1578, 0.0
1579, 0.0
1580, 0.0
1581, 0.0
1582, 0.0
1583, 0.0
1584, 0.0
1585, 0.0
1586, 0.0
1587, 0.0
1588, 0.0
1589, 0.0
1590, 0.0
1591, 0.0
1592, 0.0
1593, 0.0
1594, 0.0
1595, 0.0
1596, 0.0
1597, 0.0
1598, 0.0
1599, 0.0
