30, 0.0
31, 0.0
32, 0.0
33, 0.0
34, 0.0
35, 0.0
36, 0.0
37, 0.0
38, 0.0
39, 0.0
40, 0.0
41, 0.0
42, 0.0
43, 0.0
44, 0.0
45, 0.0
46, 0.0
47, 0.0
48, 0.0
49, 0.0
50, 0.0
51, 0.0
52, 0.0
53, 0.0
54, 0.0
55, 0.0
56, 0.0
57, 0.0
58, 0.0
59, 0.0
60, 0.0
61, 0.0
62, 0.0
63, 0.0
64, 0.0
65, 0.0
66, 0.0
67, 0.0
68, 0.0
69, 0.0
70, 0.0
71, 0.0
72, 0.0
73, 0.0
74, 0.0
75, 0.0
76, 0.0
77, 0.0
78, 0.0
79, 0.0
80, 0.0
81, 0.0
82, 0.0
83, 0.0
84, 0.0
85, 0.0
86, 0.0
87, 0.0
88, 0.0
89, 0.0
90, 0.0
91.0, 0.000903791673016767
92.0, 0.00430542099554447
93.0, 0.008271944843145383
94.0, 0.004352908683713656
95.0, 0.0010901118310143365
96.0, 0.00038511676854689346
97.0, 0.0008367147683942549
98.0, 0.00019165807578420754
99.0, 0.0008862678986150344
100.0, 0.0013979838850230327
101.0, 0.005338580064988469
102.0, 0.010998519673661066
103.0, 0.018390628883633974
104.0, 0.023156756149059064
105.0, 0.031176679158457416
106.0, 0.04087686035063363
107.0, 0.04979032968091399
108.0, 0.06222654843987328
109.0, 0.07625435917181397
110.0, 0.08883284926669845
111.0, 0.09639720322453209
112.0, 0.08918586689814784
113.0, 0.07481853336613482
114.0, 0.059149642911263164
115.0, 0.04704801763087176
116.0, 0.04124073418468882
117.0, 0.041240629331517856
118.0, 0.04493334376494804
119.0, 0.05173392977755558
120.0, 0.06301738854930544
121.0, 0.07660950133488151
122.0, 0.09001401644607472
123.0, 0.09847672808551394
124.0, 0.0961954416415243
125.0, 0.0832214338650044
126.0, 0.06565057804991323
127.0, 0.04858227760827531
128.0, 0.037448783782630196
129.0, 0.03236942776269658
130.0, 0.030988507664509526
131.0, 0.03129780040364004
132.0, 0.03368021054498488
133.0, 0.038575220990262796
134.0, 0.045833698449251795
135.0, 0.05514461738691055
136.0, 0.06661470619820614
137.0, 0.0810093272790256
138.0, 0.0984458049645635
139.0, 0.11829947423538809
140.0, 0.13659145756556498
141.0, 0.1473779043155058
142.0, 0.14953468594104904
143.0, 0.1498911303967501
144.0, 0.15515058718157274
145.0, 0.17004096481088818
146.0, 0.19145963423378173
147.0, 0.21180746288725955
148.0, 0.21912039386529053
149.0, 0.20493365066636815
150.0, 0.17020206756145406
151.0, 0.13069698945180044
152.0, 0.09841118767566016
153.0, 0.07552137129869307
154.0, 0.060311104435160634
155.0, 0.0515537679708704
156.0, 0.046829411255256824
157.0, 0.045062887307416734
158.0, 0.045627633762864765
159.0, 0.04518297524531323
160.0, 0.04354395640279911
161.0, 0.03904531053553722
162.0, 0.030995346100745093
163.0, 0.022797639751184907
164.0, 0.014233864258215139
165.0, 0.007018718514868283
166.0, 0.0022822030939589595
167.0, 0.0004828981831037891
168.0, 0.0020087875480929948
169.0, 0.0026986179891998236
170.0, 0.002092798443291755
171.0, 0.0005966874323322558
172.0, 0.0024462584866900765
173.0, 0.005224329479872724
174.0, 0.008028846159349247
175.0, 0.010273858469517137
176.0, 0.012884002046625707
177.0, 0.015103268529073299
178.0, 0.016883530393260255
179.0, 0.018796443971294558
180.0, 0.022474755247941493
181.0, 0.026335433671494407
182.0, 0.029272141485067737
183.0, 0.03225480720218147
184.0, 0.03686496490415804
185.0, 0.03983536453947965
186.0, 0.039891897073273376
187.0, 0.03684945604098954
188.0, 0.031411026603861296
189.0, 0.024424977626358868
190.0, 0.017773572261779003
191.0, 0.011496487390274267
192.0, 0.006038331257556792
193.0, 0.002334837891624871
194.0, 0.0013703995967269899
195.0, 0.0024129748145654455
196.0, 0.002930437419505301
197.0, 0.0057738934477908664
198.0, 0.00710134063915551
199.0, 0.006639398034784611
200.0, 0.005336429535479969
201.0, 0.0038952507242741405
202.0, 0.0022081947744029464
203.0, 0.00011838293578726554
204.0, 0.003188001494206583
205.0, 0.007543350890440509
206.0, 0.011993234355062764
207.0, 0.015141989343072326
208.0, 0.01813519093369563
209.0, 0.020601312397781527
210.0, 0.021513868529846606
211.0, 0.01984260680524615
212.0, 0.01654527526327536
213.0, 0.01237874443491713
214.0, 0.008173974132510638
215.0, 0.004783183355260456
216.0, 0.0023685536429334394
217.0, 0.0014812146593636674
218.0, 0.001656436896857879
219.0, 0.0024665864982984865
220.0, 0.004256069230066626
221.0, 0.007142910923283267
222.0, 0.01063247751235757
223.0, 0.0149844286728935
224.0, 0.020786566942708806
225.0, 0.026429279843190264
226.0, 0.03060561062628353
227.0, 0.032935821257986324
228.0, 0.033788002057529395
229.0, 0.03379661236198949
230.0, 0.03347242474547101
231.0, 0.03323104617756315
232.0, 0.033592702008454885
233.0, 0.03526700541617721
234.0, 0.03875755891370805
235.0, 0.04231417032710265
236.0, 0.04669737852875341
237.0, 0.05287821322006003
238.0, 0.05997898636223361
239.0, 0.06817435336785609
240.0, 0.0771548521543451
241.0, 0.0877409639378922
242.0, 0.09991849653130067
243.0, 0.10950126312604871
244.0, 0.11755735952565807
245.0, 0.1219982357396975
246.0, 0.12044011499071719
247.0, 0.11178732054444737
248.0, 0.09517968787468518
249.0, 0.07915527444087501
250.0, 0.06553167716060557
251.0, 0.05320469107640864
252.0, 0.04497685150728564
253.0, 0.039127505777067834
254.0, 0.035503873032855154
255.0, 0.033664904264402336
256.0, 0.0330652672420319
257.0, 0.03370440443338171
258.0, 0.035558244075423656
259.0, 0.03866576521990475
260.0, 0.0431605624685369
261.0, 0.0492022691322084
262.0, 0.055608223953125466
263.0, 0.06243504981478228
264.0, 0.06959973623102754
265.0, 0.07663692904129679
266.0, 0.0841746130713448
267.0, 0.09277343501318136
268.0, 0.10236939435294021
269.0, 0.11278151138208775
270.0, 0.12422663309269676
271.0, 0.13720941288742852
272.0, 0.14542422959739146
273.0, 0.14916190507105964
274.0, 0.15042858290153963
275.0, 0.14737310193844644
276.0, 0.13915219180375057
277.0, 0.128629485606071
278.0, 0.11821851764522401
279.0, 0.10940935377037732
280.0, 0.10250608590794094
281.0, 0.09835170707370329
282.0, 0.09616671117225607
283.0, 0.09508027792929814
284.0, 0.09527341476248048
285.0, 0.09865110017878906
286.0, 0.10376413877363785
287.0, 0.10945398239606773
288.0, 0.11534913079335757
289.0, 0.12220679119961222
290.0, 0.12963972293418577
291.0, 0.13663768832563433
292.0, 0.1442670843525708
293.0, 0.15385628142527957
294.0, 0.1598423192035146
295.0, 0.1605975087988586
296.0, 0.15660502874280238
297.0, 0.1490584530787816
298.0, 0.13904679161319003
299.0, 0.1283017446559173
300.0, 0.11672038752082263
301.0, 0.1033085050935117
302.0, 0.08860098015691303
303.0, 0.0763356491877995
304.0, 0.06329372840217064
305.0, 0.05097433281900226
306.0, 0.04088199443251157
307.0, 0.03321786335649877
308.0, 0.026931541042046495
309.0, 0.023577279356644908
310.0, 0.022152304766559508
311.0, 0.022101700831205665
312.0, 0.02369660079804502
313.0, 0.025731287796415862
314.0, 0.02850981582147153
315.0, 0.03276482573992112
316.0, 0.03844932058234974
317.0, 0.044242317332620816
318.0, 0.0500643346156966
319.0, 0.05571195361959498
320.0, 0.06079942055111723
321.0, 0.06528122861098137
322.0, 0.06915989405039166
323.0, 0.07039141613292539
324.0, 0.0684388374423693
325.0, 0.06424165105195852
326.0, 0.058655195058195456
327.0, 0.05193308141748302
328.0, 0.04491711338915279
329.0, 0.03877000492773645
330.0, 0.03396000240881276
331.0, 0.030439723187835544
332.0, 0.02809922721265887
333.0, 0.02786293043297957
334.0, 0.027615924453237732
335.0, 0.026365676035435427
336.0, 0.02434182229187243
337.0, 0.021206743378304565
338.0, 0.01566830730678884
339.0, 0.009154300831565298
340.0, 0.002867324186470522
341.0, 0.0028919737084133713
342.0, 0.006491109881483013
343.0, 0.009173592012872413
344.0, 0.010729907455431733
345.0, 0.011138503819324401
346.0, 0.011364812960165218
347.0, 0.010908997027050258
348.0, 0.009118031214595066
349.0, 0.006868750781185472
350.0, 0.005162348674244869
351.0, 0.0038175283507402504
352.0, 0.0011843955291468932
353.0, 0.0009233546716722893
354.0, 0.0033546936913656238
355.0, 0.006196615754120015
356.0, 0.007739328986566568
357.0, 0.007201039833927987
358.0, 0.008752682800881244
359.0, 0.011170632967252077
360.0, 0.013788587815143675
361.0, 0.018702804826429074
362.0, 0.024369859732892202
363.0, 0.030503291548862915
364.0, 0.0381228531366573
365.0, 0.04748805152322515
366.0, 0.05710716325650568
367.0, 0.06825035575385123
368.0, 0.08032046067835472
369.0, 0.09313918344615538
370.0, 0.1067510406766955
371.0, 0.12049077057899488
372.0, 0.13207549177077607
373.0, 0.14038400110969626
374.0, 0.14613009363327376
375.0, 0.15131403292229206
376.0, 0.1581141342435449
377.0, 0.16898829451273595
378.0, 0.18522914160918114
379.0, 0.20524687680511278
380.0, 0.22647492556541926
381.0, 0.2468900386441573
382.0, 0.26327199048460503
383.0, 0.27256349990515144
384.0, 0.27139699288870084
385.0, 0.25923059380196634
386.0, 0.23748520823611352
387.0, 0.21277948785358522
388.0, 0.18912307280204022
389.0, 0.17095583707417647
390.0, 0.15977877782505842
391.0, 0.15402933934713903
392.0, 0.15385939619853772
393.0, 0.15884190855293995
394.0, 0.16579246790666294
395.0, 0.1721707428006925
396.0, 0.17657380938909642
397.0, 0.17764693649932503
398.0, 0.1717705373814749
399.0, 0.15975688130882068
400.0, 0.1419946536624528
401.0, 0.1194032865301447
402.0, 0.09949215691191672
403.0, 0.084325187274864
404.0, 0.07324184415223538
405.0, 0.06599405791334864
406.0, 0.06314612643230393
407.0, 0.06527966244602892
408.0, 0.07046665386165349
409.0, 0.07700246865540594
410.0, 0.08516060083843575
411.0, 0.09593902199002832
412.0, 0.10767467275907311
413.0, 0.1199412795319209
414.0, 0.13555560915160458
415.0, 0.1551245501021382
416.0, 0.17707697413054913
417.0, 0.20178546585155943
418.0, 0.2326202079494463
419.0, 0.2667872767334388
420.0, 0.3057824356828532
421.0, 0.35005078426716074
422.0, 0.3960371422983996
423.0, 0.44224882195745496
424.0, 0.48559657663602607
425.0, 0.5156596656299245
426.0, 0.5232864976458118
427.0, 0.5038181423908384
428.0, 0.4625131261529147
429.0, 0.4020281325275978
430.0, 0.33577085490582287
431.0, 0.2731834545707953
432.0, 0.21804988367350936
433.0, 0.17505724164166825
434.0, 0.14111638551674274
435.0, 0.11550862436619361
436.0, 0.09633920381766957
437.0, 0.08167148347274261
438.0, 0.07112165062171309
439.0, 0.06390889510767855
440.0, 0.05935656760749148
441.0, 0.05709790882520488
442.0, 0.056827616059895225
443.0, 0.058112575921850866
444.0, 0.05959118555643516
445.0, 0.06016824229108901
446.0, 0.0604611053082909
447.0, 0.05988314858724194
448.0, 0.05660862092976357
449.0, 0.05482634369605142
450.0, 0.05175009209820995
451.0, 0.050780345896414676
452.0, 0.05303217308079839
453.0, 0.056671374556233806
454.0, 0.06115886424718279
455.0, 0.06761691725287088
456.0, 0.07565583017667116
457.0, 0.08469504452247702
458.0, 0.0948629533487835
459.0, 0.10666049695789011
460.0, 0.11865508652375893
461.0, 0.13141418316758385
462.0, 0.14301888442276367
463.0, 0.15298437890756494
464.0, 0.16255231826373573
465.0, 0.1708012446985554
466.0, 0.18104718207258835
467.0, 0.19226395755244532
468.0, 0.20043919180235598
469.0, 0.2006237060084175
470.0, 0.1907011605392342
471.0, 0.17203117991170733
472.0, 0.14736509875142373
473.0, 0.11879773073325524
474.0, 0.09095275723149863
475.0, 0.06874223941727506
476.0, 0.050944834754513536
477.0, 0.036596550897561704
478.0, 0.02569623162211831
479.0, 0.01734480477256073
480.0, 0.01062770332293282
481.0, 0.005930680315205015
482.0, 0.0021784231517713295
483.0, 0.0014512785927628424
484.0, 0.003972271024720869
485.0, 0.005318525407873858
486.0, 0.006370430015926049
487.0, 0.0061464426174658495
488.0, 0.006973924287059556
489.0, 0.007131025677880511
490.0, 0.00650147011257485
491.0, 0.005532291566669523
492.0, 0.0037104709265030405
493.0, 0.001755562361017795
494.0, 0.0012565180311908933
495.0, 0.005253901319638908
496.0, 0.00969229591842862
497.0, 0.014112590239358196
498.0, 0.018333351182859794
499.0, 0.02255512703839519
500.0, 0.027190014521636312
501.0, 0.032607095780029495
502.0, 0.03918113436612699
503.0, 0.047141048771260886
504.0, 0.05641781027706393
505.0, 0.06611669540472687
506.0, 0.07719731908378132
507.0, 0.08965633458800998
508.0, 0.10242572343320377
509.0, 0.11495923634043673
510.0, 0.1299814104289496
511.0, 0.14510546647805314
512.0, 0.15829604664558425
513.0, 0.16524309241263563
514.0, 0.15938442534696437
515.0, 0.14065037042792025
516.0, 0.114170077765441
517.0, 0.08773235013746108
518.0, 0.06522004681466238
519.0, 0.04818886038571497
520.0, 0.037285156062993555
521.0, 0.028691663105292496
522.0, 0.022728463157899035
523.0, 0.018412663037105332
524.0, 0.014921038295262729
525.0, 0.012241704017465648
526.0, 0.010680238278521891
527.0, 0.009522332205363056
528.0, 0.008812038687111345
529.0, 0.008492030285173159
530.0, 0.008232653317429632
531.0, 0.007566620806039389
532.0, 0.006897030684722976
533.0, 0.006753217398630658
534.0, 0.006514277360848627
535.0, 0.006227957894943156
536.0, 0.006158240659615962
537.0, 0.005952551433418405
538.0, 0.005809614608656052
539.0, 0.0053859334759677815
540.0, 0.005008997777251647
541.0, 0.004899156430578662
542.0, 0.004709376028683805
543.0, 0.003464973426144735
544.0, 0.003147463956457768
545.0, 0.0023432216325393923
546.0, 0.0012215617807885735
547.0, 0.0005860230493946594
548.0, 0.0003516799828889605
549.0, 0.0006858435297241602
550.0, 0.0002587138144750391
551.0, 0.0005009751441059032
552.0, 0.00032934646843520534
553.0, 0.00029782043270030367
554.0, 0.00026061144894304827
555.0, 0.0008080071550026792
556.0, 0.0009096199326647533
557.0, 0.001548712147937079
558.0, 0.0021091115188781634
559.0, 0.001835309225794681
560.0, 0.0012880489207986402
561.0, 0.0021072277466860226
562.0, 0.00302217685133961
563.0, 0.0036349774046303355
564.0, 0.0037133894167710115
565.0, 0.003673821893706741
566.0, 0.004171151374954823
567.0, 0.00458748273666918
568.0, 0.004629330378603933
569.0, 0.004454570614272816
570.0, 0.003998939846953598
571.0, 0.0033099081864420778
572.0, 0.002770553486487431
573.0, 0.0026381944225176658
574.0, 0.0029098496804517405
575.0, 0.0024961355729649854
576.0, 0.0020076902576599684
577.0, 0.0017449522509882024
578.0, 0.0009248498727332629
579.0, 0.0006458308345541389
580.0, 0.001075398280633896
581.0, 0.0007372587720003709
582.0, 0.0004674123551508991
583.0, 0.0008435021036014821
584.0, 0.0008049081401382794
585.0, 0.0003802642909218349
586.0, 0.0009727998466988264
587.0, 0.001416963135934427
588.0, 0.0019039882583595936
589.0, 0.001709753160181022
590.0, 0.0006507252977581547
591.0, 0.0005566040472069289
592.0, 0.0006787237283378853
593.0, 0.0016340683872024568
594.0, 0.0030074213400215024
595.0, 0.005041815501770591
596.0, 0.006803090020643045
597.0, 0.0083237769859803
598.0, 0.011234907027706744
599.0, 0.014194720506416422
600.0, 0.01712022834064502
601.0, 0.020482363332486684
602.0, 0.024406348380887177
603.0, 0.02837080137886151
604.0, 0.03219398764403828
605.0, 0.03594181575662965
606.0, 0.03872223556771234
607.0, 0.03971926933652857
608.0, 0.03936423327509785
609.0, 0.03901498650052659
610.0, 0.036568239881416505
611.0, 0.032910351505970464
612.0, 0.028758078557138828
613.0, 0.024549717901038607
614.0, 0.02066914613731324
615.0, 0.017646373392848365
616.0, 0.01511449006389842
617.0, 0.013089222182421957
618.0, 0.011580593830716225
619.0, 0.011111276261102292
620.0, 0.011550326180816112
621.0, 0.012226702570681418
622.0, 0.0136255563403562
623.0, 0.01601707123721737
624.0, 0.018834043251694327
625.0, 0.02232888262458573
626.0, 0.026507805123916962
627.0, 0.030988977488872266
628.0, 0.035493320046956184
629.0, 0.03834431062682525
630.0, 0.040529515466880675
631.0, 0.04084633408022168
632.0, 0.03803462284029969
633.0, 0.03248644926722727
634.0, 0.0258456046324719
635.0, 0.019472312951492925
636.0, 0.013663557835637464
637.0, 0.00987196065966522
638.0, 0.007396954921847261
639.0, 0.005848563992031342
640.0, 0.005808547787547184
641.0, 0.006622897745292069
642.0, 0.007845353510192941
643.0, 0.010069992341900298
644.0, 0.013507752338436459
645.0, 0.018180988676051408
646.0, 0.024088347614741226
647.0, 0.03146318825370996
648.0, 0.04123153468306866
649.0, 0.05310854957599301
650.0, 0.0655494190632088
651.0, 0.07839561914795362
652.0, 0.09155603458726094
653.0, 0.10500774417677203
654.0, 0.12030033476650286
655.0, 0.1382070818435341
656.0, 0.16046618560379286
657.0, 0.1868349719837208
658.0, 0.21800744561166951
659.0, 0.25458825660714507
660.0, 0.2956882777302693
661.0, 0.3413490865654658
662.0, 0.3901844620654526
663.0, 0.4381961651371332
664.0, 0.47556166498565944
665.0, 0.4907660346335573
666.0, 0.4758472088681047
667.0, 0.4320375166010611
668.0, 0.3687281917808805
669.0, 0.30210773297829707
670.0, 0.24087395704039052
671.0, 0.19154979004746567
672.0, 0.1544316383250557
673.0, 0.1242451029550236
674.0, 0.10127831579962028
675.0, 0.08246977230530972
676.0, 0.06694559190280383
677.0, 0.053391531902035265
678.0, 0.04277493609940752
679.0, 0.035265549501539706
680.0, 0.02773853385613553
681.0, 0.021199846307059855
682.0, 0.017822883233651218
683.0, 0.014058244531393893
684.0, 0.010483816316985955
685.0, 0.007969099426798153
686.0, 0.005521308980417173
687.0, 0.004469334959534574
688.0, 0.003422704887245241
689.0, 0.0032070080873366227
690.0, 0.0023341236464397295
691.0, 0.001027995373347974
692.0, 0.00016554830073381587
693.0, 0.0005328573529933732
694.0, 0.0002635593142758481
695.0, 0.0005061751606780537
696.0, 0.000835972220564143
697.0, 0.0012567109658163838
698.0, 0.001327365641088972
699.0, 0.0008023018866675125
700.0, 0.00024810780013366816
701.0, 0.0003404077006484303
702.0, 0.000130499402879213
703.0, 0.00019692375288070624
704.0, 0.0004997261744807566
705.0, 0.0009078817382328072
706.0, 0.0014180713623126377
707.0, 0.0015947340156350592
708.0, 0.0013244420618385346
709.0, 0.0018202859433673548
710.0, 0.002776307962471116
711.0, 0.003278755546065903
712.0, 0.0034117697628899065
713.0, 0.003440289629376523
714.0, 0.003199851132450877
715.0, 0.0031175933964512274
716.0, 0.003786783640070464
717.0, 0.0032211972229532946
718.0, 0.003031872458150407
719.0, 0.00361558196808657
720.0, 0.003841128839652297
721.0, 0.0033127985114639554
722.0, 0.0033868959954630323
723.0, 0.003985505587378693
724.0, 0.0038492416502552843
725.0, 0.003488136046026198
726.0, 0.0034318134495184612
727.0, 0.0034592775815427057
728.0, 0.0035787186875958672
729.0, 0.0042478637085989895
730.0, 0.004408696640452315
731.0, 0.004731950220607711
732.0, 0.004611717506876491
733.0, 0.005130114492069744
734.0, 0.006112321820017993
735.0, 0.006150487246795526
736.0, 0.006923161307400785
737.0, 0.007911793213266098
738.0, 0.00898741679189886
739.0, 0.009996475370124233
740.0, 0.011010815306957423
741.0, 0.01242001447190052
742.0, 0.014351313432935848
743.0, 0.016303727018731423
744.0, 0.019304430054424806
745.0, 0.022758634273674968
746.0, 0.025821657557214783
747.0, 0.02852732733876753
748.0, 0.03164866510087981
749.0, 0.034869752662769565
750.0, 0.03649481028176895
751.0, 0.037036223730646474
752.0, 0.03583318009422211
753.0, 0.03435038755223308
754.0, 0.032978428575279335
755.0, 0.03158795654002792
756.0, 0.03075823431259522
757.0, 0.03056762645056292
758.0, 0.027908781616880506
759.0, 0.024962038297366675
760.0, 0.020618324722824412
761.0, 0.015718667208563585
762.0, 0.01157156142758674
763.0, 0.008455629022268046
764.0, 0.006053844956864069
765.0, 0.004344752807664296
766.0, 0.003170193951266529
767.0, 0.002037762587041746
768.0, 0.0008706452141906755
769.0, 0.0008126992853743356
770.0, 0.0009012117755435037
771.0, 0.0004611949547578143
772.0, 0.0003790884123263277
773.0, 0.00032205342695631616
774.0, 0.0004022489093133266
775.0, 0.0001027320313261864
776.0, 0.0003203520985272799
777.0, 0.00013636538046178922
778.0, 9.320543375159691e-05
779.0, 0.0003232733668511422
780.0, 0.0007468849583724832
781.0, 0.00032826086026598185
782.0, 0.0003716940392499339
783.0, 0.0006458668360731384
784.0, 0.0004665838872376269
785.0, 0.0004715499248123143
786.0, 0.0006491290942532593
787.0, 0.00017149551573170278
788.0, 0.00020010710562239312
789.0, 2.8051143689768742e-05
790.0, 0.0005781678609552858
791.0, 0.0001991349671585401
792.0, 0.0002377075042039568
793.0, 0.0006693674964294398
794.0, 0.0007275686338405566
795.0, 0.0002961198214229607
796.0, 0.0002345226317203214
797.0, 0.0005819390381198842
798.0, 0.00019145371107089028
799.0, 0.00011795532549164247
800.0, 0.0003378418184642784
801.0, 0.0006564530714629523
802.0, 0.0006079627722076748
803.0, 0.00016016290636419636
804.0, 0.00010497695197085324
805.0, 0.0005912634565995673
806.0, 0.0012994320692072004
807.0, 0.0011945321432635138
808.0, 0.0012575622599233162
809.0, 0.0011829732752284973
810.0, 0.0008207579119302168
811.0, 0.002047713739930528
812.0, 0.0023167013448060617
813.0, 0.0012538526462596265
814.0, 0.0012330088064801807
815.0, 0.0016758542184010555
816.0, 0.0021363768066130703
817.0, 0.0025092329045247213
818.0, 0.002903634978802513
819.0, 0.003306993623165395
820.0, 0.0027573323506071413
821.0, 0.003062306489658156
822.0, 0.003629825205694295
823.0, 0.0034055054456680126
824.0, 0.003165752382244735
825.0, 0.0035655477996143713
826.0, 0.00391182695110121
827.0, 0.003726864261380788
828.0, 0.00427227102418347
829.0, 0.004898494029169518
830.0, 0.004844304230901752
831.0, 0.0053389805477161495
832.0, 0.00576155027417187
833.0, 0.0060927666712729455
834.0, 0.0067035376982118615
835.0, 0.007034170516157653
836.0, 0.007245485497270541
837.0, 0.007108998576355844
838.0, 0.007645681246091605
839.0, 0.008946864058233396
840.0, 0.010077769577779344
841.0, 0.010633848103679403
842.0, 0.010981300717448366
843.0, 0.011702203972086864
844.0, 0.012759163619181805
845.0, 0.013497162860416157
846.0, 0.014037973826231558
847.0, 0.01572595557888346
848.0, 0.016642360329235082
849.0, 0.017089990038524044
850.0, 0.017775393483109695
851.0, 0.019509404698586745
852.0, 0.02211890629951704
853.0, 0.022233671996592215
854.0, 0.021772922223836463
855.0, 0.022031316193365232
856.0, 0.021498668822463846
857.0, 0.021735920816588192
858.0, 0.022191255712624314
859.0, 0.021502578380614396
860.0, 0.020485763921185677
861.0, 0.019371619889017654
862.0, 0.018164700901252245
863.0, 0.01745881644307186
864.0, 0.01548938074361011
865.0, 0.013969234319342879
866.0, 0.013387928739047948
867.0, 0.012835280676897244
868.0, 0.012043289205083465
869.0, 0.011435057193195652
870.0, 0.010151099044888588
871.0, 0.010428200921334558
872.0, 0.009521925837773063
873.0, 0.009364276300067248
874.0, 0.009956036335670675
875.0, 0.010001762627969646
876.0, 0.009482575756358748
877.0, 0.009672264175237106
878.0, 0.01069740545485661
879.0, 0.010952103065030227
880.0, 0.0111651663364531
881.0, 0.011805467596100594
882.0, 0.01262300495167573
883.0, 0.013531278094850262
884.0, 0.014376984417336572
885.0, 0.015621395474147422
886.0, 0.01691168228717872
887.0, 0.01699584448623092
888.0, 0.018139370699590558
889.0, 0.021044578394172928
890.0, 0.02246662630948669
891.0, 0.023430881472085947
892.0, 0.024936570845394933
893.0, 0.026753966722799664
894.0, 0.028724194756556052
895.0, 0.030696693995519487
896.0, 0.03219922258155585
897.0, 0.03322723403408295
898.0, 0.03189072288451188
899.0, 0.027855405678685954
900.0, 0.024621102477785352
901.0, 0.02071389321663097
902.0, 0.017407434295490704
903.0, 0.015932204146712838
904.0, 0.01539534678645931
905.0, 0.015748743188384668
906.0, 0.01692923011144873
907.0, 0.018241222198479366
908.0, 0.020436445517160708
909.0, 0.02158733842594855
910.0, 0.023087422329201926
911.0, 0.02377287137297282
912.0, 0.022067767930318873
913.0, 0.019030015220033007
914.0, 0.01573211985895449
915.0, 0.01180074264670245
916.0, 0.008918573292593844
917.0, 0.006919348443813185
918.0, 0.004344070890596474
919.0, 0.0029936433436951442
920.0, 0.002545893445603638
921.0, 0.0015815379060863917
922.0, 0.0006111435838736833
923.0, 0.0003248328634216201
924.0, 0.0002833175980474671
925.0, 0.0005960343394071349
926.0, 0.0008392984644944222
927.0, 0.0006834497028142491
928.0, 0.000854162595971287
929.0, 0.0019066762073366036
930.0, 0.0021651648551278247
931.0, 0.0019249322381167393
932.0, 0.002202777750930499
933.0, 0.002504516098519571
934.0, 0.002327601832669956
935.0, 0.00202863506874876
936.0, 0.001515183487636616
937.0, 0.0015880585858214441
938.0, 0.001582889517743222
939.0, 0.0008792774966613909
940.0, 0.00022032098156047237
941.0, 0.0008802991339067689
942.0, 0.002045967058039365
943.0, 0.0023141402538884013
944.0, 0.003576012516266321
945.0, 0.004701393554819485
946.0, 0.0064146149928493235
947.0, 0.008860354247617786
948.0, 0.010656834833741032
949.0, 0.01305367541081461
950.0, 0.015249425062132834
951.0, 0.016886576324975113
952.0, 0.017699448865576613
953.0, 0.017595122930075285
954.0, 0.01795337676832738
955.0, 0.015528510796224176
956.0, 0.01392009530663672
957.0, 0.014881000700500505
958.0, 0.01828606508700415
959.0, 0.0208634512922631
960.0, 0.024805907917557823
961.0, 0.0320239963990923
962.0, 0.04021871409749339
963.0, 0.04668203591633717
964.0, 0.05330413324344438
965.0, 0.06236450270809645
966.0, 0.0735214460474476
967.0, 0.08829152641074292
968.0, 0.10518843525771575
969.0, 0.12695343399267756
970.0, 0.15369969624541885
971.0, 0.18645096046022946
972.0, 0.2252748277447466
973.0, 0.2648444296084412
974.0, 0.2924629626155975
975.0, 0.2916873370523714
976.0, 0.2520005458333048
977.0, 0.1941965892158708
978.0, 0.1424252877010877
979.0, 0.10429677788479995
980.0, 0.08114115249370037
981.0, 0.06824446988393788
982.0, 0.061638871872098704
983.0, 0.06033184817508289
984.0, 0.06284357609315326
985.0, 0.06868231067893607
986.0, 0.07941230768831388
987.0, 0.09359288197292606
988.0, 0.11117692816539865
989.0, 0.1294591083243417
990.0, 0.14799202138240844
991.0, 0.16606665347956648
992.0, 0.1834728122545781
993.0, 0.20197545787274002
994.0, 0.2257570642322077
995.0, 0.25942514507952974
996.0, 0.3046562493077471
997.0, 0.36379591254282584
998.0, 0.4379447720095443
999.0, 0.5340716621724668
1000.0, 0.6577092578803005
1001.0, 0.8108904391668779
1002.0, 0.9500615416386043
1003.0, 0.9954324058666082
1004.0, 0.893859131326292
1005.0, 0.6845696764278785
1006.0, 0.4632397564844179
1007.0, 0.2952714701413021
1008.0, 0.1876837107541335
1009.0, 0.12078523895081866
1010.0, 0.08177334990389795
1011.0, 0.05656454383022764
1012.0, 0.03933676168376066
1013.0, 0.028249713415754444
1014.0, 0.02108699094309411
1015.0, 0.015737325980730143
1016.0, 0.012057210006494661
1017.0, 0.010429068484429893
1018.0, 0.009666396749556565
1019.0, 0.009416174010559565
1020.0, 0.010655091191222378
1021.0, 0.01384658813574815
1022.0, 0.016934541804104378
1023.0, 0.022083051111837202
1024.0, 0.02713897466722645
1025.0, 0.03248545343413861
1026.0, 0.039384312321706874
1027.0, 0.04770071402705845
1028.0, 0.057701186467106876
1029.0, 0.07081837049222182
1030.0, 0.08721170312930428
1031.0, 0.10446318189971075
1032.0, 0.124803188904478
1033.0, 0.14403402283224617
1034.0, 0.15834373589217202
1035.0, 0.1604707561787413
1036.0, 0.14439078292821483
1037.0, 0.11886811679791076
1038.0, 0.09424097490082692
1039.0, 0.07634745819514252
1040.0, 0.06555607818034201
1041.0, 0.05949990904071115
1042.0, 0.05743106227871927
1043.0, 0.05863716045336849
1044.0, 0.06205097296044279
1045.0, 0.06715367892362674
1046.0, 0.07683945858838227
1047.0, 0.08888015476059866
1048.0, 0.10439442783997663
1049.0, 0.12256178459088149
1050.0, 0.1411104378263377
1051.0, 0.155831733270437
1052.0, 0.15834571538882825
1053.0, 0.14328008333692885
1054.0, 0.11612798360308955
1055.0, 0.08696278589288065
1056.0, 0.06083306246663065
1057.0, 0.04252053267877333
1058.0, 0.028440975739334864
1059.0, 0.019295340820384293
1060.0, 0.012445003506413735
1061.0, 0.007040142429158722
1062.0, 0.0035495796038771403
1063.0, 0.0011829459597277937
1064.0, 0.0006693491891496253
1065.0, 0.0019140162311468937
1066.0, 0.002738725004201954
1067.0, 0.0031693870862373732
1068.0, 0.002784627424624783
1069.0, 0.0021973588642131767
1070.0, 0.0015699642779530916
1071.0, 0.0014173830363519223
1072.0, 0.00044141036052778665
1073.0, 0.0015209298192243232
1074.0, 0.002734267960072286
1075.0, 0.004736451052883456
1076.0, 0.007365861050541705
1077.0, 0.009899865862931907
1078.0, 0.012648706088324687
1079.0, 0.01568938825853571
1080.0, 0.01910550895894581
1081.0, 0.023511051288185012
1082.0, 0.02795183188971091
1083.0, 0.03389782178504665
1084.0, 0.040721621078088285
1085.0, 0.049447956679997275
1086.0, 0.05502197866137266
1087.0, 0.055701273274169405
1088.0, 0.05314607572682609
1089.0, 0.05039315173976691
1090.0, 0.046989068823435266
1091.0, 0.042762731733872156
1092.0, 0.03844034215527828
1093.0, 0.03343415458547981
1094.0, 0.028175254265316665
1095.0, 0.02387922450063993
1096.0, 0.019438305468087294
1097.0, 0.015954662659960824
1098.0, 0.013596299441795447
1099.0, 0.011216233127650027
1100.0, 0.009948701137903544
1101.0, 0.009303182857545507
1102.0, 0.009075983345666333
1103.0, 0.008265552049649178
1104.0, 0.008062147648654686
1105.0, 0.00872921480136211
1106.0, 0.009154695587519053
1107.0, 0.00956233799262403
1108.0, 0.010348240641217747
1109.0, 0.010737967613924227
1110.0, 0.009563441021305807
1111.0, 0.008502637295313382
1112.0, 0.008570239088150603
1113.0, 0.0072321910742238074
1114.0, 0.0059854477983982204
1115.0, 0.004737296634299292
1116.0, 0.004258335141589847
1117.0, 0.0034257536828367105
1118.0, 0.0020371931820496406
1119.0, 0.0009326694179293719
1120.0, 0.0005765416867133689
1121.0, 0.0003991256136896512
1122.0, 0.00013739814078087345
1123.0, 0.0005060558085024279
1124.0, 0.0006916730983622825
1125.0, 0.0008569579771040932
1126.0, 0.0003561226875660103
1127.0, 0.000887779583914109
1128.0, 0.001087589291007754
1129.0, 0.0015510787242232456
1130.0, 0.0017856895090359265
1131.0, 0.0007070529350160278
1132.0, 0.00024932712701357645
1133.0, 6.0824337374581016e-05
1134.0, 4.9156999207770576e-05
1135.0, 0.00017637791173458022
1136.0, 0.0009843731323380363
1137.0, 0.0018715713723099323
1138.0, 0.0023748827150583225
1139.0, 0.00249103830668932
1140.0, 0.003461247377445762
1141.0, 0.003170834388410921
1142.0, 0.0036430584611435437
1143.0, 0.004755545180066104
1144.0, 0.004392407730676876
1145.0, 0.006607719916018061
1146.0, 0.008184791864882902
1147.0, 0.008069525093341816
1148.0, 0.00838058163365729
1149.0, 0.009904936456961473
1150.0, 0.011347903544937121
1151.0, 0.012132965965665089
1152.0, 0.013643641554664538
1153.0, 0.016268047927388864
1154.0, 0.0189211743764684
1155.0, 0.02126379408569232
1156.0, 0.023865258131147864
1157.0, 0.02747210111039389
1158.0, 0.030040000573517738
1159.0, 0.03243634679975149
1160.0, 0.036798370620234166
1161.0, 0.04083263955767176
1162.0, 0.04455972535535391
1163.0, 0.04924384394143431
1164.0, 0.05422494428293259
1165.0, 0.05859811426034696
1166.0, 0.06279553124497944
1167.0, 0.06468421574011457
1168.0, 0.06379327712356561
1169.0, 0.05938728041105376
1170.0, 0.051582073954564336
1171.0, 0.043647716810314326
1172.0, 0.0368045011961371
1173.0, 0.031434574968164715
1174.0, 0.02576575923096311
1175.0, 0.022106036278257326
1176.0, 0.019180542605416993
1177.0, 0.01656705273144716
1178.0, 0.01372647957263205
1179.0, 0.012516661097218744
1180.0, 0.0107486506339307
1181.0, 0.009506954928117954
1182.0, 0.008289767686025323
1183.0, 0.00723942323130072
1184.0, 0.006389884024958023
1185.0, 0.005341936365327737
1186.0, 0.004968600635750196
1187.0, 0.004406156706259414
1188.0, 0.0035626253777517655
1189.0, 0.0036922241834586177
1190.0, 0.003907939201945845
1191.0, 0.003474062999728492
1192.0, 0.002737988493307459
1193.0, 0.0013668754586656016
1194.0, 0.0018634746088266965
1195.0, 0.0018804165766121783
1196.0, 0.0019943649101235206
1197.0, 0.0016910483428262976
1198.0, 0.0020482691047967174
1199.0, 0.0029334577518625505
1200.0, 0.00520911560695845
1201.0, 0.0028417513255006572
1202.0, 0.001020615513674499
1203.0, 0.0010209280647878428
1204.0, 0.000853787679707406
1205.0, 0.0006577677727785689
1206.0, 0.0007337052809923032
1207.0, 0.001235882650718967
1208.0, 0.0011907840623522291
1209.0, 0.0006004591058915565
1210.0, 0.000644528530177343
1211.0, 0.0003654759308740585
1212.0, 0.00041203487741148806
1213.0, 0.0004643934199278786
1214.0, 0.0012005912409677323
1215.0, 0.0008288060677545173
1216.0, 0.0004976016780799829
1217.0, 0.00047261260421346514
1218.0, 0.0015285217289365384
1219.0, 0.0009985923361349664
1220.0, 0.000571537654619364
1221.0, 0.0009247837469443541
1222.0, 0.0007450181288489304
1223.0, 0.0006445578690548392
1224.0, 0.0011107047190845444
1225.0, 0.0013801630946142706
1226.0, 0.0007923596105389696
1227.0, 0.00039693216853126285
1228.0, 0.0006259435833643793
1229.0, 0.0003653029590696817
1230.0, 0.00022526331559402765
1231.0, 0.0001690765910807378
1232.0, 0.0005869658523591605
1233.0, 0.000948232364984101
1234.0, 0.00018516967179458342
1235.0, 0.0005434015828555828
1236.0, 0.0007792382392689659
1237.0, 0.0005684229876497321
1238.0, 2.66702465191581e-05
1239.0, 0.0007697528983349101
1240.0, 0.001830428886821108
1241.0, 0.0011039306036391408
1242.0, 0.001241852540385852
1243.0, 0.00037864496123501544
1244.0, 4.3907127838064094e-05
1245.0, 0.001164787550867469
1246.0, 0.001201427438675081
1247.0, 0.0008640715932303987
1248.0, 0.0023524207802240065
1249.0, 0.0017938805307452595
1250.0, 0.00041241255935333293
1251.0, 0.00051449069790011
1252.0, 0.0005780540323708001
1253.0, 0.0005502779035390508
1254.0, 0.0007058578319616326
1255.0, 0.0005421353983775017
1256.0, 0.0005303590098232966
1257.0, 0.0007891060576440704
1258.0, 0.0006682970206580107
1259.0, 0.0001957002473114377
1260.0, 0.00030226246617953044
1261.0, 0.0008454326773066305
1262.0, 0.0008571785597627957
1263.0, 0.0003868898088347122
1264.0, 0.0004908310604484947
1265.0, 0.0007790897360350398
1266.0, 0.0004841285648610247
1267.0, 0.0010414986766357935
1268.0, 0.0011543475350941947
1269.0, 0.0016770332511900274
1270.0, 0.0002155082537391471
1271.0, 0.0002576120844461578
1272.0, 0.0008261322199762324
1273.0, 0.0010226943694788926
1274.0, 0.00020749366268129298
1275.0, 0.00025817188787403424
1276.0, 0.0012092422036267673
1277.0, 0.0015385593881515607
1278.0, 0.0011389628582410688
1279.0, 0.0006730517982311638
1280.0, 0.0005984942975208529
1281.0, 0.0006319654000486361
1282.0, 0.0002358793396879774
1283.0, 0.00011577059247620518
1284, 0.0
1285, 0.0
1286, 0.0
1287, 0.0
1288, 0.0
1289, 0.0
1290, 0.0
1291, 0.0
1292, 0.0
1293, 0.0
1294, 0.0
1295, 0.0
1296, 0.0
1297, 0.0
1298, 0.0
1299, 0.0
1300, 0.0
1301, 0.0
1302, 0.0
1303, 0.0
1304, 0.0
1305, 0.0
1306, 0.0
1307, 0.0
1308, 0.0
1309, 0.0
1310, 0.0
1311, 0.0
1312, 0.0
1313, 0.0
1314, 0.0
1315, 0.0
1316, 0.0
1317, 0.0
1318, 0.0
1319, 0.0
1320, 0.0
1321, 0.0
1322, 0.0
1323, 0.0
1324, 0.0
1325, 0.0
1326, 0.0
1327, 0.0
1328, 0.0
1329, 0.0
1330, 0.0
1331, 0.0
1332, 0.0
1333, 0.0
1334, 0.0
1335, 0.0
1336, 0.0
1337, 0.0
1338, 0.0
1339, 0.0
1340, 0.0
1341, 0.0
1342, 0.0
1343, 0.0
1344, 0.0
1345, 0.0
1346, 0.0
1347, 0.0
1348, 0.0
1349, 0.0
1350, 0.0
1351, 0.0
1352, 0.0
1353, 0.0
1354, 0.0
1355, 0.0
1356, 0.0
1357, 0.0
1358, 0.0
1359, 0.0
1360, 0.0
1361, 0.0
1362, 0.0
1363, 0.0
1364, 0.0
1365, 0.0
1366, 0.0
1367, 0.0
1368, 0.0
1369, 0.0
1370, 0.0
1371, 0.0
1372, 0.0
1373, 0.0
1374, 0.0
1375, 0.0
1376, 0.0
1377, 0.0
1378, 0.0
1379, 0.0
1380, 0.0
1381, 0.0
1382, 0.0
1383, 0.0
1384, 0.0
1385, 0.0
1386, 0.0
1387, 0.0
1388, 0.0
1389, 0.0
1390, 0.0
1391, 0.0
1392, 0.0
1393, 0.0
1394, 0.0
1395, 0.0
1396, 0.0
1397, 0.0
1398, 0.0
1399, 0.0
1400, 0.0
1401, 0.0
1402, 0.0
1403, 0.0
1404, 0.0
1405, 0.0
1406, 0.0
1407, 0.0
1408, 0.0
1409, 0.0
1410, 0.0
1411, 0.0
1412, 0.0
1413, 0.0
1414, 0.0
1415, 0.0
1416, 0.0
1417, 0.0
1418, 0.0
1419, 0.0
1420, 0.0
1421, 0.0
1422, 0.0
1423, 0.0
1424, 0.0
1425, 0.0
1426, 0.0
1427, 0.0
1428, 0.0
1429, 0.0
1430, 0.0
1431, 0.0
1432, 0.0
1433, 0.0
1434, 0.0
1435, 0.0
1436, 0.0
1437, 0.0
1438, 0.0
1439, 0.0
1440, 0.0
1441, 0.0
1442, 0.0
1443, 0.0
1444, 0.0
1445, 0.0
1446, 0.0
1447, 0.0
1448, 0.0
1449, 0.0
1450, 0.0
1451, 0.0
1452, 0.0
1453, 0.0
1454, 0.0
1455, 0.0
1456, 0.0
1457, 0.0
1458, 0.0
1459, 0.0
1460, 0.0
1461, 0.0
1462, 0.0
1463, 0.0
1464, 0.0
1465, 0.0
1466, 0.0
1467, 0.0
1468, 0.0
1469, 0.0
1470, 0.0
1471, 0.0
1472, 0.0
1473, 0.0
1474, 0.0
1475, 0.0
1476, 0.0
1477, 0.0
1478, 0.0
1479, 0.0
1480, 0.0
1481, 0.0
1482, 0.0
1483, 0.0
1484, 0.0
1485, 0.0
1486, 0.0
1487, 0.0
1488, 0.0
1489, 0.0
1490, 0.0
1491, 0.0
1492, 0.0
1493, 0.0
1494, 0.0
1495, 0.0
1496, 0.0
1497, 0.0
1498, 0.0
1499, 0.0
1500, 0.0
1501, 0.0
1502, 0.0
1503, 0.0
1504, 0.0
1505, 0.0
1506, 0.0
1507, 0.0
1508, 0.0
1509, 0.0
1510, 0.0
1511, 0.0
1512, 0.0
1513, 0.0
1514, 0.0
1515, 0.0
1516, 0.0
1517, 0.0
1518, 0.0
1519, 0.0
1520, 0.0
1521, 0.0
1522, 0.0
1523, 0.0
1524, 0.0
1525, 0.0
1526, 0.0
1527, 0.0
1528, 0.0
1529, 0.0
1530, 0.0
1531, 0.0
1532, 0.0
1533, 0.0
1534, 0.0
1535, 0.0
1536, 0.0
1537, 0.0
1538, 0.0
1539, 0.0
1540, 0.0
1541, 0.0
1542, 0.0
1543, 0.0
1544, 0.0
1545, 0.0
1546, 0.0
1547, 0.0
1548, 0.0
1549, 0.0
1550, 0.0
1551, 0.0
1552, 0.0
1553, 0.0
1554, 0.0
1555, 0.0
1556, 0.0
1557, 0.0
1558, 0.0
1559, 0.0
1560, 0.0
1561, 0.0
1562, 0.0
1563, 0.0
1564, 0.0
1565, 0.0
1566, 0.0
1567, 0.0
1568, 0.0
1569, 0.0
1570, 0.0
1571, 0.0
1572, 0.0
1573, 0.0
1574, 0.0
1575, 0.0
1576, 0.0
1577, 0.0
1578, 0.0
1579, 0.0
1580, 0.0
1581, 0.0
1582, 0.0
1583, 0.0
1584, 0.0
1585, 0.0
1586, 0.0
1587, 0.0
1588, 0.0
1589, 0.0
1590, 0.0
1591, 0.0
1592, 0.0
1593, 0.0
1594, 0.0
1595, 0.0
1596, 0.0
1597, 0.0
1598, 0.0
1599, 0.0
