30, 0.0
31, 0.0
32, 0.0
33, 0.0
34, 0.0
35, 0.0
36, 0.0
37, 0.0
38, 0.0
39, 0.0
40, 0.0
41, 0.0
42, 0.0
43, 0.0
44, 0.0
45, 0.0
46, 0.0
47, 0.0
48, 0.0
49, 0.0
50, 0.0
51, 0.0
52, 0.0
53, 0.0
54, 0.0
55, 0.0
56, 0.0
57, 0.0
58, 0.0
59, 0.0
60, 0.0
61, 0.0
62, 0.0
63, 0.0
64, 0.0
65, 0.0
66, 0.0
67, 0.0
68, 0.0
69, 0.0
70, 0.0
71, 0.0
72, 0.0
73, 0.0
74, 0.0
75, 0.0
76, 0.0
77, 0.0
78, 0.0
79, 0.0
80, 0.0
81, 0.0
82, 0.0
83, 0.0
84, 0.0
85, 0.0
86, 0.0
87, 0.0
88, 0.0
89, 0.0
90, 0.0
91, 0.0
92, 0.0
93, 0.0
94, 0.0
95, 0.0
96, 0.0
97, 0.0
98, 0.0
99, 0.0
100, 0.0
101, 0.0
102, 0.0
103, 0.0
104, 0.0
105, 0.0
106, 0.0
107, 0.0
108, 0.0
109, 0.0
110, 0.0
111, 0.0
112, 0.0
113, 0.0
114, 0.0
115, 0.0
116, 0.0
117, 0.0
118, 0.0
119, 0.0
120.0, 0.0005531728658381621
121.0, 6.640531484791023e-05
122.0, 0.001131014404954288
123.0, 0.0024909798095320017
124.0, 0.0036221107573812007
125.0, 0.002678483476448942
126.0, 0.002162984121029558
127.0, 0.0003955909548930238
128.0, 0.00041329917804895134
129.0, 5.5937069125845635e-05
130.0, 0.0003251097257981132
131.0, 0.0012228360481967248
132.0, 0.0017953723121337537
133.0, 0.001234496748318625
134.0, 0.000750226478234815
135.0, 0.001696584135324013
136.0, 0.0028425576603216336
137.0, 0.0019369551004203146
138.0, 0.0006148423258264596
139.0, 0.00037217501766624925
140.0, 0.0009104911362742275
141.0, 0.0009198347525139427
142.0, 0.0013923532017384263
143.0, 0.003004710350799053
144.0, 0.005582921195746113
145.0, 0.006741171866887483
146.0, 0.009420339861483518
147.0, 0.012249348991933709
148.0, 0.013373297428501248
149.0, 0.01655842902886618
150.0, 0.02083555855774353
151.0, 0.023613069460313666
152.0, 0.025163100318031453
153.0, 0.029274062100745124
154.0, 0.02972814323492414
155.0, 0.030804732913104482
156.0, 0.03249054175990851
157.0, 0.03281453218692798
158.0, 0.03552784843832358
159.0, 0.036527791972190894
160.0, 0.03919413659518202
161.0, 0.044628028554200096
162.0, 0.04775599359327663
163.0, 0.053871424369785294
164.0, 0.06194069654324403
165.0, 0.06859274929582752
166.0, 0.07295524697955165
167.0, 0.07424095016170816
168.0, 0.07407551369681754
169.0, 0.07154164723657323
170.0, 0.06709723202894012
171.0, 0.06393155067061096
172.0, 0.06097131564075851
173.0, 0.057709963427455255
174.0, 0.056014015554257425
175.0, 0.05738999986922784
176.0, 0.06000839946306114
177.0, 0.0650845145671336
178.0, 0.07552401628046819
179.0, 0.09079269660917341
180.0, 0.1070958540880804
181.0, 0.11021805795691762
182.0, 0.09598662231763211
183.0, 0.07332489712955824
184.0, 0.05159698430133357
185.0, 0.0343667798087915
186.0, 0.02296001245489134
187.0, 0.016386827311027655
188.0, 0.013303189552458013
189.0, 0.012365196277228152
190.0, 0.011658463483314405
191.0, 0.011796509237044686
192.0, 0.010754817888514432
193.0, 0.0071171609665754785
194.0, 0.007484881795127416
195.0, 0.00521109923012687
196.0, 0.0033366249716601844
197.0, 0.004541997537802497
198.0, 0.006275692072815978
199.0, 0.0060326033279931145
200.0, 0.004125234116895135
201.0, 0.0019905504043254895
202.0, 0.0012128901061051662
203.0, 0.0027965975232512644
204.0, 0.0015889567921790722
205.0, 0.0005377561369339698
206.0, 0.0023609989153375475
207.0, 0.003520296037540965
208.0, 0.0024653408733752015
209.0, 0.002716806071067102
210.0, 0.002493245441845812
211.0, 0.002982779711767902
212.0, 0.002480828098454775
213.0, 0.0012992220206231705
214.0, 0.00021497792996800195
215.0, 0.0004629878745240017
216.0, 0.000822066055624139
217.0, 0.004453438925351723
218.0, 0.008291700850475968
219.0, 0.009775808539185688
220.0, 0.009422842896460065
221.0, 0.011016526005705393
222.0, 0.014435529043503379
223.0, 0.015849275173809806
224.0, 0.01904379777560053
225.0, 0.024758217302579412
226.0, 0.026836410861488327
227.0, 0.03166131064471935
228.0, 0.036753861777882556
229.0, 0.04416063799050228
230.0, 0.05339933279720643
231.0, 0.05643348212531434
232.0, 0.06356394686935579
233.0, 0.0739953561270681
234.0, 0.08225736186686146
235.0, 0.08767411756770341
236.0, 0.102918962693423
237.0, 0.11322157163753628
238.0, 0.12036542905172891
239.0, 0.12394132684510646
240.0, 0.11744880564727399
241.0, 0.12413497073298654
242.0, 0.125954970569722
243.0, 0.1247523057897892
244.0, 0.1292839839547917
245.0, 0.14996248967805947
246.0, 0.166012643336838
247.0, 0.171078662409065
248.0, 0.16439172612415412
249.0, 0.148687956681953
250.0, 0.12900582752320455
251.0, 0.11163327488887896
252.0, 0.10173251879420321
253.0, 0.10047670015414738
254.0, 0.10391571349304535
255.0, 0.10665767022700573
256.0, 0.11465814245759175
257.0, 0.12333037978108732
258.0, 0.13129173128707886
259.0, 0.14265115875760598
260.0, 0.1579301438010309
261.0, 0.16358331095246614
262.0, 0.16117587658219448
263.0, 0.15940086240359602
264.0, 0.16385718733823315
265.0, 0.15336104340412499
266.0, 0.1455411187252482
267.0, 0.13598917583888526
268.0, 0.11730275613203707
269.0, 0.10293450511749672
270.0, 0.08984928847217499
271.0, 0.08393129016469555
272.0, 0.08066969192813528
273.0, 0.07586179187494348
274.0, 0.0844528621921459
275.0, 0.09166394898328402
276.0, 0.1004865418702362
277.0, 0.10974120135227783
278.0, 0.11220089990714441
279.0, 0.10483741585691707
280.0, 0.08402848859285485
281.0, 0.057981644180295555
282.0, 0.03552873300248231
283.0, 0.021116490520303406
284.0, 0.007632402625340859
285.0, 0.0008357657258013834
286.0, 0.002820401018975813
287.0, 0.002284944982151196
288.0, 0.006550296130191164
289.0, 0.007022281411850362
290.0, 0.009612348634580279
291.0, 0.00837777003489622
292.0, 0.0035624510494182537
293.0, 0.005184837583058746
294.0, 0.0015953913893369531
295.0, 0.0011198288740487167
296.0, 0.0014691601398981536
297.0, 0.004022758748959316
298.0, 0.011984624155406798
299.0, 0.013097186288441084
300.0, 0.014974847726755464
301.0, 0.019458681187253083
302.0, 0.024272646621122617
303.0, 0.027332861311896772
304.0, 0.03287215078944054
305.0, 0.03697384730943279
306.0, 0.040603083184662485
307.0, 0.044974620602431084
308.0, 0.04903506236459935
309.0, 0.05426818794215707
310.0, 0.06238150909194934
311.0, 0.06880200840524134
312.0, 0.0727673897596981
313.0, 0.08485357975793072
314.0, 0.0964384230876462
315.0, 0.10650770980212028
316.0, 0.11713673109080319
317.0, 0.12848881841225473
318.0, 0.13645589237383418
319.0, 0.14055377082798637
320.0, 0.14760013420945406
321.0, 0.16297851023616425
322.0, 0.18069969931585333
323.0, 0.1868764951861242
324.0, 0.22292894970701094
325.0, 0.2344205856555646
326.0, 0.23445871874080848
327.0, 0.24749077314044482
328.0, 0.2682917360273166
329.0, 0.2894546952958868
330.0, 0.3140025680730451
331.0, 0.33698752047298897
332.0, 0.3561225981472459
333.0, 0.37756822208787766
334.0, 0.39744003131694894
335.0, 0.4266735764091274
336.0, 0.4592537847410394
337.0, 0.4935606652147071
338.0, 0.5355138219201393
339.0, 0.5783310976319905
340.0, 0.6107916768082319
341.0, 0.6542632051058933
342.0, 0.7068573958583159
343.0, 0.7539119360348207
344.0, 0.8162794700289315
345.0, 0.8511957194698551
346.0, 0.8892497455425769
347.0, 0.937904112767643
348.0, 0.973966874040862
349.0, 0.9865455115639825
350.0, 0.99966270564961
351.0, 0.9881241941548827
352.0, 0.9517275094175375
353.0, 0.9066310251079239
354.0, 0.8515104332862538
355.0, 0.7781862375343053
356.0, 0.7043670528122323
357.0, 0.6342953379185474
358.0, 0.5660408724112354
359.0, 0.5037921589929989
360.0, 0.4642299784800233
361.0, 0.43562158724408606
362.0, 0.41514215018349304
363.0, 0.407521851491274
364.0, 0.4227241700748146
365.0, 0.4365943117278732
366.0, 0.4705458043895781
367.0, 0.5088972859469784
368.0, 0.5431695359152373
369.0, 0.587263079356991
370.0, 0.6086388205592302
371.0, 0.6333348745477504
372.0, 0.6716257346618558
373.0, 0.7123862174504423
374.0, 0.7336502347017109
375.0, 0.7220213927335252
376.0, 0.6496564852596317
377.0, 0.5407766311919848
378.0, 0.4236869257316892
379.0, 0.3171187240608443
380.0, 0.22835559984956533
381.0, 0.16255671302249675
382.0, 0.11347204515344629
383.0, 0.08054807019465482
384.0, 0.061738763667379244
385.0, 0.04314054953934156
386.0, 0.02585757474457645
387.0, 0.012486542648056317
388.0, 0.004846846886667249
389.0, 0.000668910058463664
390.0, 0.00580583968119226
391.0, 0.010304112033611316
392.0, 0.008621020753560436
393.0, 0.006486998844193027
394.0, 0.005161892980749627
395.0, 0.002077755082611118
396.0, 0.005884627715726739
397.0, 0.009199019111691376
398.0, 0.0104968296262339
399.0, 0.014361320437483923
400.0, 0.022114277975749767
401.0, 0.031302428271737855
402.0, 0.04136733596920615
403.0, 0.046177545280913807
404.0, 0.04661393770768398
405.0, 0.04938032945077843
406.0, 0.05574756174241747
407.0, 0.05532297488978925
408.0, 0.06249653586215976
409.0, 0.0734118470345422
410.0, 0.07944759180138516
411.0, 0.0821737792063827
412.0, 0.09387546997995251
413.0, 0.11821923351673944
414.0, 0.1325849460815072
415.0, 0.14691982512110738
416.0, 0.15910001958770853
417.0, 0.15030053987520675
418.0, 0.1408671120324955
419.0, 0.11991696708365754
420.0, 0.10225870548177449
421.0, 0.08801969491236576
422.0, 0.07306973617742601
423.0, 0.06467950034009338
424.0, 0.05870317250748031
425.0, 0.05819504452001642
426.0, 0.058010062338174136
427.0, 0.05682696202515343
428.0, 0.05867685275506923
429.0, 0.060781145945380685
430.0, 0.06751802670749806
431.0, 0.07673535165827362
432.0, 0.08555649647810648
433.0, 0.0920947596117967
434.0, 0.0967160563326427
435.0, 0.10450463079470929
436.0, 0.11139566940026023
437.0, 0.11433426078949581
438.0, 0.1128043425029768
439.0, 0.10909721366935902
440.0, 0.1088391786588368
441.0, 0.10934782100160158
442.0, 0.10234891893252168
443.0, 0.09354227493754008
444.0, 0.09025837974186704
445.0, 0.08876884353111832
446.0, 0.08225469335715357
447.0, 0.07760156614951386
448.0, 0.07159301988474466
449.0, 0.06279375432085506
450.0, 0.055913257410849626
451.0, 0.05508252858134695
452.0, 0.04403900333201791
453.0, 0.04221115149716907
454.0, 0.03730641733609965
455.0, 0.02384531441536561
456.0, 0.020081080541448536
457.0, 0.021497619939758822
458.0, 0.01385457799496274
459.0, 0.007790599917627597
460.0, 0.0055225261342225105
461.0, 0.0020575057855426004
462.0, 0.001701387053325686
463.0, 0.0002997109897120169
464.0, 0.0011969147145877244
465.0, 0.00501662658885899
466.0, 0.005924102727875727
467.0, 0.00299180053235303
468.0, 0.004960958577501536
469.0, 0.0017283266853543406
470.0, 0.004025065695498124
471.0, 0.007016675907916279
472.0, 0.006875730686856962
473.0, 0.00983104474160004
474.0, 0.007822768359195927
475.0, 0.0036968381247687717
476.0, 0.0006226579320191776
477.0, 0.0017476783390893223
478.0, 0.004093613795882337
479.0, 0.005706123484545745
480.0, 0.006587423682564059
481.0, 0.0075996678444816895
482.0, 0.007961867310643167
483.0, 0.007827606254053505
484.0, 0.00826832617160174
485.0, 0.010281994796816
486.0, 0.018466379060642066
487.0, 0.024600927014646848
488.0, 0.02825416125694744
489.0, 0.03273883159116766
490.0, 0.04150998071106865
491.0, 0.052500448336753824
492.0, 0.05743059105505812
493.0, 0.07016023518032216
494.0, 0.08227519940266338
495.0, 0.09000527419781543
496.0, 0.09980542084586992
497.0, 0.1085852778725384
498.0, 0.11973213683625186
499.0, 0.1295907481286685
500.0, 0.1382799206436727
501.0, 0.14411018674612136
502.0, 0.1448869395914774
503.0, 0.15513965405827873
504.0, 0.16884537376127665
505.0, 0.18552774299428731
506.0, 0.1954539562648255
507.0, 0.20479409629661188
508.0, 0.2292108601133305
509.0, 0.25026794071795366
510.0, 0.25891300246372306
511.0, 0.26745603676689716
512.0, 0.2746922431334408
513.0, 0.28252135036696496
514.0, 0.302286677209538
515.0, 0.31512696690344927
516.0, 0.31574484623143384
517.0, 0.3303811796931535
518.0, 0.34672964849878546
519.0, 0.35910558768429585
520.0, 0.3815414582601892
521.0, 0.3919757196790189
522.0, 0.40124354317126953
523.0, 0.41223460293422304
524.0, 0.4211878694888819
525.0, 0.42545609989519273
526.0, 0.42427539985984886
527.0, 0.41583897286944926
528.0, 0.40482480387826064
529.0, 0.3816446382226093
530.0, 0.3597782094515337
531.0, 0.3382041213915207
532.0, 0.30488336610019784
533.0, 0.2783128276617577
534.0, 0.2592114579299568
535.0, 0.23636247692344717
536.0, 0.20970003199858536
537.0, 0.18661290917831214
538.0, 0.1720674025419591
539.0, 0.1575798147456054
540.0, 0.14238176649736156
541.0, 0.1366476505062965
542.0, 0.13987892877253086
543.0, 0.14615536405816423
544.0, 0.15546621796992668
545.0, 0.17693753695327705
546.0, 0.19866330001135507
547.0, 0.2223298289503044
548.0, 0.23918529390311777
549.0, 0.23752619876361378
550.0, 0.20945993985769473
551.0, 0.16032754799068283
552.0, 0.12148812603053731
553.0, 0.08753860357920798
554.0, 0.06179713353686004
555.0, 0.04362341650550537
556.0, 0.03017659959031696
557.0, 0.020997369903084432
558.0, 0.018033038069433974
559.0, 0.012519538323868882
560.0, 0.008169036546996722
561.0, 0.007079037135938176
562.0, 0.006243389552618555
563.0, 0.0030588778161649943
564.0, 0.0017176316107128196
565.0, 0.009224612039128496
566.0, 0.013219080799748933
567.0, 0.01676379313083161
568.0, 0.018851242245233716
569.0, 0.016868691152350204
570.0, 0.02109997040187975
571.0, 0.024546209732081114
572.0, 0.027599525986796436
573.0, 0.032807923133150015
574.0, 0.03756800941199427
575.0, 0.04181397717919136
576.0, 0.05020514619931025
577.0, 0.05212586675613512
578.0, 0.054560947374840935
579.0, 0.05851401793535041
580.0, 0.06015613946151619
581.0, 0.060063074450457686
582.0, 0.06264977302875369
583.0, 0.06351981833187521
584.0, 0.06074273093540143
585.0, 0.059562771578717845
586.0, 0.06173565757143449
587.0, 0.06319980886266849
588.0, 0.061004432444842
589.0, 0.05993925513138206
590.0, 0.06132387259606345
591.0, 0.06556084462402959
592.0, 0.06442192405556563
593.0, 0.058104165881607286
594.0, 0.05316742109064638
595.0, 0.05657236741684844
596.0, 0.05861373213993625
597.0, 0.059383498637365584
598.0, 0.06111184658418567
599.0, 0.06679899954257124
600.0, 0.07059272907496504
601.0, 0.0691969725153081
602.0, 0.07071992060690752
603.0, 0.07178277237391116
604.0, 0.07911504492333683
605.0, 0.07897914576871704
606.0, 0.07363891204733068
607.0, 0.06923063567403735
608.0, 0.06529126454090531
609.0, 0.05855820784119922
610.0, 0.05131986372179075
611.0, 0.04435655089965284
612.0, 0.037187077384700576
613.0, 0.03165172083346674
614.0, 0.030287242567865226
615.0, 0.030514201106174643
616.0, 0.020319485966171634
617.0, 0.01765379121702546
618.0, 0.017316416643894304
619.0, 0.014251642112090854
620.0, 0.012895677261602448
621.0, 0.016374067068088843
622.0, 0.018976054625656595
623.0, 0.018324738147967964
624.0, 0.017033498657949942
625.0, 0.016679231979080767
626.0, 0.017394518322655914
627.0, 0.021096851428254723
628.0, 0.027443717190641276
629.0, 0.028472778707687416
630.0, 0.02656480758514501
631.0, 0.02076593582859894
632.0, 0.01573363278871581
633.0, 0.012779833303168382
634.0, 0.009212303761340135
635.0, 0.0045452850827089825
636.0, 0.006058953398717902
637.0, 0.006117557358518522
638.0, 0.00494725769190347
639.0, 0.0015095335153536451
640.0, 0.0018864325331338948
641.0, 0.001682076110214796
642.0, 0.0007301530637955884
643.0, 0.0016531994390334359
644.0, 0.0045241004458958355
645.0, 0.005962155346378931
646.0, 0.003230717383308195
647.0, 0.00162738227642111
648.0, 0.004090699014474522
649.0, 0.0037483456328255864
650.0, 0.004439796041251618
651.0, 0.0019011250304659987
652.0, 0.0018602549284695376
653.0, 0.0015202834074245861
654.0, 0.00033431786235723265
655.0, 0.0006271072009841331
656.0, 0.002091311266659237
657.0, 0.0019523583655500108
658.0, 0.0002893056390442434
659.0, 0.0028336296168719895
660.0, 0.001421464652848333
661.0, 0.0008410549751623413
662.0, 0.0021605720816484687
663.0, 0.005115813624201394
664.0, 0.003759363429420343
665.0, 0.004997855544546349
666.0, 0.006596643012134425
667.0, 0.005307129103307616
668.0, 0.003858007924764317
669.0, 0.004966967466653471
670.0, 0.005638689858830658
671.0, 0.004578659255540079
672.0, 0.007170622888351933
673.0, 0.007828257161280001
674.0, 0.006439447036306889
675.0, 0.007624736313273006
676.0, 0.010691882323642914
677.0, 0.01016842453312972
678.0, 0.010828429362616408
679.0, 0.011750187867880573
680.0, 0.014205268694643388
681.0, 0.013227569812023667
682.0, 0.013505864969368677
683.0, 0.015564338424938722
684.0, 0.01535006303902935
685.0, 0.01806968612732572
686.0, 0.01866800287319044
687.0, 0.018113723838037898
688.0, 0.019414317411427528
689.0, 0.019102003032285462
690.0, 0.019091578547050903
691.0, 0.02209954601038764
692.0, 0.024128290517670178
693.0, 0.021733348928127994
694.0, 0.02560925930430974
695.0, 0.028193569138629852
696.0, 0.028418205111142576
697.0, 0.02870236062390876
698.0, 0.029228918353016504
699.0, 0.029933696468881086
700.0, 0.03143930266920376
701.0, 0.03502922888493306
702.0, 0.03236927868331461
703.0, 0.031507223088071884
704.0, 0.034418282298080284
705.0, 0.03431458393547777
706.0, 0.029033716830490736
707.0, 0.029099624825723404
708.0, 0.025075723690251368
709.0, 0.02493831357193432
710.0, 0.028374541462472473
711.0, 0.02919897107593853
712.0, 0.02765895429487581
713.0, 0.025829884549470578
714.0, 0.023440438635652896
715.0, 0.026098917718709137
716.0, 0.022592615602438294
717.0, 0.02038219923498631
718.0, 0.020690351565707865
719.0, 0.02066583902930792
720.0, 0.018283303697852755
721.0, 0.016881221619618404
722.0, 0.019949781956561084
723.0, 0.017057732235299477
724.0, 0.01809380237096939
725.0, 0.014303910283449444
726.0, 0.01003198240160054
727.0, 0.010225594094020001
728.0, 0.01025361218140225
729.0, 0.006513970238057019
730.0, 0.005683685499181585
731.0, 0.00440676005302407
732.0, 0.0068995856497043075
733.0, 0.0069965590923766
734.0, 0.006761720779702598
735.0, 0.005545135500170673
736.0, 0.0017195567487557797
737.0, 0.000233747591936356
738.0, 0.00026814500464969406
739.0, 0.001775795083509952
740.0, 0.0029336550854947778
741.0, 0.0005470761878334805
742.0, 0.00013342256423819798
743.0, 0.0004089600131608681
744.0, 0.003231149672755762
745.0, 0.0016135931059432277
746.0, 0.0016822216419971278
747.0, 0.0022855090886205517
748.0, 0.0012333610645395064
749.0, 0.003179103149048108
750.0, 0.0013004533266042716
751.0, 0.0010290056139019854
752.0, 0.002701937829934876
753.0, 0.0030850700517831456
754.0, 0.004153619373858784
755.0, 0.0019084008056572347
756.0, 0.0034644416624744724
757.0, 0.0008628313441921604
758.0, 0.0009569762753216621
759.0, 0.0010239191172458457
760.0, 0.0012760288803886671
761.0, 0.003709853401237796
762.0, 0.002940772747846695
763.0, 0.001215568051076768
764.0, 0.004157723083354723
765.0, 0.002389972243928137
766.0, 0.0029265540503341306
767.0, 0.006196298223285745
768.0, 0.006830380763578577
769.0, 0.007998272816637413
770.0, 0.015348086068146026
771.0, 0.015174017544192453
772.0, 0.013771104047259461
773.0, 0.01810417196750712
774.0, 0.0218223064376596
775.0, 0.023024019173168764
776.0, 0.023583492795244326
777.0, 0.0234064429310939
778.0, 0.022274728297173273
779.0, 0.018620698437920632
780.0, 0.017634659907505786
781.0, 0.018497690894007497
782.0, 0.019976681106259487
783.0, 0.020426177023676415
784.0, 0.018833118699553626
785.0, 0.018157388831386873
786.0, 0.022198313015758954
787.0, 0.014068396118784413
788.0, 0.013088191977414468
789.0, 0.013908358626622151
790.0, 0.011502235483988947
791.0, 0.012150001437321247
792.0, 0.0114144594218056
793.0, 0.006956880093755671
794.0, 0.0077733994196424626
795.0, 0.009105054666710813
796.0, 0.006089852983247873
797.0, 0.007791837493873756
798.0, 0.008753269282072635
799.0, 0.009396784287698152
800.0, 0.009206849757869954
801.0, 0.008560219891071677
802.0, 0.008640113316590635
803.0, 0.009975665572549855
804.0, 0.014206642791467152
805.0, 0.01928470801478301
806.0, 0.0263224366833924
807.0, 0.030035193389137734
808.0, 0.03210055533329521
809.0, 0.032642988063164693
810.0, 0.03332186314791666
811.0, 0.04000050167779463
812.0, 0.0451109263196714
813.0, 0.05144706812106472
814.0, 0.059357837006677835
815.0, 0.06735075925607455
816.0, 0.0775415382835316
817.0, 0.0889629886687831
818.0, 0.09751381875938969
819.0, 0.10626354460948687
820.0, 0.12228232063049044
821.0, 0.139066457619008
822.0, 0.15089927333355307
823.0, 0.16140014473122835
824.0, 0.16113905787566227
825.0, 0.1629440271781087
826.0, 0.15779843894104176
827.0, 0.1407806163373693
828.0, 0.12420606796901364
829.0, 0.11358934515063583
830.0, 0.09921756385848016
831.0, 0.08032564425253944
832.0, 0.07053151851653479
833.0, 0.06151978720975549
834.0, 0.049373075405556716
835.0, 0.042937172436511226
836.0, 0.04027958538624953
837.0, 0.03601260045141798
838.0, 0.03475564035612103
839.0, 0.033304162524051495
840.0, 0.03038636591172002
841.0, 0.03133214870270415
842.0, 0.03465367654813551
843.0, 0.03656026122461302
844.0, 0.03660407525055327
845.0, 0.04124489782651994
846.0, 0.044974672820234145
847.0, 0.04066023817759751
848.0, 0.04475671956867348
849.0, 0.04488793028881167
850.0, 0.04174950718407129
851.0, 0.04452221545477471
852.0, 0.04039968285010178
853.0, 0.044797611704103686
854.0, 0.04724905808468143
855.0, 0.044783701961730385
856.0, 0.04909672329030052
857.0, 0.04846474925266141
858.0, 0.05233183821575212
859.0, 0.056990671994865634
860.0, 0.06433506809333556
861.0, 0.07833347712833762
862.0, 0.0880024060578108
863.0, 0.09929790150020773
864.0, 0.11403843536602998
865.0, 0.12826343043799984
866.0, 0.1483484544913837
867.0, 0.1783875531162159
868.0, 0.20593547229585243
869.0, 0.23669097105673015
870.0, 0.2793241333728455
871.0, 0.32465222745000144
872.0, 0.38458544085056107
873.0, 0.4544975567857479
874.0, 0.5294090543460329
875.0, 0.6071822922049738
876.0, 0.6789376248336759
877.0, 0.7562760339517441
878.0, 0.8213944317975657
879.0, 0.8677018891082023
880.0, 0.8802159117599415
881.0, 0.8572239021253647
882.0, 0.8075221704389505
883.0, 0.7356569450015096
884.0, 0.6540674026197059
885.0, 0.5716694562339042
886.0, 0.48370209116302654
887.0, 0.4141409186576367
888.0, 0.3490049390503552
889.0, 0.2997890895503589
890.0, 0.2566623998824757
891.0, 0.21753982238296204
892.0, 0.18133874607562475
893.0, 0.15057937778556651
894.0, 0.12470503675755996
895.0, 0.1031873934940991
896.0, 0.08807311320668715
897.0, 0.0703643522698352
898.0, 0.05809147617976116
899.0, 0.05038529798383024
900.0, 0.04252987479547662
901.0, 0.03835125660685597
902.0, 0.03292064939391667
903.0, 0.026233365279607096
904.0, 0.020466144492171826
905.0, 0.014783746993962985
906.0, 0.011515646029701208
907.0, 0.01272552854863032
908.0, 0.011960927182338621
909.0, 0.009152465921407813
910.0, 0.005925173352084235
911.0, 0.0020085689537887516
912.0, 0.0013194278277876249
913.0, 0.0017855422784749646
914.0, 0.002858211535325641
915.0, 0.0029246986424342285
916.0, 0.0009383675028548568
917.0, 0.0016616317793273628
918.0, 0.0009196695731507774
919.0, 0.001818397143015627
920.0, 0.003058686506403379
921.0, 0.0006617007522909924
922.0, 0.0017123066619268335
923.0, 0.0015798417673943059
924.0, 0.0007733747702266532
925.0, 0.001893773720118703
926.0, 0.005483634707243918
927.0, 0.004873039281392709
928.0, 0.0003501403312941564
929.0, 0.0010263062652235394
930.0, 0.002402683237476075
931.0, 0.002031697079906818
932.0, 0.007043470674250491
933.0, 0.0030231113053760658
934.0, 0.00042072286136036097
935.0, 0.001278398141371436
936.0, 0.0011557539515903734
937.0, 0.004982955450620918
938.0, 0.005934768883921726
939.0, 0.0006138709845196335
940.0, 0.0019172251552135341
941.0, 0.004181157526977815
942.0, 0.006136801201597486
943.0, 0.009742650653684437
944.0, 0.011431120192361553
945.0, 0.009986623854658788
946.0, 0.009920472723296254
947.0, 0.013123681639031387
948.0, 0.01567412460423774
949.0, 0.014755697313778958
950.0, 0.014469302053097688
951.0, 0.018991530747950233
952.0, 0.01563371167332098
953.0, 0.016897399280399274
954.0, 0.018903528101214095
955.0, 0.02326276779025125
956.0, 0.026704150090643176
957.0, 0.028577113729317365
958.0, 0.02924895364046593
959.0, 0.028368351459567426
960.0, 0.028114719408007235
961.0, 0.03213153851525492
962.0, 0.0375834908350211
963.0, 0.04135618905896879
964.0, 0.045764348766628125
965.0, 0.04884531353028542
966.0, 0.04876467788062859
967.0, 0.0507907730323434
968.0, 0.055926025428556826
969.0, 0.062620116052787
970.0, 0.06756870917378364
971.0, 0.07136149585859672
972.0, 0.07777871477619114
973.0, 0.0862095839377837
974.0, 0.09080157610648769
975.0, 0.09818530988148344
976.0, 0.0985393901535165
977.0, 0.10287086470036566
978.0, 0.10811831259203346
979.0, 0.11286603575043437
980.0, 0.11685899669496264
981.0, 0.11931145775306128
982.0, 0.11670043034193497
983.0, 0.11270007226863166
984.0, 0.11109372906513866
985.0, 0.11049188220231701
986.0, 0.11596041501600232
987.0, 0.1073930264278239
988.0, 0.10662178371874004
989.0, 0.10902877173905304
990.0, 0.10586076923194938
991.0, 0.10541898772826927
992.0, 0.10904751769280348
993.0, 0.11057042441047717
994.0, 0.10888885442089746
995.0, 0.11194278170978487
996.0, 0.11648002186618621
997.0, 0.11646815419648965
998.0, 0.12656577850785952
999.0, 0.1289933809242938
1000.0, 0.1294733659855298
1001.0, 0.12591614893816144
1002.0, 0.12648037469566092
1003.0, 0.12936773142240413
1004.0, 0.12710956035188697
1005.0, 0.12863460127636014
1006.0, 0.12417019030867943
1007.0, 0.11643993922870612
1008.0, 0.11483653332174397
1009.0, 0.10979681912846478
1010.0, 0.09554253429013938
1011.0, 0.08193043651110458
1012.0, 0.07618498935246223
1013.0, 0.07241666579829617
1014.0, 0.05828623722099273
1015.0, 0.055388465998869874
1016.0, 0.055590130346266184
1017.0, 0.04526889065482771
1018.0, 0.040019614350803506
1019.0, 0.03807654145958245
1020.0, 0.030510277279059115
1021.0, 0.023584974389554644
1022.0, 0.021997140370948964
1023.0, 0.02189469438628823
1024.0, 0.023040776049224387
1025.0, 0.019048070611167034
1026.0, 0.015396404558155236
1027.0, 0.01599319008399594
1028.0, 0.0064755370350998796
1029.0, 0.0058106145549093775
1030.0, 0.001564057821118402
1031.0, 0.001318364746743138
1032.0, 0.0023843395001899815
1033.0, 0.0020276647826444104
1034.0, 0.002059282289065578
1035.0, 0.000261273377519358
1036.0, 0.0006616449053168869
1037.0, 0.0009598528058877257
1038.0, 0.0036572095231756337
1039.0, 0.002822711792761641
1040.0, 0.0029928809394120155
1041.0, 0.005255997363055687
1042.0, 0.001542455893043149
1043.0, 0.005015946057262115
1044.0, 0.00234655601189493
1045.0, 0.0022241345216826064
1046.0, 0.003794457260310485
1047.0, 0.005165983166223568
1048.0, 0.007951403129726522
1049.0, 0.01158271731368328
1050.0, 0.013997212260708916
1051.0, 0.012759506868384618
1052.0, 0.014919452927646876
1053.0, 0.013689450860656996
1054.0, 0.012718104691390855
1055.0, 0.014051188002779798
1056.0, 0.014953736979785361
1057.0, 0.01589803269904322
1058.0, 0.023883714036252945
1059.0, 0.028438900731788543
1060.0, 0.030294460486384248
1061.0, 0.024860979783941507
1062.0, 0.026519143945712458
1063.0, 0.02907592743755111
1064.0, 0.024939373288112257
1065.0, 0.02273403411298879
1066.0, 0.01874545289551761
1067.0, 0.02392163545843222
1068.0, 0.018950497868123684
1069.0, 0.015461802411694757
1070.0, 0.020561013807875117
1071.0, 0.019104461739433448
1072.0, 0.02180079745112141
1073.0, 0.024208570879043576
1074.0, 0.019136119987958132
1075.0, 0.01807485055598929
1076.0, 0.0187219460326363
1077.0, 0.016515357701061766
1078.0, 0.016561492687544133
1079.0, 0.01515296918107869
1080.0, 0.007522846066820294
1081.0, 0.0037934246815359987
1082.0, 0.006207075303563326
1083.0, 0.005386844280719737
1084.0, 0.004881368879012991
1085.0, 0.005574270717602141
1086.0, 0.00402303567097483
1087.0, 0.004729100277705464
1088.0, 0.0005225508658142481
1089.0, 8.941383209044007e-05
1090, 0.0
1091, 0.0
1092, 0.0
1093, 0.0
1094, 0.0
1095, 0.0
1096, 0.0
1097, 0.0
1098, 0.0
1099, 0.0
1100, 0.0
1101, 0.0
1102, 0.0
1103, 0.0
1104, 0.0
1105, 0.0
1106, 0.0
1107, 0.0
1108, 0.0
1109, 0.0
1110, 0.0
1111, 0.0
1112, 0.0
1113, 0.0
1114, 0.0
1115, 0.0
1116, 0.0
1117, 0.0
1118, 0.0
1119, 0.0
1120, 0.0
1121, 0.0
1122, 0.0
1123, 0.0
1124, 0.0
1125, 0.0
1126, 0.0
1127, 0.0
1128, 0.0
1129, 0.0
1130, 0.0
1131, 0.0
1132, 0.0
1133, 0.0
1134, 0.0
1135, 0.0
1136, 0.0
1137, 0.0
1138, 0.0
1139, 0.0
1140, 0.0
1141, 0.0
1142, 0.0
1143, 0.0
1144, 0.0
1145, 0.0
1146, 0.0
1147, 0.0
1148, 0.0
1149, 0.0
1150, 0.0
1151, 0.0
1152, 0.0
1153, 0.0
1154, 0.0
1155, 0.0
1156, 0.0
1157, 0.0
1158, 0.0
1159, 0.0
1160, 0.0
1161, 0.0
1162, 0.0
1163, 0.0
1164, 0.0
1165, 0.0
1166, 0.0
1167, 0.0
1168, 0.0
1169, 0.0
1170, 0.0
1171, 0.0
1172, 0.0
1173, 0.0
1174, 0.0
1175, 0.0
1176, 0.0
1177, 0.0
1178, 0.0
1179, 0.0
1180, 0.0
1181, 0.0
1182, 0.0
1183, 0.0
1184, 0.0
1185, 0.0
1186, 0.0
1187, 0.0
1188, 0.0
1189, 0.0
1190, 0.0
1191, 0.0
1192, 0.0
1193, 0.0
1194, 0.0
1195, 0.0
1196, 0.0
1197, 0.0
1198, 0.0
1199, 0.0
1200, 0.0
1201, 0.0
1202, 0.0
1203, 0.0
1204, 0.0
1205, 0.0
1206, 0.0
1207, 0.0
1208, 0.0
1209, 0.0
1210, 0.0
1211, 0.0
1212, 0.0
1213, 0.0
1214, 0.0
1215, 0.0
1216, 0.0
1217, 0.0
1218, 0.0
1219, 0.0
1220, 0.0
1221, 0.0
1222, 0.0
1223, 0.0
1224, 0.0
1225, 0.0
1226, 0.0
1227, 0.0
1228, 0.0
1229, 0.0
1230, 0.0
1231, 0.0
1232, 0.0
1233, 0.0
1234, 0.0
1235, 0.0
1236, 0.0
1237, 0.0
1238, 0.0
1239, 0.0
1240, 0.0
1241, 0.0
1242, 0.0
1243, 0.0
1244, 0.0
1245, 0.0
1246, 0.0
1247, 0.0
1248, 0.0
1249, 0.0
1250, 0.0
1251, 0.0
1252, 0.0
1253, 0.0
1254, 0.0
1255, 0.0
1256, 0.0
1257, 0.0
1258, 0.0
1259, 0.0
1260, 0.0
1261, 0.0
1262, 0.0
1263, 0.0
1264, 0.0
1265, 0.0
1266, 0.0
1267, 0.0
1268, 0.0
1269, 0.0
1270, 0.0
1271, 0.0
1272, 0.0
1273, 0.0
1274, 0.0
1275, 0.0
1276, 0.0
1277, 0.0
1278, 0.0
1279, 0.0
1280, 0.0
1281, 0.0
1282, 0.0
1283, 0.0
1284, 0.0
1285, 0.0
1286, 0.0
1287, 0.0
1288, 0.0
1289, 0.0
1290, 0.0
1291, 0.0
1292, 0.0
1293, 0.0
1294, 0.0
1295, 0.0
1296, 0.0
1297, 0.0
1298, 0.0
1299, 0.0
1300, 0.0
1301, 0.0
1302, 0.0
1303, 0.0
1304, 0.0
1305, 0.0
1306, 0.0
1307, 0.0
1308, 0.0
1309, 0.0
1310, 0.0
1311, 0.0
1312, 0.0
1313, 0.0
1314, 0.0
1315, 0.0
1316, 0.0
1317, 0.0
1318, 0.0
1319, 0.0
1320, 0.0
1321, 0.0
1322, 0.0
1323, 0.0
1324, 0.0
1325, 0.0
1326, 0.0
1327, 0.0
1328, 0.0
1329, 0.0
1330, 0.0
1331, 0.0
1332, 0.0
1333, 0.0
1334, 0.0
1335, 0.0
1336, 0.0
1337, 0.0
1338, 0.0
1339, 0.0
1340, 0.0
1341, 0.0
1342, 0.0
1343, 0.0
1344, 0.0
1345, 0.0
1346, 0.0
1347, 0.0
1348, 0.0
1349, 0.0
1350, 0.0
1351, 0.0
1352, 0.0
1353, 0.0
1354, 0.0
1355, 0.0
1356, 0.0
1357, 0.0
1358, 0.0
1359, 0.0
1360, 0.0
1361, 0.0
1362, 0.0
1363, 0.0
1364, 0.0
1365, 0.0
1366, 0.0
1367, 0.0
1368, 0.0
1369, 0.0
1370, 0.0
1371, 0.0
1372, 0.0
1373, 0.0
1374, 0.0
1375, 0.0
1376, 0.0
1377, 0.0
1378, 0.0
1379, 0.0
1380, 0.0
1381, 0.0
1382, 0.0
1383, 0.0
1384, 0.0
1385, 0.0
1386, 0.0
1387, 0.0
1388, 0.0
1389, 0.0
1390, 0.0
1391, 0.0
1392, 0.0
1393, 0.0
1394, 0.0
1395, 0.0
1396, 0.0
1397, 0.0
1398, 0.0
1399, 0.0
1400, 0.0
1401, 0.0
1402, 0.0
1403, 0.0
1404, 0.0
1405, 0.0
1406, 0.0
1407, 0.0
1408, 0.0
1409, 0.0
1410, 0.0
1411, 0.0
1412, 0.0
1413, 0.0
1414, 0.0
1415, 0.0
1416, 0.0
1417, 0.0
1418, 0.0
1419, 0.0
1420, 0.0
1421, 0.0
1422, 0.0
1423, 0.0
1424, 0.0
1425, 0.0
1426, 0.0
1427, 0.0
1428, 0.0
1429, 0.0
1430, 0.0
1431, 0.0
1432, 0.0
1433, 0.0
1434, 0.0
1435, 0.0
1436, 0.0
1437, 0.0
1438, 0.0
1439, 0.0
1440, 0.0
1441, 0.0
1442, 0.0
1443, 0.0
1444, 0.0
1445, 0.0
1446, 0.0
1447, 0.0
1448, 0.0
1449, 0.0
1450, 0.0
1451, 0.0
1452, 0.0
1453, 0.0
1454, 0.0
1455, 0.0
1456, 0.0
1457, 0.0
1458, 0.0
1459, 0.0
1460, 0.0
1461, 0.0
1462, 0.0
1463, 0.0
1464, 0.0
1465, 0.0
1466, 0.0
1467, 0.0
1468, 0.0
1469, 0.0
1470, 0.0
1471, 0.0
1472, 0.0
1473, 0.0
1474, 0.0
1475, 0.0
1476, 0.0
1477, 0.0
1478, 0.0
1479, 0.0
1480, 0.0
1481, 0.0
1482, 0.0
1483, 0.0
1484, 0.0
1485, 0.0
1486, 0.0
1487, 0.0
1488, 0.0
1489, 0.0
1490, 0.0
1491, 0.0
1492, 0.0
1493, 0.0
1494, 0.0
1495, 0.0
1496, 0.0
1497, 0.0
1498, 0.0
1499, 0.0
1500, 0.0
1501, 0.0
1502, 0.0
1503, 0.0
1504, 0.0
1505, 0.0
1506, 0.0
1507, 0.0
1508, 0.0
1509, 0.0
1510, 0.0
1511, 0.0
1512, 0.0
1513, 0.0
1514, 0.0
1515, 0.0
1516, 0.0
1517, 0.0
1518, 0.0
1519, 0.0
1520, 0.0
1521, 0.0
1522, 0.0
1523, 0.0
1524, 0.0
1525, 0.0
1526, 0.0
1527, 0.0
1528, 0.0
1529, 0.0
1530, 0.0
1531, 0.0
1532, 0.0
1533, 0.0
1534, 0.0
1535, 0.0
1536, 0.0
1537, 0.0
1538, 0.0
1539, 0.0
1540, 0.0
1541, 0.0
1542, 0.0
1543, 0.0
1544, 0.0
1545, 0.0
1546, 0.0
1547, 0.0
1548, 0.0
1549, 0.0
1550, 0.0
1551, 0.0
1552, 0.0
1553, 0.0
1554, 0.0
1555, 0.0
1556, 0.0
1557, 0.0
1558, 0.0
1559, 0.0
1560, 0.0
1561, 0.0
1562, 0.0
1563, 0.0
1564, 0.0
1565, 0.0
1566, 0.0
1567, 0.0
1568, 0.0
1569, 0.0
1570, 0.0
1571, 0.0
1572, 0.0
1573, 0.0
1574, 0.0
1575, 0.0
1576, 0.0
1577, 0.0
1578, 0.0
1579, 0.0
1580, 0.0
1581, 0.0
1582, 0.0
1583, 0.0
1584, 0.0
1585, 0.0
1586, 0.0
1587, 0.0
1588, 0.0
1589, 0.0
1590, 0.0
1591, 0.0
1592, 0.0
1593, 0.0
1594, 0.0
1595, 0.0
1596, 0.0
1597, 0.0
1598, 0.0
1599, 0.0
