30, 0.0
31, 0.0
32, 0.0
33, 0.0
34, 0.0
35, 0.0
36, 0.0
37, 0.0
38, 0.0
39, 0.0
40, 0.0
41, 0.0
42, 0.0
43, 0.0
44, 0.0
45, 0.0
46, 0.0
47, 0.0
48, 0.0
49, 0.0
50, 0.0
51.0, 4.4562325566427954e-05
52.0, 0.00020213771041855034
53.0, 0.00023418486256242022
54.0, 0.00023330803616924357
55.0, 0.00024677854142152883
56.0, 0.0002761031510989093
57.0, 0.00028710593612372694
58.0, 0.00013214262572961544
59.0, 5.248908704556676e-05
60.0, 6.336858425816045e-05
61.0, 0.00011313791891275701
62.0, 0.00011860961552747886
63.0, 8.553977149479754e-05
64.0, 0.00011847845398324729
65.0, 8.5070479573047e-05
66.0, 2.071342436526757e-05
67.0, 2.9009609734742507e-05
68.0, 0.00019832471745170655
69.0, 0.0003480853118814787
70.0, 0.0003829724142472372
71.0, 0.0004262329583134538
72.0, 0.0006317804079312574
73.0, 0.0009359197836426922
74.0, 0.0011482257692114273
75.0, 0.0014834837501498902
76.0, 0.0018081447263673756
77.0, 0.0019541056312550238
78.0, 0.001915977523833192
79.0, 0.0024500587449737855
80.0, 0.002944622390210527
81.0, 0.0033568005988391584
82.0, 0.003652584106143315
83.0, 0.0035679645721261055
84.0, 0.003999387203767431
85.0, 0.004704181366233555
86.0, 0.00522103727900456
87.0, 0.005565664071767651
88.0, 0.006677332390072996
89.0, 0.006917297094064714
90.0, 0.007289372934961561
91.0, 0.007726253264757459
92.0, 0.008205865261636202
93.0, 0.00882030404377403
94.0, 0.009272568810862653
95.0, 0.01012593669944295
96.0, 0.010812909394610425
97.0, 0.011463292556899552
98.0, 0.012693821457751574
99.0, 0.012999502983658947
100.0, 0.013468646335693588
101.0, 0.014320814773536498
102.0, 0.015261542745371679
103.0, 0.01581711160097599
104.0, 0.016386172791931438
105.0, 0.01737815688102236
106.0, 0.018532847675301247
107.0, 0.020087957838394156
108.0, 0.022035309909609693
109.0, 0.022500034061404557
110.0, 0.024397701593637498
111.0, 0.02553546626092941
112.0, 0.026431224119575367
113.0, 0.027830349606408355
114.0, 0.029801807090700995
115.0, 0.03224457204488772
116.0, 0.03517515470299328
117.0, 0.03761324188806248
118.0, 0.03989460225138822
119.0, 0.04443830613511824
120.0, 0.04836169269919684
121.0, 0.053326174729267935
122.0, 0.05920048066465841
123.0, 0.06620892949784067
124.0, 0.07487123274233132
125.0, 0.08543677836749748
126.0, 0.098825422599967
127.0, 0.1146303884125006
128.0, 0.13363516694972535
129.0, 0.15738972377204577
130.0, 0.19016555877909214
131.0, 0.22716296015091814
132.0, 0.26892203286157235
133.0, 0.31460490803049174
134.0, 0.3639706644195368
135.0, 0.42067622836587903
136.0, 0.47815238082995115
137.0, 0.5437110780148622
138.0, 0.6174766504202605
139.0, 0.6985449135254693
140.0, 0.7859719577775656
141.0, 0.8659125268073187
142.0, 0.9287760341135496
143.0, 0.9746904100612486
144.0, 0.9911389045766864
145.0, 0.9573054012153648
146.0, 0.87448743671035
147.0, 0.7561754590899585
148.0, 0.625946840481572
149.0, 0.5003447636252194
150.0, 0.3918411462356864
151.0, 0.3077740500100767
152.0, 0.2454828924622981
153.0, 0.1984689426012509
154.0, 0.16195568782171735
155.0, 0.13267366665738006
156.0, 0.11140010750417768
157.0, 0.09523645693622827
158.0, 0.0827559871444651
159.0, 0.07198949796734447
160.0, 0.06239265135352616
161.0, 0.054899713389287313
162.0, 0.048600314073748416
163.0, 0.04314229030641326
164.0, 0.039349159130917535
165.0, 0.036060805776830615
166.0, 0.03189063426737673
167.0, 0.029608191867636986
168.0, 0.027161297071143446
169.0, 0.024945965695705136
170.0, 0.02291426653288533
171.0, 0.021002776605520454
172.0, 0.019318800500198807
173.0, 0.017749295466278826
174.0, 0.01649109270626661
175.0, 0.015482533170325117
176.0, 0.014605919579967062
177.0, 0.013725785927136339
178.0, 0.012975898608894932
179.0, 0.012092453674152409
180.0, 0.011324019058816737
181.0, 0.01069124516620343
182.0, 0.010161748692064994
183.0, 0.009905424179353072
184.0, 0.00929012650121069
185.0, 0.008998349268140918
186.0, 0.009285312703438579
187.0, 0.00984724126840361
188.0, 0.009632021089255767
189.0, 0.009798354088579979
190.0, 0.009893045402558153
191.0, 0.0102250515458177
192.0, 0.011079053913776742
193.0, 0.012590665214447091
194.0, 0.014115923221511548
195.0, 0.015722758216935678
196.0, 0.01737831383230399
197.0, 0.01837057238579556
198.0, 0.018351369888256457
199.0, 0.018228456939977135
200.0, 0.01601813915496155
201.0, 0.012590470115932296
202.0, 0.009731005432060388
203.0, 0.007840344045487667
204.0, 0.006060245599473687
205.0, 0.005457254197264323
206.0, 0.004579297377025943
207.0, 0.004236788975427024
208.0, 0.003920392618317756
209.0, 0.0031192630699112683
210.0, 0.002792011247877271
211.0, 0.0028472402302064585
212.0, 0.0026065729282991274
213.0, 0.0023569261167562757
214.0, 0.002228984691738691
215.0, 0.0020740190732748158
216.0, 0.001748125116906622
217.0, 0.0015679538527250366
218.0, 0.0016081537445537092
219.0, 0.0016398311027041093
220.0, 0.001458251381504228
221.0, 0.0013940364437757147
222.0, 0.001126468864296175
223.0, 0.000939282273485399
224.0, 0.0008656410927474176
225.0, 0.0008636194876702294
226.0, 0.0008418143651962948
227.0, 0.0008334010325761201
228.0, 0.0007925833636549516
229.0, 0.0007667291648676429
230.0, 0.0007268068593785529
231.0, 0.0006516781870456931
232.0, 0.0006575319632223778
233.0, 0.000637892008185279
234.0, 0.0005383567531550764
235.0, 0.00037320887568079056
236.0, 0.00028718904803146084
237.0, 0.000487727402943967
238.0, 0.00016355322161352572
239.0, 0.00010139733319502245
240.0, 0.00013589823612140492
241.0, 0.00012485079180601748
242.0, 2.8065953183451097e-05
243.0, 7.65060936114168e-05
244.0, 5.960594234678569e-05
245.0, 0.0001395628507969487
246.0, 0.00011626255249942546
247.0, 2.0102243921427746e-05
248.0, 8.939653143106292e-05
249.0, 0.00033727489712030056
250.0, 0.0002855163388187145
251.0, 0.0002697090007489644
252.0, 0.00020371693363735498
253.0, 0.00010050644703576197
254.0, 0.00041818997134671055
255.0, 9.917584884951532e-05
256.0, 6.773546847313579e-05
257.0, 0.00012216906944914575
258.0, 0.00018219978813220842
259.0, 0.00023978468801143997
260.0, 8.118523924536517e-05
261.0, 0.0001321737849837371
262.0, 0.00012427273808648454
263.0, 0.00014599092307226828
264.0, 0.00018598068913171245
265.0, 3.2259795907174304e-05
266.0, 5.597712574597812e-05
267.0, 0.00016475932492071316
268.0, 0.00017204947924514738
269.0, 0.00012811225113845917
270.0, 0.00014519755452912361
271.0, 0.00020709609065081504
272.0, 0.0003999438529430284
273.0, 0.0003779273201306769
274.0, 0.0003246373165981636
275.0, 0.00025479183328347134
276.0, 5.821444360545565e-05
277.0, 6.794334958298711e-05
278.0, 3.5768387765354515e-05
279.0, 0.00027258911156107126
280.0, 0.00038893624174413745
281.0, 0.00020406766865046458
282.0, 0.00012118427896823844
283.0, 8.700580127069638e-05
284.0, 6.717828947566402e-05
285.0, 7.054314715147657e-05
286.0, 0.00012681751470488382
287.0, 0.0002545973552853754
288.0, 0.0004134577546905327
289.0, 0.0004147683561021188
290.0, 0.00046853638521818214
291.0, 0.00048650288309328837
292.0, 0.0004748944016257428
293.0, 0.0004989481947250713
294.0, 0.00036825061913944244
295.0, 0.0005862765138773812
296.0, 0.0006585286850815278
297.0, 0.0007648402383209274
298.0, 0.0009037125991385863
299.0, 0.0007035238540402979
300.0, 0.0008761165505999171
301.0, 0.001013299702549852
302.0, 0.0010619278148224665
303.0, 0.0010139476782469597
304.0, 0.0009350252289015423
305.0, 0.0010103288628311232
306.0, 0.001034284309121561
307.0, 0.0010547283312287493
308.0, 0.00108646906403825
309.0, 0.0011033284988778585
310.0, 0.0010923449867248805
311.0, 0.0011877580270222973
312.0, 0.0013034051727881472
313.0, 0.0012498740279490849
314.0, 0.001364595801488717
315.0, 0.0016111935020435106
316.0, 0.0016354150682457854
317.0, 0.0015713589975956963
318.0, 0.0017042473011396667
319.0, 0.0015907695470681212
320.0, 0.0015922042552988982
321.0, 0.001800809459432551
322.0, 0.0017882531931982244
323.0, 0.0016825464383591583
324.0, 0.0015183740478187518
325.0, 0.00148884366616462
326.0, 0.001505112908362618
327.0, 0.001466722532966486
328.0, 0.001422609836642578
329.0, 0.0016476164421308085
330.0, 0.0015516017222556382
331.0, 0.0013929088294775613
332.0, 0.0013751285791577992
333.0, 0.001544195911936996
334.0, 0.0016335371403226884
335.0, 0.0017771127620257758
336.0, 0.0014407143549926738
337.0, 0.0012094582068701849
338.0, 0.001312349802372921
339.0, 0.0015891493558969057
340.0, 0.0014278210458974997
341.0, 0.0015952946319075696
342.0, 0.0015251541246750118
343.0, 0.0015048984638473956
344.0, 0.0015627766282403565
345.0, 0.0015252086431613123
346.0, 0.001475434550298486
347.0, 0.0013232904555943684
348.0, 0.0014005995788380736
349.0, 0.0015952697991693367
350.0, 0.0018106076082734116
351.0, 0.0019321611975147686
352.0, 0.001198787456999507
353.0, 0.0016644369722847705
354.0, 0.0017018658591075582
355.0, 0.0018657158897386794
356.0, 0.002204694821507591
357.0, 0.002011831682054004
358.0, 0.002255701197892918
359.0, 0.00225463285014371
360.0, 0.002351016648596182
361.0, 0.002557211512722892
362.0, 0.0027702499536897845
363.0, 0.002828418450176927
364.0, 0.0024299849284857176
365.0, 0.00250173993595669
366.0, 0.0027405458248718293
367.0, 0.002763706806372191
368.0, 0.002749858771964882
369.0, 0.0034645786891950117
370.0, 0.0031355464960271737
371.0, 0.0035588021416613942
372.0, 0.0039650442484843625
373.0, 0.004362970794258697
374.0, 0.004677521793771872
375.0, 0.00453850805078207
376.0, 0.005370703492305625
377.0, 0.005776077391929268
378.0, 0.0062591946039452255
379.0, 0.00693870914518613
380.0, 0.007722562630098436
381.0, 0.008415334861751826
382.0, 0.00938833022592433
383.0, 0.010231468740888747
384.0, 0.010560793050425545
385.0, 0.011188777616407871
386.0, 0.012425362716711491
387.0, 0.01336259001502724
388.0, 0.01363158951770963
389.0, 0.015570979018129013
390.0, 0.01668381534958034
391.0, 0.017006643731387307
392.0, 0.017429324474159166
393.0, 0.01874729366494979
394.0, 0.01877757255190439
395.0, 0.01890931384329597
396.0, 0.018797276912745367
397.0, 0.01844108632104895
398.0, 0.017847192785740006
399.0, 0.016965453165024184
400.0, 0.016312328550753343
401.0, 0.015183531632338423
402.0, 0.01433318524876586
403.0, 0.013318634503615685
404.0, 0.01176662596041549
405.0, 0.009903336581376336
406.0, 0.009465904540855228
407.0, 0.008434324096398365
408.0, 0.007379445683701999
409.0, 0.006671648798249486
410.0, 0.006159459649396818
411.0, 0.005302594793729859
412.0, 0.0042569774205428144
413.0, 0.0039289259819309166
414.0, 0.003401533048751438
415.0, 0.0031243604240658667
416.0, 0.0030678139255766574
417.0, 0.0027000825436784945
418.0, 0.0019440247739970023
419.0, 0.0021951040643612345
420.0, 0.001997277867830741
421.0, 0.0017900888581495742
422.0, 0.0016294793953873083
423.0, 0.0013020193421555944
424.0, 0.001155002215233582
425.0, 0.0011294674682607543
426.0, 0.0009731854127273818
427.0, 0.0007681524740486814
428.0, 0.0006540290908269095
429.0, 0.0007005465842131302
430.0, 0.0007577332687309872
431.0, 0.00043119465346427106
432.0, 0.00032593606281960686
433.0, 0.00045684250382753053
434.0, 0.0004191610586789169
435.0, 8.220020595402917e-05
436.0, 0.00011524241214668323
437.0, 2.2575629895775716e-05
438.0, 0.00011038316472584827
439.0, 9.545552414034011e-05
440.0, 4.280847592534422e-05
441.0, 3.04794200081145e-05
442.0, 1.0502209198870184e-05
443.0, 0.0001275575268623968
444.0, 0.00023514818764264499
445.0, 0.00035004502049808186
446.0, 0.00039195396573442587
447.0, 0.0003361333212776701
448.0, 0.00022955653315294585
449.0, 7.400009696212058e-05
450.0, 0.00018163555754785785
451.0, 0.00036857476111139574
452.0, 0.0003285594900148199
453.0, 0.00016066759837635056
454.0, 0.00019463105786799966
455.0, 0.0005115668391806383
456.0, 0.00041560557036643864
457.0, 0.00027931573696431225
458.0, 0.00021706992924472375
459.0, 0.0001760207874118208
460.0, 8.613409167572932e-05
461.0, 9.380926311023405e-06
462.0, 0.00019437311723746498
463.0, 0.0001471082175215955
464.0, 5.726513636508951e-05
465.0, 8.461422052132994e-05
466.0, 0.00021146807657132708
467.0, 0.00023991647008752125
468.0, 0.00018783569089823982
469.0, 5.301396048242073e-05
470.0, 4.7802704253200055e-05
471.0, 0.00012082401157275193
472.0, 0.00026203323148099513
473.0, 0.0004645802802442132
474.0, 0.0004871683951551985
475.0, 0.0004415494689678456
476.0, 0.00032742343813065754
477.0, 0.00032837683588905466
478.0, 0.00034747271480634143
479.0, 0.0002974103214912049
480.0, 0.0003879671318532753
481.0, 0.00038271352370835085
482.0, 0.0006294808064242278
483.0, 0.0008470078662513704
484.0, 0.0010463892667047967
485.0, 0.0010830483683224334
486.0, 0.0007547217142402603
487.0, 0.0011751301045212245
488.0, 0.0010738252572423622
489.0, 0.0011774192495739538
490.0, 0.0014180588878934515
491.0, 0.0015878854069332382
492.0, 0.0016102655026149566
493.0, 0.001818269572096681
494.0, 0.0019274677024428712
495.0, 0.0021288626028044115
496.0, 0.0022978065483728397
497.0, 0.002593444107084015
498.0, 0.0030597251791266095
499.0, 0.0034473803860151
500.0, 0.0037696836079773757
501.0, 0.004473796131247662
502.0, 0.0048273413457990706
503.0, 0.005503708725196375
504.0, 0.0063955597326488325
505.0, 0.006966204226355466
506.0, 0.007927891698650436
507.0, 0.009030020154815388
508.0, 0.009702650254365675
509.0, 0.010486912353384106
510.0, 0.011494145027306583
511.0, 0.012501587019347421
512.0, 0.013169749438282474
513.0, 0.013706620026505054
514.0, 0.013951669303405367
515.0, 0.013706259686708782
516.0, 0.013313582790287644
517.0, 0.012894804406369252
518.0, 0.012364252057589887
519.0, 0.011830340554906496
520.0, 0.011304131992674746
521.0, 0.010740293820975166
522.0, 0.010194252859737223
523.0, 0.009746933143479252
524.0, 0.009295576008185542
525.0, 0.008565622979520552
526.0, 0.007978262734857276
527.0, 0.00750741585060403
528.0, 0.006830725364294192
529.0, 0.006284048761846979
530.0, 0.0060635957666878414
531.0, 0.005983194108400412
532.0, 0.005391749688744984
533.0, 0.0044628489982485395
534.0, 0.003747461524814413
535.0, 0.0037856884498648036
536.0, 0.003767384159002058
537.0, 0.0034898145087330075
538.0, 0.0035901936014166255
539.0, 0.002889243717537945
540.0, 0.0026729057391110234
541.0, 0.002124563125347213
542.0, 0.002021258123041244
543.0, 0.002087390819912954
544.0, 0.0018866244960355533
545.0, 0.0018270443231218096
546.0, 0.0017540813338862682
547.0, 0.0016434813024500897
548.0, 0.0013666988971349392
549.0, 0.0013324051009559238
550.0, 0.0013521909457846859
551.0, 0.001061447652391779
552.0, 0.001217267778232538
553.0, 0.0010591601093812388
554.0, 0.0009364344836435823
555.0, 0.0009234968436693759
556.0, 0.0008436841372927617
557.0, 0.0006884178120752122
558.0, 0.000661138272906253
559.0, 0.0005463315996345906
560.0, 0.0006896191198860129
561.0, 0.0007470524325832757
562.0, 0.0009387396780313983
563.0, 0.0008734778535564419
564.0, 0.000567863385859578
565.0, 0.0009446719013754044
566.0, 0.00052984551736281
567.0, 0.0010724416997635528
568.0, 0.0011525641760894096
569.0, 0.0008886337097366027
570.0, 0.0006815109186337447
571.0, 0.0008266305617165819
572.0, 0.001250695159497107
573.0, 0.00039203521612820447
574.0, 0.0007590127891801922
575.0, 0.0011005704569545893
576.0, 0.0009730798224758544
577.0, 0.0008320311451349288
578.0, 0.0012621971120616445
579.0, 0.0014477025274107628
580.0, 0.001469499225260224
581.0, 0.0014622822063561395
582.0, 0.0016098122613440393
583.0, 0.0017841623793648411
584.0, 0.0018859683334906101
585.0, 0.0018948261510209514
586.0, 0.0015244820098174378
587.0, 0.0023074152701249963
588.0, 0.002224308993427621
589.0, 0.0019504793329310737
590.0, 0.0020504073473476235
591.0, 0.0025544308494282798
592.0, 0.0030178602719283768
593.0, 0.0033851219049967286
594.0, 0.0036157968988815977
595.0, 0.003795739446088174
596.0, 0.0038292598857053535
597.0, 0.0040092692705365
598.0, 0.004486686587067174
599.0, 0.004953960857562429
600.0, 0.00521711104505704
601.0, 0.005885976692618242
602.0, 0.006260785042866542
603.0, 0.006514800500400244
604.0, 0.0067766591002601404
605.0, 0.0072703323747267574
606.0, 0.008278080339720084
607.0, 0.008705034482208461
608.0, 0.009757732705688403
609.0, 0.010697726974864274
610.0, 0.011663257500746387
611.0, 0.01284469725054402
612.0, 0.014206180331721753
613.0, 0.0154129732657347
614.0, 0.016262627567914294
615.0, 0.017639676663271257
616.0, 0.019761580325891183
617.0, 0.022197016877118454
618.0, 0.024529672824773342
619.0, 0.027062043016062153
620.0, 0.030730479693317676
621.0, 0.033190940309943136
622.0, 0.036441240513977215
623.0, 0.0417637186778988
624.0, 0.04687343153813031
625.0, 0.05080581763155952
626.0, 0.05466457907704048
627.0, 0.06066653142808753
628.0, 0.06763650863086741
629.0, 0.07559696375934923
630.0, 0.08221483111050214
631.0, 0.0893013271532367
632.0, 0.09657080621783519
633.0, 0.10319768691085478
634.0, 0.10945576597677094
635.0, 0.11451250930783051
636.0, 0.11891737261535683
637.0, 0.12286644112054483
638.0, 0.125104447367611
639.0, 0.12464818344675661
640.0, 0.12181683961900285
641.0, 0.11807002359980351
642.0, 0.11332240810118357
643.0, 0.10678575867131707
644.0, 0.10076186749094228
645.0, 0.09292265865137077
646.0, 0.08554157173198164
647.0, 0.07934170819600887
648.0, 0.07222062079751751
649.0, 0.06754161937246739
650.0, 0.06244969659579494
651.0, 0.056542338465460695
652.0, 0.05124192628309517
653.0, 0.047471993098513646
654.0, 0.04437148205857958
655.0, 0.04046377345643328
656.0, 0.03700097541467493
657.0, 0.03379458102500488
658.0, 0.03170182610159634
659.0, 0.02960586025975025
660.0, 0.02804445881771396
661.0, 0.026450488553022587
662.0, 0.023967435723379362
663.0, 0.02183093112609065
664.0, 0.020997540899922725
665.0, 0.019737375795758152
666.0, 0.01857404957564635
667.0, 0.017506792060096293
668.0, 0.016398459499144986
669.0, 0.015232069198243308
670.0, 0.014209258799903266
671.0, 0.01331755235356319
672.0, 0.012792649145611611
673.0, 0.01206636395620175
674.0, 0.01137491480862158
675.0, 0.010851143329117336
676.0, 0.010293989686961085
677.0, 0.00948643643943809
678.0, 0.009348826449294231
679.0, 0.008838944028876082
680.0, 0.007951379815001174
681.0, 0.007687960780333683
682.0, 0.007290601767717016
683.0, 0.0065193777503702215
684.0, 0.006094466040123366
685.0, 0.0064638251517741534
686.0, 0.006152284337292111
687.0, 0.005673550793648768
688.0, 0.0053425536057823825
689.0, 0.005216090539587285
690.0, 0.004929144571908003
691.0, 0.004574855513538162
692.0, 0.004984468347175206
693.0, 0.004469534699028622
694.0, 0.004216247286735318
695.0, 0.004046670121825742
696.0, 0.004071203555580314
697.0, 0.0037192805959701545
698.0, 0.0032307931504481063
699.0, 0.0034857226974428493
700.0, 0.0035837953470808123
701.0, 0.0029669473748319924
702.0, 0.003152884661517192
703.0, 0.0028080448110146252
704.0, 0.002319845658943047
705.0, 0.0021563259974101447
706.0, 0.00225757789839075
707.0, 0.00218050739334776
708.0, 0.0024080468745471774
709.0, 0.0018843346620059306
710.0, 0.0015162693351991154
711.0, 0.0018392391642105363
712.0, 0.0021780277987911672
713.0, 0.001939487614271337
714.0, 0.0013551649477254403
715.0, 0.0010100898395350379
716.0, 0.0011796751678774177
717.0, 0.0011094787456879304
718.0, 0.0009709785699458484
719.0, 0.0008282218970975052
720.0, 0.0008533554860017139
721.0, 0.0009565809371673236
722.0, 0.0006749214315623308
723.0, 0.0008889397828574592
724.0, 0.000879966712764427
725.0, 0.0005089105113680617
726.0, 0.0005370711015678936
727.0, 0.0007220221483071197
728.0, 0.0007744165335322734
729.0, 0.0006473873460675519
730.0, 6.462747585630785e-05
731.0, 0.0002082801249440508
732.0, 0.00028467053495019265
733.0, 0.0001895562091814963
734.0, 0.0002664367731737536
735.0, 0.0003259410495400716
736.0, 0.00018891499838569024
737.0, 9.532096786390422e-05
738.0, 7.394565232001121e-05
739.0, 0.00013202176611161682
740.0, 7.297854747256971e-05
741.0, 0.00012357144045666517
742.0, 0.00012483250277303635
743.0, 9.149743035000201e-05
744.0, 0.00013618806937788395
745.0, 0.000186289705655681
746.0, 0.00020476079546326225
747.0, 0.00023149999431446993
748.0, 0.00023589180475804388
749.0, 0.00032533459992302053
750.0, 0.00021923650886406724
751.0, 9.007057209675e-05
752.0, 0.00025721078274462163
753.0, 0.0002133641580704593
754.0, 0.00011866753726409512
755.0, 0.0002297849963154115
756.0, 0.00031599768375673617
757.0, 0.00021660838990081332
758.0, 0.00013525501636944937
759.0, 0.0001458939072987748
760.0, 9.548536625142674e-05
761.0, 8.554149745863413e-05
762.0, 0.0001630363289540238
763.0, 0.00010986421189485639
764.0, 0.00018995440446250073
765.0, 0.0001940400113511209
766.0, 0.00012111370837424669
767.0, 7.724892411515407e-05
768.0, 9.795700609741448e-05
769.0, 0.00016795822324856816
770.0, 0.0002474946812366969
771.0, 0.0002251563891320231
772.0, 0.0004036664489082856
773.0, 0.0006008442531225454
774.0, 0.0006859613444588606
775.0, 0.0007042704893522025
776.0, 0.0007544262911733574
777.0, 0.0007029768150633033
778.0, 0.0006259900798366169
779.0, 0.0006277574432686246
780.0, 0.0006719662108046037
781.0, 0.0006512713319643918
782.0, 0.0007069383707651209
783.0, 0.0008952903598311986
784.0, 0.0009837804796547452
785.0, 0.0009336678481079349
786.0, 0.0007258279922162298
787.0, 0.0011735725472645149
788.0, 0.0014158909220511123
789.0, 0.0015363646322840983
790.0, 0.0015068705910030768
791.0, 0.0014278100617977608
792.0, 0.0015879493797823414
793.0, 0.0014292703239344783
794.0, 0.0012487421407808015
795.0, 0.0015390466706160372
796.0, 0.0016734999508911826
797.0, 0.0017465014072230393
798.0, 0.0018479711997099694
799.0, 0.001742700677058517
800.0, 0.0013327110974625514
801.0, 0.0018060201593517401
802.0, 0.0015671187219205168
803.0, 0.0011178012857498579
804.0, 0.0010867431506393806
805.0, 0.0014178221412314677
806.0, 0.0014834028030796215
807.0, 0.0012846230767410464
808.0, 0.0014436612401250725
809.0, 0.001520643964312347
810.0, 0.001193462306285003
811.0, 0.0009630614187700965
812.0, 0.000727473382885393
813.0, 0.0009293380616103859
814.0, 0.0012380293682548347
815.0, 0.0013303666671110835
816.0, 0.0011986473167622867
817.0, 0.0007590851641095973
818.0, 0.0007700364528622663
819.0, 0.0009344544133200007
820.0, 0.0010603512505585114
821.0, 0.0009473663142094999
822.0, 0.0009584222680162226
823.0, 0.0010209858209051141
824.0, 0.0008773331100081266
825.0, 0.0008273832070418251
826.0, 0.0007644613525745659
827.0, 0.0008032252505863991
828.0, 0.0007702881466406975
829.0, 0.0008285420724191774
830.0, 0.0007174690351898452
831.0, 0.000649055149295754
832.0, 0.0007482369910684171
833.0, 0.0006824519686662809
834.0, 0.0008219926230896918
835.0, 0.0008181237285758698
836.0, 0.001092189201709927
837.0, 0.0008935432686861273
838.0, 0.000488407707639822
839.0, 0.0004310119878360542
840.0, 0.0006739736871265638
841.0, 0.0007096946663366884
842.0, 0.0006474402887621124
843.0, 0.0009101782303168052
844.0, 0.0008491953074405332
845.0, 0.0007712923724855895
846.0, 0.0004754391919915634
847.0, 0.0004712404020694615
848.0, 0.0006218534923638385
849.0, 0.000533127399024824
850.0, 0.0005069088378490731
851.0, 0.0007776128542009019
852.0, 0.0005213930652161864
853.0, 0.0005391979486202155
854.0, 0.0004174862713337699
855.0, 0.0003994541106469754
856.0, 0.00047723196196067035
857.0, 0.0005474126883831028
858.0, 0.0005632489084325638
859.0, 0.00042170990480657345
860.0, 0.0007142830866264007
861.0, 0.0004283466918640659
862.0, 0.0006848012297582385
863.0, 0.0006983793082107072
864.0, 0.0004462715557915096
865.0, 0.0004756006269341131
866.0, 0.000732730412254307
867.0, 0.0004505329798822108
868.0, 0.000566018243538125
869.0, 0.00026487641453060487
870.0, 0.00036713475487708345
871.0, 0.0005118428276819139
872.0, 0.0004464652308965291
873.0, 0.00030939204385064606
874.0, 0.0002942883621184104
875.0, 0.00035387795018961194
876.0, 0.0002739853943547752
877.0, 0.0003274633360724575
878.0, 0.00034655798325494615
879.0, 0.0005866576120197117
880.0, 0.0004722625881138899
881.0, 0.00030023006968887676
882.0, 0.00016444325915534485
883.0, 6.316635573630571e-05
884.0, 0.00010659221038608655
885.0, 0.0002715500311013169
886.0, 0.0002946131556991108
887.0, 0.000390827769013433
888.0, 0.00034407754879902454
889.0, 0.00019685257234759878
890.0, 0.0001473440027887661
891.0, 0.000124830031737305
892.0, 8.319454487419512e-05
893.0, 0.00013563029228095524
894.0, 3.7936149382564014e-05
895.0, 0.00017447641181983498
896.0, 0.00010710005185953894
897.0, 0.00014592829725805753
898.0, 0.0001686760638495572
899.0, 0.00011680169984753085
900.0, 5.4458239197492074e-05
901.0, 5.684594658682242e-05
902.0, 0.00011522788741215827
903.0, 0.00019110086005369773
904.0, 9.594406303856787e-05
905.0, 8.589379881802753e-05
906.0, 0.0002347738098224996
907.0, 0.0001862793452761787
908.0, 0.0001308005236106439
909.0, 0.00016630080055054746
910.0, 0.00020439256202272615
911.0, 0.00021257507564339468
912.0, 0.0001495431352663641
913.0, 0.00011304168734667338
914.0, 5.863319161957957e-05
915.0, 0.0001426778007430406
916.0, 0.00018340632806766467
917.0, 9.450061419503166e-05
918.0, 7.543844027185827e-05
919.0, 0.00018212304680104705
920.0, 0.00013471337770729983
921.0, 4.272150065162747e-05
922.0, 1.498077241067725e-05
923.0, 5.517299299561749e-05
924.0, 0.00031498876581198976
925.0, 0.0002183948164281788
926.0, 5.3449453762535836e-05
927.0, 3.1791213448631106e-05
928.0, 0.000147472310980057
929.0, 0.0002918732549870252
930.0, 6.0429788742713084e-05
931.0, 0.000206334341814818
932.0, 0.0001337320184085842
933.0, 0.00017720194121573652
934.0, 0.00022352877636833964
935.0, 0.00024349401963438957
936.0, 0.00019455654311161463
937.0, 0.00012481333250176097
938.0, 0.00012291018857114028
939.0, 0.00010156977378283496
940.0, 0.00019820919730656266
941.0, 4.346771373207692e-05
942.0, 0.00015976626780151028
943.0, 0.0001599749504528288
944.0, 0.00011686844739995265
945.0, 5.637965727917743e-05
946.0, 7.294519086725526e-05
947.0, 0.00022929513390418908
948.0, 0.0002819818157434972
949.0, 6.6826680588191625e-06
950.0, 0.0001445648062787899
951.0, 0.00012749983429278074
952.0, 0.00020549266888794939
953.0, 0.0002958477414411742
954.0, 0.000269667006848435
955.0, 0.00020248323110228083
956.0, 0.00017553553425583263
957.0, 0.00010024258225551632
958.0, 3.227656291761354e-05
959.0, 0.0003599440068055595
960.0, 0.0002478008988387213
961.0, 0.0002339741471785853
962.0, 0.00012034412087003064
963.0, 8.108073531092841e-05
964.0, 8.813125763960385e-05
965.0, 0.0001442548988959235
966.0, 0.0003239040229740327
967.0, 0.0004450067290475692
968.0, 0.0003460307168728227
969.0, 0.0002482817779104856
970.0, 0.00023151178231802926
971.0, 0.0002466251126738024
972.0, 0.00024749127988450036
973.0, 0.00032323500821775195
974.0, 0.0002771328368741376
975.0, 0.00010690080225690224
976.0, 0.00016971436812880704
977.0, 0.00028570074593879755
978.0, 0.0005026543452434376
979.0, 0.00025991968615940344
980.0, 7.715368076600322e-05
981.0, 0.00026504212464904337
982.0, 0.00029192401356538833
983.0, 0.00026543232596177115
984.0, 0.00038173389738341957
985.0, 0.0005059034238805357
986.0, 0.0004566419490448743
987.0, 0.0003005141815536644
988.0, 0.00020051344338032566
989.0, 0.0002733086212315514
990.0, 0.000252710167047059
991.0, 0.00023491187328273345
992.0, 0.0001788452230383354
993.0, 0.0002225339056118795
994.0, 0.0002648055340510415
995.0, 0.00022904680088091953
996.0, 0.00044481714554564565
997.0, 0.0002795210948247782
998.0, 0.0003148952500398025
999.0, 0.0003929569099160273
1000.0, 0.0003363675573517178
1001.0, 0.0003265688079385361
1002.0, 0.00024673885491059103
1003.0, 0.00012284592388811733
1004.0, 0.00013096582841118126
1005.0, 0.00029320436171708254
1006.0, 0.00034625784153157743
1007.0, 0.00018356436236980608
1008.0, 0.000309787992168378
1009.0, 0.00021265296943733832
1010.0, 0.0003715475201164551
1011.0, 0.0003604206626347416
1012.0, 0.0003590929276467555
1013.0, 0.0003125355545245812
1014.0, 0.00024367413647256135
1015.0, 0.0003200947257177513
1016.0, 0.00037191433716318934
1017.0, 0.00035045384613875794
1018.0, 0.0002921645268835368
1019.0, 0.00013592149267263584
1020.0, 0.0003058192644162285
1021.0, 0.0003740604344782449
1022.0, 0.00023029091388939132
1023.0, 0.00023962678128146254
1024.0, 0.00025092183544678736
1025.0, 0.0001387409365016092
1026.0, 0.0005147693482643074
1027.0, 0.000532562173011824
1028.0, 0.0003380796147841872
1029.0, 0.0003358233843683374
1030.0, 0.00035907464818611646
1031.0, 0.00019839978190263133
1032.0, 0.00023899534279552987
1033.0, 0.00024626959575465657
1034.0, 0.000260964081482769
1035.0, 0.00039701911680308237
1036.0, 0.00035394349819383467
1037.0, 0.0003864360822040531
1038.0, 0.00039188342356914074
1039.0, 0.0004037311070775401
1040.0, 0.000273427850695177
1041.0, 0.0005259341190617473
1042.0, 0.00027208142471255335
1043.0, 0.0002985214348014776
1044.0, 0.0003618792178123932
1045.0, 0.00018018944291832512
1046.0, 0.0002844880641654874
1047.0, 0.00030804783297828074
1048.0, 0.00028012565482068524
1049.0, 0.000344735421917351
1050.0, 0.0004956013758948619
1051.0, 0.0002268086153569639
1052.0, 0.00031587186947890485
1053.0, 0.00038081282568313624
1054.0, 0.00043380889580442694
1055.0, 0.00041085648141248813
1056.0, 0.00020133115313220723
1057.0, 0.00012874567569870948
1058.0, 0.00028943441573557073
1059.0, 0.0004890362871300518
1060.0, 0.0005186314628801193
1061.0, 0.0003941659855525847
1062.0, 0.00044185286735046284
1063.0, 0.0003303344595164551
1064.0, 0.0002868299692876641
1065.0, 0.00027599485998958123
1066.0, 0.00028211132299793546
1067.0, 0.00038987452091098325
1068.0, 0.00036950091083952114
1069.0, 0.00030064075166158526
1070.0, 0.00010493180964137103
1071.0, 0.00029753179519116104
1072.0, 0.00017650544352762801
1073.0, 0.0004848598209283142
1074.0, 0.0005375345611169905
1075.0, 0.00040197623331183623
1076.0, 0.00031058421497154006
1077.0, 0.0002953284445462713
1078.0, 0.0003187427686456342
1079.0, 0.00028500888517811864
1080.0, 0.00010719219706584669
1081.0, 0.00017115849312943142
1082.0, 0.00027536438759764463
1083.0, 0.0005034726262691456
1084.0, 0.00023769673741074853
1085.0, 0.00012039560871460608
1086.0, 0.00026667619434475446
1087.0, 0.00026222779575318375
1088.0, 0.00014211456401819723
1089.0, 0.0002076884537878139
1090.0, 0.00011565774909546003
1091.0, 0.0002419712300974554
1092.0, 0.00044335760882343884
1093.0, 0.00013892382784133847
1094.0, 0.00014116464449090985
1095.0, 0.00018799966465368777
1096.0, 0.00015200269368058738
1097.0, 0.00011187772945673909
1098.0, 6.1358331643894e-05
1099.0, 0.00012439583965543016
1100.0, 0.00025669357303174516
1101.0, 6.71445072370663e-05
1102.0, 0.0003561626335202012
1103.0, 0.0002358982294261699
1104.0, 0.0002221522609773527
1105.0, 0.00031887947561582265
1106.0, 0.00013468321248788327
1107.0, 0.00019820116490527645
1108.0, 0.0002021176330136938
1109.0, 0.00018279789552174422
1110.0, 0.0003010205588103745
1111.0, 0.00032590463531581386
1112.0, 0.00014356684551981882
1113.0, 0.000304900615572875
1114.0, 0.00022633379969881276
1115.0, 1.4735604210664778e-05
1116.0, 0.00010155410055324283
1117.0, 0.00014641109350207093
1118.0, 0.0002702661810742981
1119.0, 0.0003361642690363033
1120.0, 0.00042951774345529687
1121.0, 0.0005494722729698692
1122.0, 0.0004549037672896039
1123.0, 0.0002516984130776437
1124.0, 0.0004601063595925275
1125.0, 0.00016167491537206796
1126.0, 0.0003017076554767328
1127.0, 0.00033472141894177034
1128.0, 0.0003122341393704964
1129.0, 0.0003937818717545422
1130.0, 0.0002317607981566815
1131.0, 0.00016414978241737122
1132.0, 0.00013945749035830182
1133.0, 0.00017137965906649657
1134.0, 0.00033666924309239924
1135.0, 0.000328316467603463
1136.0, 0.00012945387587376292
1137.0, 0.00012331709142882947
1138.0, 0.0002480016513840076
1139.0, 7.538317919568004e-05
1140.0, 6.157218750239395e-05
1141.0, 9.331194089920282e-05
1142.0, 0.00019401477098349195
1143.0, 0.0002717550667284505
1144.0, 0.0002003628485881625
1145.0, 0.00010596765828871488
1146.0, 9.793835629608385e-05
1147.0, 8.183337708397583e-05
1148.0, 0.00027941767520697585
1149.0, 0.0002622763799386556
1150.0, 0.00018644126856046008
1151.0, 8.233967581997579e-05
1152.0, 2.7276206443599795e-05
1153.0, 2.6702993612702257e-05
1154.0, 2.2662349590032518e-05
1155.0, 4.6448196712399265e-05
1156.0, 8.415094387435453e-05
1157.0, 0.0001269878053218405
1158.0, 0.00014905921421158307
1159.0, 0.0001227089445721728
1160.0, 0.0001893299836577232
1161.0, 0.0001692241864338362
1162.0, 6.230925190692253e-05
1163.0, 8.97893658819776e-05
1164.0, 0.00012169353143869874
1165.0, 3.8516171618835796e-05
1166.0, 1.906831354994732e-05
1167.0, 2.305589116141765e-05
1168.0, 2.802962223183379e-05
1169.0, 2.7585104287351488e-05
1170.0, 1.386596183561374e-05
1171.0, 1.548925801305414e-05
1172.0, 3.9558451126336506e-05
1173.0, 7.085598972464192e-05
1174.0, 8.156024081919623e-05
1175.0, 5.172994560492595e-05
1176.0, 3.553967771556778e-05
1177.0, 0.0001759683357457361
1178.0, 0.0001390979626139199
1179.0, 0.00018555559951831057
1180.0, 0.00017696199094742305
1181.0, 0.00021351752387469952
1182.0, 0.00022536947888560256
1183.0, 0.00011121163601016568
1184.0, 0.0002537689869074588
1185.0, 0.00027640173179668083
1186.0, 0.00015737542467609707
1187.0, 9.645572523789365e-05
1188.0, 0.0001405738953218623
1189.0, 0.00011000700089644986
1190.0, 0.00017798319471742756
1191.0, 0.00010439567425496812
1192.0, 9.224123791364884e-05
1193.0, 0.00011457870316749354
1194.0, 0.00014561003401793125
1195.0, 0.0001984903867631717
1196.0, 0.00024299279767079642
1197.0, 0.0003187746563712372
1198.0, 0.0002781247189649351
1199.0, 0.00027598078117861664
1200.0, 0.00024934932869403727
1201.0, 0.00015896956326939626
1202.0, 0.0002312724454816112
1203.0, 0.0001513612804761205
1204.0, 0.0002859308849469675
1205.0, 0.00029436878898639644
1206.0, 0.00031684482907320916
1207.0, 0.00037746840627644326
1208.0, 0.00035346503235369125
1209.0, 0.00032951419462576997
1210.0, 0.0002945020382585822
1211.0, 0.00028849509844828885
1212.0, 0.00024071575618301615
1213.0, 0.0002626165128952812
1214.0, 0.00018851961666377034
1215.0, 0.0001115101976593297
1216.0, 0.00013598273883710525
1217.0, 0.00011519069842581695
1218.0, 0.00011002461603319295
1219.0, 0.00017989136496862672
1220.0, 0.0002435784962132997
1221.0, 0.00028562820360486133
1222.0, 0.00035964845497807096
1223.0, 0.00042342461056719364
1224.0, 0.00047531381791223744
1225.0, 0.00047056954006276914
1226.0, 0.0004087385445587335
1227.0, 0.0003004290318284392
1228.0, 0.0002938716865504999
1229.0, 0.00033382589928915047
1230.0, 0.0004416438402860079
1231.0, 0.0003494618081173325
1232.0, 0.0003362624140180251
1233.0, 0.0004894195513497574
1234.0, 0.0005065010935949428
1235.0, 0.0003584399697012645
1236.0, 0.0002684524189813875
1237.0, 0.000176498590250477
1238.0, 0.00029391563191070877
1239.0, 0.000358038606800495
1240.0, 0.00034338883127197224
1241.0, 0.0004061285646072848
1242.0, 0.00043194636085872636
1243.0, 0.00041576449224910205
1244.0, 0.0004725212986657255
1245.0, 0.00040251523997235047
1246.0, 0.0003669241632562294
1247.0, 0.0003575913679112139
1248.0, 0.00028328851015215677
1249.0, 0.00023398240968750108
1250.0, 0.0002676799033318741
1251.0, 0.00030389370930965475
1252.0, 0.00040239548198530876
1253.0, 0.00019677122839941715
1254.0, 0.00033834859317561223
1255.0, 0.000479680639210854
1256.0, 0.0002750192176142963
1257.0, 0.0002933112018185789
1258.0, 0.00017551605952383366
1259.0, 0.0002881361521084948
1260.0, 0.00020186585717667558
1261.0, 0.00030746778073812987
1262.0, 0.00044127959800246627
1263.0, 0.00032304595881429645
1264.0, 0.0002878812623442025
1265.0, 0.00023809708061159
1266.0, 0.0002617520060669753
1267.0, 0.00025523753142688124
1268.0, 0.0003203778895412076
1269.0, 0.0003537282489896524
1270.0, 0.0004594320323969217
1271.0, 0.00037669504883485925
1272.0, 0.000396548774429071
1273.0, 0.0003527124160416847
1274.0, 0.00031853912997057007
1275.0, 0.0002674120808317442
1276.0, 0.00023875002292004613
1277.0, 0.00021657144967592257
1278.0, 0.00025895609052914784
1279.0, 0.0003468496053920338
1280.0, 0.0001480894110874365
1281.0, 0.00011501308605876919
1282.0, 0.00032924239737794646
1283.0, 0.0004776912388913439
1284.0, 0.000211720285379765
1285.0, 0.0005391685874417474
1286.0, 0.0002142910929127412
1287.0, 0.00035932408692753007
1288.0, 0.000183803794591243
1289.0, 0.00019249449346083754
1290.0, 0.00037136332554172497
1291.0, 0.0004134941582692623
1292.0, 0.00032136100395097045
1293.0, 0.0002423216032426208
1294.0, 0.0002626784332520247
1295.0, 0.0003244628038041488
1296.0, 0.00017579246449391677
1297.0, 0.0001045652393930372
1298.0, 0.0003581651348201814
1299.0, 0.00026416639615399945
1300.0, 0.00039810461586172943
1301.0, 0.0001733916271302941
1302.0, 0.00032312695371523897
1303.0, 0.0002754461939189149
1304.0, 0.00012447434142384334
1305.0, 0.00027141545097727473
1306.0, 0.00021823532544552453
1307.0, 0.00016359757791303863
1308.0, 0.00031310899326932127
1309.0, 0.0003534127636487568
1310.0, 0.00046063056756342205
1311.0, 0.0004373389279971089
1312.0, 0.00030782591208010856
1313.0, 0.0004128063628964973
1314.0, 0.0002727956930999993
1315.0, 0.0001948237471446079
1316.0, 0.0003109079624294695
1317.0, 0.00014756368149868607
1318.0, 0.00032756545505672357
1319.0, 0.0002297721448357043
1320.0, 0.00028967089953857607
1321.0, 0.0003635104143343371
1322.0, 0.00026068328002084364
1323.0, 0.00021499471659759906
1324.0, 0.00025644662449878744
1325.0, 0.00023248630109010124
1326.0, 0.00029464295053625123
1327.0, 0.0004442202555332647
1328.0, 0.0004424080834157275
1329.0, 0.000139515112926126
1330.0, 0.00024349326020690497
1331.0, 0.00011781644260645245
1332.0, 5.9090285474842345e-05
1333.0, 0.0002337783067407943
1334.0, 0.0003068559534380441
1335.0, 0.00029388267857181417
1336.0, 0.00022928671891779364
1337.0, 0.00014076928396118067
1338.0, 0.00020298390973856674
1339.0, 0.0003692651000675342
1340.0, 0.0004270413837067094
1341.0, 0.00024642116206648586
1342.0, 5.042066128077802e-05
1343.0, 0.00017218958788526553
1344.0, 0.00019068813574493168
1345.0, 8.950217226283602e-05
1346.0, 0.0003137063255870061
1347.0, 0.00037247792001246375
1348.0, 0.00015160389413492847
1349.0, 8.19745783708804e-05
1350.0, 6.173467077061337e-05
1351.0, 2.2328158326127897e-05
1352.0, 3.855919047081515e-05
1353.0, 9.061625853349168e-05
1354.0, 0.00014293726067060047
1355.0, 0.00023767906447287013
1356.0, 0.00034835507180273884
1357.0, 0.00031868858175239503
1358.0, 0.0002478596198094712
1359.0, 0.0002785724208018731
1360.0, 0.000247269394485063
1361.0, 0.0002493666544226151
1362.0, 0.00014121431495496773
1363.0, 0.00026345523852661903
1364.0, 0.00021175570178729936
1365.0, 0.000386637586421036
1366.0, 0.0002023476628693513
1367.0, 0.0003356005291878786
1368.0, 0.00038496836058049105
1369.0, 0.00018740746161170286
1370.0, 0.0001124336621869404
1371.0, 8.67411146027935e-05
1372.0, 7.161939314746704e-05
1373.0, 6.289218354499656e-05
1374.0, 0.00011614920603684026
1375.0, 0.00015648680681304598
1376.0, 0.0001156532503997566
1377.0, 0.0001600137332042386
1378.0, 0.0002523836717852574
1379.0, 0.0001551728426431671
1380.0, 0.0002540676114924852
1381.0, 0.00028819805114404314
1382.0, 0.0003364973793918201
1383.0, 0.00036884338843137495
1384.0, 0.00019556991772569563
1385.0, 0.00015566075930187638
1386.0, 0.00018045415976500472
1387.0, 0.00027860930729399047
1388.0, 0.0001330250667825617
1389.0, 0.00017185817870213083
1390.0, 0.00020021227597288494
1391.0, 0.00025497146675938163
1392.0, 0.0002535616637753582
1393.0, 0.00016617878783628493
1394.0, 9.036971182483858e-05
1395.0, 3.8686574793772754e-05
1396.0, 2.866849029945505e-05
1397.0, 2.9978650935409866e-05
1398.0, 1.3886864228457124e-05
1399.0, 2.235345233591076e-05
1400.0, 2.4584975008004757e-05
1401.0, 5.351057431842968e-05
1402.0, 0.0002772285816093689
1403.0, 2.384698140676056e-05
1404.0, 3.995517221646716e-05
1405.0, 0.00031369609564246294
1406.0, 0.00020327554105080395
1407.0, 0.00041186494529894856
1408.0, 0.0002657252318264557
1409.0, 0.0001629969240841997
1410.0, 0.00012395552036035824
1411.0, 0.00019701402836399623
1412.0, 0.00036459731550312415
1413.0, 0.0003538247128392463
1414.0, 0.0003307441960458414
1415.0, 0.00034531374282052366
1416.0, 9.819012825312266e-05
1417.0, 0.00015831762024157763
1418.0, 0.00018037059396385296
1419.0, 0.00010103649951803071
1420.0, 3.656476322765973e-05
1421.0, 0.00010672551862376339
1422.0, 0.0001649042644806863
1423.0, 0.00018105401494958114
1424.0, 0.00030302751496016824
1425.0, 0.00024501545955973175
1426.0, 5.7063686225864265e-05
1427.0, 0.00019229650811059267
1428.0, 0.0002618147910951997
1429.0, 0.00012535941943955805
1430.0, 0.00021449248581391765
1431.0, 0.00030742092038350897
1432.0, 0.00032635943388871464
1433.0, 0.0002875949696337564
1434.0, 0.00022317749268613364
1435.0, 0.000213920336097346
1436.0, 0.00018244712853056921
1437.0, 0.00016325952752100012
1438.0, 0.0001110103488995805
1439.0, 0.00011726201144805621
1440.0, 0.0002111089562956955
1441.0, 0.0002832366052761297
1442.0, 0.0002819467473404197
1443.0, 0.00029877905809508803
1444.0, 0.0002630035731564202
1445.0, 0.000214815528066882
1446.0, 0.00010868946351819892
1447.0, 2.7851329514306284e-05
1448.0, 1.2511928282506833e-05
1449.0, 0.0001225411393913286
1450.0, 8.967675326357879e-05
1451.0, 9.954770358647534e-05
1452.0, 0.0001244300846627637
1453.0, 0.0001605558193318767
1454.0, 0.00016459011093543675
1455.0, 0.00016368045055731068
1456.0, 0.00019151294276513906
1457.0, 0.0001543598416712005
1458.0, 0.00011877046497136686
1459.0, 0.00014622741784055924
1460.0, 0.00011258077078557299
1461.0, 0.0002211878192303993
1462.0, 0.00018929163022284314
1463.0, 0.00017958775589784447
1464.0, 0.00032279375107223873
1465.0, 0.00023036408398365853
1466.0, 0.0002632101531940641
1467.0, 0.00018564998784644258
1468.0, 0.00019625395329883957
1469.0, 0.00016998796521979227
1470.0, 0.00015211537111884649
1471.0, 0.00011085068354931682
1472.0, 0.0003439686270353706
1473.0, 0.0003553243944905521
1474.0, 0.00041591465144367177
1475.0, 0.00046155628983742545
1476.0, 0.0003235634013387958
1477.0, 0.00027191718350894116
1478.0, 0.00027313397775990554
1479.0, 0.00016248701644153295
1480.0, 0.00017977448489476033
1481.0, 0.00031087092502018354
1482.0, 0.00023725668844487384
1483.0, 0.00016692364391876447
1484.0, 0.00027785214571753806
1485.0, 0.00023162425543785646
1486.0, 0.00014893258388352235
1487.0, 7.222823832424176e-05
1488.0, 5.5802196865403176e-05
1489.0, 4.72866299197262e-05
1490.0, 0.0002734363301135549
1491.0, 0.00016425449738435898
1492.0, 0.000296496159419466
1493.0, 0.00017834112724061677
1494.0, 3.316607510820982e-05
1495.0, 0.00011490580381548478
1496.0, 4.092480968469696e-05
1497.0, 0.0001686936584525972
1498.0, 0.00018729762649190944
1499.0, 0.00020816379999512053
1500.0, 0.0003634323739092662
1501.0, 0.0004194144221618916
1502.0, 0.00035973386244501
1503.0, 0.00022183502741630415
1504.0, 7.206032982913298e-05
1505.0, 0.00015642720866634389
1506.0, 0.00021920802311743243
1507.0, 5.903438350977102e-05
1508.0, 0.00013009426910678338
1509.0, 0.00013301948379675264
1510.0, 0.00029980592941198064
1511.0, 0.00013939254676275124
1512.0, 0.0001061509028757264
1513.0, 0.0002438437517063532
1514.0, 0.00031753534065096683
1515.0, 0.0003088756775825814
1516.0, 0.00026622115045041506
1517.0, 0.00036306958124170775
1518.0, 0.0002877807262255582
1519.0, 0.00032680130593504573
1520.0, 0.000274095800441641
1521.0, 0.0003053628572915003
1522.0, 0.00019383346490409775
1523.0, 0.00014851297337289333
1524.0, 0.00019203604679408957
1525.0, 9.549534701798346e-05
1526.0, 0.00012788810860755716
1527.0, 0.00011188941682654726
1528.0, 0.0003243754302896262
1529.0, 0.00030606611454096766
1530.0, 0.0003228532451523918
1531.0, 0.00038978624635755847
1532.0, 0.00019854194921794358
1533.0, 0.00010483476160035691
1534.0, 7.30016509928114e-05
1535.0, 0.00010201700876782826
1536.0, 0.0002063078123773186
1537.0, 0.0001792985197361362
1538.0, 0.00024156137662689888
1539.0, 0.0003136010526499073
1540.0, 0.00011098806803876389
1541.0, 0.00014277665006080085
1542.0, 0.0002506537730593989
1543.0, 8.865412076083487e-05
1544.0, 0.00012884515217171153
1545.0, 3.3139791026447587e-06
1546.0, 0.0002612362435908114
1547.0, 0.00020237371592889532
1548.0, 0.00021239744529808326
1549.0, 0.00012691911786956407
1550.0, 0.00025440797672607844
1551.0, 0.00016647990277140497
1552.0, 0.00012537316707363853
1553.0, 0.00035569649918397916
1554.0, 0.00038076974185276323
1555.0, 0.00045311481695148765
1556.0, 0.00019920039443152262
1557.0, 0.00021533811523637733
1558.0, 0.0002423447820910712
1559.0, 0.00015535998655425782
1560.0, 0.00018360220576591922
1561.0, 0.00020410958260165638
1562.0, 0.0001547906583901514
1563.0, 0.0001296130755523281
1564.0, 0.00010031162532452176
1565.0, 7.387597624956546e-05
1566.0, 7.10969096430855e-05
1567.0, 6.465598284391598e-05
1568.0, 0.0001304551727097438
1569.0, 0.00012287807824806283
1570.0, 9.094609875757811e-07
1571, 0.0
1572, 0.0
1573, 0.0
1574, 0.0
1575, 0.0
1576, 0.0
1577, 0.0
1578, 0.0
1579, 0.0
1580, 0.0
1581, 0.0
1582, 0.0
1583, 0.0
1584, 0.0
1585, 0.0
1586, 0.0
1587, 0.0
1588, 0.0
1589, 0.0
1590, 0.0
1591, 0.0
1592, 0.0
1593, 0.0
1594, 0.0
1595, 0.0
1596, 0.0
1597, 0.0
1598, 0.0
1599, 0.0
