30, 0.0
31, 0.0
32, 0.0
33, 0.0
34, 0.0
35, 0.0
36, 0.0
37, 0.0
38, 0.0
39, 0.0
40, 0.0
41, 0.0
42, 0.0
43, 0.0
44, 0.0
45, 0.0
46, 0.0
47, 0.0
48, 0.0
49, 0.0
50, 0.0
51, 0.0
52, 0.0
53, 0.0
54, 0.0
55, 0.0
56, 0.0
57, 0.0
58, 0.0
59, 0.0
60, 0.0
61, 0.0
62, 0.0
63, 0.0
64, 0.0
65, 0.0
66, 0.0
67, 0.0
68, 0.0
69, 0.0
70, 0.0
71, 0.0
72, 0.0
73, 0.0
74, 0.0
75, 0.0
76, 0.0
77, 0.0
78, 0.0
79, 0.0
80, 0.0
81, 0.0
82, 0.0
83, 0.0
84, 0.0
85, 0.0
86, 0.0
87, 0.0
88, 0.0
89, 0.0
90, 0.0
91, 0.0
92, 0.0
93, 0.0
94, 0.0
95, 0.0
96, 0.0
97, 0.0
98, 0.0
99, 0.0
100, 0.0
101, 0.0
102, 0.0
103, 0.0
104, 0.0
105, 0.0
106, 0.0
107, 0.0
108, 0.0
109, 0.0
110, 0.0
111, 0.0
112, 0.0
113, 0.0
114, 0.0
115, 0.0
116, 0.0
117, 0.0
118, 0.0
119, 0.0
120, 0.0
121, 0.0
122, 0.0
123, 0.0
124, 0.0
125, 0.0
126, 0.0
127, 0.0
128, 0.0
129.0, 2.3629587004757512e-05
130.0, 0.0038936808492633125
131.0, 0.01498623090995167
132.0, 0.014374484020048858
133.0, 0.012916193140575493
134.0, 0.012860341596323394
135.0, 0.02039997968131333
136.0, 0.02337648506411264
137.0, 0.02660298277153664
138.0, 0.032023646765401474
139.0, 0.038114076812002434
140.0, 0.04061032553528794
141.0, 0.04165616784758928
142.0, 0.045017701387305153
143.0, 0.04661924854189034
144.0, 0.04774520111093586
145.0, 0.04860017683637465
146.0, 0.04839153146533559
147.0, 0.04957137429388491
148.0, 0.051037830170758504
149.0, 0.05168621663643777
150.0, 0.05218036982780026
151.0, 0.05271624844673739
152.0, 0.05292317783502894
153.0, 0.05077653814668701
154.0, 0.049900016934972084
155.0, 0.04943110470123645
156.0, 0.04894664020898077
157.0, 0.03832543552013185
158.0, 0.03252310057890895
159.0, 0.02916765777161237
160.0, 0.022276526621001526
161.0, 0.01720979244624991
162.0, 0.013397394256995604
163.0, 0.01050276719628038
164.0, 0.004546810884622797
165.0, 0.001943761238884807
166.0, 0.0010448848233649067
167.0, 0.0003306449938733172
168.0, 0.000445503166712287
169.0, 0.0018269474057668504
170.0, 0.0035707329050025825
171.0, 0.0008038620519462813
172.0, 0.00034483379852777744
173.0, 0.0020456435459619473
174.0, 0.006121511135182037
175.0, 0.009313761283284839
176.0, 0.010836765108450648
177.0, 0.012184993587147277
178.0, 0.016665353661781828
179.0, 0.018462889724644375
180.0, 0.01901688151254052
181.0, 0.01908233975407433
182.0, 0.02364312550390382
183.0, 0.028238021491938964
184.0, 0.032396111889395396
185.0, 0.03557661476535003
186.0, 0.03919841692955174
187.0, 0.04134441360700164
188.0, 0.04305335276957501
189.0, 0.04844484546033643
190.0, 0.047349042738254146
191.0, 0.04623220818597003
192.0, 0.04750832691474655
193.0, 0.049253199420020335
194.0, 0.051556890111370435
195.0, 0.052879915299396583
196.0, 0.05082118644877315
197.0, 0.054594077501450206
198.0, 0.05906603429902001
199.0, 0.06278739866172509
200.0, 0.06173292665611987
201.0, 0.06467858993235308
202.0, 0.0700014893507386
203.0, 0.07712830427676405
204.0, 0.08599643587785526
205.0, 0.09201764374977241
206.0, 0.09916582363377313
207.0, 0.11495712119364268
208.0, 0.12375122459642443
209.0, 0.13616014550808858
210.0, 0.15281525341903338
211.0, 0.16530541384227682
212.0, 0.17893382968799112
213.0, 0.19220230520975742
214.0, 0.20412789763485498
215.0, 0.20772198723626878
216.0, 0.21257629981412926
217.0, 0.21651715130709945
218.0, 0.21458268443004053
219.0, 0.21382087559101984
220.0, 0.21106203651012106
221.0, 0.2054569254300743
222.0, 0.19570046963659218
223.0, 0.1860722441652006
224.0, 0.17882338658712763
225.0, 0.17575767757206723
226.0, 0.16260644598425852
227.0, 0.15792587379848494
228.0, 0.15786017039439007
229.0, 0.1547706352281175
230.0, 0.15159889002877447
231.0, 0.15236605895697486
232.0, 0.15643591659941092
233.0, 0.15394729737994597
234.0, 0.15846488297323028
235.0, 0.1623816409382321
236.0, 0.16106088774892757
237.0, 0.1724467176639942
238.0, 0.17521644051971833
239.0, 0.17321370021512694
240.0, 0.17264359829546735
241.0, 0.17388231949536656
242.0, 0.16971796497001596
243.0, 0.16195649990832692
244.0, 0.16637658871331845
245.0, 0.15339929592369472
246.0, 0.13951582659179348
247.0, 0.1324233439147787
248.0, 0.11670252320983705
249.0, 0.10655664949300958
250.0, 0.09716520161942521
251.0, 0.08199454854602245
252.0, 0.07498289732952262
253.0, 0.06602950621559989
254.0, 0.05590885110696172
255.0, 0.05156715808010312
256.0, 0.045769245147767354
257.0, 0.04141247976353643
258.0, 0.039403001551683206
259.0, 0.036690724804438565
260.0, 0.03685400375252969
261.0, 0.037572452483683724
262.0, 0.03677194413471732
263.0, 0.03748740388228986
264.0, 0.03895876566322818
265.0, 0.04096441621885383
266.0, 0.043152014325061765
267.0, 0.04502223532688912
268.0, 0.04868659107465069
269.0, 0.05340115219697861
270.0, 0.05095741107501591
271.0, 0.055160699875241775
272.0, 0.05987451339945643
273.0, 0.0617886762782189
274.0, 0.06434808887349273
275.0, 0.06163892186526929
276.0, 0.056397130966250125
277.0, 0.05203013299486265
278.0, 0.048562293521174554
279.0, 0.04199140480490513
280.0, 0.034061617994949875
281.0, 0.03175196575713071
282.0, 0.026686816814883343
283.0, 0.022192441712634306
284.0, 0.018835872695539047
285.0, 0.012357398176721426
286.0, 0.008989328616638786
287.0, 0.005913992364093519
288.0, 0.0012158991756150072
289.0, 0.0031706793489216347
290.0, 0.002673234870363082
291.0, 0.001550473945669288
292.0, 0.0027817352619890455
293.0, 0.002693056822336569
294.0, 0.005035143540270804
295.0, 0.008969619034321771
296.0, 0.009963053552904942
297.0, 0.009509490953996929
298.0, 0.009432010807995342
299.0, 0.010297532405025154
300.0, 0.011844469963923899
301.0, 0.011284627254744212
302.0, 0.010356896795320708
303.0, 0.010206718282967842
304.0, 0.010281980908711678
305.0, 0.009236617683081955
306.0, 0.008817466627374426
307.0, 0.011716489344888082
308.0, 0.013079402786283412
309.0, 0.016095045096699654
310.0, 0.01981691495778921
311.0, 0.02039712081589959
312.0, 0.018763808981109412
313.0, 0.017378331832962952
314.0, 0.016586856994673934
315.0, 0.01430289292474424
316.0, 0.010964564815554753
317.0, 0.008308050239732337
318.0, 0.007275605698457872
319.0, 0.0067940582836235365
320.0, 0.007046246287965821
321.0, 0.008252336859375785
322.0, 0.010766075528625315
323.0, 0.013182324347390306
324.0, 0.017433847661602712
325.0, 0.022849853526746386
326.0, 0.02798118008581152
327.0, 0.033979065626706155
328.0, 0.04015022137961302
329.0, 0.04626911334051161
330.0, 0.05186525051949996
331.0, 0.05746080134549479
332.0, 0.06397387789144207
333.0, 0.07157395590186554
334.0, 0.07868587047863526
335.0, 0.08196028901810432
336.0, 0.08571925606522286
337.0, 0.09243753867417673
338.0, 0.0906553842806806
339.0, 0.09703957264725493
340.0, 0.10515592157955364
341.0, 0.10781234306154854
342.0, 0.10051839960541055
343.0, 0.10292623310308732
344.0, 0.11029259423186553
345.0, 0.1113440629663693
346.0, 0.10918159838358317
347.0, 0.11178813574195638
348.0, 0.11750487851325575
349.0, 0.11604673199908103
350.0, 0.11996598026123607
351.0, 0.12425390474293906
352.0, 0.12785926304485037
353.0, 0.13347774079481733
354.0, 0.14121712849177867
355.0, 0.15122477747196678
356.0, 0.16333645705767533
357.0, 0.17074397168469096
358.0, 0.17815421141363566
359.0, 0.18718606290049833
360.0, 0.19932175378872377
361.0, 0.20608079466763177
362.0, 0.21489202028821153
363.0, 0.22514286417449594
364.0, 0.23600684524844429
365.0, 0.2507081647836377
366.0, 0.26766336895011933
367.0, 0.28592585634521384
368.0, 0.3037862699847383
369.0, 0.32829842765063355
370.0, 0.3527469019729747
371.0, 0.37654499481206966
372.0, 0.4015107777398584
373.0, 0.4233519225237838
374.0, 0.435122010075236
375.0, 0.4376952543497694
376.0, 0.44939773585366727
377.0, 0.45306197926448927
378.0, 0.44535760960265103
379.0, 0.42454723071817907
380.0, 0.39360159579244886
381.0, 0.36711528969907037
382.0, 0.34267801695469147
383.0, 0.31892652712880626
384.0, 0.29978385941133956
385.0, 0.27871182040971915
386.0, 0.2610343655213426
387.0, 0.25229576463030284
388.0, 0.23140397377532987
389.0, 0.21723771915250614
390.0, 0.20727402921632024
391.0, 0.19748157717691706
392.0, 0.18684938637347315
393.0, 0.17684713842148456
394.0, 0.1686686112860153
395.0, 0.16476131629286528
396.0, 0.15671227424079268
397.0, 0.15119348061449944
398.0, 0.14711685362849697
399.0, 0.13845345038999252
400.0, 0.1244766391402506
401.0, 0.11684317269189608
402.0, 0.11547181297294115
403.0, 0.10909589325482308
404.0, 0.10341443128285506
405.0, 0.09913241927426837
406.0, 0.09639869152664061
407.0, 0.09458570361692706
408.0, 0.09281054101376876
409.0, 0.08762077634010111
410.0, 0.07876208490507233
411.0, 0.07961535915295362
412.0, 0.07579419778899354
413.0, 0.07338509534643393
414.0, 0.07498723420844648
415.0, 0.06366648011190455
416.0, 0.060777199021145166
417.0, 0.060451835742007506
418.0, 0.058504148593384375
419.0, 0.058986265428206855
420.0, 0.05889126041856954
421.0, 0.055405028593396105
422.0, 0.04565457981733886
423.0, 0.05106739415122377
424.0, 0.05012967349639275
425.0, 0.04781333440312697
426.0, 0.050543493337485014
427.0, 0.044529996727850386
428.0, 0.04571269298304029
429.0, 0.0495507550535925
430.0, 0.04818853429180005
431.0, 0.04914515579260029
432.0, 0.04972578181607526
433.0, 0.05056452333906867
434.0, 0.05325928889997983
435.0, 0.05263911299715692
436.0, 0.05413553405978625
437.0, 0.05596654191972407
438.0, 0.052754203236324265
439.0, 0.0536560565648699
440.0, 0.055675113345137424
441.0, 0.056754270171335525
442.0, 0.05239983273906149
443.0, 0.05099097146380169
444.0, 0.04845856823182284
445.0, 0.04627963612630099
446.0, 0.05155774223439923
447.0, 0.048990911447052914
448.0, 0.046250552678633705
449.0, 0.0443985377707929
450.0, 0.04132546826525004
451.0, 0.03910975268478682
452.0, 0.03692825324618756
453.0, 0.03478295878457816
454.0, 0.03356939454867961
455.0, 0.032584479290906784
456.0, 0.03163369763995
457.0, 0.030897108849933866
458.0, 0.03152527588599951
459.0, 0.0306563218251682
460.0, 0.029214890242799548
461.0, 0.02772727597803444
462.0, 0.02751487744876126
463.0, 0.025426654311654605
464.0, 0.022958723680463967
465.0, 0.02162651396872433
466.0, 0.02750427714451422
467.0, 0.02735023221568535
468.0, 0.02618317283356038
469.0, 0.026261866257391124
470.0, 0.030163050059818675
471.0, 0.03040488724149317
472.0, 0.029883563552918692
473.0, 0.029996543009749927
474.0, 0.032573672553939
475.0, 0.036748309266368996
476.0, 0.03867575899332079
477.0, 0.038037908628712605
478.0, 0.04445185185591242
479.0, 0.040699847409587125
480.0, 0.04077787163989249
481.0, 0.04871534188147489
482.0, 0.049484391847477126
483.0, 0.04948454465408739
484.0, 0.05647657969332292
485.0, 0.07117408819792406
486.0, 0.07305472152784014
487.0, 0.07148909907361732
488.0, 0.07507667989325723
489.0, 0.08527770003870651
490.0, 0.08555563616759355
491.0, 0.0887764840683347
492.0, 0.09414308202490854
493.0, 0.0997591510345148
494.0, 0.09448326086979711
495.0, 0.09608041685338889
496.0, 0.09766255819936864
497.0, 0.09728409765991254
498.0, 0.10017022378005573
499.0, 0.10128095310917859
500.0, 0.10322757702175242
501.0, 0.10603031928653812
502.0, 0.10387813072966233
503.0, 0.10340780873925358
504.0, 0.10149426146699186
505.0, 0.09739512637517726
506.0, 0.0931285820071928
507.0, 0.09006737437384932
508.0, 0.08596797897846221
509.0, 0.08068246309492036
510.0, 0.07699926634888211
511.0, 0.07319961840682647
512.0, 0.0707631035099338
513.0, 0.07014041258256802
514.0, 0.07141973641325813
515.0, 0.06176474113982394
516.0, 0.05798361628733916
517.0, 0.060114108240187654
518.0, 0.05268496868670954
519.0, 0.049993827160203806
520.0, 0.05486722935959056
521.0, 0.06249897514871093
522.0, 0.05574531311450681
523.0, 0.05692162570054368
524.0, 0.0640788900760451
525.0, 0.07433320965493449
526.0, 0.08098612206435059
527.0, 0.08136102066377975
528.0, 0.08613147955513367
529.0, 0.09554673134573195
530.0, 0.10673902565925876
531.0, 0.11089421582788232
532.0, 0.11716210215833679
533.0, 0.12277471455024083
534.0, 0.12056698492424311
535.0, 0.1268525121482163
536.0, 0.12786177967963652
537.0, 0.12690328664817985
538.0, 0.1307345541001244
539.0, 0.1325855822308591
540.0, 0.13105245876965704
541.0, 0.12696432828258952
542.0, 0.12143702041004827
543.0, 0.1295432715595795
544.0, 0.12583508702750845
545.0, 0.11934440231822292
546.0, 0.11961442929748997
547.0, 0.11926884578677034
548.0, 0.11606277236159074
549.0, 0.11376116801320743
550.0, 0.1150079319417085
551.0, 0.11071430547252618
552.0, 0.11311766512775782
553.0, 0.115567295553634
554.0, 0.11403091993017689
555.0, 0.11066963546784062
556.0, 0.1077145212451017
557.0, 0.10492467661581907
558.0, 0.10204505257411553
559.0, 0.09809540808119772
560.0, 0.0958507951063186
561.0, 0.09061173810404347
562.0, 0.08248740340886221
563.0, 0.08022444104394327
564.0, 0.07532088085577253
565.0, 0.07242237520062758
566.0, 0.0709337700969703
567.0, 0.06476315208310686
568.0, 0.06430938561767938
569.0, 0.06200611027636525
570.0, 0.05625758942215985
571.0, 0.04646599110518716
572.0, 0.04785715021574542
573.0, 0.04562574191844993
574.0, 0.0407802602766666
575.0, 0.03788618791826163
576.0, 0.03301694832352579
577.0, 0.03169516267565733
578.0, 0.030672985434079817
579.0, 0.02566314672373333
580.0, 0.02060579320282325
581.0, 0.02238474606851407
582.0, 0.025975752274384978
583.0, 0.026802097383940477
584.0, 0.02335338262773218
585.0, 0.023074338540830446
586.0, 0.021408997879842025
587.0, 0.016246647808171918
588.0, 0.013826940009911606
589.0, 0.0133259303829731
590.0, 0.013097817351574885
591.0, 0.01287806968498571
592.0, 0.01478926455689309
593.0, 0.013816711679856786
594.0, 0.013420927447066936
595.0, 0.013749901133830475
596.0, 0.012315658061571803
597.0, 0.011780596930747315
598.0, 0.010278671773314672
599.0, 0.008621862008249303
600.0, 0.009086944389039016
601.0, 0.006570543916025533
602.0, 0.007201936860542962
603.0, 0.00957579337180332
604.0, 0.01117277766269657
605.0, 0.010414086721854246
606.0, 0.011240508696313413
607.0, 0.012527825370740167
608.0, 0.013220488982019014
609.0, 0.013175088867956935
610.0, 0.01474056969242552
611.0, 0.016358551453483167
612.0, 0.01675711839697445
613.0, 0.013118982958871744
614.0, 0.01645211940383437
615.0, 0.01780418236913551
616.0, 0.015675702021723557
617.0, 0.01638084201481117
618.0, 0.017840896141522795
619.0, 0.016766394082895535
620.0, 0.015533796996406718
621.0, 0.021022621517899458
622.0, 0.01707451120416651
623.0, 0.014386449928393349
624.0, 0.014414644853357615
625.0, 0.017722927417247847
626.0, 0.015392995093543678
627.0, 0.015206414495402207
628.0, 0.016264359859214737
629.0, 0.01743427353945917
630.0, 0.014864775739082209
631.0, 0.012702138177059735
632.0, 0.010124749014307464
633.0, 0.007717617744243627
634.0, 0.011319961509094728
635.0, 0.0088563663290441
636.0, 0.007333193080609631
637.0, 0.0076879436851397245
638.0, 0.00671810185811558
639.0, 0.005796090695689624
640.0, 0.005878780937000871
641.0, 0.0074320419191622146
642.0, 0.010980964505032036
643.0, 0.010805394631932523
644.0, 0.012710457285740287
645.0, 0.012665854526706644
646.0, 0.007149227788061903
647.0, 0.00898827660148489
648.0, 0.01168961143283235
649.0, 0.01263546325339337
650.0, 0.010101761966441334
651.0, 0.0024017477274397053
652.0, 0.0022173117001824724
653.0, 0.0034322973669115415
654.0, 0.005013781970083189
655.0, 0.0093470437119275
656.0, 0.014863771038385012
657.0, 0.023055276327483505
658.0, 0.03051043506899741
659.0, 0.03156930800793706
660.0, 0.042338258965187545
661.0, 0.04861308015103153
662.0, 0.051079598530142475
663.0, 0.051534045539248195
664.0, 0.06068550846905667
665.0, 0.06368962066481348
666.0, 0.06437910441529635
667.0, 0.06460879895012753
668.0, 0.06450543628932137
669.0, 0.06167543469497496
670.0, 0.06180078418242057
671.0, 0.06299736486918717
672.0, 0.05803889916170976
673.0, 0.06030808778110172
674.0, 0.05512865128833633
675.0, 0.047564597033153376
676.0, 0.04488377858647328
677.0, 0.04278049088840618
678.0, 0.04138339203085674
679.0, 0.04028380349770842
680.0, 0.039824609708670425
681.0, 0.044108717637332914
682.0, 0.04285128498766434
683.0, 0.04006120696850529
684.0, 0.038482715814981146
685.0, 0.04243080863740005
686.0, 0.041432352313679914
687.0, 0.044332794500035425
688.0, 0.047425361467253076
689.0, 0.04441110958568454
690.0, 0.045367991945209726
691.0, 0.05261350304972549
692.0, 0.05682504672308261
693.0, 0.05397608789593275
694.0, 0.06349533362336728
695.0, 0.06559981839941799
696.0, 0.07121217212989081
697.0, 0.0804553333650633
698.0, 0.08312052163575964
699.0, 0.0906773387814424
700.0, 0.09673134309600324
701.0, 0.10500473013401808
702.0, 0.12136545729122274
703.0, 0.1275464765915793
704.0, 0.13767453870049962
705.0, 0.1497059690985783
706.0, 0.1616821340095552
707.0, 0.17006951666305994
708.0, 0.1901100849473174
709.0, 0.2093345306093054
710.0, 0.22590978730837824
711.0, 0.24492970670623418
712.0, 0.25974532146509
713.0, 0.27941796947132624
714.0, 0.3033787806983457
715.0, 0.3292865351577536
716.0, 0.34266018866480563
717.0, 0.37956945757645566
718.0, 0.4107848221635372
719.0, 0.4270112382755925
720.0, 0.466072727716114
721.0, 0.49828087880240085
722.0, 0.5322581278685798
723.0, 0.5660928754445052
724.0, 0.5919523934292523
725.0, 0.619651019000611
726.0, 0.6439104847835353
727.0, 0.6573201035502279
728.0, 0.6543528648654866
729.0, 0.6426035724714642
730.0, 0.6292890104135862
731.0, 0.6002911847422763
732.0, 0.560652864363328
733.0, 0.5462056027792715
734.0, 0.5043960991435696
735.0, 0.46340898518816315
736.0, 0.4328364209057417
737.0, 0.41959663660940744
738.0, 0.40135977513368853
739.0, 0.38560209468437845
740.0, 0.37459928670048753
741.0, 0.36941782149227353
742.0, 0.3689303862825299
743.0, 0.363760691425057
744.0, 0.36187832020543753
745.0, 0.3630319355065503
746.0, 0.3629908596863505
747.0, 0.3672269375615282
748.0, 0.37494304562865693
749.0, 0.38277832696461295
750.0, 0.38843966398234414
751.0, 0.3969239831484456
752.0, 0.40754114830050997
753.0, 0.4167625269568759
754.0, 0.425916563032361
755.0, 0.44165796504699883
756.0, 0.45465467082556493
757.0, 0.46585455720202323
758.0, 0.47597825225467527
759.0, 0.4858039468691593
760.0, 0.49609710024605136
761.0, 0.5094230278442021
762.0, 0.5194442224330766
763.0, 0.5275508115328584
764.0, 0.5477697980103637
765.0, 0.5688780149744473
766.0, 0.5756111496282776
767.0, 0.5787102896078767
768.0, 0.5934852614622272
769.0, 0.5928665492754053
770.0, 0.5937199899490111
771.0, 0.5984654786999145
772.0, 0.6067814725799283
773.0, 0.612612396891672
774.0, 0.6232444193487393
775.0, 0.640112105893511
776.0, 0.6614401400893597
777.0, 0.684139810423679
778.0, 0.7053716694369133
779.0, 0.7309486985818423
780.0, 0.7607868813120808
781.0, 0.7972937571791315
782.0, 0.851808297267054
783.0, 0.8869153932495163
784.0, 0.9167770823014588
785.0, 0.9409920395876855
786.0, 0.9559055753193622
787.0, 0.9831320992122153
788.0, 0.9959032763491137
789.0, 0.9992798268886625
790.0, 0.9970258018234937
791.0, 0.9914066705977713
792.0, 0.9827558163546931
793.0, 0.9698598118441593
794.0, 0.9434810542364224
795.0, 0.8928249566500392
796.0, 0.8876117555084369
797.0, 0.8502437307963926
798.0, 0.8060010096875679
799.0, 0.7737788418969658
800.0, 0.7718480518701513
801.0, 0.7481209766048389
802.0, 0.7258970501506803
803.0, 0.7133557093172541
804.0, 0.7154539263691578
805.0, 0.7180948059868651
806.0, 0.7156399094255895
807.0, 0.7212261164506936
808.0, 0.7366124490796052
809.0, 0.7459177717031091
810.0, 0.753871723159127
811.0, 0.7570392734738058
812.0, 0.7559301518145893
813.0, 0.751259127944408
814.0, 0.7338585921051871
815.0, 0.7232272426055864
816.0, 0.706176615209763
817.0, 0.6789426044681264
818.0, 0.6458146468375194
819.0, 0.5950071342473979
820.0, 0.5575157316264616
821.0, 0.5222940634600353
822.0, 0.47805388240763086
823.0, 0.43789839549810283
824.0, 0.39693093056240236
825.0, 0.35869087247205705
826.0, 0.3224923342082461
827.0, 0.28469861617554826
828.0, 0.2605086677514645
829.0, 0.23826803758265852
830.0, 0.21768918844115911
831.0, 0.19976119001058124
832.0, 0.1900043101398893
833.0, 0.17865429817067272
834.0, 0.1687122230325628
835.0, 0.15882234080945246
836.0, 0.14620020108694673
837.0, 0.1336247409553295
838.0, 0.12804555193694514
839.0, 0.1245214135139619
840.0, 0.11818003155099899
841.0, 0.10148200341685543
842.0, 0.0901244794661598
843.0, 0.08233302368009185
844.0, 0.07416121694340234
845.0, 0.06260002963070403
846.0, 0.05600141142160531
847.0, 0.04569677506657884
848.0, 0.03763695524945876
849.0, 0.031778125774458314
850.0, 0.02411383566283082
851.0, 0.020222603989418938
852.0, 0.012870461553813186
853.0, 0.007303385550124204
854.0, 0.0057028542397149756
855.0, 0.0012859491885689142
856.0, 0.0003927991935542523
857.0, 0.0018719062914748594
858.0, 0.0037157604903347344
859.0, 0.0037791515188996894
860.0, 0.004611522082719175
861.0, 0.005566925648233984
862.0, 0.005703512613847033
863.0, 0.005508867387355312
864.0, 0.007040409149520849
865.0, 0.007962667503059847
866.0, 0.008467008469228881
867.0, 0.00842397855090347
868.0, 0.007751051120383259
869.0, 0.006435289411249986
870.0, 0.007857806629011078
871.0, 0.009217369008254329
872.0, 0.009068127034170594
873.0, 0.006705494516301676
874.0, 0.010301952429581708
875.0, 0.0071845997433660535
876.0, 0.006306717892795586
877.0, 0.00859578052030369
878.0, 0.007445619737688721
879.0, 0.008761436775466277
880.0, 0.008498771488989856
881.0, 0.007534445955868556
882.0, 0.006667406629046929
883.0, 0.005821400247349562
884.0, 0.0052633367271910534
885.0, 0.0036371801963614617
886.0, 0.0020397365756225443
887.0, 0.001919359195859087
888.0, 0.0012396347618538854
889.0, 0.0021375486090016117
890.0, 0.004324370197086545
891.0, 0.006680344465120092
892.0, 0.0071930714106217064
893.0, 0.0077512595406602994
894.0, 0.00877631800309943
895.0, 0.009601668362933524
896.0, 0.010560914214385597
897.0, 0.014335827989008327
898.0, 0.014345533496817492
899.0, 0.015758295030604445
900.0, 0.017938485611891385
901.0, 0.019435108749741702
902.0, 0.01835660517896879
903.0, 0.02293491516044294
904.0, 0.02481660527335344
905.0, 0.02457857575145856
906.0, 0.026153851131523964
907.0, 0.03020990981375455
908.0, 0.03232588648557689
909.0, 0.0338047837178035
910.0, 0.03555214579922015
911.0, 0.038338847308840955
912.0, 0.0391215140792451
913.0, 0.042247753697440125
914.0, 0.04606549441575224
915.0, 0.04866418105852403
916.0, 0.04740449294423517
917.0, 0.04714975751078439
918.0, 0.04800075268108642
919.0, 0.049246106472645
920.0, 0.050437472757023816
921.0, 0.053523359874974356
922.0, 0.05369753281269999
923.0, 0.05744001297229096
924.0, 0.06264321002883654
925.0, 0.06450981014109017
926.0, 0.06551053742939723
927.0, 0.06702697075608972
928.0, 0.06955592339505683
929.0, 0.07302467610597062
930.0, 0.07690223509893883
931.0, 0.07367051929732274
932.0, 0.07794123724123149
933.0, 0.08343107243287093
934.0, 0.08569265639210433
935.0, 0.0821711122902206
936.0, 0.09079264578943269
937.0, 0.09090906533412718
938.0, 0.09177381305976214
939.0, 0.09918776694660861
940.0, 0.10416821911349866
941.0, 0.10442152640285016
942.0, 0.10810749010274857
943.0, 0.1114707141725878
944.0, 0.11099408784620933
945.0, 0.1152031056314675
946.0, 0.11984083638668641
947.0, 0.1257771280518605
948.0, 0.1304206333023513
949.0, 0.1308430200498473
950.0, 0.13367507766239564
951.0, 0.1343755618797207
952.0, 0.1351214791929541
953.0, 0.13717130237737735
954.0, 0.14124413850155562
955.0, 0.14264989798215802
956.0, 0.14506862336715048
957.0, 0.14683755983294153
958.0, 0.14723956998222354
959.0, 0.1462996206878959
960.0, 0.14732265031246178
961.0, 0.14854884570936475
962.0, 0.14868746056117466
963.0, 0.1485437329194736
964.0, 0.15206646054275774
965.0, 0.1526740288785463
966.0, 0.15733544578823963
967.0, 0.15891912490034038
968.0, 0.15493670087240685
969.0, 0.15377587492038294
970.0, 0.15943441399358424
971.0, 0.1598676609261534
972.0, 0.15970686354155006
973.0, 0.16151674382213838
974.0, 0.15622043840901062
975.0, 0.15864525162215395
976.0, 0.16122926365496892
977.0, 0.16195994462342136
978.0, 0.16173135399865962
979.0, 0.17067904450244656
980.0, 0.16966955539368783
981.0, 0.16997503301800154
982.0, 0.16900725704836575
983.0, 0.16413963733952516
984.0, 0.1706848543109322
985.0, 0.16734705105341305
986.0, 0.16744117658887278
987.0, 0.1685237143889321
988.0, 0.165112024665718
989.0, 0.16523327556804718
990.0, 0.16683918793687438
991.0, 0.16726520833601147
992.0, 0.16711324827169738
993.0, 0.16791237911251514
994.0, 0.16766722590040473
995.0, 0.16721154037410185
996.0, 0.16426102921742736
997.0, 0.16109986651583225
998.0, 0.1615277130925647
999.0, 0.1597421469238532
1000.0, 0.16029625263927275
1001.0, 0.1609600143789092
1002.0, 0.16153807634609754
1003.0, 0.16261951502158997
1004.0, 0.1604825906560926
1005.0, 0.1609653473184676
1006.0, 0.16149227059120663
1007.0, 0.1615072654496497
1008.0, 0.16163218795288709
1009.0, 0.16354455262699477
1010.0, 0.16008060015628542
1011.0, 0.15992150726999443
1012.0, 0.16446852330323725
1013.0, 0.17024251506083882
1014.0, 0.16566560828116425
1015.0, 0.1709053756637074
1016.0, 0.1704370971550478
1017.0, 0.16827938400227102
1018.0, 0.17944895350834972
1019.0, 0.1763491563442933
1020.0, 0.18011007161980297
1021.0, 0.18498556679316716
1022.0, 0.1887045623604956
1023.0, 0.1911455195189763
1024.0, 0.19296088471242784
1025.0, 0.19608700785096803
1026.0, 0.1981017707041745
1027.0, 0.20161290682208421
1028.0, 0.21119929600837628
1029.0, 0.2087065182732879
1030.0, 0.21331683330576642
1031.0, 0.21857508139439064
1032.0, 0.22182177389522517
1033.0, 0.22303668424889658
1034.0, 0.23164172842863
1035.0, 0.23453459551306985
1036.0, 0.23601249531480678
1037.0, 0.23952396258764327
1038.0, 0.24750965114693932
1039.0, 0.25423916466915175
1040.0, 0.26388097756562007
1041.0, 0.27332286590502003
1042.0, 0.28147094099151027
1043.0, 0.2884164997032936
1044.0, 0.29726481141966354
1045.0, 0.3044194400408881
1046.0, 0.3124367769235883
1047.0, 0.322391092792402
1048.0, 0.33316358043794575
1049.0, 0.33181581351254874
1050.0, 0.340962222904782
1051.0, 0.3491616358819009
1052.0, 0.35332678705224574
1053.0, 0.35427063358249533
1054.0, 0.3606652214122401
1055.0, 0.35943422367818356
1056.0, 0.3651570506299314
1057.0, 0.36876055619820225
1058.0, 0.36311326836055363
1059.0, 0.36864842218794097
1060.0, 0.3740578223568167
1061.0, 0.3745408976718554
1062.0, 0.373506981751034
1063.0, 0.37580313653753816
1064.0, 0.38686383197339447
1065.0, 0.39206702298064333
1066.0, 0.3939053676797282
1067.0, 0.3948702956475521
1068.0, 0.3968433902890049
1069.0, 0.4004407834609183
1070.0, 0.3961986438537547
1071.0, 0.3940179228834093
1072.0, 0.3892282448867224
1073.0, 0.3803574591433259
1074.0, 0.37132495746410843
1075.0, 0.36248945604226546
1076.0, 0.34586929079922085
1077.0, 0.3310027970071863
1078.0, 0.31749532971463373
1079.0, 0.2960917793856329
1080.0, 0.2834505740305817
1081.0, 0.26594980419628833
1082.0, 0.2516839134307215
1083.0, 0.24034169150272258
1084.0, 0.22690826765070868
1085.0, 0.2133677567105974
1086.0, 0.20366456224028853
1087.0, 0.19471058686225837
1088.0, 0.1827643846841666
1089.0, 0.16692778537480027
1090.0, 0.16510042044494833
1091.0, 0.15462751511470646
1092.0, 0.14825894848356944
1093.0, 0.14393551125626974
1094.0, 0.13770837404568284
1095.0, 0.1308685810422508
1096.0, 0.12539902042444365
1097.0, 0.12414756286851555
1098.0, 0.12153743878389742
1099.0, 0.11652434203404219
1100.0, 0.11877546437123035
1101.0, 0.11564490708918869
1102.0, 0.11156166093995508
1103.0, 0.10856375845000682
1104.0, 0.10681103473600993
1105.0, 0.10456236758731752
1106.0, 0.10407157732781482
1107.0, 0.10296089844788575
1108.0, 0.10281168675303397
1109.0, 0.10372646867314843
1110.0, 0.10462343001195598
1111.0, 0.10206185506830824
1112.0, 0.10335558058862142
1113.0, 0.10092038570221575
1114.0, 0.09668595295513199
1115.0, 0.09479178433358487
1116.0, 0.09492220063374551
1117.0, 0.09217642796505573
1118.0, 0.09279416581533467
1119.0, 0.09320706113061988
1120.0, 0.0905514082401482
1121.0, 0.08684751656735928
1122.0, 0.09897844228214227
1123.0, 0.10005973193303153
1124.0, 0.09666545869699932
1125.0, 0.09316530057071644
1126.0, 0.08932637302612792
1127.0, 0.0843274172336226
1128.0, 0.08133276683828475
1129.0, 0.08202077336880112
1130.0, 0.0826514421588291
1131.0, 0.07906679260748602
1132.0, 0.08640632462941165
1133.0, 0.08800011490837877
1134.0, 0.08624285657562068
1135.0, 0.08336076218895097
1136.0, 0.08146600740477333
1137.0, 0.0822217529673077
1138.0, 0.07494784942275544
1139.0, 0.07057425777886905
1140.0, 0.06289584884198365
1141.0, 0.052503851421835536
1142.0, 0.05078236426392838
1143.0, 0.04380031409162627
1144.0, 0.03770528752437457
1145.0, 0.03614187430358589
1146.0, 0.03518457233721094
1147.0, 0.02813215274989512
1148.0, 0.024837646171551885
1149.0, 0.02376574552993624
1150.0, 0.020926815886699004
1151.0, 0.02017062001459615
1152.0, 0.02282171544797509
1153.0, 0.016665606366084836
1154.0, 0.017871739363827462
1155.0, 0.02034768785422925
1156.0, 0.019705900215862417
1157.0, 0.017277799187734075
1158.0, 0.020548853993255525
1159.0, 0.01679847001493913
1160.0, 0.016311170932789512
1161.0, 0.016765845276783733
1162.0, 0.016641901115904422
1163.0, 0.014930901346810186
1164.0, 0.01066882719813393
1165.0, 0.015786494714915406
1166.0, 0.01376931579576472
1167.0, 0.013607414947129293
1168.0, 0.01899879888774039
1169.0, 0.012924891463924702
1170.0, 0.01401723571373508
1171.0, 0.017951195186996
1172.0, 0.017851072114294993
1173.0, 0.015116665675057154
1174.0, 0.01675085306726724
1175.0, 0.015131551215158945
1176.0, 0.009120215303221449
1177.0, 0.01117205674179024
1178.0, 0.015438664262284725
1179.0, 0.014112377932356361
1180.0, 0.010525908229105495
1181.0, 0.011069025074449351
1182.0, 0.009444492930608481
1183.0, 0.009755181881941409
1184.0, 0.011431672285427115
1185.0, 0.008526558480200473
1186.0, 0.004222956267650721
1187.0, 0.006373992291409384
1188.0, 0.008007400314390043
1189.0, 0.007204293521135349
1190.0, 0.004508374294952698
1191.0, 0.001707626764201445
1192.0, 0.004534879354243734
1193.0, 0.005995009787705607
1194.0, 0.004819875075901605
1195.0, 0.0020437381393662865
1196.0, 0.0005831346557443118
1197.0, 0.0006162808343576717
1198.0, 0.0009045522586701021
1199.0, 0.0011757506046883902
1200.0, 0.0009285379172638266
1201.0, 0.00016931517883672284
1202.0, 0.0012099313507029554
1203.0, 0.002154897483006713
1204.0, 0.0021151945372134646
1205.0, 0.002891013115036948
1206.0, 0.003568474195395977
1207.0, 0.0002877446296771927
1208.0, 0.004747067749248232
1209.0, 0.006902739324258409
1210.0, 0.004185908663369597
1211.0, 0.0031244439308820452
1212.0, 0.008563268909019166
1213.0, 0.006582500533715734
1214.0, 0.007338803537685228
1215.0, 0.007214407468297399
1216.0, 0.0059312146056059115
1217.0, 0.0048478241546601256
1218.0, 0.006172864749144893
1219.0, 0.005563575432547431
1220.0, 0.003656795704220012
1221.0, 0.004113043304359509
1222.0, 0.004453392015641522
1223.0, 0.002674261029005867
1224.0, 0.003482030956313107
1225.0, 0.006661154887237912
1226.0, 0.0033320506029997
1227.0, 0.0008209259325189642
1228.0, 0.0008107008284079026
1229.0, 0.0006378411684569412
1230.0, 0.007180024150086847
1231.0, 0.005542568131712077
1232.0, 0.006826328322985032
1233.0, 0.008264872510460762
1234.0, 0.00742142618902741
1235.0, 0.00797271516803762
1236.0, 0.006319011307357421
1237.0, 0.007058960271447132
1238.0, 0.006514238278135567
1239.0, 0.006659623718775042
1240.0, 0.010062718478835816
1241.0, 0.008832457454087499
1242.0, 0.009102512289826505
1243.0, 0.009577876506953166
1244.0, 0.011732057188911543
1245.0, 0.014007768959186909
1246.0, 0.012331262562873906
1247.0, 0.015316204203506018
1248.0, 0.015012885513304802
1249.0, 0.01876953063946937
1250.0, 0.020092332036741052
1251.0, 0.01593775717822862
1252.0, 0.019241607341887644
1253.0, 0.022857824058689354
1254.0, 0.020380059153841182
1255.0, 0.019922171507857456
1256.0, 0.023162845061587608
1257.0, 0.026270045974719183
1258.0, 0.019991998569883804
1259.0, 0.023522281695996395
1260.0, 0.02463817249350935
1261.0, 0.024236605493642923
1262.0, 0.023422689751889346
1263.0, 0.02222636176470659
1264.0, 0.02585674572196863
1265.0, 0.026970333256719048
1266.0, 0.02653469560224872
1267.0, 0.022736139009812112
1268.0, 0.019061384202504424
1269.0, 0.028878046424677076
1270.0, 0.0211726254898946
1271.0, 0.021260279768948915
1272.0, 0.023863125359364006
1273.0, 0.02558469937127589
1274.0, 0.025307737677849558
1275.0, 0.025473051660931292
1276.0, 0.02618427634980029
1277.0, 0.020676548174822073
1278.0, 0.02001688760837213
1279.0, 0.02380845922718409
1280.0, 0.02308820343608743
1281.0, 0.01724231724522017
1282.0, 0.023799261954414695
1283.0, 0.018701799369613584
1284.0, 0.016107362328618115
1285.0, 0.021587074952167825
1286.0, 0.02351977164303032
1287.0, 0.012000258013707816
1288.0, 0.014256411949411203
1289.0, 0.018028200887084764
1290.0, 0.018074182939572813
1291.0, 0.0164006553603527
1292.0, 0.02292703459217052
1293.0, 0.015684009822506874
1294.0, 0.012442756846779228
1295.0, 0.015805800600480324
1296.0, 0.018049094140228143
1297.0, 0.013622156611941168
1298.0, 0.012361691432857376
1299.0, 0.015357630006126829
1300.0, 0.011075339146881675
1301.0, 0.01288312740008611
1302.0, 0.018514046644444337
1303.0, 0.018225205081325434
1304.0, 0.0095287157930893
1305.0, 0.012721541926023162
1306.0, 0.011619356884384192
1307.0, 0.01229596175793452
1308.0, 0.013892731732553273
1309.0, 0.011722757310596417
1310.0, 0.013672812444223314
1311.0, 0.014785746043871041
1312.0, 0.012461250873945376
1313.0, 0.01070429651318774
1314.0, 0.01173223852404017
1315.0, 0.014715242588622083
1316.0, 0.016122872128468694
1317.0, 0.012992903811825017
1318.0, 0.01366753920290158
1319.0, 0.013005423408940505
1320.0, 0.011095202147552143
1321.0, 0.01465928514558659
1322.0, 0.015090718873109183
1323.0, 0.011513454276341527
1324.0, 0.011885918684442278
1325.0, 0.013324869675845808
1326.0, 0.014728039218923917
1327.0, 0.01935912614747969
1328.0, 0.01871717570981815
1329.0, 0.015184515176331525
1330.0, 0.018405427065681414
1331.0, 0.020611365695284142
1332.0, 0.016377282110094756
1333.0, 0.010884161473070857
1334.0, 0.018745394612690917
1335.0, 0.017856677745903975
1336.0, 0.014265888219726422
1337.0, 0.01487422452585238
1338.0, 0.01947929354303131
1339.0, 0.017776793179114493
1340.0, 0.015394732841068107
1341.0, 0.019098229863216656
1342.0, 0.018663213236443776
1343.0, 0.01652468534256092
1344.0, 0.016556011538048636
1345.0, 0.018137826692224815
1346.0, 0.013771969977578166
1347.0, 0.016157468928657708
1348.0, 0.016337729891765494
1349.0, 0.015663336100137593
1350.0, 0.017469691458287563
1351.0, 0.022334215795745592
1352.0, 0.01997495246686042
1353.0, 0.01792977710076656
1354.0, 0.01968913170948821
1355.0, 0.01914977530694904
1356.0, 0.015353476438517451
1357.0, 0.018025215677726466
1358.0, 0.01502079587062363
1359.0, 0.011733986807905682
1360.0, 0.014048732229164775
1361.0, 0.014795000427908765
1362.0, 0.010778091897870766
1363.0, 0.009741730625659313
1364.0, 0.02068849726883283
1365.0, 0.008502587159413221
1366.0, 0.012659230710914599
1367.0, 0.017452099380671625
1368.0, 0.0118434471464806
1369.0, 0.00800553170863708
1370.0, 0.01050382766447321
1371.0, 0.00986187308139528
1372.0, 0.007824427096606948
1373.0, 0.008707145005411447
1374.0, 0.011218311505236027
1375.0, 0.009068869269055459
1376.0, 0.008176226003269817
1377.0, 0.010467416975376688
1378.0, 0.010801485375762785
1379.0, 0.01087150379973894
1380.0, 0.01270013944343953
1381.0, 0.015786438426306417
1382.0, 0.010791382633976838
1383.0, 0.016765948345243094
1384.0, 0.015926354668162366
1385.0, 0.015393892445075101
1386.0, 0.016913704448026066
1387.0, 0.016427809237616796
1388.0, 0.012288061064556231
1389.0, 0.014632159828137582
1390.0, 0.015422602392546579
1391.0, 0.01383196742884296
1392.0, 0.012528645506823874
1393.0, 0.014825236637067606
1394.0, 0.020813809554218667
1395.0, 0.014471960013896614
1396.0, 0.022075785690510788
1397.0, 0.021633852777924203
1398.0, 0.016194644828075883
1399.0, 0.0167029488977743
1400.0, 0.024116848336985054
1401.0, 0.018364902787949843
1402.0, 0.015966927383498895
1403.0, 0.016582744548621884
1404.0, 0.014652180159236304
1405.0, 0.011567652291951135
1406.0, 0.017715366819427158
1407.0, 0.012815738207394598
1408.0, 0.012675674808858494
1409.0, 0.015005562859586884
1410.0, 0.014874221506286193
1411.0, 0.011796520401707922
1412.0, 0.010195386875941327
1413.0, 0.01328915543872383
1414.0, 0.009056990622924782
1415.0, 0.007691859159578471
1416.0, 0.006583342831871322
1417.0, 0.005515736484819908
1418.0, 0.006264900380194028
1419.0, 0.008485904570709099
1420.0, 0.007069150083867376
1421.0, 0.006129603307506267
1422.0, 0.005581344328032221
1423.0, 0.00472183044994554
1424.0, 0.0037051231222192584
1425.0, 0.0043540466518434805
1426.0, 0.002099095431331469
1427.0, 0.0044122935752384344
1428.0, 0.005081834353227735
1429.0, 0.00592026175455249
1430.0, 0.006480171042761109
1431.0, 0.003096408521000782
1432.0, 0.006167453823334112
1433.0, 0.006044842129558484
1434.0, 0.00458431262492092
1435.0, 0.006349056582171348
1436.0, 0.008481013240144317
1437.0, 0.005395417526928984
1438.0, 0.0014121245178279349
1439.0, 0.004032020837077183
1440.0, 0.0021451044513931153
1441.0, 0.000554664696460409
1442.0, 0.0016681824600231943
1443.0, 0.004457858538862437
1444.0, 0.005075424722473007
1445.0, 0.007329973417710157
1446.0, 0.004327114780745982
1447.0, 0.003974278551008962
1448.0, 0.005764873848147785
1449.0, 0.00585058330668536
1450.0, 0.0014910408644865558
1451.0, 0.0004340122330117719
1452.0, 0.0039042169372696355
1453.0, 0.00366820704139993
1454.0, 0.004725775299701652
1455.0, 0.005778898088726278
1456.0, 0.0038022601186069776
1457.0, 0.0018361971483836564
1458.0, 0.009161644925355221
1459.0, 0.006666397831983238
1460.0, 0.003772963137841145
1461.0, 0.00438488994859606
1462.0, 0.005633435239070297
1463.0, 0.0015630654060941277
1464.0, 0.0015374462828757136
1465.0, 0.006226346930174009
1466.0, 0.007781099412559242
1467.0, 0.006278976668752391
1468.0, 0.00695541855331295
1469.0, 0.01138215886101845
1470.0, 0.007434596657708178
1471.0, 0.011654996531564937
1472.0, 0.010357742803032595
1473.0, 0.009411578018360945
1474.0, 0.013660608643610099
1475.0, 0.01772773826895438
1476.0, 0.010470371645676591
1477.0, 0.01033902430821658
1478.0, 0.017580103204899958
1479.0, 0.016148527556194954
1480.0, 0.013143927138458649
1481.0, 0.012461828259259074
1482.0, 0.013364110413142474
1483.0, 0.012983989328864179
1484.0, 0.01188784901655218
1485.0, 0.00974786120484839
1486.0, 0.005718854205592267
1487.0, 0.005518279509693536
1488.0, 0.008936298284955357
1489.0, 0.00894399446119308
1490.0, 0.0023164997547612527
1491.0, 0.00895250510182466
1492.0, 0.006370179722184494
1493.0, 0.004941893601037455
1494.0, 0.00824956576574997
1495.0, 0.011621732732993384
1496.0, 0.006426896416507835
1497.0, 0.003962503653425782
1498.0, 0.012402204578832045
1499.0, 0.010162132124319991
1500.0, 0.007592027384575527
1501.0, 0.008611639831930097
1502.0, 0.008124148622366422
1503.0, 0.0023677005279841793
1504.0, 0.010361469229999275
1505.0, 0.01018347967073517
1506.0, 0.007979146842882704
1507.0, 0.006889226405887227
1508.0, 0.006296049012486443
1509.0, 0.004702666667253065
1510.0, 0.01044369083348206
1511.0, 0.010292669449076685
1512.0, 0.0038080093958613335
1513.0, 0.006060077444512553
1514.0, 0.010012844397483305
1515.0, 0.0073605101037182265
1516.0, 0.005712019179304048
1517.0, 0.007054317394366241
1518.0, 0.0016764630216228563
1519.0, 1.5948056083305287e-05
1520, 0.0
1521, 0.0
1522, 0.0
1523, 0.0
1524, 0.0
1525, 0.0
1526, 0.0
1527, 0.0
1528, 0.0
1529, 0.0
1530, 0.0
1531, 0.0
1532, 0.0
1533, 0.0
1534, 0.0
1535, 0.0
1536, 0.0
1537, 0.0
1538, 0.0
1539, 0.0
1540, 0.0
1541, 0.0
1542, 0.0
1543, 0.0
1544, 0.0
1545, 0.0
1546, 0.0
1547, 0.0
1548, 0.0
1549, 0.0
1550, 0.0
1551, 0.0
1552, 0.0
1553, 0.0
1554, 0.0
1555, 0.0
1556, 0.0
1557, 0.0
1558, 0.0
1559, 0.0
1560, 0.0
1561, 0.0
1562, 0.0
1563, 0.0
1564, 0.0
1565, 0.0
1566, 0.0
1567, 0.0
1568, 0.0
1569, 0.0
1570, 0.0
1571, 0.0
1572, 0.0
1573, 0.0
1574, 0.0
1575, 0.0
1576, 0.0
1577, 0.0
1578, 0.0
1579, 0.0
1580, 0.0
1581, 0.0
1582, 0.0
1583, 0.0
1584, 0.0
1585, 0.0
1586, 0.0
1587, 0.0
1588, 0.0
1589, 0.0
1590, 0.0
1591, 0.0
1592, 0.0
1593, 0.0
1594, 0.0
1595, 0.0
1596, 0.0
1597, 0.0
1598, 0.0
1599, 0.0
