30, 0.0
31, 0.0
32, 0.0
33, 0.0
34, 0.0
35, 0.0
36, 0.0
37, 0.0
38, 0.0
39, 0.0
40, 0.0
41, 0.0
42, 0.0
43, 0.0
44, 0.0
45, 0.0
46, 0.0
47, 0.0
48, 0.0
49, 0.0
50, 0.0
51, 0.0
52, 0.0
53, 0.0
54, 0.0
55, 0.0
56, 0.0
57, 0.0
58, 0.0
59, 0.0
60, 0.0
61, 0.0
62, 0.0
63, 0.0
64, 0.0
65, 0.0
66, 0.0
67, 0.0
68, 0.0
69, 0.0
70, 0.0
71, 0.0
72, 0.0
73, 0.0
74, 0.0
75, 0.0
76, 0.0
77, 0.0
78, 0.0
79, 0.0
80, 0.0
81, 0.0
82, 0.0
83, 0.0
84, 0.0
85, 0.0
86, 0.0
87, 0.0
88, 0.0
89, 0.0
90, 0.0
91, 0.0
92, 0.0
93, 0.0
94, 0.0
95, 0.0
96, 0.0
97, 0.0
98, 0.0
99, 0.0
100, 0.0
101, 0.0
102, 0.0
103, 0.0
104, 0.0
105, 0.0
106, 0.0
107, 0.0
108, 0.0
109, 0.0
110, 0.0
111, 0.0
112, 0.0
113, 0.0
114, 0.0
115, 0.0
116, 0.0
117, 0.0
118, 0.0
119, 0.0
120, 0.0
121, 0.0
122, 0.0
123, 0.0
124, 0.0
125, 0.0
126, 0.0
127, 0.0
128, 0.0
129, 0.0
130, 0.0
131, 0.0
132, 0.0
133, 0.0
134, 0.0
135, 0.0
136, 0.0
137, 0.0
138, 0.0
139, 0.0
140, 0.0
141, 0.0
142, 0.0
143, 0.0
144, 0.0
145, 0.0
146, 0.0
147, 0.0
148, 0.0
149, 0.0
150, 0.0
151, 0.0
152, 0.0
153, 0.0
154, 0.0
155, 0.0
156, 0.0
157, 0.0
158, 0.0
159, 0.0
160, 0.0
161, 0.0
162, 0.0
163, 0.0
164, 0.0
165, 0.0
166, 0.0
167, 0.0
168, 0.0
169, 0.0
170, 0.0
171, 0.0
172, 0.0
173, 0.0
174, 0.0
175, 0.0
176, 0.0
177, 0.0
178, 0.0
179, 0.0
180, 0.0
181, 0.0
182, 0.0
183, 0.0
184, 0.0
185, 0.0
186, 0.0
187, 0.0
188, 0.0
189, 0.0
190, 0.0
191, 0.0
192, 0.0
193, 0.0
194, 0.0
195, 0.0
196.0, 6.947293534505429e-05
197.0, 0.0013182169717270258
198.0, 0.002553079654065686
199.0, 0.000581301737586189
200.0, 0.0017845564529357396
201.0, 0.005591165891077961
202.0, 0.004046549165161506
203.0, 0.009502463576943152
204.0, 0.010654682029811435
205.0, 0.01146879720119501
206.0, 0.01611278451326398
207.0, 0.019629343167898536
208.0, 0.01986459365597624
209.0, 0.02224648008656838
210.0, 0.026257343299949165
211.0, 0.0272976764905456
212.0, 0.027532435341722814
213.0, 0.028106445170134657
214.0, 0.028485181142881576
215.0, 0.028186884355833844
216.0, 0.02811063535021382
217.0, 0.028888263741218133
218.0, 0.029825388618007292
219.0, 0.03086626531119805
220.0, 0.03245331124453722
221.0, 0.03304174856276339
222.0, 0.03187194362538332
223.0, 0.034046427210867654
224.0, 0.04079610443540195
225.0, 0.0389498791335351
226.0, 0.03962785515235775
227.0, 0.040714157276944066
228.0, 0.04216481510115954
229.0, 0.04663071225841122
230.0, 0.04567109562142172
231.0, 0.0441884816048831
232.0, 0.044888331647610955
233.0, 0.04695279274035992
234.0, 0.045612843002768744
235.0, 0.046726215961471404
236.0, 0.04797200048859815
237.0, 0.046645476348262285
238.0, 0.041512197517964165
239.0, 0.041217302370144544
240.0, 0.04326999956628689
241.0, 0.0433784471882838
242.0, 0.039623546976249396
243.0, 0.03852597461557026
244.0, 0.03955525340422003
245.0, 0.04114935338199159
246.0, 0.0422330640679337
247.0, 0.043359034020578016
248.0, 0.04518690473976285
249.0, 0.0446831653491877
250.0, 0.043450028428053025
251.0, 0.0438141517630145
252.0, 0.04552428428482234
253.0, 0.036748251481265544
254.0, 0.034022466771889116
255.0, 0.03814289041143662
256.0, 0.03837626737659166
257.0, 0.03556516642553887
258.0, 0.03679034450101972
259.0, 0.03790732464438973
260.0, 0.03574122499599184
261.0, 0.03435077135279179
262.0, 0.029984129335913105
263.0, 0.030263962240086165
264.0, 0.03287991299081848
265.0, 0.0319422646424533
266.0, 0.0358178278370145
267.0, 0.033819328940429404
268.0, 0.03293698597031649
269.0, 0.036496322565418224
270.0, 0.03814406116457905
271.0, 0.03737171510814013
272.0, 0.0365790602724568
273.0, 0.03749774504521116
274.0, 0.04029233575942532
275.0, 0.043190384628632304
276.0, 0.04489893432470822
277.0, 0.04561007541052533
278.0, 0.04681665741081168
279.0, 0.04961001464064871
280.0, 0.04781302096503398
281.0, 0.05040702841401551
282.0, 0.051058452279108435
283.0, 0.046126806763385805
284.0, 0.04379995464820756
285.0, 0.04220568051918626
286.0, 0.036243365313482975
287.0, 0.029241249355618972
288.0, 0.025905924689489282
289.0, 0.021418602972702344
290.0, 0.018228228396394607
291.0, 0.014343769675916176
292.0, 0.00949579273452714
293.0, 0.005676946455662057
294.0, 0.0013337758474362097
295.0, 0.00023062419377136882
296.0, 4.958833255352277e-05
297.0, 0.0008666773935969486
298.0, 0.005012396407051819
299.0, 0.00501407312902133
300.0, 0.005335882715090315
301.0, 0.004736436266768714
302.0, 0.0006352293508479715
303.0, 0.002504786872954971
304.0, 0.002958166542936281
305.0, 0.0026062742153132984
306.0, 0.004235921132959158
307.0, 0.010270049227109458
308.0, 0.018183537559069905
309.0, 0.02455038750273153
310.0, 0.02780134891635197
311.0, 0.030610714153727243
312.0, 0.03792281755149134
313.0, 0.042953554537088226
314.0, 0.052071986642216295
315.0, 0.06281560587635558
316.0, 0.07047673410956422
317.0, 0.07625192752707495
318.0, 0.08694910365329594
319.0, 0.09558098751798026
320.0, 0.10313242492369168
321.0, 0.11347222934153905
322.0, 0.12006513762455523
323.0, 0.12553987666463973
324.0, 0.1299616593944727
325.0, 0.13162544948606958
326.0, 0.12895264163524725
327.0, 0.1297603037978975
328.0, 0.12738563325725588
329.0, 0.12183471283692267
330.0, 0.1152901922150721
331.0, 0.10883552658587674
332.0, 0.10635723585467757
333.0, 0.0997995386026893
334.0, 0.09230561283758133
335.0, 0.08840861795642861
336.0, 0.08371998901070933
337.0, 0.07899548937063701
338.0, 0.07444712717008514
339.0, 0.07187691172240285
340.0, 0.07168700385724848
341.0, 0.06788029310469537
342.0, 0.06577418142073804
343.0, 0.06443195621435026
344.0, 0.0632018338774265
345.0, 0.06289542011809464
346.0, 0.06166911883957133
347.0, 0.06295948274778876
348.0, 0.062230690060399996
349.0, 0.05967685461392309
350.0, 0.061861751390639146
351.0, 0.06249613743689589
352.0, 0.0627395600046183
353.0, 0.0616506853456794
354.0, 0.05917468603329322
355.0, 0.05770190858819216
356.0, 0.05810704069761582
357.0, 0.05120459249978443
358.0, 0.04428912773648717
359.0, 0.04301823137425537
360.0, 0.03980671660907398
361.0, 0.03773528272975562
362.0, 0.03461345272340169
363.0, 0.02996943650932861
364.0, 0.024970162376313415
365.0, 0.021805550018234664
366.0, 0.019496961067462796
367.0, 0.01458963196280569
368.0, 0.010353250211797251
369.0, 0.010297292518841678
370.0, 0.0077677184000053915
371.0, 0.007668902204569168
372.0, 0.00617639375277662
373.0, 0.003266955263751764
374.0, 0.0014365004833469057
375.0, 0.0023153416893804363
376.0, 0.0008120669601290667
377.0, 0.0013710424182294427
378.0, 0.0043792345495411635
379.0, 0.00297093498481433
380.0, 0.0012537720467039114
381.0, 0.00017489073122390567
382.0, 0.0012752637548178814
383.0, 0.0030357443406187055
384.0, 0.002439842178736615
385.0, 0.001205788316443127
386.0, 0.0004216573850201475
387.0, 0.002487293022155298
388.0, 0.0042668477495316545
389.0, 0.0042108024580084745
390.0, 0.003671902620328964
391.0, 0.0045221101353134854
392.0, 0.004987820362390101
393.0, 0.0055430488167669155
394.0, 0.008840357294193735
395.0, 0.012628932376732528
396.0, 0.01334592243347695
397.0, 0.01424197694652661
398.0, 0.01611837341084357
399.0, 0.016353432114642297
400.0, 0.022441562599817083
401.0, 0.02215537362775182
402.0, 0.021960693181151583
403.0, 0.025428860846090216
404.0, 0.028380556456348786
405.0, 0.030597910425563715
406.0, 0.03607979002449036
407.0, 0.0388286273167381
408.0, 0.03794632513362481
409.0, 0.04046630416158956
410.0, 0.04171333875545124
411.0, 0.04383041745488426
412.0, 0.046684250363853444
413.0, 0.048981738546415646
414.0, 0.050443998744216116
415.0, 0.05545082191533106
416.0, 0.056966809908485336
417.0, 0.05784951939833574
418.0, 0.060230702280473725
419.0, 0.06241497387512788
420.0, 0.0641765436348845
421.0, 0.0673681249754937
422.0, 0.0695288403237036
423.0, 0.07065905869901294
424.0, 0.0738006924525559
425.0, 0.08021460767098809
426.0, 0.08361530023602952
427.0, 0.08660434116257099
428.0, 0.09029549108525883
429.0, 0.09328728124427287
430.0, 0.09549731192971758
431.0, 0.09763314574294148
432.0, 0.0979766240816607
433.0, 0.09730404445982566
434.0, 0.09886036813620311
435.0, 0.10023780370658131
436.0, 0.09795113091802565
437.0, 0.09681242494869996
438.0, 0.09716008211507818
439.0, 0.0958387587006379
440.0, 0.09227340977189775
441.0, 0.0900822114583965
442.0, 0.08919006559611105
443.0, 0.08674145166905108
444.0, 0.08227736583879565
445.0, 0.08186947286319572
446.0, 0.07985026819973592
447.0, 0.07558513584877183
448.0, 0.07284233659295708
449.0, 0.07297758838280646
450.0, 0.07046654278003953
451.0, 0.06688286662279859
452.0, 0.06541871381744378
453.0, 0.06496142254902865
454.0, 0.06288632214034613
455.0, 0.0581145595217584
456.0, 0.05988747435850702
457.0, 0.0615910069001788
458.0, 0.0602868837903732
459.0, 0.05855456384639499
460.0, 0.06035070771680705
461.0, 0.05915266204560923
462.0, 0.0591776082505366
463.0, 0.05792518157061771
464.0, 0.05645177361162237
465.0, 0.057986629780740095
466.0, 0.05666612853602355
467.0, 0.051689548589378395
468.0, 0.04787768123080335
469.0, 0.046403460803086535
470.0, 0.04562817687396525
471.0, 0.04218228788850168
472.0, 0.038505796556085124
473.0, 0.0360991055774318
474.0, 0.033778321667338275
475.0, 0.030233916259266296
476.0, 0.026794973676030825
477.0, 0.02352572243266773
478.0, 0.01824669675434095
479.0, 0.01342994167942682
480.0, 0.010336304785034701
481.0, 0.006535973474992815
482.0, 0.0036554326463300825
483.0, 0.001250516427362922
484.0, 8.031413869034238e-05
485.0, 0.0006844822827972836
486.0, 0.0024099478613773136
487.0, 0.0012144070215028557
488.0, 0.0018046117706223665
489.0, 0.0031517531282612868
490.0, 0.0044117904940697665
491.0, 0.005024183302063826
492.0, 0.0030541230903355344
493.0, 0.0003604585641884098
494.0, 0.003704330594963484
495.0, 0.004391349614303805
496.0, 0.0010722439516182276
497.0, 0.0022756852985678076
498.0, 0.0027151725331864716
499.0, 0.0069475861591841125
500.0, 0.010422279765617885
501.0, 0.01007969309163173
502.0, 0.00900435236717956
503.0, 0.011619700472932338
504.0, 0.012250786417232545
505.0, 0.014421291085188638
506.0, 0.016222915413058165
507.0, 0.015033800174412252
508.0, 0.01792787347588866
509.0, 0.022454514815278867
510.0, 0.028077045127828965
511.0, 0.030284446513308624
512.0, 0.029829135369636408
513.0, 0.034721653596940294
514.0, 0.0372086651426236
515.0, 0.04141808865248309
516.0, 0.04628662728691626
517.0, 0.05212531771344532
518.0, 0.059747142634144886
519.0, 0.06256999289375655
520.0, 0.06741976206290064
521.0, 0.07213611199119362
522.0, 0.07795685923493845
523.0, 0.08573513325906809
524.0, 0.09033077993608206
525.0, 0.09357228647518016
526.0, 0.09540942579835739
527.0, 0.10003826887770642
528.0, 0.10571710757116543
529.0, 0.10521392865281326
530.0, 0.10095226617116458
531.0, 0.10214977728498058
532.0, 0.09932509997935297
533.0, 0.09445885930426914
534.0, 0.09273187223481157
535.0, 0.08717475866256044
536.0, 0.08629264492967682
537.0, 0.08313341847323814
538.0, 0.07951618155795105
539.0, 0.07724623020879226
540.0, 0.07434159571676724
541.0, 0.07039528564800028
542.0, 0.06758791153066791
543.0, 0.06525942777935984
544.0, 0.06117945422889491
545.0, 0.05690149515048339
546.0, 0.05807529723893401
547.0, 0.05378318003469227
548.0, 0.05030651125184493
549.0, 0.048648873306220496
550.0, 0.04819305681665428
551.0, 0.04876707541090493
552.0, 0.044500425485656504
553.0, 0.04335855456272241
554.0, 0.04196218886524875
555.0, 0.03856841625033026
556.0, 0.03415552981093653
557.0, 0.029415594026223756
558.0, 0.027667837613549722
559.0, 0.029878615753150938
560.0, 0.02839878488299028
561.0, 0.023720199463601335
562.0, 0.022246646114506274
563.0, 0.01919796830736501
564.0, 0.01808689281535797
565.0, 0.017715414620830636
566.0, 0.016740892602740504
567.0, 0.015419358111745309
568.0, 0.01566499942339029
569.0, 0.014624159241675727
570.0, 0.012861648647327683
571.0, 0.013067856068451284
572.0, 0.013510222606154101
573.0, 0.012376902365796522
574.0, 0.013761091333481244
575.0, 0.016053351081115583
576.0, 0.01595215563044519
577.0, 0.016408979220595338
578.0, 0.017707818652176813
579.0, 0.016803853261864753
580.0, 0.017448888302384977
581.0, 0.018760537131122308
582.0, 0.01982115484026741
583.0, 0.020785987691356294
584.0, 0.02085997901052085
585.0, 0.019407799632851105
586.0, 0.021899794888973714
587.0, 0.025628565917828618
588.0, 0.02683712587193351
589.0, 0.02955886194678674
590.0, 0.037338219252654355
591.0, 0.039205854527858346
592.0, 0.042734608657093824
593.0, 0.047046563685561704
594.0, 0.049662514323375116
595.0, 0.0524009669870426
596.0, 0.05851371435020521
597.0, 0.06347453690033644
598.0, 0.0622325891819306
599.0, 0.0694527075442093
600.0, 0.07079664876187965
601.0, 0.06370120361589064
602.0, 0.06760302121159825
603.0, 0.06340504070229673
604.0, 0.0582095834458259
605.0, 0.05384291711983901
606.0, 0.04910100463681519
607.0, 0.04330459961023282
608.0, 0.037909336919782384
609.0, 0.03132433853412408
610.0, 0.02593227697909649
611.0, 0.01962964495229201
612.0, 0.014844942791770772
613.0, 0.013023450451329913
614.0, 0.008142166661408002
615.0, 0.0022949451853034567
616.0, 0.0007718629905338329
617.0, 0.0017898375919538614
618.0, 0.0012782929743671732
619.0, 0.00214521144726793
620.0, 0.0009776744531258678
621.0, 0.00048227468438687127
622.0, 0.0017785216789646334
623.0, 0.003576898219214477
624.0, 0.003937794555094071
625.0, 0.002557290165779566
626.0, 0.0026334345799294903
627.0, 0.0029093513141394585
628.0, 0.0027108368155480834
629.0, 0.0028583026957386313
630.0, 0.003070954323260417
631.0, 0.002128448955686984
632.0, 0.0013363714749789945
633.0, 0.0006543456717917604
634.0, 0.0025130118884222107
635.0, 0.0014707390697176275
636.0, 0.0023338774605962064
637.0, 0.0008708909754538551
638.0, 0.0011496808755295123
639.0, 0.0006412949405569457
640.0, 0.0011631487683657464
641.0, 0.0012237693918819262
642.0, 0.001589002171972883
643.0, 0.0012286452185402389
644.0, 0.0009389142051977933
645.0, 0.001307945076174777
646.0, 0.0004860605680448096
647.0, 0.0013752839649353627
648.0, 0.0005757630664308953
649.0, 0.0009454786088748288
650.0, 0.0017378846851060458
651.0, 0.004328298971803449
652.0, 0.0026592869483072746
653.0, 0.0026161944192737876
654.0, 0.0065982899544029736
655.0, 0.00838100221888258
656.0, 0.011205098367526095
657.0, 0.011693218740150469
658.0, 0.011853744962845495
659.0, 0.013157806581470255
660.0, 0.01590565373723688
661.0, 0.01898719765383714
662.0, 0.020187639920456614
663.0, 0.01888758457544381
664.0, 0.02222492768522909
665.0, 0.026206455412181983
666.0, 0.027226435920142945
667.0, 0.028573238903212422
668.0, 0.03375989279613123
669.0, 0.036143943817676064
670.0, 0.03626264704483729
671.0, 0.038471259314662956
672.0, 0.0434460221975578
673.0, 0.048156050748990965
674.0, 0.0524730882299794
675.0, 0.05523470609714847
676.0, 0.05687304241915783
677.0, 0.06086435028133272
678.0, 0.06619748147951994
679.0, 0.06885142849187015
680.0, 0.0707710772225184
681.0, 0.07732875643602975
682.0, 0.0802129634448198
683.0, 0.08396996885359262
684.0, 0.08979267162389734
685.0, 0.09477087582409018
686.0, 0.09937226893765146
687.0, 0.10390272521339892
688.0, 0.11203277162641032
689.0, 0.11820707518320532
690.0, 0.12405491339948643
691.0, 0.13232739166109012
692.0, 0.13858824857508184
693.0, 0.14433324759914962
694.0, 0.1490489220383396
695.0, 0.15674371912145987
696.0, 0.16478348824463399
697.0, 0.1719394879995857
698.0, 0.18083256469242295
699.0, 0.1866075858088723
700.0, 0.19509125114344594
701.0, 0.20144001070245812
702.0, 0.20953878406957635
703.0, 0.21700470565051813
704.0, 0.21931084013623076
705.0, 0.2291107500753507
706.0, 0.23986331622400575
707.0, 0.24943865570457724
708.0, 0.2603859888611377
709.0, 0.27257962171940714
710.0, 0.28572421630906775
711.0, 0.30225564582499775
712.0, 0.3143190570176602
713.0, 0.3295346640718446
714.0, 0.3495887659256318
715.0, 0.3743778828275523
716.0, 0.40145449737719996
717.0, 0.42684002702252727
718.0, 0.45970708515719905
719.0, 0.49605404099259415
720.0, 0.5387767105345433
721.0, 0.5841098022824809
722.0, 0.6324008004197376
723.0, 0.6857634014569268
724.0, 0.7353905076001622
725.0, 0.7906775623835102
726.0, 0.8404423275890531
727.0, 0.8857946836077861
728.0, 0.9303287562337489
729.0, 0.9685620083244265
730.0, 0.9891459182652692
731.0, 0.9991347886235399
732.0, 0.9952939418316242
733.0, 0.9763003207224578
734.0, 0.9446285357605256
735.0, 0.9022411858402246
736.0, 0.8489988226190572
737.0, 0.7850933590635532
738.0, 0.7239032477284587
739.0, 0.6620374192171835
740.0, 0.5948050179134702
741.0, 0.5323951153824389
742.0, 0.4803060662458097
743.0, 0.4236607400624019
744.0, 0.37117161468533033
745.0, 0.32695296707845317
746.0, 0.28765494120808616
747.0, 0.25268531517142095
748.0, 0.22219506301576736
749.0, 0.19466657673481783
750.0, 0.1701908850648847
751.0, 0.1446047656950879
752.0, 0.12905346367802017
753.0, 0.1160687034855778
754.0, 0.10086753071332899
755.0, 0.08511959230252779
756.0, 0.07209403419626287
757.0, 0.0621264062433918
758.0, 0.05490892737546259
759.0, 0.04541629100213668
760.0, 0.038553689521874365
761.0, 0.0324446215486806
762.0, 0.023688945842860208
763.0, 0.020453286580838153
764.0, 0.018266322470437416
765.0, 0.015363321242045395
766.0, 0.010393127579669146
767.0, 0.007170152452874306
768.0, 0.0065784316098738945
769.0, 0.00457972432589294
770.0, 0.001147720096384155
771.0, 0.003029085238322297
772.0, 0.0009970172213512154
773.0, 0.0006783023197737861
774.0, 0.0017975143481470076
775.0, 0.0020762235163757246
776.0, 0.004065165775005367
777.0, 0.006656137152654436
778.0, 0.007241361798232686
779.0, 0.005501122429272517
780.0, 0.0052285233340274035
781.0, 0.004904835137135884
782.0, 0.0022693328695449154
783.0, 0.0016590766286507823
784.0, 0.0015513022709742251
785.0, 0.001220630958428576
786.0, 0.0009830807984333955
787.0, 0.0021681133671488787
788.0, 0.005555390411353162
789.0, 0.008216007698290395
790.0, 0.014643579138122101
791.0, 0.018475691681464346
792.0, 0.02071916732835063
793.0, 0.02478973500711699
794.0, 0.02982149651894683
795.0, 0.03474397920910016
796.0, 0.03993743680984702
797.0, 0.044186801305517956
798.0, 0.046435868974138005
799.0, 0.05149682780676014
800.0, 0.05985662739965462
801.0, 0.06961993806437451
802.0, 0.07982128756262727
803.0, 0.0898211165931904
804.0, 0.09697837205817479
805.0, 0.1046326223169264
806.0, 0.11555209928737399
807.0, 0.12656944015917207
808.0, 0.13907427506244033
809.0, 0.15359990668549678
810.0, 0.1656645787362771
811.0, 0.17508036699460136
812.0, 0.19325920199552293
813.0, 0.20684415434260367
814.0, 0.22193936065011122
815.0, 0.24018272658243994
816.0, 0.2578598367396023
817.0, 0.27437749746654805
818.0, 0.29172460181290427
819.0, 0.31063644911616517
820.0, 0.32806547808298614
821.0, 0.3411755077780912
822.0, 0.3538298911024183
823.0, 0.36930642648297074
824.0, 0.38225108755671827
825.0, 0.3857119063862743
826.0, 0.3916444715064633
827.0, 0.39885764416717634
828.0, 0.4009812143332727
829.0, 0.39787030193743994
830.0, 0.3931183804018909
831.0, 0.38741519253398804
832.0, 0.37760187573669896
833.0, 0.3656262913430392
834.0, 0.3472532260781939
835.0, 0.3299348306321264
836.0, 0.31473559874364737
837.0, 0.2960302299529662
838.0, 0.27424518703809925
839.0, 0.2601161310609919
840.0, 0.2425221038735754
841.0, 0.2287912953316635
842.0, 0.2195852554223419
843.0, 0.2087233176499004
844.0, 0.1975084310333289
845.0, 0.19067320882063185
846.0, 0.1863964911899366
847.0, 0.18690506371000806
848.0, 0.1793698814036462
849.0, 0.1716671558259681
850.0, 0.16689980682597244
851.0, 0.1644738374368153
852.0, 0.162192978074759
853.0, 0.15856167563063733
854.0, 0.1554501468447719
855.0, 0.1469382977051027
856.0, 0.14108103199510053
857.0, 0.13714952842089354
858.0, 0.13114141124676554
859.0, 0.12220265221720525
860.0, 0.11304775115440653
861.0, 0.10550427092526808
862.0, 0.09546077609811127
863.0, 0.08991113438226571
864.0, 0.08352335546677103
865.0, 0.07622497088011929
866.0, 0.06909767081581931
867.0, 0.061152536132015205
868.0, 0.05290053848205244
869.0, 0.04633129325800263
870.0, 0.04447812187139563
871.0, 0.03861870285130068
872.0, 0.03532050950115689
873.0, 0.03348111456150639
874.0, 0.03020316777276055
875.0, 0.028230326717512282
876.0, 0.023387843306169418
877.0, 0.019298738470918196
878.0, 0.01917384258611545
879.0, 0.0178023021424606
880.0, 0.014737615426407457
881.0, 0.01136591481089775
882.0, 0.008389554192941615
883.0, 0.007797811203881288
884.0, 0.008801211929399389
885.0, 0.007007796983505557
886.0, 0.005883077970896862
887.0, 0.0041002125462284355
888.0, 0.002985686317608717
889.0, 0.004022161578776001
890.0, 0.005195029058682752
891.0, 0.003747022847662989
892.0, 0.0007343237358400863
893.0, 0.001518574841699402
894.0, 0.0010139308404200045
895.0, 0.0003683650641316741
896.0, 0.0004391801697766825
897.0, 0.0014690204102144778
898.0, 0.004416910444103776
899.0, 0.0035586790980467685
900.0, 0.0021667054563741838
901.0, 0.0021415373886958453
902.0, 0.003582699617665574
903.0, 0.0018208770024977104
904.0, 0.0021077616577518674
905.0, 0.0009778258532638488
906.0, 0.0003460434719031679
907.0, 0.00024144838042604492
908.0, 0.001497094526175711
909.0, 0.000313057185388358
910.0, 0.000979634455702943
911.0, 0.0015866346083227723
912.0, 0.0017392349243900227
913.0, 0.0012913727648701267
914.0, 0.0023896848644369994
915.0, 0.0018733861022078655
916.0, 0.0027274676274696283
917.0, 0.0038000985953268503
918.0, 0.0034521698300926194
919.0, 0.003964131015191379
920.0, 0.00603410168498103
921.0, 0.007092310225703546
922.0, 0.009256998309432675
923.0, 0.01347257590042338
924.0, 0.017098596771977722
925.0, 0.01876534595649289
926.0, 0.021972500574813203
927.0, 0.02579403176712589
928.0, 0.029799239914794266
929.0, 0.03658464411139552
930.0, 0.03978881717270097
931.0, 0.04547292619498131
932.0, 0.05256977002489698
933.0, 0.061892241663683005
934.0, 0.0721288518821572
935.0, 0.08059872505977933
936.0, 0.08979302565577606
937.0, 0.10476488710116924
938.0, 0.1215817823068122
939.0, 0.13682214624094102
940.0, 0.15389365447939837
941.0, 0.16919542949328278
942.0, 0.18887079559390227
943.0, 0.20991056396156518
944.0, 0.2288508036989907
945.0, 0.25019465762134924
946.0, 0.2717760394043735
947.0, 0.2893842908153296
948.0, 0.30568595603564963
949.0, 0.32676571343059096
950.0, 0.34507611339831734
951.0, 0.35931820865361697
952.0, 0.3755920439772824
953.0, 0.39218741377300503
954.0, 0.39573908063031543
955.0, 0.39502844271239207
956.0, 0.3858278761126846
957.0, 0.3719264418607742
958.0, 0.3478594466074667
959.0, 0.3159844360925268
960.0, 0.2804164091098716
961.0, 0.24327645766309156
962.0, 0.20761097969453227
963.0, 0.1738995427515259
964.0, 0.14592717645457842
965.0, 0.11967120002772605
966.0, 0.09761758764981782
967.0, 0.08225921845895164
968.0, 0.06919255771647696
969.0, 0.05663730835431698
970.0, 0.049639145902057265
971.0, 0.04058397216375006
972.0, 0.03425871736038864
973.0, 0.03176454679913599
974.0, 0.029804295559656496
975.0, 0.025905987292998797
976.0, 0.02288534578980372
977.0, 0.022179041743073283
978.0, 0.02153737458478292
979.0, 0.020532042766700204
980.0, 0.021148977257355074
981.0, 0.020367223220636804
982.0, 0.022512491547873444
983.0, 0.020288501040173153
984.0, 0.01731759650485773
985.0, 0.018015156980865442
986.0, 0.01889116108315395
987.0, 0.017180911944555954
988.0, 0.016991642145465866
989.0, 0.015740015174195564
990.0, 0.0173445592883453
991.0, 0.016288958581767647
992.0, 0.014786011947949162
993.0, 0.014155045935984621
994.0, 0.013547757850281934
995.0, 0.012684882195257749
996.0, 0.011047666384839101
997.0, 0.00891639838208123
998.0, 0.009830867828983021
999.0, 0.00843545034434118
1000.0, 0.005042104864737363
1001.0, 0.004202714430313371
1002.0, 0.004164687226730985
1003.0, 0.003355200519448499
1004.0, 0.0038986755459827016
1005.0, 0.0030857865255477855
1006.0, 0.003266215460492436
1007.0, 0.0029374856937910043
1008.0, 0.0041059028511651555
1009.0, 0.004922511767693047
1010.0, 0.005973533569634573
1011.0, 0.004145392030454229
1012.0, 0.0007152128154525859
1013.0, 0.0016141740561878295
1014.0, 0.0004401147891699363
1015.0, 0.0015737485932649598
1016.0, 0.002584797763614798
1017.0, 0.0005742547309407181
1018.0, 0.0007116376086975252
1019.0, 0.0010007122760779758
1020.0, 0.003909575324427973
1021.0, 0.003534455668059922
1022.0, 0.0008501876462958865
1023.0, 0.0025484805233137262
1024.0, 0.0029213437044786324
1025.0, 0.0032900481062679383
1026.0, 0.0017486938068952613
1027.0, 0.0011272215863526178
1028.0, 0.0007146344185936838
1029.0, 0.0009582871039190755
1030.0, 0.0007542305770108218
1031.0, 0.0017025822330530998
1032.0, 0.004042820330258956
1033.0, 0.0026460195725951717
1034.0, 0.004636597060235642
1035.0, 0.005840033152002695
1036.0, 0.009319775714077366
1037.0, 0.009393367911369011
1038.0, 0.007914039989008853
1039.0, 0.009016578827260266
1040.0, 0.010380665536262403
1041.0, 0.012837849971865193
1042.0, 0.012484514834336687
1043.0, 0.015230881949281835
1044.0, 0.015533687858028679
1045.0, 0.018851301013254357
1046.0, 0.023424126471803034
1047.0, 0.02571864169925988
1048.0, 0.028161112028005527
1049.0, 0.03285254715711953
1050.0, 0.036135012823417155
1051.0, 0.03986339322006352
1052.0, 0.04243980346819106
1053.0, 0.04570427628106815
1054.0, 0.04705334458637884
1055.0, 0.049408403671017585
1056.0, 0.051493214330601715
1057.0, 0.05288142417044903
1058.0, 0.054303404286674455
1059.0, 0.05420765634298722
1060.0, 0.054864166945355404
1061.0, 0.0508052369213701
1062.0, 0.056389980399345965
1063.0, 0.055284748219602046
1064.0, 0.05306056101019731
1065.0, 0.05351093616682504
1066.0, 0.05428162141048299
1067.0, 0.05431997805687411
1068.0, 0.0542667487603325
1069.0, 0.0541090690303843
1070.0, 0.05651979620746611
1071.0, 0.05476353956451583
1072.0, 0.053042754783506146
1073.0, 0.05356948783021108
1074.0, 0.05096443689447685
1075.0, 0.046860588994748285
1076.0, 0.04286823229967544
1077.0, 0.03939271433091238
1078.0, 0.03774227258376522
1079.0, 0.03471038591457618
1080.0, 0.02762297734011125
1081.0, 0.023439048142039
1082.0, 0.020455018654492906
1083.0, 0.01658408270985398
1084.0, 0.01189515008205361
1085.0, 0.012137111174351671
1086.0, 0.01129077114121481
1087.0, 0.006259950140214796
1088.0, 0.005719609741922883
1089.0, 0.006132224306908867
1090.0, 0.0052153566202353
1091.0, 0.0049638370068913786
1092.0, 0.0012677001573366264
1093.0, 0.0016071218836010458
1094.0, 0.003389282254046957
1095.0, 0.003660940030286631
1096.0, 0.0028900650021507933
1097.0, 0.0009000350726121021
1098.0, 0.0008901485061191696
1099.0, 0.0012436910867041188
1100.0, 0.002063287827098514
1101.0, 0.0010029186763329343
1102.0, 0.0011546932306950722
1103.0, 0.001261388494645401
1104.0, 0.0002571944820904203
1105.0, 0.0011359010359766183
1106.0, 0.0006853827757397168
1107.0, 0.0011540078948590307
1108.0, 0.0010106158955743752
1109.0, 0.0021255841833641323
1110.0, 0.000331132315506939
1111.0, 0.00041225049138726743
1112.0, 0.0021268130508427475
1113.0, 0.0009644359328904414
1114.0, 0.0007896509942994653
1115.0, 0.0003716315396532539
1116.0, 0.00028589822788867563
1117.0, 0.0014648128084521696
1118.0, 0.0011125449143430937
1119.0, 0.0017044364150509525
1120.0, 0.001758428181170268
1121.0, 0.002715802799739814
1122.0, 0.0015501471704514125
1123.0, 0.002624449384444394
1124.0, 0.0029593979713281177
1125.0, 0.003253692808526516
1126.0, 0.001012680425934579
1127.0, 8.641291703228232e-05
1128.0, 0.0009673911193144589
1129.0, 0.000643299171063705
1130.0, 0.0003413223297502677
1131.0, 0.0006505709667205038
1132.0, 0.0008588603469893356
1133.0, 0.0009958431385931206
1134.0, 0.003307992114804997
1135.0, 0.0014479819573615914
1136.0, 0.002532334559103932
1137.0, 0.0026780657362790216
1138.0, 0.0021822602900970177
1139.0, 0.0046088542943045
1140.0, 0.0037210095716034204
1141.0, 0.0019334812827891108
1142.0, 0.0035714839514541324
1143.0, 0.009507995811423068
1144.0, 0.004401896026535269
1145.0, 0.0037015209047656953
1146.0, 0.00591084390657098
1147.0, 0.0061992438086413935
1148.0, 0.005387474345841935
1149.0, 0.004422682667127313
1150.0, 0.004467055546351174
1151.0, 0.006381911109260397
1152.0, 0.00614935060347859
1153.0, 0.007964824859801035
1154.0, 0.008311008990260405
1155.0, 0.006672027108529412
1156.0, 0.005554943405121369
1157.0, 0.0033343764111592685
1158.0, 0.003254329256563
1159.0, 0.004462756638151582
1160.0, 0.0030672588365512877
1161.0, 0.0012552433140928085
1162.0, 0.0036766975935155492
1163.0, 0.005210663416076065
1164.0, 0.0029503475860233053
1165.0, 0.004739081907643283
1166.0, 0.004328307103332906
1167.0, 0.003158991827180777
1168.0, 0.001869056045894468
1169.0, 0.0032302424777033087
1170.0, 0.002745552115088586
1171.0, 0.0018315807453108414
1172.0, 0.0019422654266140504
1173.0, 0.0015403295459820085
1174.0, 0.004776068514839942
1175.0, 0.005567856376063803
1176.0, 0.006161453173490961
1177.0, 0.006877840426971999
1178.0, 0.0030064650024827218
1179.0, 0.004057998985464286
1180.0, 0.0037433138273227622
1181.0, 0.0042541732578211654
1182.0, 0.006834513091787213
1183.0, 0.007007901007015851
1184.0, 0.004025765216839548
1185.0, 0.002989804823781267
1186.0, 0.006891871453719176
1187.0, 0.007287943243814588
1188.0, 0.003984879479768745
1189.0, 0.003340372600582433
1190.0, 0.0015401141934099213
1191.0, 0.0012234075090865432
1192.0, 0.003260211288424219
1193.0, 0.004436463538136573
1194.0, 0.004920884334081552
1195.0, 0.004266156066252923
1196.0, 0.0028013896060544775
1197.0, 0.0026004323457664144
1198.0, 0.0012133370467320198
1199.0, 0.004093265575315717
1200.0, 0.0015910758393350298
1201.0, 0.00202691958473824
1202.0, 0.004461847886796828
1203.0, 0.0021644778689903464
1204.0, 0.002844812130726509
1205.0, 0.004414559297995479
1206.0, 0.004776177103637028
1207.0, 0.004231931103943784
1208.0, 0.0033055398330130263
1209.0, 0.00444453168210884
1210.0, 0.006801490760442889
1211.0, 0.005567560072824585
1212.0, 0.004365460546722163
1213.0, 0.004707563737366164
1214.0, 0.006441671805788115
1215.0, 0.004686560765990437
1216.0, 0.005196547087515168
1217.0, 0.004534529266809324
1218.0, 0.004050375986209547
1219.0, 0.004064738141262174
1220.0, 0.004477642050070999
1221.0, 0.004919036116255078
1222.0, 0.003010481806112737
1223.0, 0.0029289924511411982
1224.0, 0.003363140911917335
1225.0, 0.003561547514415895
1226.0, 0.004653105210971439
1227.0, 0.0006644779795865822
1228.0, 0.003707369095870931
1229.0, 0.0041041099424492375
1230.0, 0.0030515215969236236
1231.0, 0.003161349408591557
1232.0, 0.00225498464207293
1233.0, 0.00265453378109566
1234.0, 0.0033158524727452845
1235.0, 0.0003704682123576511
1236.0, 0.001470159914272054
1237.0, 0.0009022927340792006
1238.0, 0.0009769844522546567
1239.0, 0.00038082283854121716
1240.0, 0.0006602446115701096
1241.0, 0.00156623827085587
1242.0, 0.00196000302883538
1243.0, 0.0005935523836966723
1244.0, 0.0011011720231087728
1245.0, 0.0015632227124768576
1246.0, 0.0004149764059977283
1247.0, 0.0007806143696591129
1248.0, 0.0005398547271405763
1249.0, 0.0008810512743499047
1250.0, 0.0035472840054413786
1251.0, 0.00031704311915718025
1252.0, 0.001299138066805392
1253.0, 0.0009271286966448353
1254.0, 0.0011689186222641759
1255.0, 0.003008689795307506
1256.0, 0.0014400018195905762
1257.0, 0.002667440327961412
1258.0, 0.0024791866830647666
1259.0, 0.00223537122769502
1260.0, 0.003342785794057431
1261.0, 0.0012112064651825186
1262.0, 0.001467788791199441
1263.0, 0.003570614131464559
1264.0, 0.003496582509073834
1265.0, 0.003179254723447189
1266.0, 0.0032578436730433752
1267.0, 0.0028883113756650565
1268.0, 0.0028393903450146
1269.0, 0.0009311637321367392
1270.0, 0.0025645641630291324
1271.0, 0.0034284749293443735
1272.0, 0.0008221240816833765
1273.0, 0.00043479450752044316
1274.0, 0.0007906645071048633
1275.0, 0.0020320600104892
1276.0, 0.004028346494822345
1277.0, 0.0018172772574088787
1278.0, 0.00364536410433581
1279.0, 0.0029260467199553773
1280.0, 0.00040914259241416973
1281.0, 0.0021724771512399827
1282.0, 0.002212671005633801
1283.0, 0.0013023070894086798
1284.0, 0.00030026165315637595
1285.0, 0.0033230706383649096
1286.0, 0.00376675294364779
1287.0, 0.0021819049291525406
1288.0, 0.0014950638003931452
1289.0, 0.00036315315998108037
1290.0, 0.0005087643047772392
1291.0, 0.0032026400887993746
1292.0, 0.0044899744548120065
1293.0, 0.0016657502709040367
1294.0, 0.0002505527625448078
1295.0, 0.002317672768468288
1296.0, 0.0030540247603234342
1297.0, 0.0007498272447140315
1298.0, 0.003565471322235005
1299.0, 0.0030746613695230066
1300.0, 0.0012032775703738861
1301.0, 0.0014322427795605912
1302.0, 0.0008262784700561515
1303.0, 2.436677759502388e-07
1304, 0.0
1305, 0.0
1306, 0.0
1307, 0.0
1308, 0.0
1309, 0.0
1310, 0.0
1311, 0.0
1312, 0.0
1313, 0.0
1314, 0.0
1315, 0.0
1316, 0.0
1317, 0.0
1318, 0.0
1319, 0.0
1320, 0.0
1321, 0.0
1322, 0.0
1323, 0.0
1324, 0.0
1325, 0.0
1326, 0.0
1327, 0.0
1328, 0.0
1329, 0.0
1330, 0.0
1331, 0.0
1332, 0.0
1333, 0.0
1334, 0.0
1335, 0.0
1336, 0.0
1337, 0.0
1338, 0.0
1339, 0.0
1340, 0.0
1341, 0.0
1342, 0.0
1343, 0.0
1344, 0.0
1345, 0.0
1346, 0.0
1347, 0.0
1348, 0.0
1349, 0.0
1350, 0.0
1351, 0.0
1352, 0.0
1353, 0.0
1354, 0.0
1355, 0.0
1356, 0.0
1357, 0.0
1358, 0.0
1359, 0.0
1360, 0.0
1361, 0.0
1362, 0.0
1363, 0.0
1364, 0.0
1365, 0.0
1366, 0.0
1367, 0.0
1368, 0.0
1369, 0.0
1370, 0.0
1371, 0.0
1372, 0.0
1373, 0.0
1374, 0.0
1375, 0.0
1376, 0.0
1377, 0.0
1378, 0.0
1379, 0.0
1380, 0.0
1381, 0.0
1382, 0.0
1383, 0.0
1384, 0.0
1385, 0.0
1386, 0.0
1387, 0.0
1388, 0.0
1389, 0.0
1390, 0.0
1391, 0.0
1392, 0.0
1393, 0.0
1394, 0.0
1395, 0.0
1396, 0.0
1397, 0.0
1398, 0.0
1399, 0.0
1400, 0.0
1401, 0.0
1402, 0.0
1403, 0.0
1404, 0.0
1405, 0.0
1406, 0.0
1407, 0.0
1408, 0.0
1409, 0.0
1410, 0.0
1411, 0.0
1412, 0.0
1413, 0.0
1414, 0.0
1415, 0.0
1416, 0.0
1417, 0.0
1418, 0.0
1419, 0.0
1420, 0.0
1421, 0.0
1422, 0.0
1423, 0.0
1424, 0.0
1425, 0.0
1426, 0.0
1427, 0.0
1428, 0.0
1429, 0.0
1430, 0.0
1431, 0.0
1432, 0.0
1433, 0.0
1434, 0.0
1435, 0.0
1436, 0.0
1437, 0.0
1438, 0.0
1439, 0.0
1440, 0.0
1441, 0.0
1442, 0.0
1443, 0.0
1444, 0.0
1445, 0.0
1446, 0.0
1447, 0.0
1448, 0.0
1449, 0.0
1450, 0.0
1451, 0.0
1452, 0.0
1453, 0.0
1454, 0.0
1455, 0.0
1456, 0.0
1457, 0.0
1458, 0.0
1459, 0.0
1460, 0.0
1461, 0.0
1462, 0.0
1463, 0.0
1464, 0.0
1465, 0.0
1466, 0.0
1467, 0.0
1468, 0.0
1469, 0.0
1470, 0.0
1471, 0.0
1472, 0.0
1473, 0.0
1474, 0.0
1475, 0.0
1476, 0.0
1477, 0.0
1478, 0.0
1479, 0.0
1480, 0.0
1481, 0.0
1482, 0.0
1483, 0.0
1484, 0.0
1485, 0.0
1486, 0.0
1487, 0.0
1488, 0.0
1489, 0.0
1490, 0.0
1491, 0.0
1492, 0.0
1493, 0.0
1494, 0.0
1495, 0.0
1496, 0.0
1497, 0.0
1498, 0.0
1499, 0.0
1500, 0.0
1501, 0.0
1502, 0.0
1503, 0.0
1504, 0.0
1505, 0.0
1506, 0.0
1507, 0.0
1508, 0.0
1509, 0.0
1510, 0.0
1511, 0.0
1512, 0.0
1513, 0.0
1514, 0.0
1515, 0.0
1516, 0.0
1517, 0.0
1518, 0.0
1519, 0.0
1520, 0.0
1521, 0.0
1522, 0.0
1523, 0.0
1524, 0.0
1525, 0.0
1526, 0.0
1527, 0.0
1528, 0.0
1529, 0.0
1530, 0.0
1531, 0.0
1532, 0.0
1533, 0.0
1534, 0.0
1535, 0.0
1536, 0.0
1537, 0.0
1538, 0.0
1539, 0.0
1540, 0.0
1541, 0.0
1542, 0.0
1543, 0.0
1544, 0.0
1545, 0.0
1546, 0.0
1547, 0.0
1548, 0.0
1549, 0.0
1550, 0.0
1551, 0.0
1552, 0.0
1553, 0.0
1554, 0.0
1555, 0.0
1556, 0.0
1557, 0.0
1558, 0.0
1559, 0.0
1560, 0.0
1561, 0.0
1562, 0.0
1563, 0.0
1564, 0.0
1565, 0.0
1566, 0.0
1567, 0.0
1568, 0.0
1569, 0.0
1570, 0.0
1571, 0.0
1572, 0.0
1573, 0.0
1574, 0.0
1575, 0.0
1576, 0.0
1577, 0.0
1578, 0.0
1579, 0.0
1580, 0.0
1581, 0.0
1582, 0.0
1583, 0.0
1584, 0.0
1585, 0.0
1586, 0.0
1587, 0.0
1588, 0.0
1589, 0.0
1590, 0.0
1591, 0.0
1592, 0.0
1593, 0.0
1594, 0.0
1595, 0.0
1596, 0.0
1597, 0.0
1598, 0.0
1599, 0.0
