30, 0.0
31, 0.0
32, 0.0
33, 0.0
34, 0.0
35, 0.0
36, 0.0
37, 0.0
38, 0.0
39, 0.0
40, 0.0
41, 0.0
42, 0.0
43, 0.0
44, 0.0
45, 0.0
46, 0.0
47, 0.0
48, 0.0
49, 0.0
50, 0.0
51, 0.0
52, 0.0
53, 0.0
54, 0.0
55, 0.0
56, 0.0
57, 0.0
58, 0.0
59, 0.0
60, 0.0
61, 0.0
62, 0.0
63, 0.0
64, 0.0
65, 0.0
66, 0.0
67, 0.0
68, 0.0
69, 0.0
70, 0.0
71, 0.0
72, 0.0
73, 0.0
74, 0.0
75, 0.0
76, 0.0
77, 0.0
78, 0.0
79, 0.0
80, 0.0
81, 0.0
82, 0.0
83, 0.0
84, 0.0
85, 0.0
86, 0.0
87, 0.0
88, 0.0
89, 0.0
90, 0.0
91, 0.0
92, 0.0
93, 0.0
94, 0.0
95, 0.0
96, 0.0
97, 0.0
98, 0.0
99, 0.0
100, 0.0
101, 0.0
102, 0.0
103, 0.0
104, 0.0
105, 0.0
106, 0.0
107, 0.0
108, 0.0
109, 0.0
110, 0.0
111, 0.0
112, 0.0
113, 0.0
114, 0.0
115, 0.0
116, 0.0
117, 0.0
118, 0.0
119, 0.0
120, 0.0
121, 0.0
122, 0.0
123, 0.0
124, 0.0
125, 0.0
126, 0.0
127, 0.0
128, 0.0
129, 0.0
130, 0.0
131, 0.0
132, 0.0
133, 0.0
134, 0.0
135, 0.0
136, 0.0
137, 0.0
138, 0.0
139, 0.0
140, 0.0
141, 0.0
142, 0.0
143, 0.0
144, 0.0
145, 0.0
146, 0.0
147, 0.0
148, 0.0
149, 0.0
150, 0.0
151, 0.0
152, 0.0
153, 0.0
154, 0.0
155, 0.0
156, 0.0
157, 0.0
158, 0.0
159, 0.0
160, 0.0
161, 0.0
162, 0.0
163, 0.0
164, 0.0
165, 0.0
166, 0.0
167, 0.0
168, 0.0
169, 0.0
170, 0.0
171, 0.0
172, 0.0
173, 0.0
174, 0.0
175, 0.0
176, 0.0
177, 0.0
178, 0.0
179, 0.0
180, 0.0
181, 0.0
182, 0.0
183, 0.0
184, 0.0
185, 0.0
186, 0.0
187.0, 0.00039488386195571867
188.0, 0.0002218778096634879
189.0, 0.0006102086761251685
190.0, 0.0019851129332122404
191.0, 0.0029508470662708533
192.0, 0.0034849029296630876
193.0, 0.003558793506368828
194.0, 0.00284892444760654
195.0, 0.012130520652560383
196.0, 0.02022219143201896
197.0, 0.02144065076304129
198.0, 0.02692927408935959
199.0, 0.038409013892920854
200.0, 0.04244127536265807
201.0, 0.04199482344822402
202.0, 0.049381138940924274
203.0, 0.048474422400113654
204.0, 0.04644812905685202
205.0, 0.045117872856346
206.0, 0.042817916564256465
207.0, 0.03853987814004191
208.0, 0.03341211862332075
209.0, 0.02907481150690847
210.0, 0.027980671662163233
211.0, 0.0330494379017017
212.0, 0.03713053130697743
213.0, 0.0460657624257455
214.0, 0.05830805997940276
215.0, 0.0708333718949801
216.0, 0.0903909406722931
217.0, 0.11681813477891155
218.0, 0.14747268961503704
219.0, 0.17808695222785195
220.0, 0.20399677862243626
221.0, 0.2398340120231679
222.0, 0.2807797568729349
223.0, 0.32558659526245326
224.0, 0.3764372646936818
225.0, 0.4286082132424316
226.0, 0.4842805969848088
227.0, 0.5483911396178528
228.0, 0.617987934442049
229.0, 0.6752267215280754
230.0, 0.7322241142026585
231.0, 0.7720771868101425
232.0, 0.7837759419972313
233.0, 0.7667643367902455
234.0, 0.7096368190043117
235.0, 0.6367230250002238
236.0, 0.5562718179861788
237.0, 0.46996723708545607
238.0, 0.387847229036811
239.0, 0.31667497175017306
240.0, 0.2582048250535497
241.0, 0.20858098015048465
242.0, 0.16275462991124917
243.0, 0.12054510746789786
244.0, 0.0967063915431261
245.0, 0.0828855752330818
246.0, 0.0673382972900012
247.0, 0.05308520309244154
248.0, 0.04396126482467755
249.0, 0.03800524881754226
250.0, 0.03424486657303825
251.0, 0.03272596197551029
252.0, 0.026141530051580816
253.0, 0.0255162492001875
254.0, 0.028171708890350304
255.0, 0.02782149192894026
256.0, 0.024737218818531758
257.0, 0.02470916576907358
258.0, 0.02643170167751773
259.0, 0.029388138850808234
260.0, 0.03421836368511451
261.0, 0.029122905512529322
262.0, 0.026228719786866583
263.0, 0.030565953207687246
264.0, 0.03959642670551514
265.0, 0.03697660556430503
266.0, 0.031005377037702325
267.0, 0.025397681757889177
268.0, 0.021497644735798793
269.0, 0.019234645944083122
270.0, 0.01707837267309209
271.0, 0.015976137713470343
272.0, 0.01643345772496939
273.0, 0.01661389337543995
274.0, 0.012528382305225523
275.0, 0.011695929224178466
276.0, 0.01042801903156377
277.0, 0.005083163205498833
278.0, 0.0036007370372462674
279.0, 0.004262871351504969
280.0, 0.0031890280570053492
281.0, 0.0018111307102803688
282.0, 0.001315831404492395
283.0, 0.003991918035782541
284.0, 0.006123944392478877
285.0, 0.0032358989172526532
286.0, 0.001755213665932257
287.0, 0.006493370835900701
288.0, 0.005773237921961227
289.0, 0.007096336622210606
290.0, 0.0009853132822524153
291.0, 0.008147489763838037
292.0, 0.003133297815607709
293.0, 0.0027766290279916863
294.0, 0.005005974231913933
295.0, 0.0029095908422156415
296.0, 0.0043884854286500114
297.0, 0.009265715163762608
298.0, 0.00663496307190798
299.0, 0.011321159880358958
300.0, 0.01713040267117016
301.0, 0.012729525520579973
302.0, 0.013198807000946236
303.0, 0.022196349046313693
304.0, 0.028515672972550987
305.0, 0.0275801984681822
306.0, 0.02388646958203472
307.0, 0.022743332599739288
308.0, 0.027622392361025108
309.0, 0.030722973261875706
310.0, 0.02606313755973015
311.0, 0.018747677737821072
312.0, 0.017606938512775522
313.0, 0.020610240800202993
314.0, 0.02320797228800796
315.0, 0.022795039254343306
316.0, 0.01926823196430612
317.0, 0.030943009666924794
318.0, 0.035686471522551645
319.0, 0.03214646712143223
320.0, 0.04012683043076592
321.0, 0.03933490037779858
322.0, 0.03583293991170745
323.0, 0.032571141444684655
324.0, 0.029592681485314975
325.0, 0.026018818212524285
326.0, 0.015197080119441975
327.0, 0.00874620882760358
328.0, 0.008050224323764666
329.0, 0.00849108543880583
330.0, 0.0034355122545364643
331.0, 0.002486565048383036
332.0, 0.0007730966852899501
333.0, 0.0026473992649057062
334.0, 0.005690130425486074
335.0, 0.0010701995963172497
336.0, 0.0031780860713498493
337.0, 0.01048740469930414
338.0, 0.016358917311322132
339.0, 0.02218933624094367
340.0, 0.02802333206371191
341.0, 0.03174511733868206
342.0, 0.037417097841202555
343.0, 0.048706208515757445
344.0, 0.06045724926838613
345.0, 0.0634079106398048
346.0, 0.07190601409467444
347.0, 0.0825058428012966
348.0, 0.08723022374720708
349.0, 0.09890794888833107
350.0, 0.10519679292753698
351.0, 0.10525223605838449
352.0, 0.09555117499218783
353.0, 0.07511713818787205
354.0, 0.06297797429390656
355.0, 0.03904906773067486
356.0, 0.021417572874373916
357.0, 0.016796568049589723
358.0, 0.011145744563724835
359.0, 0.01202439065833288
360.0, 0.01562469452009229
361.0, 0.025674325686101975
362.0, 0.03966058008080692
363.0, 0.045069381307959636
364.0, 0.0547206232955448
365.0, 0.06956152841301771
366.0, 0.08385183019602953
367.0, 0.0978704959900281
368.0, 0.12461136195105124
369.0, 0.1621017534714113
370.0, 0.19915453578494663
371.0, 0.2326490030451995
372.0, 0.2652893998845236
373.0, 0.31179560029184095
374.0, 0.3631320913450197
375.0, 0.4107978905384658
376.0, 0.4620842907432044
377.0, 0.528255759124982
378.0, 0.5921853295456861
379.0, 0.6716214163388307
380.0, 0.7516108790787354
381.0, 0.8272916809883023
382.0, 0.9042538655371813
383.0, 0.9584303716238669
384.0, 0.9927669022740132
385.0, 0.9986650300761521
386.0, 0.9658790231558749
387.0, 0.892189188315163
388.0, 0.7975261265046514
389.0, 0.7003066464555306
390.0, 0.6105134778780914
391.0, 0.5254904604845045
392.0, 0.4404372802499638
393.0, 0.3778930957219315
394.0, 0.3061655537809325
395.0, 0.24324119845079048
396.0, 0.19700481102730216
397.0, 0.14302405619276448
398.0, 0.11246896448305438
399.0, 0.08749667194595065
400.0, 0.06955993283023164
401.0, 0.05804457678024833
402.0, 0.03966377680496351
403.0, 0.03691744988235964
404.0, 0.030393549394410246
405.0, 0.020664028887918413
406.0, 0.017507199543639565
407.0, 0.021844167569718614
408.0, 0.017056496480752577
409.0, 0.017780935391402547
410.0, 0.023125461049984277
411.0, 0.025340261816270568
412.0, 0.021937673779656712
413.0, 0.016362655725612994
414.0, 0.013737849480000642
415.0, 0.015156194960332416
416.0, 0.0162442191750801
417.0, 0.011057883631827161
418.0, 0.012801852039177821
419.0, 0.01439966463636883
420.0, 0.014426550333344498
421.0, 0.015460389824309846
422.0, 0.019016525591169307
423.0, 0.023563624625942393
424.0, 0.024932292784995123
425.0, 0.030193436868525186
426.0, 0.03724878770432848
427.0, 0.02056459412109516
428.0, 0.025499711986443567
429.0, 0.02551277028806665
430.0, 0.021704791149919668
431.0, 0.02209770165061428
432.0, 0.017304691827198765
433.0, 0.02084708623575636
434.0, 0.018951176812444712
435.0, 0.016272391871323726
436.0, 0.0169020108505388
437.0, 0.009778924151956655
438.0, 0.0033469562347443645
439.0, 0.0009427985519353052
440.0, 0.0033697088444156684
441.0, 0.004407034594876927
442.0, 0.0057455868631884266
443.0, 0.009062103932348195
444.0, 0.00805909153131131
445.0, 0.00889304011257948
446.0, 0.011017874130026839
447.0, 0.007262288625606233
448.0, 0.0006833247193963625
449.0, 0.002130531796886581
450.0, 0.00823619442564984
451.0, 0.015205204458867078
452.0, 0.010425915900906114
453.0, 0.01735057203336892
454.0, 0.01784115300284287
455.0, 0.021514865547774934
456.0, 0.028361722721875836
457.0, 0.0257691681820705
458.0, 0.026217431264285218
459.0, 0.033260829562088715
460.0, 0.03839622062996828
461.0, 0.04324073600752232
462.0, 0.05161807973977198
463.0, 0.04502144778224521
464.0, 0.055651566881739285
465.0, 0.055876238867115985
466.0, 0.055756311415189885
467.0, 0.07569487142581828
468.0, 0.0621268495089614
469.0, 0.06730228760047834
470.0, 0.07783147547151341
471.0, 0.08410568885009553
472.0, 0.08346426833326562
473.0, 0.07126454361899345
474.0, 0.06890784666688811
475.0, 0.07176578847072436
476.0, 0.06581922700639203
477.0, 0.052855129846843214
478.0, 0.05504812600766598
479.0, 0.05021427695690111
480.0, 0.04936936119494168
481.0, 0.04363298278098097
482.0, 0.03224147539774615
483.0, 0.02845948679435081
484.0, 0.021556818247613206
485.0, 0.02112947813377839
486.0, 0.02177575752895318
487.0, 0.023314165509065676
488.0, 0.027612329264056733
489.0, 0.01577864629196267
490.0, 0.01741841902351982
491.0, 0.022026216337734477
492.0, 0.021827734901033985
493.0, 0.019055555295314386
494.0, 0.018138956948885142
495.0, 0.023188683170581075
496.0, 0.026727350261301245
497.0, 0.02766223482401001
498.0, 0.025390110440065703
499.0, 0.016471160672928642
500.0, 0.016521608556568226
501.0, 0.023268772920790857
502.0, 0.01615380787212109
503.0, 0.002784557808292275
504.0, 0.016453302695903397
505.0, 0.0148622517621779
506.0, 0.017859880201152055
507.0, 0.013087552804292458
508.0, 0.007394458126410737
509.0, 0.015479970436361774
510.0, 0.00860276989379776
511.0, 0.01715266408511373
512.0, 0.019376147073562916
513.0, 0.016616355324439558
514.0, 0.022043453570536307
515.0, 0.03095821420042802
516.0, 0.030029512211702872
517.0, 0.03264474295340996
518.0, 0.03497435554580508
519.0, 0.0338852370973509
520.0, 0.03490389526639809
521.0, 0.039534977725929225
522.0, 0.041883017104760584
523.0, 0.04421118538726936
524.0, 0.0442940708637984
525.0, 0.040237970704129766
526.0, 0.04311449980504979
527.0, 0.044407545064732074
528.0, 0.04305751036838619
529.0, 0.03603793986949852
530.0, 0.026745530743028722
531.0, 0.02886331468922562
532.0, 0.02456824087453021
533.0, 0.017499676146591522
534.0, 0.01674408180692561
535.0, 0.0207891070092843
536.0, 0.021720440869028974
537.0, 0.02948964096585861
538.0, 0.02369824948328554
539.0, 0.019041048333793734
540.0, 0.021149539610097596
541.0, 0.02233911739886505
542.0, 0.018697026217651198
543.0, 0.018090608518831607
544.0, 0.021915080309511604
545.0, 0.019948125304252776
546.0, 0.015782167544954206
547.0, 0.025452506626926736
548.0, 0.022542376333456567
549.0, 0.02527481814395921
550.0, 0.025384216813254496
551.0, 0.024004639405665357
552.0, 0.026814184055925772
553.0, 0.02528340286629945
554.0, 0.015761757953220917
555.0, 0.012759312344688536
556.0, 0.011084762560617143
557.0, 0.005175034864086292
558.0, 0.0013302991802030747
559.0, 0.00846175588454565
560.0, 0.016092936919076983
561.0, 0.006632010086732237
562.0, 0.004661971513045204
563.0, 0.008211990827951775
564.0, 0.009529095825582324
565.0, 0.007068812985555842
566.0, 0.00526691720701704
567.0, 0.002369215377951661
568.0, 0.005287676822954532
569.0, 0.0006405745311717859
570.0, 0.003416463541312949
571.0, 0.007852584862664288
572.0, 0.005967382519357386
573.0, 0.0006785667041361946
574.0, 0.003787874576833412
575.0, 0.0053454364983279755
576.0, 0.0040462076474633785
577.0, 0.001157419639000001
578.0, 0.005706567153828863
579.0, 0.009570413808454713
580.0, 0.0034936506498895598
581.0, 0.0030457970706818348
582.0, 0.003512668238853603
583.0, 0.009384076667146296
584.0, 0.0030104306092403406
585.0, 0.007055431995305552
586.0, 0.0017489060561983237
587.0, 0.00037261812282173327
588.0, 0.002568582317702302
589.0, 0.010461946746859234
590.0, 0.01823379837528652
591.0, 0.016653082683861762
592.0, 0.013980895809896669
593.0, 0.010500658368762255
594.0, 0.01547334774073785
595.0, 0.022425063986736955
596.0, 0.021825628225438754
597.0, 0.014731799770339045
598.0, 0.014852681507510377
599.0, 0.021825487951902423
600.0, 0.022559390876351722
601.0, 0.02443843533563981
602.0, 0.03282698100843756
603.0, 0.039204945915278885
604.0, 0.04896557780061607
605.0, 0.04227152244871914
606.0, 0.04789905500734334
607.0, 0.06048369441284571
608.0, 0.06313854565513273
609.0, 0.07591995404019887
610.0, 0.08478493861614161
611.0, 0.09050246484675188
612.0, 0.10241188743922881
613.0, 0.11665449957170587
614.0, 0.12445301161183413
615.0, 0.13858408618324444
616.0, 0.1445776163362489
617.0, 0.14717183869135458
618.0, 0.1533555848133145
619.0, 0.16144346677674873
620.0, 0.1647169646403019
621.0, 0.16813989796390807
622.0, 0.16579907065024763
623.0, 0.1583266907891814
624.0, 0.1444645218876104
625.0, 0.1307857723512977
626.0, 0.1304823657025422
627.0, 0.12321452617743342
628.0, 0.10966921556762481
629.0, 0.09335366033109799
630.0, 0.08629240146104745
631.0, 0.08831705785218104
632.0, 0.08002579524180302
633.0, 0.07520424008448517
634.0, 0.06768311125517047
635.0, 0.05982451331608069
636.0, 0.053906631611666964
637.0, 0.05037579159704078
638.0, 0.04890596174082201
639.0, 0.04166832639763322
640.0, 0.045886697981425695
641.0, 0.045154092555652815
642.0, 0.04174006452916321
643.0, 0.041678422133971986
644.0, 0.022715842987880257
645.0, 0.024991186032990866
646.0, 0.031423392142432234
647.0, 0.03152741573761282
648.0, 0.03263650625768355
649.0, 0.037476284732649905
650.0, 0.024688052423301337
651.0, 0.023401674975234654
652.0, 0.02835683301222456
653.0, 0.026140883541827097
654.0, 0.02272922373594705
655.0, 0.032192396055017336
656.0, 0.04737302986959745
657.0, 0.038591121504077064
658.0, 0.0356234094581458
659.0, 0.04044819012924563
660.0, 0.04306588921814456
661.0, 0.0415113716097469
662.0, 0.043455199610691754
663.0, 0.05025830886831846
664.0, 0.0535162562674909
665.0, 0.06518034650389559
666.0, 0.082323670764861
667.0, 0.09115056486567574
668.0, 0.10373281978876578
669.0, 0.12581265561382687
670.0, 0.14029202930184168
671.0, 0.15798102102770004
672.0, 0.1815367137282488
673.0, 0.20655715024562363
674.0, 0.2510476086699034
675.0, 0.2855641783552109
676.0, 0.3268398558933691
677.0, 0.3770259113609319
678.0, 0.4307048500093953
679.0, 0.48546760303281605
680.0, 0.5440039562358484
681.0, 0.604117412519023
682.0, 0.6529063035193523
683.0, 0.711075075951204
684.0, 0.7703880373213225
685.0, 0.80647356093992
686.0, 0.8333670546327882
687.0, 0.8461195708822526
688.0, 0.852820673733438
689.0, 0.8420522853868125
690.0, 0.8076561326583174
691.0, 0.7574246898310418
692.0, 0.7017300876664722
693.0, 0.6282772930043409
694.0, 0.5657812131405588
695.0, 0.5074503373512598
696.0, 0.45026445324573217
697.0, 0.3972628249335193
698.0, 0.351421570830602
699.0, 0.31362394987886144
700.0, 0.28647968163238285
701.0, 0.26202900316034883
702.0, 0.23834311915221434
703.0, 0.21913317262565177
704.0, 0.2059870712314344
705.0, 0.19359234932104596
706.0, 0.18053872045657146
707.0, 0.16207718360966147
708.0, 0.1474026769185604
709.0, 0.13964432949552252
710.0, 0.13509649522006745
711.0, 0.14173487483878672
712.0, 0.1201281437504712
713.0, 0.10799454023608268
714.0, 0.10046813274023216
715.0, 0.08976730769639213
716.0, 0.08338224503290892
717.0, 0.08123851563807871
718.0, 0.0625993706207196
719.0, 0.056387931855063064
720.0, 0.05372706404957417
721.0, 0.046773682940207666
722.0, 0.03546396198483002
723.0, 0.020260360245405624
724.0, 0.0328308650626188
725.0, 0.025014910593514364
726.0, 0.028150015434426162
727.0, 0.026067180985353607
728.0, 0.010489234531019055
729.0, 0.012013353182360046
730.0, 0.02475587655488279
731.0, 0.022736603298363786
732.0, 0.00918213304597898
733.0, 0.0011256935061561679
734.0, 0.0005780865894953277
735.0, 0.0003922147402952272
736.0, 0.0012169995824951162
737.0, 0.0003629515862746507
738.0, 0.002893800768694987
739.0, 0.009236486659097614
740.0, 0.002694829686105773
741.0, 0.006287614320319681
742.0, 0.006031265620073431
743.0, 0.002963793083729441
744.0, 0.004292491195346608
745.0, 0.0020103913552647714
746.0, 0.0018718028994024359
747.0, 0.006125263435624391
748.0, 0.006154820701794969
749.0, 0.0020928663075851714
750.0, 0.00359430931260668
751.0, 0.006820340871029899
752.0, 0.008747077162598624
753.0, 0.006143633661913237
754.0, 0.010195175937664128
755.0, 0.007314210305001263
756.0, 0.018742929718062597
757.0, 0.01159289780114404
758.0, 0.003992699755492689
759.0, 0.00890007298802227
760.0, 0.016406790573994884
761.0, 0.015370615563438179
762.0, 0.020636770519094343
763.0, 0.02242178168918378
764.0, 0.019816435546242853
765.0, 0.02466545458470693
766.0, 0.03070470466902729
767.0, 0.03113493622540936
768.0, 0.029844438679605723
769.0, 0.019792970475503293
770.0, 0.007828882011104855
771.0, 0.006093769142941172
772.0, 0.0154209500973802
773.0, 0.01938396361948547
774.0, 0.009803012104305888
775.0, 0.006790309610337097
776.0, 0.011607920725339865
777.0, 0.02003233754095905
778.0, 0.01148818269509456
779.0, 0.006751571080743699
780.0, 0.010854459378260666
781.0, 0.004246412365625651
782.0, 0.004667216046652807
783.0, 0.001175956846181138
784.0, 0.0005990114072825897
785.0, 0.001635837149481613
786.0, 0.00430247988517606
787.0, 0.008713739421883554
788.0, 0.013794355311424287
789.0, 0.006340355550756503
790.0, 0.0012394050994392982
791.0, 0.009657163732952058
792.0, 0.014849956991554072
793.0, 0.005152442710877036
794.0, 0.007093281495950223
795.0, 0.0022056074892810047
796.0, 0.009347198880932038
797.0, 0.00839900226551569
798.0, 0.008148478662914934
799.0, 0.008531039684499135
800.0, 0.0052259890229051555
801.0, 0.00041699179061090164
802.0, 0.0017551329065589136
803.0, 0.009501061152417587
804.0, 0.00838310289775721
805.0, 0.008324705567850036
806.0, 0.009734158194114538
807.0, 0.009458861177784474
808.0, 0.004960433495285825
809.0, 0.005411969518019495
810.0, 0.001692351550160207
811.0, 0.0097076675366252
812.0, 0.017139163052255275
813.0, 0.01752833126932063
814.0, 0.011983624149805236
815.0, 0.00891311543271347
816.0, 0.019094482681032345
817.0, 0.011583019883914787
818.0, 0.009311520952500804
819.0, 0.00944161719487588
820.0, 0.012627228787506925
821.0, 0.016597592789211343
822.0, 0.014844226942116102
823.0, 0.01563986039565734
824.0, 0.006057483753264546
825.0, 0.008676145889107282
826.0, 0.006090314287474223
827.0, 0.004713800390226713
828.0, 0.010375586284067406
829.0, 0.010448777963648424
830.0, 0.006881010152713171
831.0, 0.011700950480551087
832.0, 0.009797348901296021
833.0, 0.013435417874476168
834.0, 0.014193707321690322
835.0, 0.007887312722936033
836.0, 0.009598795769888386
837.0, 0.012649718984622155
838.0, 0.0035292948141901893
839.0, 0.009817582712459817
840.0, 0.013039393751307256
841.0, 0.012270933856154553
842.0, 0.012137982396694618
843.0, 0.010134566050225094
844.0, 0.0144461512797575
845.0, 0.020559219818349773
846.0, 0.010087778642189826
847.0, 0.007933269218681097
848.0, 0.009819279592567003
849.0, 0.007869215504446895
850.0, 0.004768852302294605
851.0, 0.0006285045156570949
852.0, 0.01778226001254875
853.0, 0.008111345655610709
854.0, 0.00022408188681287747
855.0, 0.00913951002887117
856.0, 0.019454539077009676
857.0, 0.017850338990508665
858.0, 0.014633828272943962
859.0, 0.008548839882015625
860.0, 0.0008165271074494975
861.0, 0.008570724718273939
862.0, 0.02282117688794007
863.0, 0.02236824950142154
864.0, 0.00930806764014946
865.0, 0.005373948801712855
866.0, 0.005736495725605115
867.0, 0.005190842871729526
868.0, 0.006629856113704072
869.0, 0.0012467493047089305
870.0, 0.0010310626310935593
871.0, 0.005206893586188056
872.0, 0.004048337187773272
873.0, 0.01179497748504816
874.0, 0.01415853393186551
875.0, 0.01273551492540918
876.0, 0.005714675706428465
877.0, 0.01197844498832007
878.0, 0.013740954785379286
879.0, 0.0029099911101012612
880.0, 0.004634840666371973
881.0, 0.0074698670798286244
882.0, 0.0018431082439406188
883.0, 0.00939776508540718
884.0, 0.011642249596739962
885.0, 0.00495785464461864
886.0, 0.00432365282539998
887.0, 0.004003155907209691
888.0, 0.01612546592014868
889.0, 0.010930568178465296
890.0, 0.0026142930884369294
891.0, 0.0013228846679972641
892.0, 0.0084334793260035
893.0, 0.01150595131840534
894.0, 0.005383451934606051
895.0, 0.007533916087276679
896.0, 0.008691891203138553
897.0, 0.0010246617513171572
898.0, 0.0006478878539275491
899.0, 0.005611762687093297
900.0, 0.00712306886039963
901.0, 0.0025032425366261044
902.0, 0.0006529624944580322
903.0, 0.0027797465614264275
904.0, 0.0033891767563685197
905.0, 0.008396580685534418
906.0, 0.007151575774229103
907.0, 0.009329533338483726
908.0, 0.012655919700210252
909.0, 0.00568670692670224
910.0, 0.0015324826965858642
911.0, 0.011144864789728485
912.0, 0.007745848363317934
913.0, 0.012781690042797313
914.0, 0.019721687676869434
915.0, 0.018712482134437068
916.0, 0.010405998594506416
917.0, 0.005459244453516718
918.0, 0.01082232738487534
919.0, 0.026693276879775015
920.0, 0.026277469858179574
921.0, 0.024706733901830032
922.0, 0.021655295459435352
923.0, 0.022014246519905464
924.0, 0.02530163059009678
925.0, 0.022499369424072626
926.0, 0.022688607475482927
927.0, 0.021924055431160962
928.0, 0.023162437186582504
929.0, 0.024415278396462507
930.0, 0.027013813598655935
931.0, 0.0339503498260092
932.0, 0.03654556022243504
933.0, 0.027995756830583238
934.0, 0.03154157664394257
935.0, 0.03131186033517248
936.0, 0.03837524326309943
937.0, 0.03724496897136616
938.0, 0.030126600494866734
939.0, 0.0275285215220189
940.0, 0.031671955357980425
941.0, 0.030842519356329305
942.0, 0.023277055279215687
943.0, 0.030374400443820986
944.0, 0.021005776382990584
945.0, 0.022439483684563086
946.0, 0.025331583241656748
947.0, 0.021864170272172065
948.0, 0.015344198171726463
949.0, 0.007246778584734366
950.0, 0.02196275461145647
951.0, 0.02148104522043177
952.0, 0.02069991106942301
953.0, 0.013681389603890565
954.0, 0.01598366839403862
955.0, 0.01896664437981491
956.0, 0.014268944416450456
957.0, 0.018223910734893784
958.0, 0.02048725446648091
959.0, 0.0198851158032546
960.0, 0.015275508464287832
961.0, 0.0075380248173465385
962.0, 0.008601277980568608
963.0, 0.01063033628260252
964.0, 0.003223711385068949
965.0, 0.004058596242333066
966.0, 0.008591515655740414
967.0, 0.013991299203960007
968.0, 0.007886193884790503
969.0, 0.01075114432621192
970.0, 0.014038053212268439
971.0, 0.003747037373906328
972.0, 0.006840534375071353
973.0, 0.002588156614494978
974.0, 0.01302571551639782
975.0, 0.020808839840701122
976.0, 0.019116828842620708
977.0, 0.02334459410178139
978.0, 0.009351755914653094
979.0, 0.0023610425545548958
980.0, 0.011435640453423877
981.0, 0.016387488376380734
982.0, 0.017286714970025353
983.0, 0.014884903052971766
984.0, 0.006529954757950404
985.0, 0.010082532789318574
986.0, 0.012196271923020158
987.0, 0.006933651387219483
988.0, 0.007004151359653533
989.0, 0.0134120866919358
990.0, 0.010680677163383882
991.0, 0.0014521232034456545
992.0, 0.008887525193614163
993.0, 0.021536629235565444
994.0, 0.020047598651426527
995.0, 0.017413826692317235
996.0, 0.00844229796225249
997.0, 0.002339864128776587
998.0, 0.011066065243488672
999.0, 0.014439407204136969
1000.0, 0.01967000798193185
1001.0, 0.005602162208949419
1002.0, 0.001899224128777792
1003.0, 0.004116815756443207
1004.0, 0.013464147792818579
1005.0, 0.00854377364569174
1006.0, 0.0018825857747781071
1007.0, 0.006959373864788969
1008.0, 0.017671463294653154
1009.0, 0.0015651909566498623
1010.0, 0.007179401234999029
1011.0, 0.004706044737104519
1012.0, 0.008032923986261757
1013.0, 0.0043224927588289075
1014.0, 0.0022108247292959024
1015.0, 0.012282694304757308
1016.0, 0.007056278661859028
1017.0, 0.01844875455065037
1018.0, 0.0016613219073963723
1019.0, 0.0013443365525957272
1020.0, 0.006840822425025288
1021.0, 0.012678358035691822
1022.0, 0.01722495562948885
1023.0, 0.012061497887257615
1024.0, 0.004360210721853396
1025.0, 0.0145475244432415
1026.0, 0.01351239598597975
1027.0, 0.004716912072718362
1028.0, 0.003160762301413645
1029.0, 0.0038913466368695675
1030.0, 0.01406771065956174
1031.0, 0.01807447075847704
1032.0, 0.008028635835540884
1033.0, 0.0020277839649645683
1034.0, 0.009003289364189678
1035.0, 0.006535808332462168
1036.0, 0.020073964049000838
1037.0, 0.011241809356231302
1038.0, 0.02085614493711963
1039.0, 0.026307699409267717
1040.0, 0.021743286830434617
1041.0, 0.015061392900768198
1042.0, 0.009665243842901232
1043.0, 0.013230209624041032
1044.0, 0.01735872500504639
1045.0, 0.01455420598243947
1046.0, 0.015319623025333153
1047.0, 0.014228958653934818
1048.0, 0.01178415196234521
1049.0, 0.016448811672391987
1050.0, 0.02371081737497585
1051.0, 0.023821117018002446
1052.0, 0.024705266754789533
1053.0, 0.03320514306030606
1054.0, 0.025882406816938368
1055.0, 0.03137128458203831
1056.0, 0.04275525113412742
1057.0, 0.03227399165091492
1058.0, 0.027699040762168448
1059.0, 0.03342377178486987
1060.0, 0.034534232621514074
1061.0, 0.03619561700529458
1062.0, 0.04069340757736948
1063.0, 0.04614286751639039
1064.0, 0.04593237747547315
1065.0, 0.04845065359217175
1066.0, 0.04816367742950935
1067.0, 0.045752492826315966
1068.0, 0.047501207552497204
1069.0, 0.05126436214762564
1070.0, 0.05406701904581888
1071.0, 0.056405166089153407
1072.0, 0.05771689465360593
1073.0, 0.07841430296246174
1074.0, 0.06127966061648493
1075.0, 0.05213218453132712
1076.0, 0.06074516753442123
1077.0, 0.07253350483898192
1078.0, 0.08130728578245351
1079.0, 0.08460847688854635
1080.0, 0.08468786363662986
1081.0, 0.09195866819371942
1082.0, 0.08036818939296693
1083.0, 0.07974344273038272
1084.0, 0.08618048812786623
1085.0, 0.09020330808326962
1086.0, 0.08640272482068245
1087.0, 0.09264517922854068
1088.0, 0.09971552569199353
1089.0, 0.09253219569514931
1090.0, 0.09043521833323523
1091.0, 0.08992591468162611
1092.0, 0.08954809441345216
1093.0, 0.09032064331120006
1094.0, 0.09874011306778938
1095.0, 0.09303802977608742
1096.0, 0.09823706980379276
1097.0, 0.09721119507346068
1098.0, 0.08468141686196712
1099.0, 0.07814729305168808
1100.0, 0.06767499173314527
1101.0, 0.06335120317205563
1102.0, 0.06997053809705564
1103.0, 0.064352730742109
1104.0, 0.06952254428272236
1105.0, 0.06568828614096817
1106.0, 0.049294407698403736
1107.0, 0.043043552375855776
1108.0, 0.040309734367827886
1109.0, 0.030187636604731817
1110.0, 0.029935632306493595
1111.0, 0.029316938927102708
1112.0, 0.01836361710385133
1113.0, 0.019369275117820658
1114.0, 0.017370435211404064
1115.0, 0.009317219533151852
1116.0, 0.010674155610542108
1117.0, 0.011290658224067255
1118.0, 0.008877908542189583
1119.0, 0.009411122894530019
1120.0, 0.006421926942484923
1121.0, 0.012631927234052844
1122.0, 0.021389874213295954
1123.0, 0.018028267362896283
1124.0, 0.003209483331495975
1125.0, 0.0029838483939658928
1126.0, 0.0026385121194403074
1127.0, 0.0043600582988203036
1128.0, 0.0028247434198648983
1129.0, 0.004267406840357589
1130.0, 0.0031663473207506603
1131.0, 0.003029795290480255
1132.0, 0.006264986662031864
1133.0, 0.001349569607497982
1134.0, 0.0044097282075066
1135.0, 0.0008195979095046147
1136.0, 0.0046109426381589
1137.0, 0.0005800501016707013
1138.0, 0.0008414034717546214
1139.0, 0.0120848986219371
1140.0, 0.01719436552365696
1141.0, 0.009579318941998935
1142.0, 0.0148758296533108
1143.0, 0.011764481199755346
1144.0, 0.008721446522589991
1145.0, 0.011145865590187577
1146.0, 0.012328630394394796
1147.0, 0.006809987674065428
1148.0, 0.007664568146195623
1149.0, 0.007943887853143117
1150.0, 0.006914113668051655
1151.0, 0.007414025999974399
1152.0, 0.0006780153135610423
1153.0, 0.01512263974503824
1154.0, 0.011595765125488584
1155.0, 0.013137113170307387
1156.0, 0.006261629159171038
1157.0, 0.005072689685405706
1158.0, 0.004637385791508657
1159.0, 0.008613451302524592
1160.0, 0.0043178564655090455
1161.0, 0.012178638156718671
1162.0, 0.010371916302486912
1163.0, 0.0036543244666930393
1164.0, 0.020537720345868257
1165.0, 0.004926091922545136
1166.0, 0.007332219464002056
1167.0, 0.010200508235363188
1168.0, 0.016028747382301253
1169.0, 0.006785806229861222
1170.0, 0.004514983937593806
1171.0, 0.0054914170838870225
1172.0, 0.005991930541071661
1173.0, 0.014938981314539268
1174.0, 0.015849044976317617
1175.0, 0.013275431906781944
1176.0, 0.012298235520227522
1177.0, 0.007523235841035376
1178.0, 0.014027371249992638
1179.0, 0.0064868524067283806
1180.0, 0.00800852926538628
1181.0, 0.012283856639340831
1182.0, 0.011198544279728852
1183.0, 0.008799159819841154
1184.0, 0.008402827451350693
1185.0, 0.008701982005238027
1186.0, 0.009118377727033054
1187.0, 0.0068693712739390615
1188.0, 0.0053865822665457395
1189.0, 0.010422857643003967
1190.0, 0.01939503830191549
1191.0, 0.010642933465534183
1192.0, 0.01764956003094482
1193.0, 0.013736511584973098
1194.0, 0.007100434183435038
1195.0, 0.008214547604818781
1196.0, 0.005826758657167902
1197.0, 0.008104681341475472
1198.0, 0.0029921239706418843
1199.0, 0.002337045034409272
1200.0, 0.005046261100898606
1201.0, 0.01938862148775729
1202.0, 0.020040518410426093
1203.0, 0.01151808151158811
1204.0, 0.020234269132111696
1205.0, 0.012201157606313
1206.0, 0.00837261185183805
1207.0, 0.01599865837354651
1208.0, 0.005901842159585339
1209.0, 0.004568267402528601
1210.0, 0.012642280071526825
1211.0, 0.004268134541129
1212.0, 0.003655883937046914
1213.0, 0.006855248890733755
1214.0, 0.010279127701957673
1215.0, 0.014144269119285447
1216.0, 0.012274190870260876
1217.0, 0.007039495200955922
1218.0, 0.008260579061465075
1219.0, 0.011371076341280885
1220.0, 0.009033753877023867
1221.0, 0.009273028979126246
1222.0, 0.011375557266098086
1223.0, 0.006333602048489151
1224.0, 0.010877047212296863
1225.0, 0.0039308761889328865
1226.0, 0.004586736220862486
1227.0, 0.011432608581958215
1228.0, 0.010838453175401752
1229.0, 0.008952222789168499
1230.0, 0.02166351131638192
1231.0, 0.02580063026815339
1232.0, 0.012507904958844933
1233.0, 0.0066631080676545955
1234.0, 0.008514100686090105
1235.0, 0.010255290253414788
1236.0, 0.007839461979715783
1237.0, 0.017162417051955186
1238.0, 0.01613512346014841
1239.0, 0.01686957260659698
1240.0, 0.01678721433621007
1241.0, 0.016506739513292942
1242.0, 0.023265505621780983
1243.0, 0.023335684420035935
1244.0, 0.008863870576380769
1245.0, 0.0066739329410721296
1246.0, 0.01847869559996193
1247.0, 0.009640532135163915
1248.0, 0.01747630466292106
1249.0, 0.0044812767238496636
1250.0, 0.002044337647359065
1251.0, 0.014469259357177274
1252.0, 0.010710632928014323
1253.0, 0.014198836498591948
1254.0, 0.009297532127376502
1255.0, 0.015907791264132564
1256.0, 0.013482384345171383
1257.0, 0.006799052316779688
1258.0, 0.006757208504581831
1259.0, 0.006767216456726983
1260.0, 0.017397786686355027
1261.0, 0.014891790843631975
1262.0, 0.006658320554850248
1263.0, 0.018373466654719756
1264.0, 0.022118587228847873
1265.0, 0.025848385623469375
1266.0, 0.011585512357604716
1267.0, 0.02047473668360014
1268.0, 0.021704910707022875
1269.0, 0.011080520507937877
1270.0, 0.01467048750377097
1271.0, 0.02360780985849173
1272.0, 0.020024170478547217
1273.0, 0.014662774775738225
1274.0, 0.019083662973707574
1275.0, 0.01661281575733024
1276.0, 0.02247229066191388
1277.0, 0.010499587343230447
1278.0, 0.012390343496227042
1279.0, 0.004750046084024602
1280.0, 0.01401900571419705
1281.0, 0.02103486529814859
1282.0, 0.020854654907773343
1283.0, 0.02837650764604127
1284.0, 0.030449736096725324
1285.0, 0.020103762543398393
1286.0, 0.012309186861068149
1287.0, 0.013659315847834662
1288.0, 0.016108453233327914
1289.0, 0.011137531275954805
1290.0, 0.016107551591172994
1291.0, 0.015396668045329827
1292.0, 0.023984111051427157
1293.0, 0.02258767092489232
1294.0, 0.022650876477824124
1295.0, 0.01727131635810768
1296.0, 0.0130027530129362
1297.0, 0.012053452840182482
1298.0, 0.008608722753158608
1299.0, 0.004585283906700216
1300.0, 0.006535094173130997
1301.0, 0.008614555981842806
1302.0, 0.007708198449852471
1303.0, 0.011374241445457508
1304.0, 0.0025513826025024056
1305.0, 0.002435912912542252
1306.0, 0.009179818880567453
1307.0, 0.0011319614810137136
1308.0, 0.009460736663146176
1309.0, 0.013970206300392186
1310.0, 0.01768601252914542
1311.0, 0.007846626842011886
1312.0, 0.0018129345156746518
1313.0, 0.0017093088565887367
1314.0, 0.00627709245515516
1315, 0.0
1316, 0.0
1317, 0.0
1318, 0.0
1319, 0.0
1320, 0.0
1321, 0.0
1322, 0.0
1323, 0.0
1324, 0.0
1325, 0.0
1326, 0.0
1327, 0.0
1328, 0.0
1329, 0.0
1330, 0.0
1331, 0.0
1332, 0.0
1333, 0.0
1334, 0.0
1335, 0.0
1336, 0.0
1337, 0.0
1338, 0.0
1339, 0.0
1340, 0.0
1341, 0.0
1342, 0.0
1343, 0.0
1344, 0.0
1345, 0.0
1346, 0.0
1347, 0.0
1348, 0.0
1349, 0.0
1350, 0.0
1351, 0.0
1352, 0.0
1353, 0.0
1354, 0.0
1355, 0.0
1356, 0.0
1357, 0.0
1358, 0.0
1359, 0.0
1360, 0.0
1361, 0.0
1362, 0.0
1363, 0.0
1364, 0.0
1365, 0.0
1366, 0.0
1367, 0.0
1368, 0.0
1369, 0.0
1370, 0.0
1371, 0.0
1372, 0.0
1373, 0.0
1374, 0.0
1375, 0.0
1376, 0.0
1377, 0.0
1378, 0.0
1379, 0.0
1380, 0.0
1381, 0.0
1382, 0.0
1383, 0.0
1384, 0.0
1385, 0.0
1386, 0.0
1387, 0.0
1388, 0.0
1389, 0.0
1390, 0.0
1391, 0.0
1392, 0.0
1393, 0.0
1394, 0.0
1395, 0.0
1396, 0.0
1397, 0.0
1398, 0.0
1399, 0.0
1400, 0.0
1401, 0.0
1402, 0.0
1403, 0.0
1404, 0.0
1405, 0.0
1406, 0.0
1407, 0.0
1408, 0.0
1409, 0.0
1410, 0.0
1411, 0.0
1412, 0.0
1413, 0.0
1414, 0.0
1415, 0.0
1416, 0.0
1417, 0.0
1418, 0.0
1419, 0.0
1420, 0.0
1421, 0.0
1422, 0.0
1423, 0.0
1424, 0.0
1425, 0.0
1426, 0.0
1427, 0.0
1428, 0.0
1429, 0.0
1430, 0.0
1431, 0.0
1432, 0.0
1433, 0.0
1434, 0.0
1435, 0.0
1436, 0.0
1437, 0.0
1438, 0.0
1439, 0.0
1440, 0.0
1441, 0.0
1442, 0.0
1443, 0.0
1444, 0.0
1445, 0.0
1446, 0.0
1447, 0.0
1448, 0.0
1449, 0.0
1450, 0.0
1451, 0.0
1452, 0.0
1453, 0.0
1454, 0.0
1455, 0.0
1456, 0.0
1457, 0.0
1458, 0.0
1459, 0.0
1460, 0.0
1461, 0.0
1462, 0.0
1463, 0.0
1464, 0.0
1465, 0.0
1466, 0.0
1467, 0.0
1468, 0.0
1469, 0.0
1470, 0.0
1471, 0.0
1472, 0.0
1473, 0.0
1474, 0.0
1475, 0.0
1476, 0.0
1477, 0.0
1478, 0.0
1479, 0.0
1480, 0.0
1481, 0.0
1482, 0.0
1483, 0.0
1484, 0.0
1485, 0.0
1486, 0.0
1487, 0.0
1488, 0.0
1489, 0.0
1490, 0.0
1491, 0.0
1492, 0.0
1493, 0.0
1494, 0.0
1495, 0.0
1496, 0.0
1497, 0.0
1498, 0.0
1499, 0.0
1500, 0.0
1501, 0.0
1502, 0.0
1503, 0.0
1504, 0.0
1505, 0.0
1506, 0.0
1507, 0.0
1508, 0.0
1509, 0.0
1510, 0.0
1511, 0.0
1512, 0.0
1513, 0.0
1514, 0.0
1515, 0.0
1516, 0.0
1517, 0.0
1518, 0.0
1519, 0.0
1520, 0.0
1521, 0.0
1522, 0.0
1523, 0.0
1524, 0.0
1525, 0.0
1526, 0.0
1527, 0.0
1528, 0.0
1529, 0.0
1530, 0.0
1531, 0.0
1532, 0.0
1533, 0.0
1534, 0.0
1535, 0.0
1536, 0.0
1537, 0.0
1538, 0.0
1539, 0.0
1540, 0.0
1541, 0.0
1542, 0.0
1543, 0.0
1544, 0.0
1545, 0.0
1546, 0.0
1547, 0.0
1548, 0.0
1549, 0.0
1550, 0.0
1551, 0.0
1552, 0.0
1553, 0.0
1554, 0.0
1555, 0.0
1556, 0.0
1557, 0.0
1558, 0.0
1559, 0.0
1560, 0.0
1561, 0.0
1562, 0.0
1563, 0.0
1564, 0.0
1565, 0.0
1566, 0.0
1567, 0.0
1568, 0.0
1569, 0.0
1570, 0.0
1571, 0.0
1572, 0.0
1573, 0.0
1574, 0.0
1575, 0.0
1576, 0.0
1577, 0.0
1578, 0.0
1579, 0.0
1580, 0.0
1581, 0.0
1582, 0.0
1583, 0.0
1584, 0.0
1585, 0.0
1586, 0.0
1587, 0.0
1588, 0.0
1589, 0.0
1590, 0.0
1591, 0.0
1592, 0.0
1593, 0.0
1594, 0.0
1595, 0.0
1596, 0.0
1597, 0.0
1598, 0.0
1599, 0.0
