30, 0.0
31, 0.0
32, 0.0
33, 0.0
34, 0.0
35, 0.0
36, 0.0
37, 0.0
38, 0.0
39, 0.0
40, 0.0
41, 0.0
42, 0.0
43, 0.0
44, 0.0
45, 0.0
46, 0.0
47, 0.0
48, 0.0
49, 0.0
50, 0.0
51, 0.0
52, 0.0
53, 0.0
54, 0.0
55, 0.0
56, 0.0
57, 0.0
58, 0.0
59, 0.0
60, 0.0
61, 0.0
62, 0.0
63, 0.0
64, 0.0
65, 0.0
66, 0.0
67, 0.0
68, 0.0
69, 0.0
70, 0.0
71, 0.0
72, 0.0
73, 0.0
74, 0.0
75, 0.0
76, 0.0
77, 0.0
78, 0.0
79, 0.0
80, 0.0
81, 0.0
82, 0.0
83, 0.0
84, 0.0
85, 0.0
86, 0.0
87, 0.0
88, 0.0
89, 0.0
90, 0.0
91, 0.0
92, 0.0
93, 0.0
94, 0.0
95, 0.0
96, 0.0
97, 0.0
98, 0.0
99, 0.0
100, 0.0
101, 0.0
102, 0.0
103, 0.0
104, 0.0
105, 0.0
106, 0.0
107, 0.0
108, 0.0
109, 0.0
110, 0.0
111, 0.0
112, 0.0
113, 0.0
114, 0.0
115, 0.0
116, 0.0
117, 0.0
118, 0.0
119, 0.0
120, 0.0
121, 0.0
122, 0.0
123, 0.0
124, 0.0
125, 0.0
126, 0.0
127, 0.0
128, 0.0
129, 0.0
130, 0.0
131, 0.0
132, 0.0
133, 0.0
134, 0.0
135, 0.0
136, 0.0
137, 0.0
138.0, 0.00013081165055616102
139.0, 0.0004924303860489108
140.0, 0.00025905614929539584
141.0, 0.0016549459132136984
142.0, 0.007315644665422998
143.0, 0.01666372695447738
144.0, 0.027801596037668123
145.0, 0.0381974889373216
146.0, 0.05412211923524691
147.0, 0.06859963475158203
148.0, 0.08410105421654825
149.0, 0.10361981660640425
150.0, 0.12798217888358437
151.0, 0.16263113329173498
152.0, 0.19750717460957704
153.0, 0.22807229801795503
154.0, 0.25391634910188854
155.0, 0.2791975352542618
156.0, 0.2941759373588038
157.0, 0.30695058027677763
158.0, 0.3195457506170683
159.0, 0.3359273696127471
160.0, 0.3604365193811494
161.0, 0.389649233783337
162.0, 0.4156146221248632
163.0, 0.437295389357064
164.0, 0.4480221360352706
165.0, 0.44153338668723296
166.0, 0.41871136829096406
167.0, 0.37751029035240563
168.0, 0.3361406402958833
169.0, 0.29742937471133246
170.0, 0.26451554288206475
171.0, 0.2457885936962632
172.0, 0.23945916000480663
173.0, 0.23995869684830054
174.0, 0.24512307967957622
175.0, 0.2526901647021966
176.0, 0.26049312849723977
177.0, 0.26878729316958516
178.0, 0.27672398623778444
179.0, 0.2822794612369704
180.0, 0.2890323498232734
181.0, 0.30066566558848234
182.0, 0.3075790256105599
183.0, 0.3139274175619561
184.0, 0.32591129949752984
185.0, 0.33936866326229675
186.0, 0.3501994435378008
187.0, 0.3590761189623066
188.0, 0.3567539468513974
189.0, 0.3487552743742093
190.0, 0.3328265946253886
191.0, 0.3087524808727591
192.0, 0.27885635457300045
193.0, 0.24876212594576036
194.0, 0.22309397703930922
195.0, 0.20167981623146208
196.0, 0.18507475640190557
197.0, 0.17413208495826274
198.0, 0.17090818132004387
199.0, 0.17482817097617948
200.0, 0.17857509668903593
201.0, 0.18311890370107456
202.0, 0.18761667107423183
203.0, 0.18593081663071592
204.0, 0.1847756723597604
205.0, 0.18247125398873199
206.0, 0.18326727055350775
207.0, 0.1895675692737597
208.0, 0.20126924399272422
209.0, 0.2107635172516017
210.0, 0.22278869839265794
211.0, 0.22898621811470532
212.0, 0.22601450174760024
213.0, 0.21350132188123716
214.0, 0.19441041473726178
215.0, 0.1657070003297646
216.0, 0.13132848371658656
217.0, 0.09881747616806635
218.0, 0.07248731009949005
219.0, 0.05248787382491349
220.0, 0.038427776009064725
221.0, 0.025822675649867698
222.0, 0.0166959889788564
223.0, 0.011090486997195515
224.0, 0.007441857086238414
225.0, 0.0015824693345641
226.0, 0.0009886633002588545
227.0, 0.0030591487407312674
228.0, 0.004803726710662881
229.0, 0.005208109425116067
230.0, 0.005983979669213902
231.0, 0.009234891571772175
232.0, 0.01058892758598884
233.0, 0.012012849824477726
234.0, 0.012528620699179772
235.0, 0.011002377334838203
236.0, 0.01161884816242117
237.0, 0.011650831319314778
238.0, 0.010946246738048414
239.0, 0.010480120887813832
240.0, 0.010169739979079204
241.0, 0.008386606583513645
242.0, 0.0067894603893213605
243.0, 0.005157659997298697
244.0, 0.00341339961215842
245.0, 0.0024395737589010115
246.0, 0.0029720766670696054
247.0, 0.003391890047089496
248.0, 0.0050550721534926065
249.0, 0.008762798309630683
250.0, 0.011690823665323436
251.0, 0.01342399111919832
252.0, 0.0169782680212491
253.0, 0.020123354950143786
254.0, 0.023243996167447413
255.0, 0.026119899748394425
256.0, 0.028074977338086407
257.0, 0.029094729990438894
258.0, 0.031934244009026905
259.0, 0.03306925022514664
260.0, 0.033563188501253005
261.0, 0.034435997506240365
262.0, 0.0355280200812472
263.0, 0.03561889271082921
264.0, 0.03524292969090387
265.0, 0.038169861446651424
266.0, 0.0391145238845191
267.0, 0.03964317936457199
268.0, 0.04225808005327439
269.0, 0.04660477944494765
270.0, 0.0449302865506711
271.0, 0.04918119592371582
272.0, 0.054704689705923425
273.0, 0.06040478100815735
274.0, 0.06835265798847408
275.0, 0.08089273749649384
276.0, 0.09252630100666245
277.0, 0.10988855036976763
278.0, 0.13653680950351518
279.0, 0.1718516654037662
280.0, 0.21046289522991107
281.0, 0.2607827529909282
282.0, 0.31667217015553695
283.0, 0.363733456291064
284.0, 0.40047889440838136
285.0, 0.43040587189820856
286.0, 0.4529687654037338
287.0, 0.4777867028660879
288.0, 0.505066421393943
289.0, 0.5371366312854162
290.0, 0.5719050119299482
291.0, 0.6036019092011573
292.0, 0.6274727274486925
293.0, 0.6242985718606388
294.0, 0.5971172115949069
295.0, 0.548759135838181
296.0, 0.48304842185144475
297.0, 0.40422352109269916
298.0, 0.3233842128939067
299.0, 0.2533974647466145
300.0, 0.20080642805907742
301.0, 0.16054165823940725
302.0, 0.12651540135323894
303.0, 0.10577213505091768
304.0, 0.08968541529426836
305.0, 0.07805320163449185
306.0, 0.06985669062909303
307.0, 0.06309223853077356
308.0, 0.0562509358583789
309.0, 0.05419173373082905
310.0, 0.05023804515816177
311.0, 0.04828410498103758
312.0, 0.047070677695174354
313.0, 0.04525844676213786
314.0, 0.04290709856407493
315.0, 0.045322361986024
316.0, 0.043619878127242155
317.0, 0.042251816284530196
318.0, 0.04410726612747994
319.0, 0.049326144853401095
320.0, 0.05391812955561179
321.0, 0.05870225707345398
322.0, 0.06112423980065704
323.0, 0.06358437373247157
324.0, 0.06676790615431545
325.0, 0.07032517691249736
326.0, 0.0736131780092481
327.0, 0.07486680072605714
328.0, 0.08000380233737187
329.0, 0.08594190840301145
330.0, 0.09071373635187917
331.0, 0.09321722730227017
332.0, 0.08972340374163663
333.0, 0.08167557942611416
334.0, 0.0727582068988348
335.0, 0.06283303061535213
336.0, 0.0528650997591117
337.0, 0.04464306230425365
338.0, 0.03495018568623912
339.0, 0.02970063416487444
340.0, 0.025228572949506846
341.0, 0.02290224463764928
342.0, 0.022015267097868035
343.0, 0.01872340924843079
344.0, 0.020323422031378432
345.0, 0.018745373841850013
346.0, 0.019336701758770603
347.0, 0.0202549547976437
348.0, 0.019671507095811426
349.0, 0.0193303303391946
350.0, 0.018902823024355097
351.0, 0.018128251585560102
352.0, 0.01922741243467853
353.0, 0.018533647515570496
354.0, 0.014295811860445649
355.0, 0.013232095610026242
356.0, 0.014392794678908782
357.0, 0.015496989614950515
358.0, 0.015101609406312205
359.0, 0.014004483107290803
360.0, 0.013258033064700536
361.0, 0.011820596884646612
362.0, 0.010069232350864918
363.0, 0.010415591699957831
364.0, 0.011250042969286889
365.0, 0.01199470721980825
366.0, 0.012524547818011066
367.0, 0.01205484568567321
368.0, 0.013443668919110776
369.0, 0.014772683862822164
370.0, 0.013636450140110994
371.0, 0.012202104244970379
372.0, 0.013340069816441638
373.0, 0.013093594518040309
374.0, 0.013759911784653545
375.0, 0.013979293909654472
376.0, 0.01224092922937177
377.0, 0.008679409004655603
378.0, 0.005140457469614829
379.0, 0.005546969012717231
380.0, 0.003994095295648369
381.0, 0.0033992759300576466
382.0, 0.0026011276138839527
383.0, 0.0013141640446827306
384.0, 0.00029392727913067027
385.0, 0.0011554016036370073
386.0, 0.001901840723256829
387.0, 0.0032547449002052597
388.0, 0.00323960681413839
389.0, 0.002383201385866248
390.0, 0.00216778494296986
391.0, 0.000937083340424537
392.0, 0.0014003332457759002
393.0, 0.0021437628212386695
394.0, 0.002439027345244019
395.0, 0.0036129798772555756
396.0, 0.007140613204781849
397.0, 0.010849064495145118
398.0, 0.013191944894164932
399.0, 0.016768123615105882
400.0, 0.020001087220450405
401.0, 0.024394415499323443
402.0, 0.030393042842520222
403.0, 0.02976641881700997
404.0, 0.0313194523370973
405.0, 0.03589803045750832
406.0, 0.03846275325498627
407.0, 0.04025270201583029
408.0, 0.04422665029709674
409.0, 0.048589106363034054
410.0, 0.04780456645851798
411.0, 0.04619520617851979
412.0, 0.040582643669557654
413.0, 0.03217784759884656
414.0, 0.024056554256509245
415.0, 0.018404887924848484
416.0, 0.012678580973941322
417.0, 0.008537141956801303
418.0, 0.00578050161550721
419.0, 0.0036490329802843433
420.0, 0.001699658931864688
421.0, 0.00040495536394806193
422.0, 0.00043523870109516804
423.0, 0.0011376181898561163
424.0, 0.0014385643921731317
425.0, 0.001478719475960463
426.0, 0.0017840132391618046
427.0, 0.0026360244595502558
428.0, 0.0017969399344817986
429.0, 0.0017866638336766856
430.0, 0.0009708390868050941
431.0, 0.0011469079672750938
432.0, 0.0020416717599160694
433.0, 0.0011885384490551679
434.0, 0.0009278424444735824
435.0, 0.0005221407516205158
436.0, 0.0006023662419324965
437.0, 0.0015074353849923556
438.0, 0.0025885423328020187
439.0, 0.0030430833127916765
440.0, 0.004368788995233097
441.0, 0.005710066115181363
442.0, 0.0067514025616585574
443.0, 0.008886632148981426
444.0, 0.011591425570124025
445.0, 0.014134342157105448
446.0, 0.018327481758105
447.0, 0.022608220667934387
448.0, 0.02568095779119253
449.0, 0.031390289024366816
450.0, 0.03736317632043539
451.0, 0.04134161686088688
452.0, 0.04561809003651892
453.0, 0.04873633893810262
454.0, 0.052802401423919836
455.0, 0.05651377606028224
456.0, 0.060216416483074325
457.0, 0.06311870918649447
458.0, 0.06361996320343241
459.0, 0.06621283094239105
460.0, 0.06476207497636002
461.0, 0.06480506670090541
462.0, 0.06772379815414228
463.0, 0.07230344076930319
464.0, 0.0771242860860647
465.0, 0.08534183907167778
466.0, 0.1079958871984929
467.0, 0.12659638986139138
468.0, 0.14903524170502663
469.0, 0.18119710098861952
470.0, 0.2246100335115088
471.0, 0.27569054059846493
472.0, 0.3281374751683055
473.0, 0.37068786089086525
474.0, 0.40573698382978957
475.0, 0.4344724425645974
476.0, 0.46145737522385644
477.0, 0.49401436437928953
478.0, 0.5323356502241523
479.0, 0.5670368537302846
480.0, 0.5965474766512407
481.0, 0.6100611670461124
482.0, 0.5987128474018338
483.0, 0.5593422881578785
484.0, 0.49681453421427085
485.0, 0.41806475095798684
486.0, 0.34641389236527237
487.0, 0.2836715582178201
488.0, 0.23153383455608503
489.0, 0.19233607947205325
490.0, 0.1681667573075746
491.0, 0.15102760317545666
492.0, 0.14798708404570177
493.0, 0.1500265421891308
494.0, 0.15794875138281117
495.0, 0.17476214766873396
496.0, 0.20336508878060416
497.0, 0.24575037898792795
498.0, 0.30478401548728107
499.0, 0.3753272377351434
500.0, 0.4514230628022191
501.0, 0.5238335630483005
502.0, 0.5836454173912429
503.0, 0.6271785459351679
504.0, 0.6760962689806943
505.0, 0.7374073590953593
506.0, 0.8051961206119453
507.0, 0.8754222646454964
508.0, 0.9391208543353342
509.0, 0.9837875795072574
510.0, 0.9994517538963803
511.0, 0.9551565080628605
512.0, 0.8717947673726311
513.0, 0.7653856526424437
514.0, 0.6522094416509981
515.0, 0.5444721688349968
516.0, 0.44737464510049685
517.0, 0.362885186855837
518.0, 0.30180351196621596
519.0, 0.24905185676482952
520.0, 0.20608303502726683
521.0, 0.17280903671776315
522.0, 0.14579862286702908
523.0, 0.1236173738291107
524.0, 0.10864404196220695
525.0, 0.09617106510642241
526.0, 0.08502470971607105
527.0, 0.0763243547802116
528.0, 0.06955720183067737
529.0, 0.06167696006226555
530.0, 0.056687968198144215
531.0, 0.051212148802221955
532.0, 0.045899095464455766
533.0, 0.04246741593754972
534.0, 0.03971206971134487
535.0, 0.03594858500171138
536.0, 0.03309518210476738
537.0, 0.03151232887194559
538.0, 0.02914186412524939
539.0, 0.02872769745254012
540.0, 0.02780530225548462
541.0, 0.025997513972710953
542.0, 0.02536774695680353
543.0, 0.023123182948785355
544.0, 0.021824027629958886
545.0, 0.02135469927296807
546.0, 0.019821724348509547
547.0, 0.018497042855413568
548.0, 0.018336669497949678
549.0, 0.017650318717870456
550.0, 0.015186239588951135
551.0, 0.017945602710589273
552.0, 0.01698164694300277
553.0, 0.016761975201606022
554.0, 0.01799584151748976
555.0, 0.01786797260200559
556.0, 0.01456405701106272
557.0, 0.015120281961223989
558.0, 0.014508542677489907
559.0, 0.013246838043006406
560.0, 0.013687640038232776
561.0, 0.014674160801891076
562.0, 0.013927555922162565
563.0, 0.01617604019982971
564.0, 0.01436372614041956
565.0, 0.0149558852505141
566.0, 0.017045752138377845
567.0, 0.017433176404137506
568.0, 0.016477548173880283
569.0, 0.017892738327307305
570.0, 0.01885904625527454
571.0, 0.019610015116523376
572.0, 0.023465562717921672
573.0, 0.02583896570343768
574.0, 0.027642629867512845
575.0, 0.029297161807951312
576.0, 0.028239220935674183
577.0, 0.03130673062821929
578.0, 0.029827497315143163
579.0, 0.030807085437270204
580.0, 0.03339324604632449
581.0, 0.035014205515626055
582.0, 0.03350721764706153
583.0, 0.028963600026790798
584.0, 0.02717843694883535
585.0, 0.025969394074298643
586.0, 0.021081475196529868
587.0, 0.01594501364717268
588.0, 0.012844429556948585
589.0, 0.01126679734802018
590.0, 0.008705965341974087
591.0, 0.00734681825481596
592.0, 0.006793465113105067
593.0, 0.005218412065320135
594.0, 0.002350445151889606
595.0, 0.0015585518342086525
596.0, 0.00416855621109953
597.0, 0.003127811826499392
598.0, 0.0010511959358333938
599.0, 0.002760481421848727
600.0, 0.004342831268405404
601.0, 0.003184109508735836
602.0, 0.0016455037952462733
603.0, 0.002232597384300365
604.0, 0.0004892263966421452
605.0, 0.0009050798092368621
606.0, 0.004471644489861241
607.0, 0.002299399405181161
608.0, 0.0005244580484661821
609.0, 0.0011341196319998392
610.0, 0.001699332427008737
611.0, 0.0025221583304031892
612.0, 0.002556926190495606
613.0, 0.0028482147446729886
614.0, 0.0018359623918388335
615.0, 0.0028003294000071136
616.0, 0.004140061092496246
617.0, 0.0033788518696992943
618.0, 0.005021415824351503
619.0, 0.006664045610227599
620.0, 0.007514310812606125
621.0, 0.008704837865009063
622.0, 0.00975044690573913
623.0, 0.01046284870108197
624.0, 0.011381570300761949
625.0, 0.013263873668943259
626.0, 0.012734933396458158
627.0, 0.014738615648928671
628.0, 0.016459917539106493
629.0, 0.018616922542304515
630.0, 0.02007604984267088
631.0, 0.01993880963143768
632.0, 0.020454050252466514
633.0, 0.024826128514579028
634.0, 0.025278450785899874
635.0, 0.02523765081450401
636.0, 0.024277626848588113
637.0, 0.02255073466388096
638.0, 0.02124187473801695
639.0, 0.021813865136884547
640.0, 0.023463437187545528
641.0, 0.02573837855791599
642.0, 0.026079238919894537
643.0, 0.028414078206091826
644.0, 0.030902333397577857
645.0, 0.031185262284152637
646.0, 0.030552810677169882
647.0, 0.03290320900864509
648.0, 0.03247217200821652
649.0, 0.030618073492666615
650.0, 0.029880900030389203
651.0, 0.027807789209180412
652.0, 0.02468255423076503
653.0, 0.02369197499380484
654.0, 0.02297203096570262
655.0, 0.01956691702723739
656.0, 0.016977124720440523
657.0, 0.016342118232415385
658.0, 0.014193929519978096
659.0, 0.011767511619503858
660.0, 0.011338478836315755
661.0, 0.008213580039821613
662.0, 0.0063283499449480795
663.0, 0.005588312824438152
664.0, 0.004164877225707296
665.0, 0.002925600557953496
666.0, 0.00254908577543269
667.0, 0.00218519212974069
668.0, 0.00026822632628036215
669.0, 0.0011406886670307956
670.0, 0.00026139646708621774
671.0, 4.53095467498697e-05
672.0, 0.0013717418843582595
673.0, 0.0027689765316268353
674.0, 0.0027477774776814303
675.0, 0.0015480491294318376
676.0, 0.0014268039470943412
677.0, 0.0004211057573557483
678.0, 0.0002664973589123758
679.0, 0.000454467756701223
680.0, 0.0009779873690108037
681.0, 0.0015873910517666546
682.0, 0.0018298086748880977
683.0, 0.0014766276823339277
684.0, 0.0007696494885494607
685.0, 0.0008049876167955705
686.0, 0.00041258040447610995
687.0, 0.0004103066050336951
688.0, 0.0006442866645563276
689.0, 0.0010481332756137412
690.0, 0.0019813699835355292
691.0, 0.0018967310205738742
692.0, 0.0007342968659604927
693.0, 0.0003640435336469508
694.0, 0.00048213523601256997
695.0, 0.0010944469698774633
696.0, 0.0011516523012913265
697.0, 0.0005208961832433213
698.0, 0.0022955258564157574
699.0, 0.0014062939032524501
700.0, 0.002053641592102759
701.0, 0.001945126757183235
702.0, 0.001517035063729899
703.0, 0.0014812797256896326
704.0, 0.001794070101920929
705.0, 0.0016447289341450482
706.0, 0.0008281354877024165
707.0, 0.0001274743679740284
708.0, 0.0017571160205610509
709.0, 0.0025761953698257034
710.0, 0.0017022391033506702
711.0, 0.0006183585597712373
712.0, 0.0008003207332359605
713.0, 0.0011890795510262327
714.0, 0.0010396391725107572
715.0, 0.0014171839997366787
716.0, 0.0014265193168263622
717.0, 0.0015550753150016473
718.0, 0.0012513970068680374
719.0, 0.0005212953426009166
720.0, 0.0004459135821273234
721.0, 0.0017303988939338258
722.0, 0.0022851379627957737
723.0, 0.0007813059791967222
724.0, 0.0025896067533105385
725.0, 0.0019052979379696477
726.0, 0.0008404599394707596
727.0, 0.0028435181153941965
728.0, 0.004243397044996858
729.0, 0.0004602481381909213
730.0, 0.0013452122614827956
731.0, 0.001508353614514978
732.0, 0.002534029955059323
733.0, 0.003940932780616249
734.0, 0.004797833863557058
735.0, 0.004597462617546646
736.0, 0.0037313250677028426
737.0, 0.005269580839270508
738.0, 0.006117291452501248
739.0, 0.0057372414524286715
740.0, 0.006599722731847499
741.0, 0.00771954711690794
742.0, 0.008582973510366552
743.0, 0.009915608643004814
744.0, 0.011233426135103317
745.0, 0.013139252110541769
746.0, 0.015428867081987058
747.0, 0.017137342061185713
748.0, 0.018707769014144907
749.0, 0.01995153564105795
750.0, 0.01975213021935178
751.0, 0.01827649504619066
752.0, 0.020182777568237626
753.0, 0.01864218296731076
754.0, 0.021001325679807715
755.0, 0.02361619233020575
756.0, 0.026905664911592436
757.0, 0.03044713975480532
758.0, 0.033145649433339176
759.0, 0.03486116805823021
760.0, 0.03793685933814875
761.0, 0.04296754832001187
762.0, 0.04259244178546745
763.0, 0.048308155412681325
764.0, 0.05243273214946403
765.0, 0.05193792057034694
766.0, 0.050886960716367134
767.0, 0.05314519412252018
768.0, 0.05179253994037002
769.0, 0.04739250194098996
770.0, 0.042575754630497495
771.0, 0.03995709108603911
772.0, 0.03789522681499443
773.0, 0.037324678863205056
774.0, 0.03742467001510869
775.0, 0.03548694615263341
776.0, 0.03815456119514719
777.0, 0.03720860406034886
778.0, 0.036147260658664665
779.0, 0.032376508476409875
780.0, 0.027509931226774715
781.0, 0.02363116152511134
782.0, 0.020918808282229924
783.0, 0.01788964146008839
784.0, 0.01464028412006195
785.0, 0.011678414225409557
786.0, 0.011115760222247936
787.0, 0.010626460636258215
788.0, 0.010330813086934688
789.0, 0.009927976817022495
790.0, 0.009384639327167212
791.0, 0.00918548336718326
792.0, 0.009023632928190296
793.0, 0.008617649989256595
794.0, 0.00876900377161375
795.0, 0.008684684815073842
796.0, 0.008515460880743947
797.0, 0.008865134667774993
798.0, 0.010100925779216875
799.0, 0.011655732129423104
800.0, 0.012179095623108897
801.0, 0.014379660501300733
802.0, 0.016306257895217596
803.0, 0.019822461211202378
804.0, 0.02262640897785798
805.0, 0.025924042669346625
806.0, 0.03025226711755633
807.0, 0.03629110451691087
808.0, 0.04681895118866355
809.0, 0.054760460017398406
810.0, 0.06101013152200551
811.0, 0.06776227812324631
812.0, 0.076047995814634
813.0, 0.08132735603263483
814.0, 0.08490949186253265
815.0, 0.08885585140856915
816.0, 0.08955446741621527
817.0, 0.08772964496518099
818.0, 0.08755514625420471
819.0, 0.0788537483930131
820.0, 0.06799437170086578
821.0, 0.055960800764576484
822.0, 0.045425250680915595
823.0, 0.03694873224479987
824.0, 0.028460962540476236
825.0, 0.02202099300826374
826.0, 0.022912729172523107
827.0, 0.016301881280969453
828.0, 0.016060067101300583
829.0, 0.014930190392465653
830.0, 0.01396722477213525
831.0, 0.01423789253573216
832.0, 0.01338152552824821
833.0, 0.01046100290534423
834.0, 0.012186155774989013
835.0, 0.009768098470648976
836.0, 0.009218820666126875
837.0, 0.010005718303498834
838.0, 0.008061421030094053
839.0, 0.006244856944742512
840.0, 0.007351483398681511
841.0, 0.008275880794774235
842.0, 0.0064529399652137895
843.0, 0.005835398513607257
844.0, 0.0036927098432473966
845.0, 0.005068509452630714
846.0, 0.005501501956967099
847.0, 0.006433062059740813
848.0, 0.006300328048303107
849.0, 0.0033535793763238807
850.0, 0.002634483941534142
851.0, 0.003436158679614114
852.0, 0.005016577920505625
853.0, 0.002957373126455332
854.0, 0.0010797212101866485
855.0, 0.0013407858566290719
856.0, 0.002323805993687866
857.0, 0.0022742179041171087
858.0, 0.0015943499122656594
859.0, 0.001983612716539488
860.0, 0.001740454232233796
861.0, 0.0011337287645506275
862.0, 0.0012544660618505953
863.0, 0.0010780568826611278
864.0, 0.00149310616679651
865.0, 0.0016783725786687536
866.0, 0.0011980517434975154
867.0, 0.0016159623116924935
868.0, 0.0021433060347002065
869.0, 0.0010829839863139871
870.0, 0.0016573832561895087
871.0, 0.0011553870970920153
872.0, 0.00078999004799787
873.0, 0.00044755893559433207
874.0, 0.0006809710157542125
875.0, 0.001286949706099431
876.0, 0.0002534289842225531
877.0, 9.64364229707735e-05
878.0, 0.000163828563103874
879.0, 0.0010934763084878146
880.0, 0.0010591904440839686
881.0, 0.0004440364788907033
882.0, 0.0005886778885010896
883.0, 0.0009665191632519447
884.0, 0.0006286499092182623
885.0, 0.0009447927339113838
886.0, 0.001073975165909566
887.0, 0.002086197183228634
888.0, 0.0007852393928332015
889.0, 0.0009447694547327854
890.0, 0.0010661353716472962
891.0, 0.0018091627672051761
892.0, 0.0019315943888818228
893.0, 0.0006374412448109096
894.0, 0.0024421161638441807
895.0, 0.0026106265206411287
896.0, 0.0008316118489727265
897.0, 0.0027941097763177682
898.0, 0.0031760208242975155
899.0, 0.0016445419611361067
900.0, 0.0018787122493628039
901.0, 0.0026247881870791537
902.0, 0.0010721133912878799
903.0, 0.0017822627426287078
904.0, 0.0015952772278980526
905.0, 0.003789418115993974
906.0, 0.002517180899692074
907.0, 0.002018190599208396
908.0, 0.0026404113805459
909.0, 0.002881140418148793
910.0, 0.003192787498104084
911.0, 0.0045734791758478355
912.0, 0.004852802649024447
913.0, 0.0020794619425066906
914.0, 0.0022294326389791378
915.0, 0.0030794560095196016
916.0, 0.003356518173930106
917.0, 0.0035582088436326236
918.0, 0.00368451140534921
919.0, 0.0037410110559289323
920.0, 0.0034459430751655326
921.0, 0.002305184993242176
922.0, 0.0020272477464147597
923.0, 0.0023119505121951805
924.0, 0.0020811972591929613
925.0, 0.0026838764501344006
926.0, 0.0029770068728331364
927.0, 0.0028703718067428123
928.0, 0.0027995947379204997
929.0, 0.002542863823381468
930.0, 0.0015494613245759898
931.0, 0.0008396175483766496
932.0, 8.673573250631857e-05
933.0, 0.0015802158704275567
934.0, 0.0010651989506261627
935.0, 0.0028659515456116334
936.0, 0.0023197112008996987
937.0, 0.00156780156156533
938.0, 0.0026712949451123454
939.0, 0.0030298291377427546
940.0, 0.002723075338569909
941.0, 0.003346202762170355
942.0, 0.004177116295502085
943.0, 0.0037880650993436615
944.0, 0.00418920049700206
945.0, 0.0024293395083738465
946.0, 0.0029377988070454957
947.0, 0.0034001163700452153
948.0, 0.0009819390147249214
949.0, 0.0019177235729666581
950.0, 0.0026589398637942626
951.0, 0.0048209772313408256
952.0, 0.004078824584301699
953.0, 0.005740715610014434
954.0, 0.0031933913885600685
955.0, 0.003424630788987027
956.0, 0.0042541264735845505
957.0, 0.0029765422126609604
958.0, 0.0033900285567381293
959.0, 0.0050047281426539815
960.0, 0.0035374268852632978
961.0, 0.004789240896484786
962.0, 0.0061953785092814665
963.0, 0.0069617002798395
964.0, 0.0069856848857769716
965.0, 0.006890100270538066
966.0, 0.005970009866489226
967.0, 0.0061014010087730615
968.0, 0.010569943431647275
969.0, 0.013095070102538233
970.0, 0.012594257815614381
971.0, 0.009815602851164264
972.0, 0.011406846059265542
973.0, 0.013164187233179634
974.0, 0.014040791353998418
975.0, 0.015436224775546445
976.0, 0.017040550894508056
977.0, 0.018171790501914697
978.0, 0.019875640433948086
979.0, 0.019372835854560382
980.0, 0.019617972970689096
981.0, 0.01966241630442972
982.0, 0.017027001460196516
983.0, 0.015408971533835832
984.0, 0.012013504149360775
985.0, 0.00991699875761492
986.0, 0.010262518921990727
987.0, 0.010598132912692964
988.0, 0.011820625432602616
989.0, 0.011903788614689648
990.0, 0.012152135427861288
991.0, 0.011589032111053596
992.0, 0.011905722253701385
993.0, 0.012700543985665018
994.0, 0.013160294045402064
995.0, 0.013501446240815956
996.0, 0.01445475833236264
997.0, 0.01517205774246089
998.0, 0.013804997189364673
999.0, 0.014490475192236738
1000.0, 0.017118606476260324
1001.0, 0.016451381158460822
1002.0, 0.01903688775229122
1003.0, 0.02098126580988926
1004.0, 0.02144873304663253
1005.0, 0.020482625636175485
1006.0, 0.020137347581470552
1007.0, 0.021840636713190444
1008.0, 0.02292973200277535
1009.0, 0.02302557630987626
1010.0, 0.024477491400099825
1011.0, 0.021747267515485315
1012.0, 0.020881658157485584
1013.0, 0.022015027451969673
1014.0, 0.02117816773828571
1015.0, 0.020578660822492118
1016.0, 0.02030539727767763
1017.0, 0.01932429325277339
1018.0, 0.020394877122763028
1019.0, 0.019910228013082124
1020.0, 0.017856138169810652
1021.0, 0.01765658414403539
1022.0, 0.020858517046489684
1023.0, 0.0206061854830115
1024.0, 0.019941148697221148
1025.0, 0.022824838154038542
1026.0, 0.026876260411762203
1027.0, 0.028542305715191778
1028.0, 0.029844610884271247
1029.0, 0.034346213253529725
1030.0, 0.038899621679755414
1031.0, 0.040787835358826
1032.0, 0.04183762395871287
1033.0, 0.041450958861394584
1034.0, 0.03976898506613605
1035.0, 0.03651237531277811
1036.0, 0.03182160335296078
1037.0, 0.027621367054229486
1038.0, 0.02459118494311776
1039.0, 0.020535920907546336
1040.0, 0.019693241151783728
1041.0, 0.01983312812595964
1042.0, 0.013542817488630466
1043.0, 0.01257339534366458
1044.0, 0.012540994886601767
1045.0, 0.012048537278289579
1046.0, 0.011480701188650605
1047.0, 0.010969013548175475
1048.0, 0.010336194587440149
1049.0, 0.009680110220392136
1050.0, 0.009064459911535887
1051.0, 0.008782980203955659
1052.0, 0.00846184716151352
1053.0, 0.006349672469660965
1054.0, 0.0060914844342696995
1055.0, 0.008764433970826614
1056.0, 0.008562295546114809
1057.0, 0.007878472270416513
1058.0, 0.007554708253395853
1059.0, 0.005541326658551996
1060.0, 0.0046708551549828016
1061.0, 0.005966568776381231
1062.0, 0.005813970209511964
1063.0, 0.007308917258611609
1064.0, 0.006617679143191125
1065.0, 0.007214536036490208
1066.0, 0.00767621413488454
1067.0, 0.007378556725067139
1068.0, 0.007663959020296919
1069.0, 0.008078740268987734
1070.0, 0.0077969442615313704
1071.0, 0.008891636695287699
1072.0, 0.010544513913712542
1073.0, 0.011501401445091004
1074.0, 0.013905585574695815
1075.0, 0.01105342197610663
1076.0, 0.013959411544290439
1077.0, 0.013062829252478625
1078.0, 0.015910218876062403
1079.0, 0.019082479860431063
1080.0, 0.018916709205677923
1081.0, 0.019527024078162047
1082.0, 0.021356892969525726
1083.0, 0.026782368020923642
1084.0, 0.030303202647549578
1085.0, 0.03478096015677273
1086.0, 0.04051050000166016
1087.0, 0.04606119571857372
1088.0, 0.05066645960657012
1089.0, 0.0590761070896219
1090.0, 0.06898760884841319
1091.0, 0.07956243308499246
1092.0, 0.09373670096345821
1093.0, 0.10985937906722554
1094.0, 0.12511099002415343
1095.0, 0.1443892921812676
1096.0, 0.15327327961434728
1097.0, 0.16810376105408995
1098.0, 0.18300858704738118
1099.0, 0.18869792311582761
1100.0, 0.18770366454854395
1101.0, 0.1835617077380655
1102.0, 0.1776542179575492
1103.0, 0.16766423075138012
1104.0, 0.1531464422852807
1105.0, 0.1422634882036751
1106.0, 0.12855749912762013
1107.0, 0.11938551836653596
1108.0, 0.1168632478386892
1109.0, 0.11104151288267235
1110.0, 0.10907568013905575
1111.0, 0.10709931909880054
1112.0, 0.10624738600893517
1113.0, 0.10701083603707531
1114.0, 0.10800253209262221
1115.0, 0.10826373104045006
1116.0, 0.10686576183088735
1117.0, 0.10346954457050465
1118.0, 0.10114303820326469
1119.0, 0.09488026931624295
1120.0, 0.09209685616868914
1121.0, 0.08366820750069351
1122.0, 0.07726847106809623
1123.0, 0.07123573209716229
1124.0, 0.06569183072935263
1125.0, 0.06061953343866172
1126.0, 0.054541813233513474
1127.0, 0.04848240671596715
1128.0, 0.045105965794467996
1129.0, 0.039564414349698755
1130.0, 0.03454431120390152
1131.0, 0.03286223950331322
1132.0, 0.028095864212357616
1133.0, 0.027823210940247277
1134.0, 0.02910498726922063
1135.0, 0.02717874398417402
1136.0, 0.027605320422063255
1137.0, 0.027908059597278333
1138.0, 0.024512555459455628
1139.0, 0.024675882104086454
1140.0, 0.02666046606073705
1141.0, 0.022199304586094114
1142.0, 0.020114212852291233
1143.0, 0.018454073217906007
1144.0, 0.0158362828297977
1145.0, 0.013600508775121502
1146.0, 0.012287306301524881
1147.0, 0.011892350097202008
1148.0, 0.011913426874926412
1149.0, 0.013028645795149502
1150.0, 0.01351744181892605
1151.0, 0.011030154860951429
1152.0, 0.010135728328756996
1153.0, 0.009317931648181225
1154.0, 0.006601569771404433
1155.0, 0.009139976418828978
1156.0, 0.008564749135101763
1157.0, 0.008008399220576305
1158.0, 0.004943414742561034
1159.0, 0.004511467458351822
1160.0, 0.005152021823204512
1161.0, 0.006261648058870686
1162.0, 0.0071004041265277625
1163.0, 0.00537051518964608
1164.0, 0.0044680115569477675
1165.0, 0.004887781027065792
1166.0, 0.005012991824940522
1167.0, 0.0036711519917801516
1168.0, 0.0019619520447502984
1169.0, 0.0034127780758671043
1170.0, 0.003261488626646317
1171.0, 0.003668571112173916
1172.0, 0.00302699812699983
1173.0, 0.0025567070681548672
1174.0, 0.0031279305394306045
1175.0, 0.003001189490607026
1176.0, 0.0033561642484658304
1177.0, 0.006263206437748123
1178.0, 0.0029172300727688194
1179.0, 0.002984149859151553
1180.0, 0.0006133156416845418
1181.0, 0.00019206865229556678
1182.0, 0.002864177846460989
1183.0, 0.0014127275678846268
1184.0, 0.000574506505066869
1185.0, 0.0019685621279148663
1186.0, 0.002444394120181558
1187.0, 0.0014035716978156912
1188.0, 0.0008111542771281132
1189.0, 0.001037208763302377
1190.0, 0.0034364569279129254
1191.0, 0.0009898158318835276
1192.0, 0.0015863971099875258
1193.0, 0.00020838979909905636
1194.0, 0.00215333472980435
1195.0, 0.0017930953719438592
1196.0, 0.0027658772354096028
1197.0, 0.0015873532836923714
1198.0, 0.0009338702199520062
1199.0, 0.0008716760553078152
1200.0, 0.001078138226794568
1201.0, 0.002374358902205724
1202.0, 0.0013682913986692103
1203.0, 0.003785772675823899
1204.0, 0.004287260219080884
1205.0, 0.00017265031005608443
1206.0, 0.001047975564324024
1207.0, 0.002831086353551674
1208.0, 0.0016019673848313765
1209.0, 0.00256870353885269
1210.0, 0.0025879004407736187
1211.0, 0.0015547984605030303
1212.0, 0.0013802777732097244
1213.0, 0.0019249500025839224
1214.0, 0.0016368231716717774
1215.0, 0.0006060457581413984
1216.0, 0.0011385122822203642
1217.0, 0.0010219509113914282
1218.0, 0.0030776420864779726
1219.0, 0.0033450797313796777
1220.0, 0.0015115419648067093
1221.0, 0.0010129827752254517
1222.0, 0.0010452844087970297
1223.0, 0.0005042168311018373
1224.0, 0.00021735282958998894
1225.0, 0.00030813051757391476
1226.0, 0.0005014683386522651
1227.0, 0.0009915214309423972
1228.0, 0.0017936232080242214
1229.0, 0.00239079584406922
1230.0, 0.0019355296588467125
1231.0, 0.0008811038191973311
1232.0, 0.003593357811145294
1233.0, 0.0036729969599559715
1234.0, 0.0006496021994770993
1235.0, 0.001289066534000379
1236.0, 0.002068177462670168
1237.0, 0.0010392874473462914
1238.0, 0.0009311115940853444
1239.0, 0.002224976644761186
1240.0, 0.0036221782785716213
1241.0, 0.003180949041203972
1242.0, 0.0006746723036242599
1243.0, 0.001451591629200027
1244.0, 0.0005626166151469662
1245.0, 0.001260657143604228
1246.0, 0.000159359940968909
1247.0, 0.0006043235931062516
1248.0, 0.0023541753673768976
1249.0, 0.002146933780022508
1250.0, 0.0025357989547896255
1251.0, 0.001794089003805933
1252.0, 0.0008446364396646799
1253.0, 0.0004921572029778037
1254.0, 0.00044393350790419134
1255.0, 0.0008041818331551801
1256.0, 0.0020889693105306875
1257.0, 0.0039663077281588514
1258.0, 0.0024477978159421886
1259.0, 0.0007866410917288616
1260.0, 0.0020067504175797207
1261.0, 0.0002087740097061557
1262.0, 0.0008862252842006624
1263.0, 0.0007796358402735508
1264.0, 0.0013436244352780034
1265.0, 0.0023632719613028968
1266.0, 0.001811538660428845
1267.0, 0.0026092553237453326
1268.0, 0.004489446761403905
1269.0, 0.0034671882368339135
1270.0, 0.001745886257888847
1271.0, 0.0031676719921847683
1272.0, 0.0012512764298152107
1273.0, 0.001369880645844423
1274.0, 0.003495070014183077
1275.0, 0.002568978474408573
1276.0, 0.0013435409556710456
1277.0, 0.0006727313492415412
1278.0, 0.002775148651436445
1279.0, 0.0017650444160386188
1280.0, 0.000524329121586311
1281.0, 0.0013469959879792246
1282.0, 0.001471145787657666
1283.0, 0.0004090334874224247
1284.0, 0.0013839321646456884
1285.0, 0.00369723292033503
1286.0, 0.0034759697943007885
1287.0, 0.0033822378853318284
1288.0, 0.0007109629959443823
1289.0, 0.0022864667436285407
1290.0, 0.0005367181966441498
1291.0, 0.0015250059977210727
1292.0, 0.0010390389695096492
1293.0, 0.00027588843531468763
1294.0, 0.0010256670052845483
1295.0, 0.0013321860241727248
1296.0, 0.0014797022978038038
1297.0, 0.003861002163226821
1298.0, 0.004578027126762053
1299.0, 0.003320131936965026
1300.0, 0.004466752519218912
1301.0, 0.003260097375228037
1302.0, 0.004261920008713664
1303.0, 0.004802985413620444
1304.0, 0.0037407297949648465
1305.0, 0.0012370887106873593
1306.0, 0.0008256595023635077
1307.0, 0.0007278382719591142
1308.0, 0.0011083440398191148
1309.0, 0.003630197576664293
1310.0, 0.00358634481544974
1311.0, 0.002884525640533108
1312.0, 0.0037106004507108676
1313.0, 0.0031901963591670734
1314.0, 0.0016789134964063106
1315.0, 0.0020595164107110164
1316.0, 0.0020035021501913983
1317.0, 0.001016225480718057
1318.0, 0.001586005494271247
1319.0, 0.0007722871124523501
1320.0, 0.0035542875302610223
1321.0, 0.002519513102688032
1322.0, 0.003702763820958072
1323.0, 0.0021956548334441986
1324.0, 0.003572169848155602
1325.0, 0.0037329533015470645
1326.0, 0.002954648902900221
1327.0, 0.002223504817389532
1328.0, 0.002425197399872345
1329.0, 0.004085196455377768
1330.0, 0.005025116194585673
1331.0, 0.004270604270373741
1332.0, 0.00453501010490747
1333.0, 0.005051914955930761
1334.0, 0.004347700474994838
1335.0, 0.004046103539673014
1336.0, 0.003853564764829903
1337.0, 0.002117111548755759
1338.0, 0.003032449331844252
1339.0, 0.0018619065129618388
1340.0, 0.00206678141288507
1341.0, 0.003270479165645967
1342.0, 0.003075091907843483
1343.0, 0.0028223840149856658
1344.0, 0.002381190666093649
1345.0, 0.001896003497916352
1346.0, 0.002076273872081448
1347.0, 0.002189733368130273
1348.0, 0.002213479201667353
1349.0, 0.003547398448259749
1350.0, 0.00418389695149261
1351.0, 0.0030529474492864343
1352.0, 0.0023076987494244144
1353.0, 0.005102747408264675
1354.0, 0.004040105871157023
1355.0, 0.00380639791821297
1356.0, 0.003712836013961972
1357.0, 0.004448662296923904
1358.0, 0.0018408591284063986
1359.0, 0.0020610120779878225
1360.0, 0.0032393519848577033
1361.0, 0.0025157155420338657
1362.0, 0.003426269206150448
1363.0, 0.005129383199113343
1364.0, 0.005034296182325214
1365.0, 0.005870033727664767
1366.0, 0.006647570111689699
1367.0, 0.004031505464761044
1368.0, 0.0030438748952181464
1369.0, 0.005455201190212071
1370.0, 0.0038857877213161972
1371.0, 0.004127331693030854
1372.0, 0.004582571976566433
1373.0, 0.0008134535776943544
1374.0, 0.005320769362569703
1375.0, 0.005039535558398188
1376.0, 0.002517429746253879
1377.0, 0.0013472081865711105
1378.0, 0.0009678826453694108
1379.0, 0.0017590756150682426
1380.0, 0.002785780708846123
1381.0, 0.003926049354418821
1382.0, 0.004072770719493307
1383.0, 0.0016613322877838494
1384.0, 0.001396990149472982
1385.0, 0.003772499671987326
1386.0, 0.0031756358726613984
1387.0, 0.000914661673366331
1388.0, 0.0038219286228099196
1389.0, 0.0037887221861720266
1390.0, 0.002223491984686938
1391.0, 0.0055251596676645694
1392.0, 0.003512741762946481
1393.0, 0.0032589422776473274
1394.0, 0.0026510731115422046
1395.0, 0.004388216378703252
1396.0, 0.005285884386812677
1397.0, 0.003980536661519194
1398.0, 0.0033035032222668774
1399.0, 0.003096599379675766
1400.0, 0.0026724860339243242
1401.0, 0.002757243180163917
1402.0, 0.0019098160624463167
1403.0, 0.0020559005041127613
1404.0, 0.004863059982672134
1405.0, 0.002157670340053519
1406.0, 0.0040558447407604455
1407.0, 0.003954766349273843
1408.0, 0.003202173461007165
1409.0, 0.0027849722004526143
1410.0, 0.0020346060257821676
1411.0, 0.002451191051752337
1412.0, 0.0029407425335148947
1413.0, 0.0037194865574134224
1414.0, 0.004814396395199803
1415.0, 0.0032937935810144446
1416.0, 0.001770598105685004
1417.0, 0.002572962592897349
1418.0, 0.003196523646990389
1419.0, 0.003417247668906763
1420.0, 0.004496101082475984
1421.0, 0.003709587923466728
1422.0, 0.0019204036502191082
1423.0, 0.0029711183268586803
1424.0, 0.0017284646617434498
1425.0, 0.0014025926293646308
1426.0, 0.002039161933680496
1427.0, 0.0006726981934051261
1428.0, 0.0020651446666674405
1429.0, 0.0017684934307759083
1430.0, 0.001455254353845539
1431.0, 0.002467865777592598
1432.0, 0.00257934077883766
1433.0, 0.004358866401764579
1434.0, 0.0035155307400596856
1435.0, 0.0038821557393238053
1436.0, 0.004532550817535406
1437.0, 0.005373312012006273
1438.0, 0.0046878784959434846
1439.0, 0.0017198656658926107
1440.0, 0.0014326560436513606
1441.0, 0.00375074251961748
1442.0, 0.0041646805686791095
1443.0, 0.0042268700331029654
1444.0, 0.002566755800071594
1445.0, 0.0038879715040454946
1446.0, 0.0018307678566503813
1447.0, 0.002744182526066537
1448.0, 0.0038148953839996645
1449.0, 0.0005876692176975651
1450.0, 0.00185160275010212
1451.0, 0.0008466186515364156
1452.0, 0.002128666950612575
1453.0, 0.00369642413843301
1454.0, 0.003724470940104266
1455.0, 0.002716251366147656
1456.0, 0.0035987081881544316
1457.0, 0.0062158028694971786
1458.0, 0.008987399935323135
1459.0, 0.007585293343269215
1460.0, 0.0054780198296643465
1461.0, 0.005593034860195368
1462.0, 0.0033287773059822766
1463.0, 0.003723957595301526
1464.0, 0.005458919737788556
1465.0, 0.005477314939307945
1466.0, 0.003192470904043222
1467.0, 0.00361923961237181
1468.0, 0.0028818415407173468
1469.0, 0.004974853815408645
1470.0, 0.003955187292694195
1471.0, 0.0044465962574370965
1472.0, 0.004528933045402302
1473.0, 0.00415948465790232
1474.0, 0.0050873018295560755
1475.0, 0.00682525982162115
1476.0, 0.004915044740162725
1477.0, 0.002481413616876884
1478.0, 0.0028388384463700162
1479.0, 0.0022483615664937546
1480.0, 0.002686005240496103
1481.0, 0.004071254502195664
1482.0, 0.003397676581119835
1483.0, 0.0029853981927974826
1484.0, 0.0034207281478518246
1485.0, 0.003202508169819328
1486.0, 0.00411710010006323
1487.0, 0.002650861841298685
1488.0, 0.002637425443769076
1489.0, 0.00036763513295780335
1490.0, 0.002672267626682944
1491.0, 0.0027181830434729994
1492.0, 0.004950607678994515
1493.0, 0.0022825943378875168
1494.0, 0.0005357632903776734
1495.0, 0.0006691305452881992
1496.0, 0.0039271657030511675
1497.0, 0.0051620858978682
1498.0, 0.005722721244947876
1499.0, 0.004158094075937616
1500.0, 0.003649150290702866
1501.0, 0.0019306980739460839
1502.0, 0.002713654199805088
1503.0, 0.004428538240308324
1504.0, 0.0032752462455000976
1505.0, 0.0020138729196760795
1506.0, 0.0030010565322406385
1507.0, 0.003530242241886333
1508.0, 0.002928539904325325
1509.0, 0.002782637901791626
1510.0, 0.0015125783640130251
1511.0, 0.0007646875252031921
1512.0, 0.0015723473290294358
1513.0, 0.002009164871774851
1514.0, 0.003582824154024757
1515.0, 0.003561465050742523
1516.0, 0.005217282418238365
1517.0, 0.004463066867673903
1518.0, 0.0054737785628549375
1519.0, 0.005510024223950429
1520.0, 0.005432417503004496
1521.0, 0.0056885988715060735
1522.0, 0.005070326336771945
1523.0, 0.005636146357357462
1524.0, 0.0049877956356432366
1525.0, 0.005860597025588322
1526.0, 0.0031309886159231483
1527.0, 0.0034417174213776645
1528.0, 0.004057920559243329
1529.0, 0.0017942877155423744
1530.0, 0.0022636513282477486
1531.0, 0.0047197143921905785
1532.0, 0.0040371314660731334
1533.0, 0.0034954305399605983
1534.0, 0.006068905966964376
1535.0, 0.005990792287240256
1536.0, 0.003260518212608948
1537.0, 0.00541461315661716
1538.0, 0.006695161681832696
1539.0, 0.0021103897298162225
1540.0, 0.0062345916790311606
1541.0, 0.0028543781092428867
1542.0, 0.004427244323646792
1543.0, 0.005475670746946524
1544.0, 0.007800116395044374
1545.0, 0.003894512374441767
1546.0, 0.0006341393088131414
1547.0, 0.004616873846022098
1548.0, 0.0014255263536366756
1549.0, 0.004316432432948705
1550.0, 0.006525318129805219
1551.0, 0.0021672131374358794
1552.0, 0.005299130991069677
1553.0, 0.0066711389507104115
1554.0, 0.009740952384861142
1555.0, 0.011333106820771745
1556.0, 0.008977667669299833
1557.0, 0.007098426306119867
1558.0, 0.005774746529253985
1559.0, 0.0027774639390384616
1560.0, 0.0014852120508465766
1561.0, 0.0020829033141827077
1562.0, 0.0005821006239530223
1563.0, 1.7900781195347268e-06
1564, 0.0
1565, 0.0
1566, 0.0
1567, 0.0
1568, 0.0
1569, 0.0
1570, 0.0
1571, 0.0
1572, 0.0
1573, 0.0
1574, 0.0
1575, 0.0
1576, 0.0
1577, 0.0
1578, 0.0
1579, 0.0
1580, 0.0
1581, 0.0
1582, 0.0
1583, 0.0
1584, 0.0
1585, 0.0
1586, 0.0
1587, 0.0
1588, 0.0
1589, 0.0
1590, 0.0
1591, 0.0
1592, 0.0
1593, 0.0
1594, 0.0
1595, 0.0
1596, 0.0
1597, 0.0
1598, 0.0
1599, 0.0
