30, 0.0
31, 0.0
32, 0.0
33, 0.0
34, 0.0
35, 0.0
36, 0.0
37, 0.0
38, 0.0
39, 0.0
40, 0.0
41, 0.0
42, 0.0
43, 0.0
44, 0.0
45, 0.0
46, 0.0
47, 0.0
48, 0.0
49, 0.0
50, 0.0
51, 0.0
52, 0.0
53, 0.0
54, 0.0
55, 0.0
56, 0.0
57, 0.0
58, 0.0
59, 0.0
60, 0.0
61, 0.0
62, 0.0
63, 0.0
64, 0.0
65, 0.0
66, 0.0
67, 0.0
68, 0.0
69, 0.0
70, 0.0
71, 0.0
72, 0.0
73, 0.0
74, 0.0
75, 0.0
76, 0.0
77, 0.0
78, 0.0
79, 0.0
80, 0.0
81, 0.0
82, 0.0
83, 0.0
84.0, 0.0009503427287523602
85.0, 0.0010815235502366048
86.0, 0.0005114775188599001
87.0, 0.004854489475816992
88.0, 0.009859540211058981
89.0, 0.017012316549526358
90.0, 0.029044618358120472
91.0, 0.04190222267558112
92.0, 0.05346040116001062
93.0, 0.06278907157673906
94.0, 0.06402453275848007
95.0, 0.05892056233154933
96.0, 0.05138524363092848
97.0, 0.045434463024026595
98.0, 0.03842407366390952
99.0, 0.03475233726796628
100.0, 0.034708591361705225
101.0, 0.03320860135965384
102.0, 0.03213811014941996
103.0, 0.03118348968513262
104.0, 0.030029306509753925
105.0, 0.02660314715398561
106.0, 0.024778187051594375
107.0, 0.02466534846785673
108.0, 0.022665846804831462
109.0, 0.029906513213807787
110.0, 0.034885476103306313
111.0, 0.025838907581365082
112.0, 0.04319263975874623
113.0, 0.03788679040746103
114.0, 0.011144925901656097
115.0, 0.0026003499653254355
116.0, 0.0004385841436271931
117.0, 0.0006473099830833906
118.0, 0.0007025248357286592
119.0, 0.006854159959741125
120.0, 0.014229659124458147
121.0, 0.02324268001865077
122.0, 0.037911795640352484
123.0, 0.049001797844518996
124.0, 0.05922531377665135
125.0, 0.07002554332155735
126.0, 0.07328090612890133
127.0, 0.07286945720492277
128.0, 0.06931327156709495
129.0, 0.06300863757025615
130.0, 0.05378882363397275
131.0, 0.04387353506143256
132.0, 0.03412527150865498
133.0, 0.032462992597938195
134.0, 0.030250060248299564
135.0, 0.02916922925777878
136.0, 0.033542725994496016
137.0, 0.03667305479267331
138.0, 0.042028650624102125
139.0, 0.05073035361183124
140.0, 0.06109671641019906
141.0, 0.0714757364429236
142.0, 0.08593571848384846
143.0, 0.11205184960418765
144.0, 0.1464602544339327
145.0, 0.19030913392035118
146.0, 0.24303210554317345
147.0, 0.2954019587985474
148.0, 0.3380724855444066
149.0, 0.36468833690553426
150.0, 0.3647420626092805
151.0, 0.34470627453500924
152.0, 0.31623171026710817
153.0, 0.28108703351206793
154.0, 0.24135267378201794
155.0, 0.2080966878376583
156.0, 0.17827475923129357
157.0, 0.15073015475319118
158.0, 0.12773854005267968
159.0, 0.10783358647758805
160.0, 0.09092126612232083
161.0, 0.07765376563027031
162.0, 0.06641963940047192
163.0, 0.05731988162411864
164.0, 0.050425212448909615
165.0, 0.04252990234675158
166.0, 0.03702728578180028
167.0, 0.03306842221634283
168.0, 0.02984541068433919
169.0, 0.02884476101991698
170.0, 0.028434291636438524
171.0, 0.028594093176360295
172.0, 0.031073531538995204
173.0, 0.03494505884361618
174.0, 0.0401658654024954
175.0, 0.04699384279448674
176.0, 0.05531533604938764
177.0, 0.06223770541114984
178.0, 0.06709009583774797
179.0, 0.06769750454163767
180.0, 0.06487396724504786
181.0, 0.059517585986794096
182.0, 0.0518017833135476
183.0, 0.044034989413978334
184.0, 0.03760574083747697
185.0, 0.031850696900845035
186.0, 0.025920207805976925
187.0, 0.023854061971780884
188.0, 0.021164685690747163
189.0, 0.017865371183464717
190.0, 0.019114592848182416
191.0, 0.020601475692337244
192.0, 0.023347822740862816
193.0, 0.02829802697861878
194.0, 0.03566900225890401
195.0, 0.044119094522682395
196.0, 0.0530421012426955
197.0, 0.06102641909216934
198.0, 0.06548937343040706
199.0, 0.06463308559064246
200.0, 0.05788602152751597
201.0, 0.05018855815136688
202.0, 0.040440073104524694
203.0, 0.03038515055507327
204.0, 0.021939430617151826
205.0, 0.016314749813015984
206.0, 0.01208128603290958
207.0, 0.008959103287508848
208.0, 0.006523709274889513
209.0, 0.00415564736134957
210.0, 0.002268402604400017
211.0, 0.001095851357804908
212.0, 0.0007273717244185362
213.0, 0.0010376896325081334
214.0, 0.001618320679202623
215.0, 0.0018721127675390276
216.0, 0.002084448273726091
217.0, 0.002125323863567941
218.0, 0.0020011004753085425
219.0, 0.001868356610595116
220.0, 0.0018879081492662877
221.0, 0.0020452720864789988
222.0, 0.0023500946700452125
223.0, 0.0018316220481463404
224.0, 0.001808710000419503
225.0, 0.001949669026773208
226.0, 0.0016087292507635318
227.0, 0.0023615499334023113
228.0, 0.002835073230363084
229.0, 0.0029000170474071307
230.0, 0.0035820658816535533
231.0, 0.0036437447170797137
232.0, 0.0033522497995048255
233.0, 0.0028316524315294806
234.0, 0.00270309402576943
235.0, 0.002388267815901382
236.0, 0.001981068744267975
237.0, 0.001685071955047707
238.0, 0.002207693355127155
239.0, 0.0019571099645689736
240.0, 0.0008021205719800739
241.0, 0.0002692725883498133
242.0, 0.00040943045032184645
243.0, 0.0012299755454966465
244.0, 0.0028276492084480824
245.0, 0.00413375776308589
246.0, 0.005501454813998364
247.0, 0.0070841265664917255
248.0, 0.009218614947054097
249.0, 0.013525151480992795
250.0, 0.018993971035521407
251.0, 0.02587343930260256
252.0, 0.03682823074200605
253.0, 0.04932484461558476
254.0, 0.06281959137112686
255.0, 0.07710342489552004
256.0, 0.09005663790861812
257.0, 0.09700129051809057
258.0, 0.10024244684449117
259.0, 0.102861087248896
260.0, 0.10324422779734266
261.0, 0.10613877675093593
262.0, 0.11183482381236258
263.0, 0.11878527665151094
264.0, 0.12675319078127004
265.0, 0.13288287636933838
266.0, 0.135502186612576
267.0, 0.12744129034577106
268.0, 0.11627788574295637
269.0, 0.10416004510337977
270.0, 0.09342624972306046
271.0, 0.08092855579467485
272.0, 0.07253704636580445
273.0, 0.06766361134360745
274.0, 0.0635774302096226
275.0, 0.06372357977024402
276.0, 0.06596625151951839
277.0, 0.07025104809588026
278.0, 0.08124190438008151
279.0, 0.09693291470880286
280.0, 0.11493040531895743
281.0, 0.13376607803181134
282.0, 0.15818412384338248
283.0, 0.1765298334929776
284.0, 0.19032355592535818
285.0, 0.20203548399225976
286.0, 0.19879474589380486
287.0, 0.18689491960352836
288.0, 0.1689491537515726
289.0, 0.15233755930751802
290.0, 0.13285279859365015
291.0, 0.1165455777942807
292.0, 0.10592744591719942
293.0, 0.0972831854453422
294.0, 0.09158174790721818
295.0, 0.08758269397547769
296.0, 0.08431552041432279
297.0, 0.07905810566685746
298.0, 0.07361029621965291
299.0, 0.06763543743908848
300.0, 0.06007214790111168
301.0, 0.05442948334831848
302.0, 0.04850840113208983
303.0, 0.041857716013760114
304.0, 0.034358811769982255
305.0, 0.029604234898704812
306.0, 0.02547917767230356
307.0, 0.021140004242988165
308.0, 0.018446394193466078
309.0, 0.01630994636670086
310.0, 0.014308447268879892
311.0, 0.012028906568546565
312.0, 0.010772239947693609
313.0, 0.009972777409241797
314.0, 0.009335521166979086
315.0, 0.008296639455732845
316.0, 0.007393917741044898
317.0, 0.007146461959520231
318.0, 0.007625369181969842
319.0, 0.008725746154735557
320.0, 0.008414424301903435
321.0, 0.008690781784090424
322.0, 0.010233728690817984
323.0, 0.010634461755879747
324.0, 0.012533653658249603
325.0, 0.015120573128000473
326.0, 0.01780180395702866
327.0, 0.023354708360321504
328.0, 0.0290354352035802
329.0, 0.03380931060448799
330.0, 0.03589539295393234
331.0, 0.03937101493492954
332.0, 0.04031329323784724
333.0, 0.03816960566925136
334.0, 0.0323818902949443
335.0, 0.02742260258971253
336.0, 0.02285397188666775
337.0, 0.018704943393760415
338.0, 0.01599885362749215
339.0, 0.013605925139754324
340.0, 0.011973485536872712
341.0, 0.011338396346598851
342.0, 0.010151772230156468
343.0, 0.010121581593205404
344.0, 0.010079854965984476
345.0, 0.008835648766821354
346.0, 0.008777435651220656
347.0, 0.009800165217229866
348.0, 0.011175580649915641
349.0, 0.011584411753765171
350.0, 0.014257476866947184
351.0, 0.01696103628879717
352.0, 0.019710771843199318
353.0, 0.023608918414913322
354.0, 0.026931383138859597
355.0, 0.030326967374182143
356.0, 0.03363188957372434
357.0, 0.03455218533170322
358.0, 0.0328825413172182
359.0, 0.030955976685864483
360.0, 0.02971851077099274
361.0, 0.02603208536824125
362.0, 0.02501546224784314
363.0, 0.02529177973064778
364.0, 0.025821556593024434
365.0, 0.027661971903097146
366.0, 0.030863315809753752
367.0, 0.0369560686914689
368.0, 0.04844024296764544
369.0, 0.05932047293920966
370.0, 0.0697469587113189
371.0, 0.07877889034184776
372.0, 0.0839971637153595
373.0, 0.08093622560447496
374.0, 0.07251344812320845
375.0, 0.060357347124485726
376.0, 0.04869763323203839
377.0, 0.038115012335062745
378.0, 0.029202343626838014
379.0, 0.022255858031648763
380.0, 0.01779020131480487
381.0, 0.013991769945242915
382.0, 0.011716299171324062
383.0, 0.011272869154824987
384.0, 0.009904540881796433
385.0, 0.008144358917217194
386.0, 0.006718081597368798
387.0, 0.006183749601220013
388.0, 0.006236831202115596
389.0, 0.006414560454629145
390.0, 0.006633094985512402
391.0, 0.006798644499416629
392.0, 0.0081018553018486
393.0, 0.009663762346156382
394.0, 0.011581271262419379
395.0, 0.014121515216389055
396.0, 0.020276511607492283
397.0, 0.028366264536901702
398.0, 0.03907911502647505
399.0, 0.05486873855802463
400.0, 0.07467224648504552
401.0, 0.09409315456002036
402.0, 0.11091647730088361
403.0, 0.11968668673856692
404.0, 0.1108620141497377
405.0, 0.0963014341295789
406.0, 0.07966120495501063
407.0, 0.06386122956623853
408.0, 0.05574845330868827
409.0, 0.051140389541423165
410.0, 0.048386838192657336
411.0, 0.046288026674334244
412.0, 0.04334614404870091
413.0, 0.0386391993055563
414.0, 0.03170678221196528
415.0, 0.024470758303874733
416.0, 0.017987780241301
417.0, 0.012808413429464314
418.0, 0.009381261209790298
419.0, 0.00653720568403632
420.0, 0.0036924491998170644
421.0, 0.0017342676971078778
422.0, 0.0015767872902180914
423.0, 0.0005551170239034077
424.0, 0.00040605482253977326
425.0, 0.0006883557253240823
426.0, 0.0008244290350741749
427.0, 0.0007974642827192263
428.0, 0.0008899238100658453
429.0, 0.0009578263044946552
430.0, 0.0007376241434864778
431.0, 0.0011179731275999913
432.0, 0.0013838043670977799
433.0, 0.0016397291235711701
434.0, 0.0022339578480198162
435.0, 0.003895421361578192
436.0, 0.005295263807819162
437.0, 0.006504840003231373
438.0, 0.008138481109789639
439.0, 0.009603682477701901
440.0, 0.011280013187745554
441.0, 0.013330106301995626
442.0, 0.016086357216938386
443.0, 0.019362659404015832
444.0, 0.02357884358947572
445.0, 0.028993589010423388
446.0, 0.03627965598628777
447.0, 0.04454909223513048
448.0, 0.056423363190793344
449.0, 0.07229249289386687
450.0, 0.09062009257263869
451.0, 0.11107993691432794
452.0, 0.12744321964831018
453.0, 0.13810478839141793
454.0, 0.14548745717789718
455.0, 0.14304294659914016
456.0, 0.1344433599694963
457.0, 0.12170781973586847
458.0, 0.1103722569215312
459.0, 0.10360634111913983
460.0, 0.09924212563120267
461.0, 0.09650824786273483
462.0, 0.0960072723263177
463.0, 0.10066233813459656
464.0, 0.11120080498598975
465.0, 0.1273671244803439
466.0, 0.14167642595351404
467.0, 0.16929090920270023
468.0, 0.20583630114930485
469.0, 0.25012200033953685
470.0, 0.31059405787078814
471.0, 0.3925906756529205
472.0, 0.4820098714491453
473.0, 0.5711980124586797
474.0, 0.659276048101469
475.0, 0.69124693095242
476.0, 0.6843119935893307
477.0, 0.6469736402647057
478.0, 0.5740536656454177
479.0, 0.49325828685478335
480.0, 0.41798651293911443
481.0, 0.35680111637511625
482.0, 0.3107569172601026
483.0, 0.2801652154906377
484.0, 0.25173853267636775
485.0, 0.21770276096826824
486.0, 0.1877609998841857
487.0, 0.16068945346476418
488.0, 0.13695923480356334
489.0, 0.11679117653493698
490.0, 0.0972244204070611
491.0, 0.08606700979512641
492.0, 0.07903384172461897
493.0, 0.07354871938132451
494.0, 0.07064356654597943
495.0, 0.06875354022333179
496.0, 0.06908549526394614
497.0, 0.07230841422464436
498.0, 0.07623386334351592
499.0, 0.08328851624583916
500.0, 0.09288138586942371
501.0, 0.10496693709841302
502.0, 0.12277347108986818
503.0, 0.14817923653430606
504.0, 0.1797098931256788
505.0, 0.2177678228083103
506.0, 0.27529926352500295
507.0, 0.34899377677088383
508.0, 0.44276522526709355
509.0, 0.5588227816440724
510.0, 0.6936263631235295
511.0, 0.8134714338875894
512.0, 0.9180515626692419
513.0, 0.9976355546533501
514.0, 0.9724818807528323
515.0, 0.8817174505918577
516.0, 0.7715805779449629
517.0, 0.6606811545727953
518.0, 0.5351234460686496
519.0, 0.4362661579612091
520.0, 0.35328652141743017
521.0, 0.2834168860021419
522.0, 0.23495902240973998
523.0, 0.19831342130414686
524.0, 0.16561683455586937
525.0, 0.13617837112610176
526.0, 0.12042255327608081
527.0, 0.10398112233175412
528.0, 0.09014060472772026
529.0, 0.07951266146584254
530.0, 0.07044521821046189
531.0, 0.06144449094032537
532.0, 0.05509459734574044
533.0, 0.050931639503771026
534.0, 0.04504807811175799
535.0, 0.04030189619293896
536.0, 0.0368440431373645
537.0, 0.03404026127476582
538.0, 0.02998292063637617
539.0, 0.028583072979286736
540.0, 0.025948402594185363
541.0, 0.02284351162057704
542.0, 0.022520928463503457
543.0, 0.021091033898534166
544.0, 0.019071587526593357
545.0, 0.017392898866881515
546.0, 0.017697791891159564
547.0, 0.015439501083669234
548.0, 0.014278462755209302
549.0, 0.013398876862983827
550.0, 0.011148093827224448
551.0, 0.010874052399534814
552.0, 0.010637408264332428
553.0, 0.009897262667078922
554.0, 0.008119854769315525
555.0, 0.008856790249922279
556.0, 0.008878438626308414
557.0, 0.008232222125815114
558.0, 0.007026996517491547
559.0, 0.006503224775321231
560.0, 0.006592171450330784
561.0, 0.0062077593788128415
562.0, 0.004756685876623445
563.0, 0.004953650182680207
564.0, 0.00501129551013771
565.0, 0.005020522547749859
566.0, 0.004983428111492827
567.0, 0.004521273239857066
568.0, 0.004913145180510931
569.0, 0.004966360238354799
570.0, 0.004411064711913339
571.0, 0.004327869654886795
572.0, 0.004863832316621714
573.0, 0.004923680079116408
574.0, 0.0046574389927650645
575.0, 0.005709199275492098
576.0, 0.005393387965533954
577.0, 0.006045852536936602
578.0, 0.007769179164847387
579.0, 0.009722773203540695
580.0, 0.01074062193816455
581.0, 0.01181572521289767
582.0, 0.012836715311365666
583.0, 0.013409877685331917
584.0, 0.01308715700814985
585.0, 0.011712721047039777
586.0, 0.010073375518565415
587.0, 0.009125749585357975
588.0, 0.00785056342915357
589.0, 0.006330699283575344
590.0, 0.004626378685896529
591.0, 0.0028378435142804013
592.0, 0.001810010646955898
593.0, 0.0017829988913619027
594.0, 0.0015985526847888485
595.0, 0.000740674573771769
596.0, 0.0004679289108113965
597.0, 0.0005645723403433257
598.0, 0.000885561738625696
599.0, 0.001180507535829092
600.0, 0.0005599096215139711
601.0, 0.0009247574662500851
602.0, 0.0009051234325044388
603.0, 0.0005186779794087746
604.0, 0.0007323322060475094
605.0, 0.0011500427329124113
606.0, 0.0011627105152306404
607.0, 0.0007837968701995775
608.0, 0.0001820496871060121
609.0, 0.0007371892658872354
610.0, 0.0006105712772822571
611.0, 0.00035538888141608703
612.0, 0.0006916487822322187
613.0, 0.000211168513619586
614.0, 0.0002252700985157799
615.0, 0.0004181812827909766
616.0, 0.0006026063851567354
617.0, 0.0013608891686820483
618.0, 0.0013634018358659454
619.0, 0.001745845316464853
620.0, 0.0029074066775584407
621.0, 0.004232918745450688
622.0, 0.0038779261699970853
623.0, 0.00455947936270013
624.0, 0.006674500437011594
625.0, 0.009276046580743543
626.0, 0.01004527697131691
627.0, 0.011489359053657005
628.0, 0.013139526337212895
629.0, 0.013611625360072063
630.0, 0.014269070847707852
631.0, 0.014511419575866356
632.0, 0.014566125163940484
633.0, 0.014695581452120502
634.0, 0.01481040760177624
635.0, 0.013919755952639383
636.0, 0.013944512184371394
637.0, 0.01570122138160307
638.0, 0.016327579142175124
639.0, 0.016803496412147723
640.0, 0.018664543888213248
641.0, 0.02142739190918724
642.0, 0.021351804637235763
643.0, 0.02437403341379241
644.0, 0.025757823235338186
645.0, 0.026164006867532574
646.0, 0.028548285704633653
647.0, 0.030950861193531565
648.0, 0.03367249957972592
649.0, 0.037041957432051464
650.0, 0.041288706732438146
651.0, 0.042795788502318285
652.0, 0.04405729205253295
653.0, 0.04417056826281523
654.0, 0.04247524594121044
655.0, 0.03817812524689646
656.0, 0.03644138611356735
657.0, 0.03433809502998871
658.0, 0.031069413345521046
659.0, 0.02728552803049245
660.0, 0.025118267226966952
661.0, 0.022332854415316124
662.0, 0.019024959805891823
663.0, 0.015968009656469495
664.0, 0.013132848945499393
665.0, 0.010751341745865438
666.0, 0.008812722939786933
667.0, 0.007262274156711305
668.0, 0.005753159693621952
669.0, 0.004946409346269368
670.0, 0.0045798254555473
671.0, 0.004441946858181338
672.0, 0.0041413279490418115
673.0, 0.0031032555012383166
674.0, 0.0017317122112954686
675.0, 0.0006523177084891221
676.0, 0.0010893205544397987
677.0, 0.0003719281839338525
678.0, 9.614416730610264e-05
679.0, 0.00023542522610660733
680.0, 0.0005865098731409829
681.0, 0.001090339899869872
682.0, 0.0007643967863369562
683.0, 0.0005852096388128145
684.0, 0.0010004726214947765
685.0, 0.0009893342523940492
686.0, 0.0013202892844700336
687.0, 0.0013641453187595368
688.0, 0.001315309762495959
689.0, 0.0021859046292811287
690.0, 0.0021807371361281165
691.0, 0.0015597264217785149
692.0, 0.0009149332854952583
693.0, 0.00096515518695773
694.0, 0.0017359246364064191
695.0, 0.0010214109244304928
696.0, 0.0006139195740201657
697.0, 0.0012860953905539639
698.0, 0.00039486356547533145
699.0, 0.0002649912524755383
700.0, 0.00029135775185953883
701.0, 0.0005509938647801763
702.0, 0.001708468310194856
703.0, 0.0019425943173756852
704.0, 0.0026212600326964283
705.0, 0.003425542152835842
706.0, 0.0038570149300658904
707.0, 0.005718039840218408
708.0, 0.005981290205275631
709.0, 0.006851902187410284
710.0, 0.009084336229568155
711.0, 0.009747661209353893
712.0, 0.00974527157409519
713.0, 0.009615026018980214
714.0, 0.009419547067732336
715.0, 0.009009810146983953
716.0, 0.007025585763245516
717.0, 0.006168448857138547
718.0, 0.005950776780452033
719.0, 0.005630931078742806
720.0, 0.004216891823791515
721.0, 0.004100153069436367
722.0, 0.004125846853882706
723.0, 0.003929550414918571
724.0, 0.004110939724268075
725.0, 0.004639701969905019
726.0, 0.004812375111020529
727.0, 0.004787767638609044
728.0, 0.004996146835805017
729.0, 0.0058451547896914485
730.0, 0.006586017178389253
731.0, 0.0076762435108784855
732.0, 0.0091933986169975
733.0, 0.009448272701971403
734.0, 0.010665071901741973
735.0, 0.012041992510349457
736.0, 0.013634573353198242
737.0, 0.01610808791519232
738.0, 0.018795205689251773
739.0, 0.02140761367261887
740.0, 0.024743138274026417
741.0, 0.029410333117173344
742.0, 0.03280484967117698
743.0, 0.039168602923245616
744.0, 0.046573887735837115
745.0, 0.054626620185232636
746.0, 0.06479495784175811
747.0, 0.0764887920756297
748.0, 0.08252803933985298
749.0, 0.08424293344755031
750.0, 0.08477413157000019
751.0, 0.07997647437267683
752.0, 0.07027189315375694
753.0, 0.06048620792328792
754.0, 0.052776029530884574
755.0, 0.044444346605404104
756.0, 0.037247956390135895
757.0, 0.0324642550838654
758.0, 0.02894883593947681
759.0, 0.024392782218128913
760.0, 0.021920083783377006
761.0, 0.019582706941630196
762.0, 0.01748523944208719
763.0, 0.01592942371340492
764.0, 0.016284220587851995
765.0, 0.014807047251534531
766.0, 0.014130595368763061
767.0, 0.014057714742269155
768.0, 0.013001495949569602
769.0, 0.012301912577024317
770.0, 0.010876582332104867
771.0, 0.009497051498238897
772.0, 0.008682732578454004
773.0, 0.007741020946852957
774.0, 0.006479263313914299
775.0, 0.00570066675896851
776.0, 0.005339967145876551
777.0, 0.004805179246202221
778.0, 0.00482891395484093
779.0, 0.004664024778730276
780.0, 0.0041485678470968386
781.0, 0.003353815079823541
782.0, 0.003495745080904876
783.0, 0.002825875391637548
784.0, 0.002143807736717467
785.0, 0.0018679856747529878
786.0, 0.0023780541428832123
787.0, 0.0024945220732584227
788.0, 0.0019234130890768482
789.0, 0.0021015897685184724
790.0, 0.003541817480304385
791.0, 0.002011605243202725
792.0, 0.002505260595819578
793.0, 0.0027154452387299784
794.0, 0.002496741493432523
795.0, 0.002752980046435042
796.0, 0.002174121894807534
797.0, 0.0022075370554632376
798.0, 0.0020678179977830728
799.0, 0.0014555776122858748
800.0, 0.0020994690736734923
801.0, 0.0026938759541019408
802.0, 0.002558903966911408
803.0, 0.002071932354972805
804.0, 0.002131795873680851
805.0, 0.003781924759130435
806.0, 0.0035303221454988888
807.0, 0.0031016076976506245
808.0, 0.0035691219279695655
809.0, 0.004796123579202961
810.0, 0.004920557286464686
811.0, 0.005949871465897539
812.0, 0.007143789938686534
813.0, 0.007057707286854888
814.0, 0.0073684539879083286
815.0, 0.007883216394848668
816.0, 0.006907184510892425
817.0, 0.004561263488712387
818.0, 0.003955554984048523
819.0, 0.0037386809600413323
820.0, 0.002972811982362275
821.0, 0.0024175487119911855
822.0, 0.002858792132129681
823.0, 0.002719419979730438
824.0, 0.002487265696944328
825.0, 0.0021204091993109785
826.0, 0.0017352444713515478
827.0, 0.0016339378627445705
828.0, 0.001166135863467417
829.0, 0.0009436734276350696
830.0, 0.0008607260551308058
831.0, 0.0007990344211453664
832.0, 0.0007361341929236265
833.0, 0.0007514440508660671
834.0, 0.0008572457084084792
835.0, 0.0009346909571916773
836.0, 0.0008029606159815878
837.0, 0.0008542694263138909
838.0, 0.0009754246737200294
839.0, 0.0010406043534870052
840.0, 0.0009816952746467223
841.0, 0.0007934611398094205
842.0, 0.0007415969475897654
843.0, 0.00037883787062440913
844.0, 9.851834505863284e-05
845.0, 0.0002915113006729227
846.0, 0.000260270834856081
847.0, 0.0002423211625804263
848.0, 0.0003806203768771793
849.0, 0.0005813118092744562
850.0, 0.0005678140500924758
851.0, 0.0007075235319372137
852.0, 0.0005971066772924147
853.0, 0.0005239123856701975
854.0, 0.0006106658148418196
855.0, 0.0005500348405762343
856.0, 0.00045221250954347985
857.0, 0.0006531256114970319
858.0, 0.0008452250549450676
859.0, 0.0006774795378515288
860.0, 0.0010857914784055322
861.0, 0.0005853262562542649
862.0, 0.0001988511282531556
863.0, 0.00032604939971711696
864.0, 0.0010208038310056005
865.0, 0.0006002754169705046
866.0, 0.0005478518107571641
867.0, 0.0005229470252088144
868.0, 0.0003143699094828833
869.0, 0.0001393479504153454
870.0, 7.304203089788132e-05
871.0, 2.735738440855738e-05
872.0, 2.5965722634502723e-05
873.0, 0.00013406454919084328
874.0, 0.0006606620802365488
875.0, 0.0005422529901212589
876.0, 0.00030522125639723677
877.0, 0.00024786245712887106
878.0, 0.0005968275897357138
879.0, 0.0005051846207732516
880.0, 0.0002417999023179128
881.0, 0.00027590889226174046
882.0, 0.0006642670997394698
883.0, 0.0006477770066147411
884.0, 0.0007295686350373918
885.0, 0.0009167085107546033
886.0, 0.0008035355472094012
887.0, 0.0002979530277169997
888.0, 0.0015340134257184257
889.0, 0.0007386019237746745
890.0, 0.0002606764634853631
891.0, 0.00037799718336957314
892.0, 0.0005935535440892355
893.0, 0.0003287050072696097
894.0, 0.0004627800688535773
895.0, 0.0005574567200629268
896.0, 0.000549932808968562
897.0, 0.0007546815551749453
898.0, 0.00100859189073199
899.0, 0.0013296634568597408
900.0, 0.0013303712020381287
901.0, 0.0009795019581798
902.0, 0.0012225980322979261
903.0, 0.0012147096705574863
904.0, 0.0011020207495894762
905.0, 0.000993666132425634
906.0, 0.0009737298887043917
907.0, 0.000979719003637807
908.0, 0.0005591203310590956
909.0, 0.00047707484440095657
910.0, 0.0009694082549090343
911.0, 0.0019536489605517723
912.0, 0.0006986275901633828
913.0, 0.0017556758550887534
914.0, 0.0018129014478178353
915.0, 0.0007196239748643132
916.0, 0.001119043339127856
917.0, 0.0017500641925838963
918.0, 0.0023298777679359468
919.0, 0.0022359273432161564
920.0, 0.0016193978397518484
921.0, 0.0021566770988563026
922.0, 0.002419754257893319
923.0, 0.0020983524503957528
924.0, 0.0019468314249867838
925.0, 0.002534697038796066
926.0, 0.003447196665531663
927.0, 0.002994934331852215
928.0, 0.0026844553605040507
929.0, 0.002636953836758433
930.0, 0.0025992277254010495
931.0, 0.0017322038657295968
932.0, 0.0031027135120616834
933.0, 0.003849316679292017
934.0, 0.003476914273135185
935.0, 0.0025673802624334597
936.0, 0.0038750478761716903
937.0, 0.002767041808583797
938.0, 0.0027081875855816664
939.0, 0.0038198019257693573
940.0, 0.003761354529594238
941.0, 0.0030654071784519807
942.0, 0.004115567937915461
943.0, 0.004760848915054541
944.0, 0.004496083298453523
945.0, 0.004912309618280255
946.0, 0.004604592504659537
947.0, 0.004766938685225244
948.0, 0.005291484208570232
949.0, 0.0058624710789488685
950.0, 0.0058019809742716885
951.0, 0.006105088458622794
952.0, 0.006280470946250431
953.0, 0.006337667938699921
954.0, 0.0063248547625479
955.0, 0.006242674662945504
956.0, 0.006195957486956312
957.0, 0.006268049993192798
958.0, 0.006218416940822885
959.0, 0.005963349864695946
960.0, 0.006458132308259971
961.0, 0.005752727788277253
962.0, 0.005415591452217215
963.0, 0.005275559254906657
964.0, 0.00489930253377638
965.0, 0.005175426512957369
966.0, 0.004968847530231252
967.0, 0.005246737392258189
968.0, 0.006243822848433181
969.0, 0.00764877140795647
970.0, 0.006116050934748293
971.0, 0.006866197500461258
972.0, 0.007589633971186352
973.0, 0.007672154817270854
974.0, 0.007271509483056188
975.0, 0.006870676537966711
976.0, 0.007053644792171484
977.0, 0.00756862658065589
978.0, 0.00821481543839148
979.0, 0.008781048691785958
980.0, 0.008647470389195552
981.0, 0.008728234247264835
982.0, 0.009192665040042442
983.0, 0.010088715373439668
984.0, 0.011365946053600712
985.0, 0.012917833574401193
986.0, 0.014032656835862741
987.0, 0.016021882597859888
988.0, 0.01880680923416285
989.0, 0.021131241837405567
990.0, 0.025024986308638083
991.0, 0.02872332320083214
992.0, 0.0323266452454745
993.0, 0.03524425481856231
994.0, 0.03620883936646466
995.0, 0.03676346925668846
996.0, 0.03659526617953246
997.0, 0.035575427770063506
998.0, 0.03386185210307776
999.0, 0.03190833961352369
1000.0, 0.029780673069541127
1001.0, 0.02968973223566408
1002.0, 0.02864171697764442
1003.0, 0.026296486681320105
1004.0, 0.02519447093579376
1005.0, 0.023138841159011034
1006.0, 0.021476003913921713
1007.0, 0.020485661492363427
1008.0, 0.019637659896600965
1009.0, 0.01753844261361001
1010.0, 0.015824985250152735
1011.0, 0.015360426651069499
1012.0, 0.014926275992427056
1013.0, 0.014253406370497837
1014.0, 0.014058906512754927
1015.0, 0.012467286337753307
1016.0, 0.013257034039136976
1017.0, 0.014425558723385462
1018.0, 0.014793186092344361
1019.0, 0.014012511224327725
1020.0, 0.015045745315834302
1021.0, 0.01470082269483983
1022.0, 0.015299517337567231
1023.0, 0.017313042223336732
1024.0, 0.019621240107191462
1025.0, 0.021117850806379377
1026.0, 0.02306747471436956
1027.0, 0.0250691877299697
1028.0, 0.026843140607215196
1029.0, 0.02822239628638459
1030.0, 0.029661977895406217
1031.0, 0.02827522773240159
1032.0, 0.027225183312694926
1033.0, 0.02715046330661426
1034.0, 0.027110378396547383
1035.0, 0.025304572894951034
1036.0, 0.02614477280595785
1037.0, 0.02653641537340717
1038.0, 0.026431869616999594
1039.0, 0.027084878951351324
1040.0, 0.027918795582498452
1041.0, 0.027358277535447513
1042.0, 0.027297242308471317
1043.0, 0.02763643176807217
1044.0, 0.02771124774661903
1045.0, 0.02817028793914981
1046.0, 0.030888958671138986
1047.0, 0.03364117317826168
1048.0, 0.0362713894066977
1049.0, 0.03925747056410021
1050.0, 0.04349596114940634
1051.0, 0.04535827026691728
1052.0, 0.04576321328742734
1053.0, 0.0458738777097626
1054.0, 0.04577157493920935
1055.0, 0.041614616187091294
1056.0, 0.03668762166234601
1057.0, 0.032415012997028814
1058.0, 0.028902055946583963
1059.0, 0.025827313273264853
1060.0, 0.022329552676191154
1061.0, 0.019538686509235435
1062.0, 0.01753340429667958
1063.0, 0.015477442510377314
1064.0, 0.013181980794142676
1065.0, 0.011493575119456874
1066.0, 0.011963010795448072
1067.0, 0.010567648599842341
1068.0, 0.009066049403626389
1069.0, 0.008554777392467218
1070.0, 0.009235388263862351
1071.0, 0.007305732563760082
1072.0, 0.008191474054684034
1073.0, 0.00825081138679036
1074.0, 0.007696599605419835
1075.0, 0.008713917280511812
1076.0, 0.009280727724583037
1077.0, 0.008393465417475005
1078.0, 0.008674783082661253
1079.0, 0.009298628127547703
1080.0, 0.0088370279791826
1081.0, 0.009445826685079723
1082.0, 0.010867945937888066
1083.0, 0.011539338406768362
1084.0, 0.011392080641505608
1085.0, 0.011167612276327253
1086.0, 0.01304729894776097
1087.0, 0.01253157866871296
1088.0, 0.013560594549385997
1089.0, 0.01423124997629297
1090.0, 0.013961070137136307
1091.0, 0.015156710147104955
1092.0, 0.017224272323932872
1093.0, 0.017305750551568452
1094.0, 0.018143412555712505
1095.0, 0.020236538722594465
1096.0, 0.02191877571245858
1097.0, 0.021661706481454664
1098.0, 0.023953946829035636
1099.0, 0.025132536145276125
1100.0, 0.025268423238323928
1101.0, 0.026183682718743967
1102.0, 0.02923910876140593
1103.0, 0.029149750278651798
1104.0, 0.030699535483068027
1105.0, 0.03359122243566603
1106.0, 0.03634262719063988
1107.0, 0.037622304597139514
1108.0, 0.04033124003594327
1109.0, 0.043387050689883695
1110.0, 0.04729550958243468
1111.0, 0.052641172854632615
1112.0, 0.0598896454027006
1113.0, 0.06728524518090617
1114.0, 0.0802714191996995
1115.0, 0.09040098000679439
1116.0, 0.09915155018391934
1117.0, 0.11466205202000095
1118.0, 0.13716320265533677
1119.0, 0.15672142387220594
1120.0, 0.18053233194911733
1121.0, 0.20750410655742124
1122.0, 0.23208447108071106
1123.0, 0.24220245820157796
1124.0, 0.2480845326849069
1125.0, 0.24626198021471302
1126.0, 0.23336672012178133
1127.0, 0.2130444179629933
1128.0, 0.19991604510540736
1129.0, 0.17472822590951398
1130.0, 0.16148896920803102
1131.0, 0.15293119184079615
1132.0, 0.143607015034426
1133.0, 0.1317199394854934
1134.0, 0.1325017037896317
1135.0, 0.13421647518197063
1136.0, 0.1351999552270279
1137.0, 0.13589498143503334
1138.0, 0.13631166195728606
1139.0, 0.13236386106485915
1140.0, 0.12483983496600884
1141.0, 0.1196682715320719
1142.0, 0.10951907003464903
1143.0, 0.09506944956452319
1144.0, 0.0895262423554421
1145.0, 0.07850859367501996
1146.0, 0.0676120162042349
1147.0, 0.06002899191388832
1148.0, 0.05395378552044246
1149.0, 0.04599747017370417
1150.0, 0.04222939117273918
1151.0, 0.03818817107124625
1152.0, 0.033455521962978615
1153.0, 0.030207051331799708
1154.0, 0.028937954801090692
1155.0, 0.02527059644681004
1156.0, 0.02285991513387532
1157.0, 0.021199789084504157
1158.0, 0.01938724235037457
1159.0, 0.017643013397238977
1160.0, 0.01700014179351105
1161.0, 0.016538062116599327
1162.0, 0.014735663928268033
1163.0, 0.014301708747688829
1164.0, 0.013570553876927672
1165.0, 0.011262786545206314
1166.0, 0.01146215575412107
1167.0, 0.0113603022907807
1168.0, 0.01044822667012878
1169.0, 0.009522157068326736
1170.0, 0.009190490669780647
1171.0, 0.009534219773628165
1172.0, 0.007696922888599358
1173.0, 0.00836951008438127
1174.0, 0.008149659694642547
1175.0, 0.0071303895447663605
1176.0, 0.006581210146448852
1177.0, 0.007089020954070927
1178.0, 0.006333717042159603
1179.0, 0.006731979869185484
1180.0, 0.006054728943792354
1181.0, 0.004426567624263424
1182.0, 0.0049105746982261505
1183.0, 0.0062547425582569795
1184.0, 0.005292871621808669
1185.0, 0.0045957850033151604
1186.0, 0.004508183214038515
1187.0, 0.004492493348688362
1188.0, 0.004064647354391835
1189.0, 0.003521123533024702
1190.0, 0.004079153263961099
1191.0, 0.00395323233773075
1192.0, 0.003008213921345819
1193.0, 0.0028997645084220076
1194.0, 0.0014939014563601265
1195.0, 0.0011679451149167212
1196.0, 0.0014682879346434637
1197.0, 0.0015180946854654982
1198.0, 0.0010907074606198203
1199.0, 0.002131887688121669
1200.0, 0.002687188651805911
1201.0, 0.002059161309589526
1202.0, 0.00167038757534005
1203.0, 0.0017554311711672629
1204.0, 0.0015365503634633914
1205.0, 0.001576501832263705
1206.0, 0.002780396239567787
1207.0, 0.002458738220393271
1208.0, 0.0016950715665238517
1209.0, 0.001444410233560023
1210.0, 0.0005596936260650666
1211.0, 0.0014222660641517464
1212.0, 0.0013839144846209957
1213.0, 0.000814335863274767
1214.0, 0.0007459890006306002
1215.0, 0.0017494375006741549
1216.0, 0.0005176916287831717
1217.0, 0.0006682028666515859
1218.0, 0.0007437231381479649
1219.0, 0.0010336421605949657
1220.0, 0.001389116459214698
1221.0, 0.0009857433454828046
1222.0, 0.0017234167750298007
1223.0, 0.0009250919643412422
1224.0, 0.001504160832815095
1225.0, 0.002011133286609033
1226.0, 0.0009480297683032805
1227.0, 0.000742175054194587
1228.0, 0.002086158482810026
1229.0, 0.0018319375585691008
1230.0, 0.0011755755770192064
1231.0, 0.0008736005405760347
1232.0, 0.0010223517769871124
1233.0, 0.000894891202403885
1234.0, 0.0011369577545287451
1235.0, 0.001226025557210125
1236.0, 0.0007804311020363147
1237.0, 0.0002987058545911147
1238.0, 0.0011380066756563577
1239.0, 0.0009503593267360717
1240.0, 0.0009601530749085534
1241.0, 0.0016174619617581683
1242.0, 0.0016271865975158427
1243.0, 0.0004889233470166246
1244.0, 0.0008982769339745077
1245.0, 0.0012267215745663518
1246.0, 0.0006324842734716003
1247.0, 0.0007864828233317819
1248.0, 0.001205547136063391
1249.0, 0.0006832778325393732
1250.0, 0.0009346067767137461
1251.0, 0.0019575851158629733
1252.0, 0.001701328317768225
1253.0, 0.0008867098463803987
1254.0, 0.0008307587095612041
1255.0, 0.002426927085979128
1256.0, 0.0012710085118936986
1257.0, 0.0012977580472492809
1258.0, 0.002003989231516006
1259.0, 0.0019813597206472214
1260.0, 0.0008640623472354779
1261.0, 0.0001850036514730768
1262.0, 0.0010274243490792777
1263.0, 0.00039381340838193647
1264.0, 0.00041365121412079343
1265.0, 0.0008016269266030435
1266.0, 0.0007668279695717873
1267.0, 0.0005452036444197929
1268.0, 0.0010869783884714717
1269.0, 0.0009988304842929493
1270.0, 0.0010096242932090234
1271.0, 0.0008399583421403113
1272.0, 0.0002304645218221393
1273.0, 0.001080953547503242
1274.0, 0.0017973294387425448
1275.0, 0.001194817948199957
1276.0, 0.0007180099107808035
1277.0, 0.0007938367124994314
1278.0, 0.0008280159662002229
1279.0, 9.859557219415278e-05
1280.0, 0.0008751373746761102
1281.0, 0.0010715567872921852
1282.0, 0.0009323763236974224
1283.0, 0.0010987516958243639
1284.0, 0.0018836616046198444
1285.0, 0.0005415599040046467
1286.0, 0.0006419973194730544
1287.0, 0.0004091846840514183
1288.0, 0.00034951194177533187
1289.0, 0.0006558463599892538
1290.0, 0.0006123116243066619
1291.0, 0.0003349537367317686
1292.0, 0.00036154403067458965
1293.0, 0.00023272996854658607
1294.0, 0.00021557596813474812
1295.0, 0.0004600844625262867
1296.0, 0.0006443210899725319
1297.0, 0.0006418145094946562
1298.0, 0.0007450873317958943
1299.0, 0.00046804631503890497
1300.0, 0.0006375502529076358
1301.0, 0.001550745300575488
1302.0, 0.0018317355816492016
1303.0, 0.0011374161471583604
1304.0, 0.0004415383554166588
1305.0, 0.0005514044054465345
1306.0, 0.000641670267181679
1307.0, 0.00011677242509546093
1308.0, 0.00010397306907283393
1309.0, 0.0001313215817176513
1310.0, 0.0004310693563951935
1311.0, 0.0003044596617694933
1312.0, 0.00018299123900473714
1313.0, 0.0005855875652010235
1314.0, 0.001132244857503034
1315.0, 0.0004326987992576508
1316.0, 0.0005466939880979096
1317.0, 0.0007529319203530258
1318.0, 0.0010485900717336553
1319.0, 0.0014310272054276153
1320.0, 0.0011456963135024088
1321.0, 0.000673658046705675
1322.0, 0.0007006680409273237
1323.0, 0.0007760386699180745
1324.0, 0.0006673235166761487
1325.0, 0.0004545462027908151
1326.0, 0.0006251669262620838
1327.0, 0.0009203047688981357
1328.0, 0.0006338000241825577
1329.0, 0.00026320535817271975
1330.0, 0.00031795363951443365
1331.0, 0.0007389025014053824
1332.0, 0.00034907128566380924
1333.0, 0.0004418270820948553
1334.0, 0.00027508684269041453
1335.0, 0.00028999812175770035
1336.0, 0.0003239779305982028
1337.0, 0.000198243815300364
1338.0, 0.0002221709209294308
1339.0, 0.0007304401697164499
1340.0, 0.0006708238311698612
1341.0, 0.0006787948632112408
1342.0, 0.0010084532956231458
1343.0, 0.0013101110900743003
1344.0, 0.0006140014347303224
1345.0, 0.0009275012197298029
1346.0, 0.0011191087514649685
1347.0, 0.0007130085165012921
1348.0, 0.0005924559519011359
1349.0, 0.0012023755080698617
1350.0, 0.0016279787716751586
1351.0, 0.000666927022722152
1352.0, 0.00192106937483328
1353.0, 0.0011058135967924245
1354.0, 0.0006719873319027045
1355.0, 0.0015391022520969435
1356.0, 0.0009184532811463056
1357.0, 0.0008952455597795016
1358.0, 0.0005217950960478168
1359.0, 0.0017725944361377437
1360.0, 0.001755545053881439
1361.0, 0.0007915451886534665
1362.0, 0.002142728263728729
1363.0, 0.0008232095028842008
1364.0, 0.0013519491341656765
1365.0, 0.0013974645912339782
1366.0, 0.0011561209922653153
1367.0, 0.0014121557687228408
1368.0, 0.0023536915244655983
1369.0, 0.0010724887622080687
1370.0, 0.00020797651869901865
1371.0, 0.00042401138739432085
1372.0, 0.0006768657948699236
1373.0, 0.0007259448517445175
1374.0, 0.0009913243129916034
1375.0, 0.0019839629934230384
1376.0, 0.00041935696267780397
1377.0, 0.0016708964625301486
1378.0, 0.002461563110330757
1379.0, 0.0019888947452486655
1380.0, 0.001253947643626799
1381.0, 0.001978836845129762
1382.0, 0.0020630851246368244
1383.0, 0.0016120162102579592
1384.0, 0.0016054233303899573
1385.0, 0.0019469281652834047
1386.0, 0.00208773934609877
1387.0, 0.0015852276645211903
1388.0, 0.0018915471527893093
1389.0, 0.0013755129495620947
1390.0, 0.001171080322270549
1391.0, 0.0019593785682393483
1392.0, 0.002368193981753092
1393.0, 0.0008212807413943156
1394.0, 0.0021944063960350514
1395.0, 0.0017831564165871493
1396.0, 0.0012861502826915373
1397.0, 0.001605139044334464
1398.0, 0.0021706549618682454
1399.0, 0.001940731658805778
1400.0, 0.0008950759402972647
1401.0, 0.002351643403980923
1402.0, 0.002109106239605073
1403.0, 0.002091401676495469
1404.0, 0.0022500770303822562
1405.0, 0.002041559606258854
1406.0, 0.0014789739342719304
1407.0, 0.0017770743758080529
1408.0, 0.0026733972163554003
1409.0, 0.001827116504399272
1410.0, 0.0015088615554553937
1411.0, 0.002433488223780583
1412.0, 0.0028702764655134053
1413.0, 0.0006418596628417947
1414.0, 0.0023249690530215954
1415.0, 0.0017417497305533465
1416.0, 0.0016823294733856855
1417.0, 0.002355588806877131
1418.0, 0.002490945842720936
1419.0, 0.001728154901905641
1420.0, 0.0025438370436000556
1421.0, 0.0016978009622715194
1422.0, 0.0010394643288963248
1423.0, 0.001511878424864289
1424.0, 0.002258830014173023
1425.0, 0.0013569300530145067
1426.0, 0.001100915873359304
1427.0, 0.0021165646435374118
1428.0, 0.0022526334733876984
1429.0, 0.0018743144701558994
1430.0, 0.0018676869434019621
1431.0, 0.0023601728799707393
1432.0, 0.0013422663628116262
1433.0, 0.0019636114907550526
1434.0, 0.0021866939753715764
1435.0, 0.0016020956239004992
1436.0, 0.0012602541479819849
1437.0, 0.0016177354308849095
1438.0, 0.0017919574255377707
1439.0, 0.0020119749252325483
1440.0, 0.0013356774476633274
1441.0, 0.000756175416129215
1442.0, 0.000992017871951942
1443.0, 0.0022396699121369668
1444.0, 0.0033549587022370327
1445.0, 0.000943132910610017
1446.0, 0.0014743174136166446
1447.0, 0.0020837859275324075
1448.0, 0.0013671043814716456
1449.0, 0.0010733784515441073
1450.0, 0.0018971853749001413
1451.0, 0.001962288426954441
1452.0, 0.0002516811996000637
1453.0, 0.0008849990195808086
1454.0, 0.0006264500429574923
1455.0, 0.0012439151337996885
1456.0, 0.0021887208300500165
1457.0, 0.0018671967797552614
1458.0, 0.000612525581637647
1459.0, 0.002672762187007115
1460.0, 0.0028286224711671507
1461.0, 0.001991418655809658
1462.0, 0.0016619711844103558
1463.0, 0.0017738232349054073
1464.0, 0.0010598347374455243
1465.0, 0.0007115216591673798
1466.0, 0.0021889838766402177
1467.0, 0.0025947186941575593
1468.0, 0.0018563022985340716
1469.0, 0.0017761553259024248
1470.0, 0.0026524654676429405
1471.0, 0.0016939235861965743
1472.0, 0.0018092648328135873
1473.0, 0.002500324559053938
1474.0, 0.0010599010603162872
1475.0, 0.0011763159569519591
1476.0, 0.002050800388146398
1477.0, 0.0010408565483514254
1478.0, 0.0010946105344009896
1479.0, 0.0022697671776596875
1480.0, 0.0013027418887661699
1481.0, 0.0009438908290044501
1482.0, 0.0017112847179584978
1483.0, 0.0024888250260719476
1484.0, 0.0020252072001875235
1485.0, 0.00228994807833741
1486.0, 0.0018017295839206633
1487.0, 0.0008339517728062564
1488.0, 0.0009074113863700077
1489.0, 0.0013003959181081405
1490.0, 0.0010012316863240933
1491.0, 0.00039186865411727637
1492.0, 0.0019131732795002838
1493.0, 0.0019409468977812697
1494.0, 0.001527300603028703
1495.0, 0.002086978191978991
1496.0, 0.0027420599968343566
1497.0, 0.0022281352274272207
1498.0, 0.001342058040684128
1499.0, 0.0020730590849772834
1500.0, 0.0006052594058281506
1501.0, 0.0013954546291276501
1502.0, 0.0018582745097155298
1503.0, 0.0014990056560361899
1504.0, 0.0015112905077532602
1505.0, 0.0008882290048393788
1506.0, 0.0013246841754947828
1507.0, 0.0015278118629689591
1508.0, 0.0016768152217731098
1509.0, 0.001721991694119805
1510.0, 0.0015368939384601675
1511.0, 0.0011666888080373687
1512.0, 0.0011785530158507605
1513.0, 0.00102067537960684
1514.0, 0.00031611690308753137
1515.0, 0.001043318413604684
1516.0, 0.0011995478515142853
1517.0, 0.0013673586806498628
1518.0, 0.003622755894164588
1519.0, 0.0007992871785304199
1520.0, 0.00012007768832316383
1521, 0.0
1522, 0.0
1523, 0.0
1524, 0.0
1525, 0.0
1526, 0.0
1527, 0.0
1528, 0.0
1529, 0.0
1530, 0.0
1531, 0.0
1532, 0.0
1533, 0.0
1534, 0.0
1535, 0.0
1536, 0.0
1537, 0.0
1538, 0.0
1539, 0.0
1540, 0.0
1541, 0.0
1542, 0.0
1543, 0.0
1544, 0.0
1545, 0.0
1546, 0.0
1547, 0.0
1548, 0.0
1549, 0.0
1550, 0.0
1551, 0.0
1552, 0.0
1553, 0.0
1554, 0.0
1555, 0.0
1556, 0.0
1557, 0.0
1558, 0.0
1559, 0.0
1560, 0.0
1561, 0.0
1562, 0.0
1563, 0.0
1564, 0.0
1565, 0.0
1566, 0.0
1567, 0.0
1568, 0.0
1569, 0.0
1570, 0.0
1571, 0.0
1572, 0.0
1573, 0.0
1574, 0.0
1575, 0.0
1576, 0.0
1577, 0.0
1578, 0.0
1579, 0.0
1580, 0.0
1581, 0.0
1582, 0.0
1583, 0.0
1584, 0.0
1585, 0.0
1586, 0.0
1587, 0.0
1588, 0.0
1589, 0.0
1590, 0.0
1591, 0.0
1592, 0.0
1593, 0.0
1594, 0.0
1595, 0.0
1596, 0.0
1597, 0.0
1598, 0.0
1599, 0.0
