30, 0.0
31, 0.0
32, 0.0
33, 0.0
34, 0.0
35, 0.0
36, 0.0
37, 0.0
38, 0.0
39, 0.0
40, 0.0
41, 0.0
42, 0.0
43, 0.0
44, 0.0
45, 0.0
46, 0.0
47, 0.0
48, 0.0
49, 0.0
50, 0.0
51, 0.0
52, 0.0
53, 0.0
54, 0.0
55, 0.0
56, 0.0
57, 0.0
58, 0.0
59, 0.0
60, 0.0
61, 0.0
62, 0.0
63, 0.0
64, 0.0
65, 0.0
66, 0.0
67, 0.0
68, 0.0
69, 0.0
70, 0.0
71, 0.0
72, 0.0
73, 0.0
74, 0.0
75, 0.0
76, 0.0
77, 0.0
78, 0.0
79, 0.0
80, 0.0
81, 0.0
82, 0.0
83, 0.0
84, 0.0
85, 0.0
86, 0.0
87, 0.0
88.0, 0.003059222090969824
89.0, 0.005217782878106346
90.0, 0.0009511078427258176
91.0, 0.008432358443261255
92.0, 0.012390286627623957
93.0, 0.0110928744128259
94.0, 0.01719797436684101
95.0, 0.01933932157709116
96.0, 0.01908218252570199
97.0, 0.01752338391568984
98.0, 0.016385049629921374
99.0, 0.016587391640561513
100.0, 0.018262449369367
101.0, 0.020916105567919917
102.0, 0.027222562050689618
103.0, 0.03673567741730808
104.0, 0.05004285638741638
105.0, 0.06456261766605699
106.0, 0.08379740216867845
107.0, 0.10802566784333663
108.0, 0.13533308843316344
109.0, 0.15683472636745946
110.0, 0.20809687397943588
111.0, 0.33244464395611073
112.0, 0.27055369891304304
113.0, 0.23671576079061613
114.0, 0.23298961808239946
115.0, 0.12688339501179907
116.0, 0.08811241490522545
117.0, 0.07689637391410307
118.0, 0.06928017535028572
119.0, 0.06411028426823653
120.0, 0.06506706572600347
121.0, 0.07348634676276214
122.0, 0.09588212027715315
123.0, 0.1189104320553902
124.0, 0.14305891313260255
125.0, 0.1688472175246872
126.0, 0.1858266853790447
127.0, 0.18958945474709654
128.0, 0.18221717278008998
129.0, 0.1682761287276609
130.0, 0.14567019074968154
131.0, 0.11937750465519534
132.0, 0.09106929635402161
133.0, 0.07012829715090489
134.0, 0.052699412896882035
135.0, 0.03866664326804197
136.0, 0.028748671630811504
137.0, 0.02228711181209824
138.0, 0.016798519555753174
139.0, 0.011775991345362707
140.0, 0.01043673981559558
141.0, 0.00854005355860418
142.0, 0.008580357263094114
143.0, 0.015021147522102448
144.0, 0.018419055511801997
145.0, 0.024375094706738255
146.0, 0.03415299479562031
147.0, 0.04946339541107368
148.0, 0.062383803070805925
149.0, 0.07186743370021409
150.0, 0.07596705660806696
151.0, 0.07453611443870894
152.0, 0.0764911774978324
153.0, 0.08147405146927372
154.0, 0.0841149009905579
155.0, 0.06770149868457397
156.0, 0.05245905407976256
157.0, 0.05012738976002862
158.0, 0.049335753159800384
159.0, 0.04531235295748167
160.0, 0.040381972208454346
161.0, 0.04091558333273342
162.0, 0.03776905121817772
163.0, 0.034158148291365396
164.0, 0.031087064788704825
165.0, 0.028631048340606487
166.0, 0.02652115360562026
167.0, 0.02481675350985342
168.0, 0.023721503957690362
169.0, 0.022375104262987132
170.0, 0.021928961595291074
171.0, 0.023124041660305704
172.0, 0.029992979940439507
173.0, 0.03751961011666732
174.0, 0.04577565913942378
175.0, 0.05497273081706093
176.0, 0.06927250169038549
177.0, 0.07949543873484453
178.0, 0.0856762073829768
179.0, 0.08862388805462712
180.0, 0.09449742350361152
181.0, 0.09447712275450054
182.0, 0.08485634027155736
183.0, 0.0697334452465179
184.0, 0.05750749823352137
185.0, 0.047381231162717516
186.0, 0.038685497322045084
187.0, 0.02972350598513372
188.0, 0.02319389541976717
189.0, 0.019610035033516524
190.0, 0.01940759881876983
191.0, 0.019205222473161674
192.0, 0.01901604974636487
193.0, 0.018851682293326434
194.0, 0.020928950087427022
195.0, 0.025218821241486725
196.0, 0.03102689612130505
197.0, 0.03681015512664077
198.0, 0.0419112647317386
199.0, 0.04496566489732076
200.0, 0.04533735395996428
201.0, 0.04159458130683221
202.0, 0.035513026844007436
203.0, 0.028431591854905982
204.0, 0.021638116813462248
205.0, 0.01857565360150426
206.0, 0.014897300709619622
207.0, 0.010982545029660118
208.0, 0.010293826373046811
209.0, 0.007389829046463706
210.0, 0.005626899914834761
211.0, 0.006475859877453725
212.0, 0.0019736429369989175
213.0, 0.0002980810951367532
214.0, 0.0002482722786784244
215.0, 0.0002608347579922141
216.0, 0.002500471293267679
217.0, 0.002636493131866215
218.0, 0.0009135158092093874
219.0, 0.002807814559353866
220.0, 0.004266046340957346
221.0, 0.00561955172332004
222.0, 0.007046527201755721
223.0, 0.007403553965610967
224.0, 0.007699367737473967
225.0, 0.007658090874313995
226.0, 0.006642952518443157
227.0, 0.006627017562618198
228.0, 0.005650025020790723
229.0, 0.003593524733004561
230.0, 0.0024548878471742724
231.0, 0.003142627434513654
232.0, 0.004060420729207904
233.0, 0.004194338022230472
234.0, 0.004074280951790062
235.0, 0.003585284203193953
236.0, 0.0030080043202783333
237.0, 0.002925287319154871
238.0, 0.0016666158886012152
239.0, 0.00065619209346194
240.0, 0.00033372598845072654
241.0, 0.0017519370723676434
242.0, 0.003804068659595884
243.0, 0.005052980475058893
244.0, 0.004455438362476315
245.0, 0.004500238040907289
246.0, 0.0076203843800016265
247.0, 0.011860058803312794
248.0, 0.013474699585287776
249.0, 0.02397792000061306
250.0, 0.030318743034739696
251.0, 0.031785696440412015
252.0, 0.03921790690508393
253.0, 0.05384854442349442
254.0, 0.07147974589513269
255.0, 0.09008332627349246
256.0, 0.11302387899633637
257.0, 0.12879432975049968
258.0, 0.1393086468305164
259.0, 0.14671106510235218
260.0, 0.15720263897671613
261.0, 0.17346308327322166
262.0, 0.19377326938957776
263.0, 0.2086554427976837
264.0, 0.22948671343674382
265.0, 0.2493663819170954
266.0, 0.2647227202406379
267.0, 0.2628782019751406
268.0, 0.24452365826590294
269.0, 0.21753079581180493
270.0, 0.18951853221576243
271.0, 0.1634997507874303
272.0, 0.13881463774597114
273.0, 0.11692041981686119
274.0, 0.10291594191688992
275.0, 0.08880414400583013
276.0, 0.07943874343173088
277.0, 0.07631926852407936
278.0, 0.07868714933591626
279.0, 0.08472581103474308
280.0, 0.09251940712080323
281.0, 0.10088143128818726
282.0, 0.12237047081286027
283.0, 0.13893325340500365
284.0, 0.15273790174005675
285.0, 0.16798715748710633
286.0, 0.17539255043743743
287.0, 0.17020641729478125
288.0, 0.15484004275806232
289.0, 0.14363914663567556
290.0, 0.12354072884803592
291.0, 0.10358887066314706
292.0, 0.08749215225978897
293.0, 0.07457444018736155
294.0, 0.06304381118173613
295.0, 0.0533581107272134
296.0, 0.04624294488915617
297.0, 0.03643619175833835
298.0, 0.030835199879003385
299.0, 0.027633911078121857
300.0, 0.022277747490290014
301.0, 0.02000161709822452
302.0, 0.017535109094701275
303.0, 0.014665327052736248
304.0, 0.013766049949461559
305.0, 0.011818730945543436
306.0, 0.010191176605078388
307.0, 0.009444608868953933
308.0, 0.007527763293290923
309.0, 0.007234391001241882
310.0, 0.006547335104343299
311.0, 0.0033468234238769835
312.0, 0.0023492962736339613
313.0, 0.003787150689950453
314.0, 0.0058152786944547985
315.0, 0.004409469672184566
316.0, 0.004236105619027291
317.0, 0.0032499452193531547
318.0, 0.0015585549719446784
319.0, 0.001512515263571115
320.0, 0.0032422416928550475
321.0, 0.0056214918012799635
322.0, 0.00782367676353098
323.0, 0.003981838678773391
324.0, 0.005640979906879659
325.0, 0.009301909725412593
326.0, 0.012293980987456236
327.0, 0.012925470636315965
328.0, 0.015686055072920292
329.0, 0.0191702376670656
330.0, 0.020924827282144377
331.0, 0.024904343139889384
332.0, 0.026331794800772173
333.0, 0.024735461109500517
334.0, 0.02018961390580558
335.0, 0.018900933102433855
336.0, 0.01649617874693752
337.0, 0.012513946388484886
338.0, 0.012650447728340989
339.0, 0.009821446278599865
340.0, 0.007336657786899513
341.0, 0.006899347438208211
342.0, 0.005672866234495337
343.0, 0.006204552396161993
344.0, 0.006720436288622986
345.0, 0.005411853957801837
346.0, 0.005298155971661472
347.0, 0.004476796859951451
348.0, 0.004092996232652431
349.0, 0.006506606231599461
350.0, 0.006144464896000543
351.0, 0.006208595254577338
352.0, 0.006790096376425434
353.0, 0.006752052293079348
354.0, 0.009983737464260357
355.0, 0.011804058206243622
356.0, 0.011506134756399576
357.0, 0.013132159863090288
358.0, 0.014676194414087683
359.0, 0.015146085630109713
360.0, 0.014114189796340947
361.0, 0.013675173606206839
362.0, 0.011906224776322147
363.0, 0.010772084529603234
364.0, 0.011961305460978951
365.0, 0.013570944341565272
366.0, 0.015058351248916177
367.0, 0.018164855662506522
368.0, 0.025579473704438117
369.0, 0.027883516962112265
370.0, 0.03242311957278688
371.0, 0.037523069756445496
372.0, 0.03783982062071329
373.0, 0.04269937701700176
374.0, 0.04269978832966351
375.0, 0.037256588613565636
376.0, 0.03023373940716763
377.0, 0.023836320682642156
378.0, 0.018831356721229892
379.0, 0.015529146219737455
380.0, 0.014228153964664354
381.0, 0.01170178313997304
382.0, 0.009875408274983736
383.0, 0.009508531695322918
384.0, 0.0075210401571834335
385.0, 0.006071122100740358
386.0, 0.005552830750525555
387.0, 0.006287799392351221
388.0, 0.004325845373377665
389.0, 0.0035904264370479723
390.0, 0.003957244159821694
391.0, 0.005369652765912636
392.0, 0.004817946486913411
393.0, 0.005255062184068807
394.0, 0.005758202216435261
395.0, 0.004527257963245102
396.0, 0.006533801971498208
397.0, 0.009293868149593189
398.0, 0.011850417410752859
399.0, 0.012424667026467677
400.0, 0.02094445318298347
401.0, 0.02792983125408215
402.0, 0.032288257800836086
403.0, 0.0361431328296067
404.0, 0.03719618423938308
405.0, 0.03657162955466819
406.0, 0.034644718829812536
407.0, 0.031931221115290995
408.0, 0.03234955279975091
409.0, 0.036580942424242785
410.0, 0.04466210402057752
411.0, 0.05346558696932823
412.0, 0.060088497986544066
413.0, 0.061496163368170646
414.0, 0.056050016143304696
415.0, 0.047640013045636705
416.0, 0.03726088010445088
417.0, 0.027439769700997856
418.0, 0.0200992649671974
419.0, 0.0176733145810452
420.0, 0.014162565991352426
421.0, 0.010321789607614512
422.0, 0.006871404869057483
423.0, 0.004230119269041703
424.0, 0.004013493765058673
425.0, 0.004768257512147934
426.0, 0.004641343254276052
427.0, 0.0033899311332276564
428.0, 0.0035928065515704807
429.0, 0.00434491071605033
430.0, 0.003976086983025663
431.0, 0.0052382720553784765
432.0, 0.006356680959417013
433.0, 0.007136019495681494
434.0, 0.007466823152174322
435.0, 0.011357011373992327
436.0, 0.013337651320667986
437.0, 0.01378239812522828
438.0, 0.015372547057904683
439.0, 0.018813818955989926
440.0, 0.022645449480146605
441.0, 0.027077000621506333
442.0, 0.03361024827351421
443.0, 0.03739251789301829
444.0, 0.044226706902896755
445.0, 0.05544780989250688
446.0, 0.07140957762476016
447.0, 0.08912040367610084
448.0, 0.11441376154500026
449.0, 0.14831430946892213
450.0, 0.18816127929309165
451.0, 0.24476515548242098
452.0, 0.29827635897714494
453.0, 0.3419881845182009
454.0, 0.37372316971280845
455.0, 0.3724829351985434
456.0, 0.3459774737305906
457.0, 0.29968066909282953
458.0, 0.2555554401411055
459.0, 0.21069453851403686
460.0, 0.1727045911269848
461.0, 0.14452374408494525
462.0, 0.12254871814146581
463.0, 0.10744651420880413
464.0, 0.09907470149517325
465.0, 0.09705641411478845
466.0, 0.09636594575431351
467.0, 0.09924127269435595
468.0, 0.10518663416961857
469.0, 0.11444811893675656
470.0, 0.1314055541895621
471.0, 0.15900750192664562
472.0, 0.19395262273964
473.0, 0.23440757680108068
474.0, 0.2770965244428341
475.0, 0.3058286554569544
476.0, 0.32139838868412374
477.0, 0.3237292699500939
478.0, 0.31140875105547156
479.0, 0.2853898752224493
480.0, 0.2537067579578343
481.0, 0.22192584477167787
482.0, 0.20166310902817924
483.0, 0.19005108128240497
484.0, 0.17933545960915484
485.0, 0.16458774642246238
486.0, 0.1454527619869071
487.0, 0.12846732072626413
488.0, 0.11184583934689188
489.0, 0.09470245573505082
490.0, 0.08115877422039483
491.0, 0.0742654625609593
492.0, 0.06904658770124596
493.0, 0.06285004483343327
494.0, 0.06350813980968972
495.0, 0.06389481168766432
496.0, 0.0651067009114183
497.0, 0.0678861378668845
498.0, 0.07265733525912792
499.0, 0.07883815786514894
500.0, 0.08787716219005534
501.0, 0.10094692911107568
502.0, 0.12088611447190029
503.0, 0.14392888690919767
504.0, 0.1725864611204803
505.0, 0.2088486820362591
506.0, 0.2574564770524363
507.0, 0.3236251318291276
508.0, 0.4015698599439414
509.0, 0.49136645823460395
510.0, 0.6225691929543655
511.0, 0.7469107598496944
512.0, 0.8643506535876894
513.0, 0.9674785261658863
514.0, 0.9938117033595003
515.0, 0.9252711092574766
516.0, 0.8244413920756908
517.0, 0.7161296595444462
518.0, 0.5796220430488858
519.0, 0.4757801628884764
520.0, 0.3863888050538611
521.0, 0.30690876971692144
522.0, 0.25310884688108376
523.0, 0.2133654661598547
524.0, 0.17834090625868715
525.0, 0.14633160338584605
526.0, 0.12517329881310096
527.0, 0.11108201466499824
528.0, 0.09829836522045858
529.0, 0.08568345034128064
530.0, 0.07573918546917445
531.0, 0.06702223048040494
532.0, 0.06021905073104548
533.0, 0.0553800041660833
534.0, 0.05210105686569591
535.0, 0.04778722559925136
536.0, 0.044528326803771744
537.0, 0.041865042037699585
538.0, 0.03725109406286115
539.0, 0.03483753563735306
540.0, 0.03205107106931879
541.0, 0.028968396057594537
542.0, 0.02673536578543296
543.0, 0.026451355676010164
544.0, 0.02343902608355792
545.0, 0.02045177816623046
546.0, 0.02371482826649651
547.0, 0.021073134523162285
548.0, 0.01822360273349258
549.0, 0.01653406332814336
550.0, 0.01739401033865005
551.0, 0.014729007947942518
552.0, 0.014465109225611715
553.0, 0.014392467712830443
554.0, 0.011609168911520168
555.0, 0.011323544657433958
556.0, 0.01233930668877069
557.0, 0.011730996117395746
558.0, 0.007109345645661323
559.0, 0.010011651395992988
560.0, 0.009747288133275163
561.0, 0.009012710023227163
562.0, 0.009484743487254126
563.0, 0.0073770487189608845
564.0, 0.006522292531612272
565.0, 0.006284923458119401
566.0, 0.006306251539844237
567.0, 0.006426641156641401
568.0, 0.006302597008912079
569.0, 0.0067865953404220416
570.0, 0.007908269429064745
571.0, 0.008034363391521946
572.0, 0.007016733974833995
573.0, 0.0059448651315878905
574.0, 0.005467467787933226
575.0, 0.006790202650706028
576.0, 0.0055003381524729575
577.0, 0.005324753183396251
578.0, 0.006696747580472226
579.0, 0.008938361662221395
580.0, 0.010127284862442016
581.0, 0.010565392791911047
582.0, 0.010590997928282293
583.0, 0.010725495344090025
584.0, 0.010902486381136556
585.0, 0.010057562670443691
586.0, 0.008805249031030506
587.0, 0.007958203177492268
588.0, 0.006259022318494432
589.0, 0.005252212885972265
590.0, 0.004324307038544576
591.0, 0.0030384504848757644
592.0, 0.0031858138591983275
593.0, 0.002632048418072742
594.0, 0.0022085113502031055
595.0, 0.002166310262750857
596.0, 0.0006473031645206688
597.0, 0.00031414718477551474
598.0, 0.0007271923338842901
599.0, 0.0013095176192612205
600.0, 0.0001891367483549118
601.0, 0.000769274768374687
602.0, 0.002354644493162141
603.0, 0.0035094468119266863
604.0, 0.0006754669775496591
605.0, 0.0022723199024475725
606.0, 0.0020917427996228377
607.0, 0.000714112586979896
608.0, 0.0006347286126031071
609.0, 0.0010924549745170227
610.0, 0.0015764378191360179
611.0, 0.0014598538821701435
612.0, 0.00011419846692864692
613.0, 0.0001922392893864432
614.0, 0.0017156730616954597
615.0, 0.0024275900882312668
616.0, 0.0010308399831523124
617.0, 0.0017894082569823808
618.0, 0.0018687519057838916
619.0, 0.0015446737679729505
620.0, 0.0010631953421038581
621.0, 0.0010588207618251705
622.0, 0.00045830791539262463
623.0, 0.00017045439681367532
624.0, 0.00027087791757673767
625.0, 0.00027537632781383893
626.0, 0.0028720841918780894
627.0, 0.005301709587767331
628.0, 0.0062644627897800375
629.0, 0.004210456206759798
630.0, 0.0059807583809769575
631.0, 0.005813322578191902
632.0, 0.005593137863740508
633.0, 0.007383310454472383
634.0, 0.0074209732040915665
635.0, 0.008851079261293169
636.0, 0.010654394681652178
637.0, 0.012175826393426051
638.0, 0.013300819765284484
639.0, 0.012541749283101753
640.0, 0.014261288252293997
641.0, 0.018234036310210464
642.0, 0.018032431771992603
643.0, 0.023813252297288
644.0, 0.0275149953065039
645.0, 0.028670226306213194
646.0, 0.029194043848403853
647.0, 0.03504840192902466
648.0, 0.038102929987116195
649.0, 0.04159311251687089
650.0, 0.04933995606979487
651.0, 0.04934064095385975
652.0, 0.0525790345933638
653.0, 0.05456056252829879
654.0, 0.052691349053678796
655.0, 0.04894260817636929
656.0, 0.04628784357836589
657.0, 0.043215840842852585
658.0, 0.03922396149728749
659.0, 0.03434305906434105
660.0, 0.030813210655843002
661.0, 0.027884379005772734
662.0, 0.024323318959812837
663.0, 0.018232792629130936
664.0, 0.013857534773919789
665.0, 0.012236429684472368
666.0, 0.012112324631981102
667.0, 0.011907285776789463
668.0, 0.006540059138462647
669.0, 0.005225821629912016
670.0, 0.0036417417324124137
671.0, 0.0012644791605072839
672.0, 0.006425162524449727
673.0, 0.004758614383639917
674.0, 0.0028316819744718786
675.0, 0.0020599817406079636
676.0, 0.002064265303793257
677.0, 0.003007967912762254
678.0, 0.0019234979613568359
679.0, 0.0006720329053051529
680.0, 0.0016492834475299865
681.0, 0.0013217435999536068
682.0, 0.0007163122869551611
683.0, 0.0004957065054809957
684.0, 0.0008850716618237309
685.0, 0.000719779536176498
686.0, 0.0007188250186712948
687.0, 0.0005085968282977314
688.0, 0.0002546658693909935
689.0, 0.0006922609875344135
690.0, 0.001444829328684918
691.0, 0.0009991908186535146
692.0, 0.0003769366130315459
693.0, 0.0010907123125247836
694.0, 0.0034566453683411037
695.0, 0.003497806581970892
696.0, 0.002990984037983862
697.0, 0.0028434889695364944
698.0, 0.0012225995049214655
699.0, 0.0010555080834349616
700.0, 0.001067341666929201
701.0, 0.0010100073047690993
702.0, 0.0012144226024881862
703.0, 0.00156773718349041
704.0, 0.0014050453238242952
705.0, 0.0016009628029810046
706.0, 0.003163930526068988
707.0, 0.0023306511788874513
708.0, 0.0016015638338430054
709.0, 0.0016966208461523648
710.0, 0.002451358499563725
711.0, 0.0007012228939037857
712.0, 0.0030101847678220077
713.0, 0.0033084021704677252
714.0, 0.0021585611253406825
715.0, 0.004038934848863645
716.0, 0.00540484776707428
717.0, 0.004209322349614851
718.0, 0.0034660748756154937
719.0, 0.005726661439759279
720.0, 0.0024529125608359383
721.0, 0.004475247449284642
722.0, 0.0067549637147092684
723.0, 0.00683708795462076
724.0, 0.003993894344084523
725.0, 0.007199901089893432
726.0, 0.00893894728347632
727.0, 0.008816847396224684
728.0, 0.008216354977450333
729.0, 0.012083766888459465
730.0, 0.01251242512792712
731.0, 0.013572630973686009
732.0, 0.017123803746746817
733.0, 0.015611251139178469
734.0, 0.020878499626428695
735.0, 0.025934464631047746
736.0, 0.029664153880368485
737.0, 0.03417928135813915
738.0, 0.038896169402029966
739.0, 0.04332715459665473
740.0, 0.04945137134200645
741.0, 0.05896691481696245
742.0, 0.06829076900661843
743.0, 0.08031107593474562
744.0, 0.09844037893242852
745.0, 0.12132888573324525
746.0, 0.13961864268651208
747.0, 0.17222591398287185
748.0, 0.19612126682483022
749.0, 0.20814789076027118
750.0, 0.20886386941732232
751.0, 0.19841609675757135
752.0, 0.17570314529019257
753.0, 0.15233666090816742
754.0, 0.13364233290077987
755.0, 0.11370781838893804
756.0, 0.09355779790233618
757.0, 0.077768724243086
758.0, 0.0663755607342291
759.0, 0.0577799284817836
760.0, 0.05461272794922244
761.0, 0.04957043264296848
762.0, 0.043761567602383755
763.0, 0.03901557651813972
764.0, 0.041272690432877165
765.0, 0.03862514777140144
766.0, 0.03663921028664972
767.0, 0.0355602873096447
768.0, 0.033288946598755614
769.0, 0.02712168909122817
770.0, 0.024559156524471937
771.0, 0.022670316841533155
772.0, 0.019551187277010516
773.0, 0.019127938535012358
774.0, 0.01819753539843818
775.0, 0.017618511721964714
776.0, 0.017569493901948185
777.0, 0.017919493280117885
778.0, 0.014241095181231612
779.0, 0.013734855511245057
780.0, 0.013628429271364291
781.0, 0.011889839685329164
782.0, 0.011957563009088252
783.0, 0.012831589721252758
784.0, 0.011536769502641342
785.0, 0.00923274314277264
786.0, 0.010017822281957366
787.0, 0.012680237535214495
788.0, 0.012373412921609742
789.0, 0.0140552294605733
790.0, 0.01990678381862857
791.0, 0.017225659340500334
792.0, 0.019224587219108795
793.0, 0.021667972203977343
794.0, 0.022152426160241684
795.0, 0.0183195327022482
796.0, 0.018491992551562336
797.0, 0.018109014625115376
798.0, 0.01903172029235543
799.0, 0.02193101015883649
800.0, 0.02257071495506903
801.0, 0.023799101656870537
802.0, 0.02757920976091686
803.0, 0.03260627393587058
804.0, 0.03591560218634878
805.0, 0.04180455759935852
806.0, 0.04961477416382552
807.0, 0.06137551451302672
808.0, 0.0772329946591243
809.0, 0.09275226767399458
810.0, 0.11507379147156695
811.0, 0.13917875642448843
812.0, 0.1630915693860716
813.0, 0.1847865662001122
814.0, 0.18698695767932325
815.0, 0.18601911380111671
816.0, 0.1728945522897804
817.0, 0.14577977040517748
818.0, 0.11268562511212285
819.0, 0.09571669220424484
820.0, 0.07720631725686744
821.0, 0.05904450381345465
822.0, 0.04552779414634934
823.0, 0.038672904575473115
824.0, 0.03015701002886323
825.0, 0.025762591061204522
826.0, 0.02535484360153505
827.0, 0.02376892092023843
828.0, 0.01962399484663477
829.0, 0.017979826043852686
830.0, 0.016987884591581816
831.0, 0.014806883045435787
832.0, 0.010555590172631446
833.0, 0.01142006048197504
834.0, 0.011121451274247875
835.0, 0.009181265216568792
836.0, 0.007173198304571598
837.0, 0.0058238238447818795
838.0, 0.005443139669456753
839.0, 0.004641482150914184
840.0, 0.003697298668826033
841.0, 0.00614412870185942
842.0, 0.006228670282028072
843.0, 0.006207882344539011
844.0, 0.005252352952583458
845.0, 0.002657599406361486
846.0, 0.0023228756302557415
847.0, 0.002234100111889941
848.0, 0.0030261461837495177
849.0, 0.0039100814691136795
850.0, 0.0029347777434487847
851.0, 0.004049106566413265
852.0, 0.0037217158387532296
853.0, 0.002169318995361657
854.0, 0.0006591514483788082
855.0, 0.003626251585476836
856.0, 0.0025363788214766694
857.0, 0.0017331411285978423
858.0, 0.002479816157121958
859.0, 0.004823271242802659
860.0, 0.0009905465909747049
861.0, 0.0013687430330212348
862.0, 0.0028221065955835933
863.0, 0.00361211089193255
864.0, 0.0024652807601060526
865.0, 0.0012867517284716184
866.0, 0.0015085003007975113
867.0, 0.0014115702213672082
868.0, 0.0006998796640714231
869.0, 0.003235953920359993
870.0, 0.0030971655103211376
871.0, 0.004848975662257807
872.0, 0.005385987713387919
873.0, 0.0011920776053883446
874.0, 0.0007504922730127557
875.0, 0.0009358882643254599
876.0, 0.0012529118786025121
877.0, 0.0022835109991280614
878.0, 0.005405982054268997
879.0, 0.0034782256990812284
880.0, 0.0013749146683960532
881.0, 0.0011460270213929581
882.0, 0.002752224104860477
883.0, 0.0020119765938578916
884.0, 0.003123890512938223
885.0, 0.002205638122793946
886.0, 0.0006448507271248614
887.0, 0.0002911163045109807
888.0, 0.0017855690461764653
889.0, 0.0022089940498229155
890.0, 0.0013627677767610836
891.0, 0.0005888899998238958
892.0, 0.001827569199557521
893.0, 0.001375820764189047
894.0, 0.003303744833980867
895.0, 0.0031643352933086832
896.0, 0.0009770755529945345
897.0, 0.0014824769074117858
898.0, 0.0029834988153813998
899.0, 0.0019725568832479074
900.0, 0.0009837736569072925
901.0, 0.0014514259974083802
902.0, 0.0015595214601860522
903.0, 0.0007915318427933037
904.0, 0.0006815604184639794
905.0, 0.001002534590730465
906.0, 0.0014108181505222955
907.0, 0.002910085726223366
908.0, 0.0032673822334808545
909.0, 0.002025211970031564
910.0, 0.0012713017826583971
911.0, 0.0038710450135939723
912.0, 0.0015007567124795899
913.0, 0.003084681736947255
914.0, 0.0028114848510950754
915.0, 0.0005350605549662818
916.0, 0.001144722911840609
917.0, 0.0025062609620458234
918.0, 0.001314640489819175
919.0, 0.0017804618628518949
920.0, 0.004367870565143211
921.0, 0.002076751867921293
922.0, 0.0005397908169489906
923.0, 0.0035041837288883656
924.0, 0.00475255033245011
925.0, 0.001056268880672489
926.0, 0.004061888122168485
927.0, 0.006848634562219992
928.0, 0.007229072624355076
929.0, 0.0061915381694643825
930.0, 0.005257925307177366
931.0, 0.0037154780291549323
932.0, 0.0046208977596460645
933.0, 0.0056877475927197925
934.0, 0.006811016945775443
935.0, 0.008491383638535924
936.0, 0.005609121952288048
937.0, 0.0026227836540277595
938.0, 0.0012275055637701023
939.0, 0.0021473449659450616
940.0, 0.005404928944300962
941.0, 0.0013935829280683806
942.0, 0.00443302796345389
943.0, 0.005013369316572379
944.0, 0.0021769942749941826
945.0, 0.006147386014693155
946.0, 0.006342744993442429
947.0, 0.0055627952727675825
948.0, 0.0043782395313328405
949.0, 0.003778202952240705
950.0, 0.006080520670453385
951.0, 0.005424661581870645
952.0, 0.005383020113171235
953.0, 0.005612694272472859
954.0, 0.005689089071204867
955.0, 0.006149594471364414
956.0, 0.005488763780788281
957.0, 0.00554431981960493
958.0, 0.006025565857315067
959.0, 0.006387399948446024
960.0, 0.006638696953142704
961.0, 0.005876595535165292
962.0, 0.0046498522808659125
963.0, 0.0031517795415514187
964.0, 0.0019856447139208863
965.0, 0.00533941426888195
966.0, 0.00781485833276443
967.0, 0.005387045778733534
968.0, 0.00360500403016987
969.0, 0.009573316093539844
970.0, 0.0073914065008610155
971.0, 0.006949861600103543
972.0, 0.007916760058413056
973.0, 0.008839744437846955
974.0, 0.007884299517020753
975.0, 0.00792604630658916
976.0, 0.009503394982280885
977.0, 0.00990975972220103
978.0, 0.010163347212777573
979.0, 0.013279259425135404
980.0, 0.014118976057519956
981.0, 0.012441751758035795
982.0, 0.014456281889528551
983.0, 0.01743276188080179
984.0, 0.01246196743516163
985.0, 0.018303281827138577
986.0, 0.020544276305873917
987.0, 0.022735119891473258
988.0, 0.026303125883824743
989.0, 0.030912746826683993
990.0, 0.033563438074432184
991.0, 0.04215205728253009
992.0, 0.048690486631193186
993.0, 0.05118369501687425
994.0, 0.05333196358830161
995.0, 0.05537568666279588
996.0, 0.0552447819411368
997.0, 0.05330435472367004
998.0, 0.05023263632938214
999.0, 0.0470340357778729
1000.0, 0.040153237906856
1001.0, 0.03870365035822327
1002.0, 0.036840817615623064
1003.0, 0.03257248490090407
1004.0, 0.028113617296362237
1005.0, 0.029674762761968395
1006.0, 0.026422045087955346
1007.0, 0.023060244666540546
1008.0, 0.02148214907519305
1009.0, 0.020477271543720726
1010.0, 0.015194852990747527
1011.0, 0.017295668441509444
1012.0, 0.016826044910304136
1013.0, 0.013440005050516483
1014.0, 0.016737866554011983
1015.0, 0.012486778896299087
1016.0, 0.0123368612665777
1017.0, 0.013618923417263918
1018.0, 0.014329509494853917
1019.0, 0.013167880848116613
1020.0, 0.013759284791287857
1021.0, 0.013457858861708305
1022.0, 0.013115707993482781
1023.0, 0.01253747094107453
1024.0, 0.010723002158394529
1025.0, 0.010576858870532774
1026.0, 0.00934302001980298
1027.0, 0.009346854320509926
1028.0, 0.010642788162083496
1029.0, 0.011648369781243553
1030.0, 0.012086897956926069
1031.0, 0.012441635556331076
1032.0, 0.011950800273078084
1033.0, 0.01164363911153447
1034.0, 0.013053124269156259
1035.0, 0.008117379711470757
1036.0, 0.008674800883407148
1037.0, 0.008890052808299308
1038.0, 0.00919671710832283
1039.0, 0.012337616286254625
1040.0, 0.013833049371852885
1041.0, 0.011350589984601575
1042.0, 0.01083833494720541
1043.0, 0.010900985212633175
1044.0, 0.00855291542214377
1045.0, 0.009036896974214611
1046.0, 0.009769387356589472
1047.0, 0.010774052573305841
1048.0, 0.011119751212850451
1049.0, 0.010741451528071497
1050.0, 0.015067215190135354
1051.0, 0.011441165500842924
1052.0, 0.009977382471685559
1053.0, 0.009305322836164942
1054.0, 0.007900377688554415
1055.0, 0.011035923587259548
1056.0, 0.0073745445342736325
1057.0, 0.009096504611351938
1058.0, 0.010503226718991891
1059.0, 0.008589365083305331
1060.0, 0.011145341895260752
1061.0, 0.008161669673156432
1062.0, 0.006250021435317358
1063.0, 0.006707586483101662
1064.0, 0.007350294733821495
1065.0, 0.001522421509177117
1066.0, 0.007004004751298784
1067.0, 0.007234707513713352
1068.0, 0.00579835622069412
1069.0, 0.005559005179882756
1070.0, 0.007983778131703596
1071.0, 0.005881510545448425
1072.0, 0.006633456798530593
1073.0, 0.00800942786167763
1074.0, 0.008069875267990653
1075.0, 0.005955602186494104
1076.0, 0.010689284744462697
1077.0, 0.009424739861534808
1078.0, 0.007863768516143326
1079.0, 0.007980915802480863
1080.0, 0.009414047164915812
1081.0, 0.0063658173828228595
1082.0, 0.009189659686655713
1083.0, 0.011410875281719713
1084.0, 0.0131758648695449
1085.0, 0.015075115865339182
1086.0, 0.015092057569755788
1087.0, 0.017091851065894104
1088.0, 0.016751207252331087
1089.0, 0.017712838574094173
1090.0, 0.021303107842919344
1091.0, 0.023962614899553942
1092.0, 0.02332155205068409
1093.0, 0.026079991532914192
1094.0, 0.02717070084141987
1095.0, 0.0283269990225736
1096.0, 0.03640589519763871
1097.0, 0.03318282442713268
1098.0, 0.03928922672342107
1099.0, 0.04555592182203876
1100.0, 0.0457331607980885
1101.0, 0.038079872329508595
1102.0, 0.0404961841196652
1103.0, 0.03615042235948549
1104.0, 0.03260996969650207
1105.0, 0.030648059279841437
1106.0, 0.02917130668319582
1107.0, 0.026360552764938268
1108.0, 0.02508148361828408
1109.0, 0.02459233175879111
1110.0, 0.024753850857991613
1111.0, 0.025811590538275416
1112.0, 0.02848792475137373
1113.0, 0.03171398629734182
1114.0, 0.03721571107923577
1115.0, 0.04018393812227263
1116.0, 0.04114721960508245
1117.0, 0.04389922251544352
1118.0, 0.043710867985045504
1119.0, 0.04648377812006135
1120.0, 0.04432323613057392
1121.0, 0.04151235909589744
1122.0, 0.04330318329013615
1123.0, 0.04229472997552469
1124.0, 0.043742535806938605
1125.0, 0.043933716671917616
1126.0, 0.042187502739129516
1127.0, 0.03990386613539131
1128.0, 0.04114407208227988
1129.0, 0.035691903118675386
1130.0, 0.03176287157782788
1131.0, 0.03275158455624142
1132.0, 0.035886378772941055
1133.0, 0.03477393922376601
1134.0, 0.03462517673844794
1135.0, 0.040891627163472145
1136.0, 0.04341026210063052
1137.0, 0.04489656876828867
1138.0, 0.048646465004877106
1139.0, 0.044893871727097204
1140.0, 0.04307912188952782
1141.0, 0.04486014275379327
1142.0, 0.04123602409464382
1143.0, 0.03242672821069678
1144.0, 0.03254267197345333
1145.0, 0.029353455357392415
1146.0, 0.021253678912915606
1147.0, 0.019775955972352627
1148.0, 0.022469800562488724
1149.0, 0.020301310156821354
1150.0, 0.016557276776267765
1151.0, 0.014958801070626
1152.0, 0.011503253428562442
1153.0, 0.009697787420174934
1154.0, 0.010851484637028591
1155.0, 0.007910292805091508
1156.0, 0.009407677055549816
1157.0, 0.007905772077154758
1158.0, 0.005464997047353576
1159.0, 0.00372088249817842
1160.0, 0.003611226526650603
1161.0, 0.00793731630706241
1162.0, 0.005490076839749706
1163.0, 0.007088998573778368
1164.0, 0.008174924824476673
1165.0, 0.0037280101464265887
1166.0, 0.0020730370856833114
1167.0, 0.0029633385675960993
1168.0, 0.004834229552113868
1169.0, 0.004540677729683964
1170.0, 0.0033303029961971797
1171.0, 0.006306422825082879
1172.0, 0.0023088208280644985
1173.0, 0.004463443121942692
1174.0, 0.003156248287260809
1175.0, 0.0009434257232505043
1176.0, 0.0028269736550501773
1177.0, 0.005961742483712772
1178.0, 0.0036414431737763933
1179.0, 0.0021263228314782655
1180.0, 0.0033473217536828673
1181.0, 0.005335189235867026
1182.0, 0.003105193674403653
1183.0, 0.007320046564361872
1184.0, 0.004895086453240746
1185.0, 0.0045464818725609365
1186.0, 0.005869317535896177
1187.0, 0.005739950825057689
1188.0, 0.004124794083380057
1189.0, 0.0011991987638969666
1190.0, 0.004313260144000604
1191.0, 0.00491049726714155
1192.0, 0.002467180196867015
1193.0, 0.005270651380945588
1194.0, 0.003145440937311744
1195.0, 0.004033264346314985
1196.0, 0.004908846646747124
1197.0, 0.0045732615236318
1198.0, 0.0029943046347302173
1199.0, 0.0015405118093305594
1200.0, 0.0059411397977071016
1201.0, 0.004268672963819562
1202.0, 0.002701613884991559
1203.0, 0.0038256464147360457
1204.0, 0.00556893767955925
1205.0, 0.0018354985647357738
1206.0, 0.003865722177365971
1207.0, 0.005515437099317311
1208.0, 0.004360414013707742
1209.0, 0.0019349835196835303
1210.0, 0.005365941376832912
1211.0, 0.0024093591966252966
1212.0, 0.002847966389787508
1213.0, 0.003210390421079643
1214.0, 0.003869334176224916
1215.0, 0.005904620062193151
1216.0, 0.0015268583665106411
1217.0, 0.001287851037822281
1218.0, 0.002228202027346969
1219.0, 0.004914422971076355
1220.0, 0.007376965609316606
1221.0, 0.004881473613969806
1222.0, 0.006533686141554304
1223.0, 0.004710827801773742
1224.0, 0.004283441066125552
1225.0, 0.0063366664283322225
1226.0, 0.008813442391936738
1227.0, 0.005412460587438342
1228.0, 0.002145823723833382
1229.0, 0.0024473444869731256
1230.0, 0.00374436831780734
1231.0, 0.00447672631971675
1232.0, 0.004672854301840244
1233.0, 0.0075060584295252334
1234.0, 0.003074482492134582
1235.0, 0.0048861625499581115
1236.0, 0.005559090656501392
1237.0, 0.0022738461757267135
1238.0, 0.0023489640843330833
1239.0, 0.005953413098492174
1240.0, 0.0043036792186455656
1241.0, 0.00555764118539593
1242.0, 0.00769913087620483
1243.0, 0.006648185476484271
1244.0, 0.0020616830291862167
1245.0, 0.004070228840363444
1246.0, 0.005004830944357086
1247.0, 0.0033233493486107594
1248.0, 0.0028092166251584725
1249.0, 0.006786285773328052
1250.0, 0.0032242629529101305
1251.0, 0.003422574263496263
1252.0, 0.0034800980617185075
1253.0, 0.0038717205775735276
1254.0, 0.006371548383177559
1255.0, 0.011680835444350935
1256.0, 0.0042871077602156665
1257.0, 0.0022971652226175046
1258.0, 0.005389184863245405
1259.0, 0.0069510664985341615
1260.0, 0.004222165734235153
1261.0, 0.0027169846504754686
1262.0, 0.007765118239050927
1263.0, 0.005562358867342779
1264.0, 0.0032072939673703595
1265.0, 0.0030439129712917555
1266.0, 0.004282916684886744
1267.0, 0.0034533746401375423
1268.0, 0.007039455564199146
1269.0, 0.004428662816621947
1270.0, 0.002792083607359989
1271.0, 0.004675670097252216
1272.0, 0.007574743079029151
1273.0, 0.002200351534105487
1274.0, 0.0073470499608675795
1275.0, 0.007011751928569251
1276.0, 0.004285959337324036
1277.0, 0.00454451701204348
1278.0, 0.009977624343478125
1279.0, 0.004072443254439852
1280.0, 0.0010333466042741603
1281.0, 0.0017016544361480466
1282.0, 0.003598503917993541
1283.0, 0.005040203168552759
1284.0, 0.005633387824119739
1285.0, 0.003427275382426506
1286.0, 0.0013327746719429504
1287.0, 0.001144011012039722
1288.0, 0.0032399099896946973
1289.0, 0.0051220532942824
1290.0, 0.0021558602188953054
1291.0, 0.0003492741024090847
1292.0, 0.001479850332060454
1293.0, 0.002404808729613242
1294.0, 0.0024739878474773075
1295.0, 0.0019693947108883835
1296.0, 0.0015283963399601
1297.0, 0.0012471005212631898
1298.0, 0.0016847211627297124
1299.0, 0.0028444334922096493
1300.0, 0.004402626805073243
1301.0, 0.00571033468679678
1302.0, 0.005774161204566909
1303.0, 0.0012358525165863258
1304.0, 0.004260686884025172
1305.0, 0.0035481416963480256
1306.0, 0.0017500266917161496
1307.0, 0.003560983288299276
1308.0, 0.00638954668137473
1309.0, 0.0013890704027542458
1310.0, 0.0027578995539109547
1311.0, 0.00407122413346468
1312.0, 0.0030189671810154023
1313.0, 0.0012710360377213414
1314.0, 0.004549224439796836
1315.0, 0.0016558902966374812
1316.0, 0.002370076770027336
1317.0, 0.0021191302224354545
1318.0, 0.0013472846094805557
1319.0, 0.0018507594160272626
1320.0, 0.0029836424641110143
1321.0, 0.0013211631820749178
1322.0, 0.00209768496239879
1323.0, 0.002894645588740848
1324.0, 0.003998841371575136
1325.0, 0.004890653485801521
1326.0, 0.000528013804586498
1327.0, 0.0006554193693238819
1328.0, 0.001077693322668439
1329.0, 0.0018870509317753267
1330.0, 0.004645982610145963
1331.0, 0.007821211397985257
1332.0, 0.0024700770713759366
1333.0, 0.005199160171536824
1334.0, 0.0028614709354214426
1335.0, 0.0031502455768447437
1336.0, 0.004718731763196116
1337.0, 0.0039034690109638467
1338.0, 0.000697065101066708
1339.0, 0.0016035138897363434
1340.0, 0.004884259103032411
1341.0, 0.003256702985461319
1342.0, 0.001855886891351557
1343.0, 0.005027930620182655
1344.0, 0.007159010303813245
1345.0, 0.0024274999249785673
1346.0, 0.0064065594894330315
1347.0, 0.004047460950009618
1348.0, 0.0005091969404610468
1349.0, 0.0017389054813360834
1350.0, 0.0043213466445168585
1351.0, 0.0022494959877932628
1352.0, 0.0034738661357255883
1353.0, 0.00416084506246255
1354.0, 0.004339990083815177
1355.0, 0.0047446195207771266
1356.0, 0.005468372116660839
1357.0, 0.004652123691290527
1358.0, 0.0014198332879236386
1359.0, 0.0012019541847607695
1360.0, 0.0011818398725721019
1361.0, 0.0004918764431977116
1362.0, 0.0016787991148682624
1363.0, 0.00535409998311408
1364.0, 0.00500815952405911
1365.0, 0.005162676399990763
1366.0, 0.005690080139429535
1367.0, 0.005105914567181767
1368.0, 0.002923383972919117
1369.0, 0.004883696936436247
1370.0, 0.0016963560687485032
1371.0, 0.0007947512151758987
1372.0, 0.0034802832781428536
1373.0, 0.005125075881299476
1374.0, 0.0025061145040158814
1375.0, 0.005045505427709366
1376.0, 0.002489961403974463
1377.0, 0.0023505349495503763
1378.0, 0.004427021108155416
1379.0, 0.006307969680799022
1380.0, 0.005940439651515728
1381.0, 0.0039174650963242404
1382.0, 0.005783485768854561
1383.0, 0.009627496592590865
1384.0, 0.007670572074392247
1385.0, 0.0095478010798156
1386.0, 0.013398949718650691
1387.0, 0.0012335935915117895
1388.0, 0.002051789239344609
1389.0, 0.006864420409017942
1390.0, 0.007295890457151463
1391.0, 0.005730815639607607
1392.0, 0.0048901628576777595
1393.0, 0.005696494130324303
1394.0, 0.008268509299454212
1395.0, 0.00923864804449191
1396.0, 0.00646011094381281
1397.0, 0.0047376561741982156
1398.0, 0.006265783715016264
1399.0, 0.008498357788382621
1400.0, 0.003087557265771146
1401.0, 0.007783788936917823
1402.0, 0.007619635340522568
1403.0, 0.006985200122125452
1404.0, 0.0070626799598723505
1405.0, 0.007630481366501543
1406.0, 0.008004504062435563
1407.0, 0.0039412473758496476
1408.0, 0.008351091986956247
1409.0, 0.005841464514456005
1410.0, 0.003697390780388478
1411.0, 0.006638096830953615
1412.0, 0.010656520282324812
1413.0, 0.0037597599307146404
1414.0, 0.007682582130226155
1415.0, 0.00883903465707876
1416.0, 0.004901073412395662
1417.0, 0.0033777255821520516
1418.0, 0.007336059972344579
1419.0, 0.0013990329975019046
1420.0, 0.0018699997718016957
1421.0, 0.007736866458168438
1422.0, 0.009666257380365481
1423.0, 0.008563301087499857
1424.0, 0.007647384309014142
1425.0, 0.00822001340147236
1426.0, 0.007051622164778147
1427.0, 0.006555338490655695
1428.0, 0.006449163189332086
1429.0, 0.006544898185087285
1430.0, 0.007242833596871818
1431.0, 0.008090854894133465
1432.0, 0.005664572539260621
1433.0, 0.0025051091048130213
1434.0, 0.00832968688883942
1435.0, 0.005980698080538048
1436.0, 0.0033183007738984884
1437.0, 0.0066685892730488526
1438.0, 0.008212023926761992
1439.0, 0.0018529250526326184
1440.0, 0.007069592967782739
1441.0, 0.007503878364253551
1442.0, 0.004362322299195579
1443.0, 0.0037761019030904267
1444.0, 0.0075794360172285885
1445.0, 0.002877326761388582
1446.0, 0.004758657337596194
1447.0, 0.008404446956395329
1448.0, 0.006439983208036894
1449.0, 0.005728577080801242
1450.0, 0.009589666000024703
1451.0, 0.01079433054071973
1452.0, 0.003445184779661465
1453.0, 0.0060645336631689525
1454.0, 0.006144290477502824
1455.0, 0.005980521069478877
1456.0, 0.008066668809892786
1457.0, 0.011148652386862353
1458.0, 0.008550254854798047
1459.0, 0.003422780426102453
1460.0, 0.012073753711978214
1461.0, 0.010916756149195933
1462.0, 0.00752174452544476
1463.0, 0.008551371035146563
1464.0, 0.010046491013713084
1465.0, 0.006236834415101821
1466.0, 0.010754694700050547
1467.0, 0.009747467277254208
1468.0, 0.007549458954099684
1469.0, 0.008796981790661523
1470.0, 0.011095949181237207
1471.0, 0.004667454868000396
1472.0, 0.007354540556970998
1473.0, 0.009604164196402833
1474.0, 0.007829217438152592
1475.0, 0.009049625591054789
1476.0, 0.012259194840411066
1477.0, 0.011072714226242923
1478.0, 0.004461885086980843
1479.0, 0.0067532947690697774
1480.0, 0.009274440673886197
1481.0, 0.011850712166119865
1482.0, 0.012739424766889896
1483.0, 0.011708608912839567
1484.0, 0.009576685654616186
1485.0, 0.0030163931254037
1486.0, 0.010694081185405633
1487.0, 0.007191673933044573
1488.0, 0.004253681192291955
1489.0, 0.006652069176303662
1490.0, 0.009775338944490682
1491.0, 0.004890798144102442
1492.0, 0.004584067521280953
1493.0, 0.014517230256596412
1494.0, 0.007054462086599472
1495.0, 0.0048316881050810175
1496.0, 0.010240451204612045
1497.0, 0.011130956239627949
1498.0, 0.0012567082208851557
1499.0, 0.007366182502460549
1500.0, 0.008910333876749589
1501.0, 0.005607398860365413
1502.0, 0.007081153477392793
1503.0, 0.009283268420997986
1504.0, 0.00502894723681339
1505.0, 0.007320706836908185
1506.0, 0.0074186945860644695
1507.0, 0.006015431406791379
1508.0, 0.006239248121851794
1509.0, 0.008204130072901059
1510.0, 0.00943301557618579
1511.0, 0.007983139457960845
1512.0, 0.00805649319134047
1513.0, 0.009311539245947765
1514.0, 0.002813680040519135
1515.0, 0.004931799804139043
1516.0, 0.0050288435106757585
1517, 0.0
1518, 0.0
1519, 0.0
1520, 0.0
1521, 0.0
1522, 0.0
1523, 0.0
1524, 0.0
1525, 0.0
1526, 0.0
1527, 0.0
1528, 0.0
1529, 0.0
1530, 0.0
1531, 0.0
1532, 0.0
1533, 0.0
1534, 0.0
1535, 0.0
1536, 0.0
1537, 0.0
1538, 0.0
1539, 0.0
1540, 0.0
1541, 0.0
1542, 0.0
1543, 0.0
1544, 0.0
1545, 0.0
1546, 0.0
1547, 0.0
1548, 0.0
1549, 0.0
1550, 0.0
1551, 0.0
1552, 0.0
1553, 0.0
1554, 0.0
1555, 0.0
1556, 0.0
1557, 0.0
1558, 0.0
1559, 0.0
1560, 0.0
1561, 0.0
1562, 0.0
1563, 0.0
1564, 0.0
1565, 0.0
1566, 0.0
1567, 0.0
1568, 0.0
1569, 0.0
1570, 0.0
1571, 0.0
1572, 0.0
1573, 0.0
1574, 0.0
1575, 0.0
1576, 0.0
1577, 0.0
1578, 0.0
1579, 0.0
1580, 0.0
1581, 0.0
1582, 0.0
1583, 0.0
1584, 0.0
1585, 0.0
1586, 0.0
1587, 0.0
1588, 0.0
1589, 0.0
1590, 0.0
1591, 0.0
1592, 0.0
1593, 0.0
1594, 0.0
1595, 0.0
1596, 0.0
1597, 0.0
1598, 0.0
1599, 0.0
