30, 0.0
31, 0.0
32, 0.0
33, 0.0
34, 0.0
35, 0.0
36, 0.0
37, 0.0
38, 0.0
39, 0.0
40, 0.0
41, 0.0
42, 0.0
43, 0.0
44, 0.0
45, 0.0
46, 0.0
47, 0.0
48, 0.0
49, 0.0
50, 0.0
51, 0.0
52, 0.0
53, 0.0
54, 0.0
55, 0.0
56, 0.0
57, 0.0
58, 0.0
59, 0.0
60, 0.0
61, 0.0
62, 0.0
63, 0.0
64, 0.0
65, 0.0
66, 0.0
67, 0.0
68, 0.0
69, 0.0
70, 0.0
71, 0.0
72, 0.0
73, 0.0
74, 0.0
75, 0.0
76, 0.0
77, 0.0
78, 0.0
79, 0.0
80, 0.0
81.0, 3.3895871698075484e-05
82.0, 0.0002253979716871953
83.0, 0.00048550878499594704
84.0, 0.0007136014544534786
85.0, 0.0008603401450434338
86.0, 0.006833086332752015
87.0, 0.013846686928734768
88.0, 0.02225956639308419
89.0, 0.03355472154116052
90.0, 0.042742726768406916
91.0, 0.0515534467815102
92.0, 0.06042023068061865
93.0, 0.06288717005563024
94.0, 0.06431020203817109
95.0, 0.0634923464432873
96.0, 0.0573297963095604
97.0, 0.05170982792972628
98.0, 0.0471489343563394
99.0, 0.043783973965452555
100.0, 0.040592907928939374
101.0, 0.03878734347550978
102.0, 0.03794476725898636
103.0, 0.037782964691356294
104.0, 0.03869045353373113
105.0, 0.03946955041344251
106.0, 0.0396516073157308
107.0, 0.03688472622456945
108.0, 0.03337710748293142
109.0, 0.029038340583041274
110.0, 0.023550838365524067
111.0, 0.01910666095893969
112.0, 0.01561551433718719
113.0, 0.013435409176852809
114.0, 0.01468150824579143
115.0, 0.015316368730589735
116.0, 0.017330110097039234
117.0, 0.022214711147066118
118.0, 0.023282632817996012
119.0, 0.02748442813407812
120.0, 0.03404888876209981
121.0, 0.04042597247294396
122.0, 0.05068661908574435
123.0, 0.060827654537597385
124.0, 0.06934847419454493
125.0, 0.07728040594833392
126.0, 0.08227630544166706
127.0, 0.08485783583231815
128.0, 0.08525489046128584
129.0, 0.08559934695009397
130.0, 0.08305093866080404
131.0, 0.07709615250468117
132.0, 0.06993942508081842
133.0, 0.06379474596147984
134.0, 0.06020998262802745
135.0, 0.06144994176885325
136.0, 0.061041887935973434
137.0, 0.06415083028117534
138.0, 0.0713913033911154
139.0, 0.08390805554463904
140.0, 0.09866678513475625
141.0, 0.1172566068406689
142.0, 0.14114423216390404
143.0, 0.17372481256852465
144.0, 0.20750045355471652
145.0, 0.24157127501182685
146.0, 0.27412637928179107
147.0, 0.30041386324319264
148.0, 0.3200221395587117
149.0, 0.33204975593733105
150.0, 0.33076491608597386
151.0, 0.3202243360709195
152.0, 0.3030204500197924
153.0, 0.2804875352055488
154.0, 0.24921593576434337
155.0, 0.2200091541068572
156.0, 0.19361381912905146
157.0, 0.16752616499305595
158.0, 0.14462167958550906
159.0, 0.12483984431682514
160.0, 0.1085970819943429
161.0, 0.0934627896759653
162.0, 0.08097814126727136
163.0, 0.07068170103271168
164.0, 0.062008811513695326
165.0, 0.054712179572499
166.0, 0.048803798303946114
167.0, 0.044402557752272906
168.0, 0.04207912644454561
169.0, 0.041056810041732575
170.0, 0.04217574383695967
171.0, 0.04675549860509476
172.0, 0.05243428969776331
173.0, 0.0579419044925657
174.0, 0.06382437340139936
175.0, 0.0726212191979175
176.0, 0.07520765693323991
177.0, 0.0770695462839303
178.0, 0.08019639489256161
179.0, 0.07829817314718451
180.0, 0.07344950374517753
181.0, 0.06692796563632233
182.0, 0.060251735843502026
183.0, 0.05512050757896007
184.0, 0.048533082164820725
185.0, 0.040892667652055265
186.0, 0.03704205138990437
187.0, 0.03360222553131566
188.0, 0.030907188442063145
189.0, 0.02924590875933963
190.0, 0.0319723482841739
191.0, 0.03504378812294594
192.0, 0.0388290142752703
193.0, 0.044301535637050464
194.0, 0.05082156820764748
195.0, 0.056777709646734544
196.0, 0.06170792765224382
197.0, 0.06465121753649646
198.0, 0.06614102852135263
199.0, 0.06563375520698321
200.0, 0.06241775029696538
201.0, 0.055307525971526016
202.0, 0.047172809428703937
203.0, 0.03868831560265702
204.0, 0.03116661596092184
205.0, 0.026580951386940933
206.0, 0.020791684393856712
207.0, 0.013435739056335815
208.0, 0.010513861040261871
209.0, 0.009017962466538477
210.0, 0.0071657093655511025
211.0, 0.003518349582038021
212.0, 0.0012119967449707222
213.0, 0.00018536472167192332
214.0, 4.382822007482463e-05
215.0, 9.717822286552571e-06
216.0, 0.0018822973411779184
217.0, 0.003165559138091923
218.0, 0.003319349723350152
219.0, 0.0030299702345355523
220.0, 0.003946587828517273
221.0, 0.004421051882968715
222.0, 0.0031688765049514315
223.0, 0.003534143598076868
224.0, 0.0031749821128880173
225.0, 0.0026179755143423177
226.0, 0.0031337332989228046
227.0, 0.003114697886393312
228.0, 0.0031951996502182314
229.0, 0.0033760675347093076
230.0, 0.002699757567714767
231.0, 0.003047886644426058
232.0, 0.00318081414786101
233.0, 0.0023077000569148797
234.0, 0.002043515673559362
235.0, 0.0023722162498803325
236.0, 0.0028119214691886855
237.0, 0.00252277967388446
238.0, 0.0017917840961563952
239.0, 0.0009644257017498266
240.0, 0.00038135831795997567
241.0, 0.0015154193765557263
242.0, 0.0019061398654593759
243.0, 0.0032985782547151027
244.0, 0.006505882270692182
245.0, 0.008732679035444958
246.0, 0.011181251624718636
247.0, 0.015617122138315993
248.0, 0.024616540035278058
249.0, 0.030813706579285016
250.0, 0.03846333779715705
251.0, 0.047991815134750405
252.0, 0.05975965315318625
253.0, 0.07111813910961406
254.0, 0.0824558002822547
255.0, 0.09352149872346847
256.0, 0.10037677157035753
257.0, 0.10614755281839848
258.0, 0.11100757828972081
259.0, 0.11496745105712285
260.0, 0.12124737992359962
261.0, 0.12520586082896906
262.0, 0.12798119930494073
263.0, 0.13183383602142318
264.0, 0.13594148590536553
265.0, 0.13572195657096164
266.0, 0.1315706229746583
267.0, 0.12919794080346184
268.0, 0.11686811286067443
269.0, 0.10401990081168182
270.0, 0.0946082933595913
271.0, 0.08620674954110553
272.0, 0.08245370502735981
273.0, 0.0789512439304578
274.0, 0.07117530601427517
275.0, 0.07239266151462881
276.0, 0.07713249055717997
277.0, 0.08500502204923219
278.0, 0.09635438417110076
279.0, 0.11442673530955565
280.0, 0.1330468265341272
281.0, 0.1512245341983167
282.0, 0.17067714338390388
283.0, 0.18299494944516034
284.0, 0.19031561449348036
285.0, 0.19334340786785073
286.0, 0.1935860041378014
287.0, 0.1847061427360845
288.0, 0.17029807746778228
289.0, 0.15345109207740792
290.0, 0.1414653390533432
291.0, 0.12801336133568833
292.0, 0.11498598154259357
293.0, 0.10778600222686663
294.0, 0.097782061017461
295.0, 0.08983196720077413
296.0, 0.0845751533559059
297.0, 0.08034392722011902
298.0, 0.07380823494602926
299.0, 0.06666090970653565
300.0, 0.05952714043109175
301.0, 0.05118372530479236
302.0, 0.04290009141814903
303.0, 0.035498494869260606
304.0, 0.02981806370545055
305.0, 0.025225395430740788
306.0, 0.020627607888177253
307.0, 0.016090144213092863
308.0, 0.011804137089857477
309.0, 0.009183425076232642
310.0, 0.007247209011544651
311.0, 0.005330404736275543
312.0, 0.0014758052184947969
313.0, 0.0005309457698991417
314.0, 0.0010184547381314538
315.0, 0.0022866415007204164
316.0, 0.0022643528270928823
317.0, 0.0011398377693806474
318.0, 0.0007093295470503847
319.0, 0.0019936542987146703
320.0, 0.0007912157769748927
321.0, 0.001041607314482296
322.0, 0.002319943423532537
323.0, 0.004259174792035713
324.0, 0.006315947240301755
325.0, 0.010947105802317449
326.0, 0.016815672923775855
327.0, 0.020950857198501253
328.0, 0.022736175088975862
329.0, 0.02619052292810813
330.0, 0.030246259888832103
331.0, 0.028156700521552343
332.0, 0.02664297593794222
333.0, 0.023370833147854632
334.0, 0.017968077974348205
335.0, 0.013914467332739194
336.0, 0.009895522723855603
337.0, 0.007076327300936285
338.0, 0.006016847454538971
339.0, 0.0016238848206415505
340.0, 0.00013429242511209998
341.0, 0.0004965921677395767
342.0, 0.0018502994878535784
343.0, 0.0008599456383486835
344.0, 0.00041412719539324436
345.0, 0.0006668799003540499
346.0, 0.001799461063594982
347.0, 0.0010327650075640155
348.0, 0.0014253274467411823
349.0, 0.0033990598966048037
350.0, 0.007325074130928866
351.0, 0.01292284668022435
352.0, 0.01642939869703948
353.0, 0.017938959118519955
354.0, 0.02213465643058255
355.0, 0.024848029284854297
356.0, 0.02543485850651314
357.0, 0.023880527019920897
358.0, 0.023304497526837997
359.0, 0.021603073667253413
360.0, 0.0194443156656026
361.0, 0.017259322219643342
362.0, 0.016651344455681533
363.0, 0.017390015132280116
364.0, 0.02005817372949276
365.0, 0.02537510722842162
366.0, 0.029687431780407798
367.0, 0.036946569752672
368.0, 0.04597233326515333
369.0, 0.05499844455523909
370.0, 0.06251435945960336
371.0, 0.0661600813919073
372.0, 0.0668550347124211
373.0, 0.06686652564188386
374.0, 0.05989757612167343
375.0, 0.05047024599088278
376.0, 0.04035879945597213
377.0, 0.03318792648708001
378.0, 0.02333497352639916
379.0, 0.016127772709946607
380.0, 0.01242401396043935
381.0, 0.009197780230936791
382.0, 0.006737798298437591
383.0, 0.0047613577864271655
384.0, 0.0032594931661906693
385.0, 0.0029910896964501447
386.0, 0.0035375907168624537
387.0, 0.002990555799826149
388.0, 0.0005229361108892616
389.0, 0.001790245841500858
390.0, 0.0036718108571810026
391.0, 0.0053754413855202
392.0, 0.006307251920656745
393.0, 0.011082959316507957
394.0, 0.01590874400421447
395.0, 0.023460708284408067
396.0, 0.03688518188648574
397.0, 0.04766058488316391
398.0, 0.06308291404611376
399.0, 0.08044639567463609
400.0, 0.09544653557186775
401.0, 0.10760576818885499
402.0, 0.11782318268342702
403.0, 0.12221920975321511
404.0, 0.11227354737377204
405.0, 0.09589405093831686
406.0, 0.08111613923007985
407.0, 0.06899508388414684
408.0, 0.059829316373077514
409.0, 0.052540271177483854
410.0, 0.04752585107258526
411.0, 0.04416151906938806
412.0, 0.04003172963758853
413.0, 0.03546989166901269
414.0, 0.029694755023403012
415.0, 0.022975232501860045
416.0, 0.017513467361307013
417.0, 0.012206233270947322
418.0, 0.007962685365913347
419.0, 0.005086117014207557
420.0, 0.0035116557620615777
421.0, 0.0024426738846185627
422.0, 0.0014952876120604259
423.0, 0.0005846601721498869
424.0, 0.00027361641125434787
425.0, 0.0003869605577769025
426.0, 0.0006250276601291779
427.0, 0.0008615438706718377
428.0, 0.0013118949969584371
429.0, 0.0008608519888790603
430.0, 0.0003363906662355677
431.0, 0.00024678133975778853
432.0, 0.000811899016246936
433.0, 0.0010250788497751199
434.0, 0.0016263244602407456
435.0, 0.003112906261890017
436.0, 0.0041265382193237995
437.0, 0.006115609202620269
438.0, 0.008062969435677945
439.0, 0.009149089768440997
440.0, 0.01164289309664425
441.0, 0.014859872169027403
442.0, 0.01866932788028287
443.0, 0.02296054400930792
444.0, 0.02986694938386249
445.0, 0.037420738437639864
446.0, 0.046585521734957544
447.0, 0.058467334721146166
448.0, 0.07073223797215658
449.0, 0.08725290353830688
450.0, 0.10548300549431529
451.0, 0.12229320785329373
452.0, 0.13827073235472429
453.0, 0.14510768074565952
454.0, 0.14615838172175452
455.0, 0.14601593140854702
456.0, 0.14074587803472824
457.0, 0.13281445332462294
458.0, 0.12407119111035679
459.0, 0.11698247996221019
460.0, 0.11600722703515454
461.0, 0.1180083286544585
462.0, 0.12333104723113716
463.0, 0.13293211800791832
464.0, 0.1500133737236202
465.0, 0.1762628736257459
466.0, 0.21085248396268413
467.0, 0.252698552897732
468.0, 0.3079772790111196
469.0, 0.3779535737369081
470.0, 0.4563784855846599
471.0, 0.5332417715089636
472.0, 0.6194528068240164
473.0, 0.6805671567547997
474.0, 0.7169074080322935
475.0, 0.7321617910576638
476.0, 0.6999393415613255
477.0, 0.6460541408209538
478.0, 0.5766866482723891
479.0, 0.49823605029741985
480.0, 0.4332034385834525
481.0, 0.3758130015872184
482.0, 0.3263359750985793
483.0, 0.28623650835846093
484.0, 0.2515454856771511
485.0, 0.21832184636699517
486.0, 0.18737050443076345
487.0, 0.16050732435348938
488.0, 0.13628395396318443
489.0, 0.11609404997628803
490.0, 0.10062675815782425
491.0, 0.09096124941827015
492.0, 0.08462638616350096
493.0, 0.08065798012097544
494.0, 0.07908477137151733
495.0, 0.08009027449435796
496.0, 0.08301073936174516
497.0, 0.0875084211438784
498.0, 0.09526313527044974
499.0, 0.10862750199403497
500.0, 0.12542023159647636
501.0, 0.14728797293602003
502.0, 0.17551556055566023
503.0, 0.2116697452291575
504.0, 0.2679680071574579
505.0, 0.33377810489009896
506.0, 0.411739177789837
507.0, 0.5050122869537802
508.0, 0.6145432993146
509.0, 0.7289154179668632
510.0, 0.8421558537061875
511.0, 0.947884182510474
512.0, 0.9873957954669013
513.0, 0.9976875186718034
514.0, 0.962612578118693
515.0, 0.8694300282292048
516.0, 0.7655266185137288
517.0, 0.6482869347028817
518.0, 0.5319611291664706
519.0, 0.42842049357140394
520.0, 0.3589197957704745
521.0, 0.2927680623062002
522.0, 0.23668665696438923
523.0, 0.1949724622630699
524.0, 0.16474461862173154
525.0, 0.14008045082421236
526.0, 0.12072688352270143
527.0, 0.10595168001762768
528.0, 0.08969114672061292
529.0, 0.07906412897318045
530.0, 0.0696528049966351
531.0, 0.06015748800688604
532.0, 0.05505860123155386
533.0, 0.05107378407567637
534.0, 0.04666375592118309
535.0, 0.04168658498222951
536.0, 0.03826488698419609
537.0, 0.03584430286765646
538.0, 0.032635996017991706
539.0, 0.028727453024312247
540.0, 0.026441878738466318
541.0, 0.025363802092274124
542.0, 0.02241039993358108
543.0, 0.01863252541680736
544.0, 0.019130610553692834
545.0, 0.01805214064206926
546.0, 0.015998728760474208
547.0, 0.013973921979813531
548.0, 0.014024025218435147
549.0, 0.013192962514200702
550.0, 0.01302594775743873
551.0, 0.01276772167173121
552.0, 0.010838587055146027
553.0, 0.010762722798500372
554.0, 0.010268001000330498
555.0, 0.00956289922955754
556.0, 0.00909399527482963
557.0, 0.009155364371143221
558.0, 0.008206408913530555
559.0, 0.006429623644186669
560.0, 0.004167807004572978
561.0, 0.006826207102411371
562.0, 0.006008764426004176
563.0, 0.004885805423442645
564.0, 0.005667504492412616
565.0, 0.006628587297630107
566.0, 0.005335907197702136
567.0, 0.005128968771645892
568.0, 0.007124207469440209
569.0, 0.006291033992552846
570.0, 0.005545190411064439
571.0, 0.0049712613070346
572.0, 0.005160407197937755
573.0, 0.008742138376103787
574.0, 0.007128706728635302
575.0, 0.00748766800750652
576.0, 0.01005532657238065
577.0, 0.009793385538223728
578.0, 0.011344568038562066
579.0, 0.012766497380516162
580.0, 0.013372097514243673
581.0, 0.012364685554047418
582.0, 0.01266869565310722
583.0, 0.012582869636151312
584.0, 0.012078804515754896
585.0, 0.011333045754136066
586.0, 0.010491793599530648
587.0, 0.010067108835359785
588.0, 0.00927929118336323
589.0, 0.007343938125878981
590.0, 0.0041323890075204645
591.0, 0.0016655180092364312
592.0, 0.0005500169715860559
593.0, 0.0009294633468056104
594.0, 0.00018805976866693975
595.0, 0.0006438259338379092
596.0, 0.0010224768716832467
597.0, 0.0008457019331760695
598.0, 0.0005365566490348594
599.0, 0.0009329360303868225
600.0, 0.001184687182103201
601.0, 0.0011997223048537905
602.0, 0.001417727758681693
603.0, 0.0005643015559334567
604.0, 0.0007783152756683475
605.0, 0.0015427996673878614
606.0, 0.001216316203348757
607.0, 0.0005201137165855169
608.0, 0.0020076654227061093
609.0, 0.0032550154566528973
610.0, 0.0011431946903769212
611.0, 0.0010306170171598184
612.0, 0.0016701015811972464
613.0, 0.002373533840050647
614.0, 0.002595390521753651
615.0, 0.002325529816503974
616.0, 0.0028752532527283057
617.0, 0.004441451983732189
618.0, 0.0063754984035194395
619.0, 0.004523188930116369
620.0, 0.004625354185118254
621.0, 0.006864882717574993
622.0, 0.009829466728317974
623.0, 0.009094667805047882
624.0, 0.012824924541557665
625.0, 0.01276010538475548
626.0, 0.011961459819500876
627.0, 0.017768996965823666
628.0, 0.01541746030950847
629.0, 0.015009654447120201
630.0, 0.016869025072410535
631.0, 0.020511598504961245
632.0, 0.017333540164482367
633.0, 0.017381279371508525
634.0, 0.01776622878913973
635.0, 0.017414066786532473
636.0, 0.02191347560675023
637.0, 0.02069094174040118
638.0, 0.02147959991196491
639.0, 0.02540988543170722
640.0, 0.026903863135515557
641.0, 0.029358249465363744
642.0, 0.031807381523815265
643.0, 0.03455659264426286
644.0, 0.03851063460075057
645.0, 0.043826904538268374
646.0, 0.04772603828652671
647.0, 0.05100298387467245
648.0, 0.05465003959788744
649.0, 0.05675149347522706
650.0, 0.05777057069031616
651.0, 0.057889528727404896
652.0, 0.05728536967971953
653.0, 0.056320718992473144
654.0, 0.05276767508281224
655.0, 0.048628477248869005
656.0, 0.0443338325429031
657.0, 0.03920018171217828
658.0, 0.03645510829178875
659.0, 0.03193771542349542
660.0, 0.026474690546254925
661.0, 0.02242922505945281
662.0, 0.019771848331924684
663.0, 0.01790614768761806
664.0, 0.014950994745665372
665.0, 0.009890426473797292
666.0, 0.011867746845057116
667.0, 0.00931263331188099
668.0, 0.007835142195949434
669.0, 0.00856346395985348
670.0, 0.004369576464696474
671.0, 0.0029945977385401044
672.0, 0.003464460784392879
673.0, 0.00410662526438758
674.0, 0.0017452358249613225
675.0, 0.0021554680681310154
676.0, 0.001597993800755399
677.0, 0.0014353830524678408
678.0, 0.0032601651634925604
679.0, 0.0010653272698441937
680.0, 0.001272004658148063
681.0, 0.0020327618092874514
682.0, 0.0022559829885180683
683.0, 0.0018900994481852594
684.0, 0.0012095035732727019
685.0, 0.0010846933619610484
686.0, 0.0012396111097712974
687.0, 0.0003987561708545377
688.0, 0.0001524485876578152
689.0, 0.0004558965203560415
690.0, 0.0006664810607854438
691.0, 0.00013190860089397176
692.0, 0.003614987800755095
693.0, 0.002367174303064905
694.0, 0.0008080527821707911
695.0, 0.0012513263892953224
696.0, 0.0012829816968377868
697.0, 0.0015069647839057686
698.0, 0.0016974916779880411
699.0, 0.0018211316048247785
700.0, 0.001946656143812551
701.0, 0.002602552301037129
702.0, 0.0031661854127012345
703.0, 0.0036684786497306597
704.0, 0.004290561658532061
705.0, 0.007395268628250198
706.0, 0.008228960922473817
707.0, 0.008258358864876898
708.0, 0.009012053009673213
709.0, 0.014100653205487475
710.0, 0.012737787992962341
711.0, 0.012948499586993869
712.0, 0.01416761943772861
713.0, 0.011468604754358768
714.0, 0.012995503441180516
715.0, 0.011258213372384729
716.0, 0.008819757115817346
717.0, 0.008558045533601127
718.0, 0.011015580318480638
719.0, 0.00916053319180113
720.0, 0.007082004551561589
721.0, 0.006434786994178594
722.0, 0.006851507811440315
723.0, 0.005587812592942689
724.0, 0.005113813530082293
725.0, 0.005864904373793041
726.0, 0.007855724715523987
727.0, 0.006861185983384194
728.0, 0.007261590990806677
729.0, 0.008332609484240826
730.0, 0.009268994945792516
731.0, 0.008293504472033865
732.0, 0.008915055102615775
733.0, 0.010438237862273686
734.0, 0.0123049929118892
735.0, 0.013676910330991459
736.0, 0.01866324171962527
737.0, 0.01908936268513006
738.0, 0.0204341985569205
739.0, 0.027901673952257962
740.0, 0.03133885507167123
741.0, 0.03431062317833092
742.0, 0.04084036963939673
743.0, 0.05111228138065322
744.0, 0.06009255031200164
745.0, 0.07109761570308354
746.0, 0.07966970521744031
747.0, 0.08713297861703385
748.0, 0.09592034870838986
749.0, 0.09891243954055036
750.0, 0.0962982632869418
751.0, 0.08803499190948451
752.0, 0.07583373587782036
753.0, 0.06732473393203113
754.0, 0.059341896665698765
755.0, 0.04977472257318164
756.0, 0.041053089161173
757.0, 0.03787140035798482
758.0, 0.03261060634402165
759.0, 0.029664791745999196
760.0, 0.027066448013287645
761.0, 0.023907800384545774
762.0, 0.023806864870169458
763.0, 0.021880112020337284
764.0, 0.019052624746156394
765.0, 0.017225662869812353
766.0, 0.019695111522383686
767.0, 0.015990697018023893
768.0, 0.01450335830789261
769.0, 0.01386707493245878
770.0, 0.012626609251338837
771.0, 0.010607724179371815
772.0, 0.01022740783032536
773.0, 0.008297453401204352
774.0, 0.005615149865575035
775.0, 0.00615212270784329
776.0, 0.006682075563240225
777.0, 0.005240233346986714
778.0, 0.003512066637930771
779.0, 0.003212113989880812
780.0, 0.005342731463111756
781.0, 0.003858479683620902
782.0, 0.002817490945073407
783.0, 0.0031184611017898763
784.0, 0.0037819446448793823
785.0, 0.005185773032864504
786.0, 0.0037345404137192908
787.0, 0.002569186707659814
788.0, 0.003982668367329514
789.0, 0.0016129752146657181
790.0, 0.0023145669464800307
791.0, 0.002493844778276767
792.0, 0.0017319360970743905
793.0, 0.0016920148284150238
794.0, 0.002397175765055534
795.0, 0.003008855414514558
796.0, 0.0024908457768940493
797.0, 0.00048513367073498584
798.0, 0.00045964708643881426
799.0, 0.0017665410991663819
800.0, 0.0017101694314328435
801.0, 0.0008793696426662714
802.0, 0.0020931090340776115
803.0, 0.005216805721781531
804.0, 0.0035803797598681557
805.0, 0.0023990221481199558
806.0, 0.005069614509504896
807.0, 0.006705360143262904
808.0, 0.00419788649726279
809.0, 0.00479352335175497
810.0, 0.00729654652567287
811.0, 0.006546777380329671
812.0, 0.006493638797021012
813.0, 0.007992164847090344
814.0, 0.008930615487674223
815.0, 0.00816198822903014
816.0, 0.006641574480752794
817.0, 0.0060434467831949334
818.0, 0.005445830713698296
819.0, 0.004538768597379421
820.0, 0.003192895781122616
821.0, 0.0032080991955147804
822.0, 0.003980929793377762
823.0, 0.0038867339710071565
824.0, 0.002601716656265796
825.0, 0.001714954481028985
826.0, 0.0037425476348457755
827.0, 0.003345521477757793
828.0, 0.002661933528852222
829.0, 0.004165130109784088
830.0, 0.002261301197941792
831.0, 0.0007469620621493079
832.0, 0.0003666417368310451
833.0, 0.0007783168972512618
834.0, 0.0005958526698630507
835.0, 0.0004932672883862121
836.0, 0.0007515869369606747
837.0, 0.001151596023438025
838.0, 0.0015162484181600842
839.0, 0.0019093491047228852
840.0, 0.002124090344672632
841.0, 0.0022037355555081166
842.0, 0.0020781663618860712
843.0, 0.001652588549978641
844.0, 0.0016160450723462841
845.0, 0.0013291253392989511
846.0, 0.0011793814764539845
847.0, 0.0012093676160999764
848.0, 0.0008945782254438663
849.0, 0.0011782237589963154
850.0, 0.001390471345416123
851.0, 0.0011674302626614066
852.0, 0.00037574774401171607
853.0, 0.0003449259411778706
854.0, 0.0010775094930012726
855.0, 0.0024251601600006143
856.0, 0.0031301567287732573
857.0, 0.0009440207693816893
858.0, 0.0005429909371417393
859.0, 0.0008268603605600136
860.0, 0.000798600035316616
861.0, 0.00020462973804579202
862.0, 0.0005182855031529587
863.0, 0.0007008658289435933
864.0, 0.0015044245113063797
865.0, 0.0020922256541131535
866.0, 0.0014922530358337904
867.0, 0.0005990569237327565
868.0, 0.0019392136403862002
869.0, 0.0018394278167316019
870.0, 0.000505169470118241
871.0, 0.0009014127870708363
872.0, 0.000383838419361974
873.0, 0.0004520920676626362
874.0, 0.0006334779999255522
875.0, 0.0006928254040664706
876.0, 0.001028004333867234
877.0, 0.0012758430625963784
878.0, 0.0009170088952077559
879.0, 0.0003306281837491755
880.0, 5.736932309097624e-05
881.0, 0.0004942351181600477
882.0, 0.0007847241315520495
883.0, 0.0009847902283660194
884.0, 0.000944162757099251
885.0, 0.00037445579371701273
886.0, 0.0010689807130152848
887.0, 0.0010978383658942646
888.0, 0.0007675153019363887
889.0, 0.00037585859025069404
890.0, 0.0002675080878037889
891.0, 0.00027307690045842226
892.0, 0.0004890167392840112
893.0, 0.0005990735501404805
894.0, 0.0004332244212861792
895.0, 0.0008794639219882325
896.0, 0.0009885120204349267
897.0, 0.0006413936194025872
898.0, 0.0003342847729812295
899.0, 0.0007933476525904205
900.0, 0.0014839594202047167
901.0, 0.0011510973205573415
902.0, 0.0014279217864120771
903.0, 0.001950143823946873
904.0, 0.00026750327559358993
905.0, 0.001520805340056147
906.0, 0.0018845210409602759
907.0, 0.0024348636224864133
908.0, 0.003353515872550987
909.0, 0.00204933842140772
910.0, 0.0009375463332712956
911.0, 0.0024515843777327294
912.0, 0.0034046210873642027
913.0, 0.0011730142440774525
914.0, 0.0026641529619717526
915.0, 0.002002672151623414
916.0, 0.0009169269635588075
917.0, 0.0007926094604659207
918.0, 0.002783522404824268
919.0, 0.002520525852756505
920.0, 0.002257439697720399
921.0, 0.0023987007396047743
922.0, 0.0025636670813482293
923.0, 0.0015824418528255946
924.0, 0.0025726866372896224
925.0, 0.001531385520476477
926.0, 0.0005632745005443811
927.0, 0.0006298790968744215
928.0, 0.00041359125642298077
929.0, 0.0017756958917533056
930.0, 0.002930224975059504
931.0, 0.0032582629122831245
932.0, 0.002805421540323731
933.0, 0.0037344159878012323
934.0, 0.0056853509331313105
935.0, 0.0039012783208257776
936.0, 0.002525912085723203
937.0, 0.0061080510926103575
938.0, 0.00300381461759456
939.0, 0.0021395260390938632
940.0, 0.0024101803216332045
941.0, 0.0029691274606681597
942.0, 0.002988548798590657
943.0, 0.002570476154406502
944.0, 0.0026874993345571826
945.0, 0.00416843463764566
946.0, 0.005479374325061039
947.0, 0.0028481993760346674
948.0, 0.0008468870160152184
949.0, 0.0028363314494986016
950.0, 0.004939425512975121
951.0, 0.005284294876347305
952.0, 0.004780237799422334
953.0, 0.004099885832992305
954.0, 0.004178651399485032
955.0, 0.004770779119080288
956.0, 0.005621673428202659
957.0, 0.006658790272617366
958.0, 0.005688218334330296
959.0, 0.004716740422493127
960.0, 0.0039202246530713825
961.0, 0.0034988381324015955
962.0, 0.004795511226647328
963.0, 0.006368137549043332
964.0, 0.005412073046954571
965.0, 0.004428275376055263
966.0, 0.00607275794594821
967.0, 0.006220341416474072
968.0, 0.004540733138798256
969.0, 0.004426743734272343
970.0, 0.0050817372577743386
971.0, 0.0046980735617677275
972.0, 0.006060787603303492
973.0, 0.006635810866875811
974.0, 0.008213614618181233
975.0, 0.009572563021890825
976.0, 0.008282583899335394
977.0, 0.0076892282617221025
978.0, 0.008784923581091765
979.0, 0.009176688274427797
980.0, 0.008918332601588442
981.0, 0.00970161491454834
982.0, 0.014450856979463975
983.0, 0.012142843717774639
984.0, 0.011880160599165726
985.0, 0.015253498250409756
986.0, 0.017456957755892927
987.0, 0.016438624481536608
988.0, 0.021040995155040154
989.0, 0.024526531271206686
990.0, 0.02622889339367862
991.0, 0.032304865630819565
992.0, 0.03739661462389027
993.0, 0.04064484531143737
994.0, 0.044181419418471
995.0, 0.04699632870527645
996.0, 0.043498806105162165
997.0, 0.04362488911416488
998.0, 0.03603537457481572
999.0, 0.03257711800911465
1000.0, 0.03493524420228431
1001.0, 0.027334171506540352
1002.0, 0.031619866158975767
1003.0, 0.02983268862789299
1004.0, 0.026750084223739895
1005.0, 0.02588820204121948
1006.0, 0.026693231086547257
1007.0, 0.025121551975528275
1008.0, 0.02163238035537222
1009.0, 0.018941916390861024
1010.0, 0.018374344817394556
1011.0, 0.018447418807306163
1012.0, 0.01904026226029396
1013.0, 0.01661868773296791
1014.0, 0.015013275137833397
1015.0, 0.015874203305736665
1016.0, 0.015477454741913048
1017.0, 0.018890985204399968
1018.0, 0.018032933775688972
1019.0, 0.017001504816609333
1020.0, 0.01831047259310574
1021.0, 0.019531955425990195
1022.0, 0.018550974973833602
1023.0, 0.022983620288810756
1024.0, 0.02531104390185684
1025.0, 0.023295458736938737
1026.0, 0.02734395762347963
1027.0, 0.031182915568856117
1028.0, 0.03377664618511405
1029.0, 0.035408115683302294
1030.0, 0.03578630457546422
1031.0, 0.033217548167788505
1032.0, 0.03328024429432679
1033.0, 0.034447067940697094
1034.0, 0.03391087354760928
1035.0, 0.03162970276484942
1036.0, 0.03235589929710102
1037.0, 0.033166679331068864
1038.0, 0.03221917263337833
1039.0, 0.033106781774289114
1040.0, 0.0351870692361133
1041.0, 0.03112320757826939
1042.0, 0.03241628276553676
1043.0, 0.03406708612818324
1044.0, 0.035235483719308264
1045.0, 0.03611045945330471
1046.0, 0.038015502306789725
1047.0, 0.03781196710653989
1048.0, 0.043189996466910664
1049.0, 0.04620929121295763
1050.0, 0.04746005506337116
1051.0, 0.05629574730624135
1052.0, 0.05408369188563815
1053.0, 0.053086321153292995
1054.0, 0.05062971889629404
1055.0, 0.04707189569685909
1056.0, 0.045013685664646745
1057.0, 0.038197941644211586
1058.0, 0.0354409976982858
1059.0, 0.03199856935027687
1060.0, 0.028145204964165553
1061.0, 0.02660223185803064
1062.0, 0.018998031282345056
1063.0, 0.01847626786188433
1064.0, 0.01755249805019006
1065.0, 0.015165074830747895
1066.0, 0.013352737191939676
1067.0, 0.015412988662458299
1068.0, 0.01274909129134125
1069.0, 0.01013051912936569
1070.0, 0.010009127610262868
1071.0, 0.012417251815856829
1072.0, 0.008151655089666006
1073.0, 0.008777080521356726
1074.0, 0.010338283651308032
1075.0, 0.01129482998936813
1076.0, 0.011147468698043362
1077.0, 0.011272192480686746
1078.0, 0.013274745111381655
1079.0, 0.011937447531346039
1080.0, 0.009850263514694261
1081.0, 0.009382005124534352
1082.0, 0.009731734729702613
1083.0, 0.011082402689382006
1084.0, 0.012776145023034825
1085.0, 0.01372466350606168
1086.0, 0.014009251459838237
1087.0, 0.015517600885002402
1088.0, 0.013961644736341546
1089.0, 0.01558631131988365
1090.0, 0.01704379627415572
1091.0, 0.016939791223536255
1092.0, 0.01618653613761127
1093.0, 0.021020046517012125
1094.0, 0.02439224485801203
1095.0, 0.023462767778821576
1096.0, 0.022240442227575468
1097.0, 0.027279086111332923
1098.0, 0.02898608301185132
1099.0, 0.031145304970209946
1100.0, 0.030820188177751215
1101.0, 0.030706234659126332
1102.0, 0.03344155635230751
1103.0, 0.031391361885288974
1104.0, 0.034711772023855156
1105.0, 0.03509551219624664
1106.0, 0.03727420942767794
1107.0, 0.04336736694789396
1108.0, 0.04215860597092763
1109.0, 0.048088702516433005
1110.0, 0.05249586834152757
1111.0, 0.05655909167887932
1112.0, 0.06304535464792095
1113.0, 0.07570458453803969
1114.0, 0.08283261108965052
1115.0, 0.09215728455721275
1116.0, 0.10564530446816546
1117.0, 0.12415415246129627
1118.0, 0.14704443052616012
1119.0, 0.16531777288413943
1120.0, 0.19516017058731816
1121.0, 0.24440639852108434
1122.0, 0.2822894110627899
1123.0, 0.27793445836892444
1124.0, 0.28659670366820844
1125.0, 0.28175371609989774
1126.0, 0.2691700713928205
1127.0, 0.24997944813024214
1128.0, 0.22720025704016472
1129.0, 0.21005017178649701
1130.0, 0.18750798387525686
1131.0, 0.17108845588981011
1132.0, 0.15685345614379023
1133.0, 0.14544045036872422
1134.0, 0.14408621675931754
1135.0, 0.14740494063572124
1136.0, 0.14317344270450574
1137.0, 0.1456342776915734
1138.0, 0.15072065029436296
1139.0, 0.14605560999347497
1140.0, 0.14196643072853485
1141.0, 0.13118096943238874
1142.0, 0.11941425906568635
1143.0, 0.10736392490341533
1144.0, 0.0952137499851618
1145.0, 0.0856679160397564
1146.0, 0.07531872162301834
1147.0, 0.06590053008140602
1148.0, 0.05720788947726348
1149.0, 0.049273051482367804
1150.0, 0.04267199028910883
1151.0, 0.03518662719272366
1152.0, 0.03415222891222676
1153.0, 0.030952770983827805
1154.0, 0.026700726070313215
1155.0, 0.026637709152916144
1156.0, 0.02002745455180224
1157.0, 0.019511013241511124
1158.0, 0.016948810404100553
1159.0, 0.015371881965201882
1160.0, 0.01640176146935216
1161.0, 0.010254290341507022
1162.0, 0.01206825505526508
1163.0, 0.009907215266530949
1164.0, 0.00908004577471227
1165.0, 0.01004789897681472
1166.0, 0.007079076973151438
1167.0, 0.009810067638963832
1168.0, 0.009243886144009476
1169.0, 0.008672089260813923
1170.0, 0.007826548832225538
1171.0, 0.005748298180334404
1172.0, 0.0061727871788044165
1173.0, 0.00548989986444605
1174.0, 0.005970508527717341
1175.0, 0.006508687951147914
1176.0, 0.006469828959750179
1177.0, 0.006971701256967199
1178.0, 0.004071125881337831
1179.0, 0.005308269286171389
1180.0, 0.005714851779743007
1181.0, 0.0052564876256064146
1182.0, 0.006653897635237631
1183.0, 0.005985727328022792
1184.0, 0.003579695094902655
1185.0, 0.003036694526366529
1186.0, 0.003050045606882793
1187.0, 0.0027140284262237493
1188.0, 0.0048874201881722555
1189.0, 0.0033226275857619874
1190.0, 0.0037107913766103963
1191.0, 0.004981953610588417
1192.0, 0.005284616882469688
1193.0, 0.0030284400495482976
1194.0, 0.0024926734001039044
1195.0, 0.002430890752969085
1196.0, 0.003701894237149789
1197.0, 0.004357560378887793
1198.0, 0.003330018567332134
1199.0, 0.004153868194000693
1200.0, 0.0015402209018810942
1201.0, 0.003668274081936137
1202.0, 0.0037640717927137617
1203.0, 0.00152280217571311
1204.0, 0.0027330254149516273
1205.0, 0.0033954649691125493
1206.0, 0.004291060718886954
1207.0, 0.004848721996870879
1208.0, 0.004545533452573178
1209.0, 0.0036118150118549675
1210.0, 0.004153966370704027
1211.0, 0.004580849567121795
1212.0, 0.0027575107052288986
1213.0, 0.0031412418719745866
1214.0, 0.004853733413961588
1215.0, 0.0029268592168207362
1216.0, 0.0014635454042935558
1217.0, 0.003502149665236199
1218.0, 0.0032913463676386436
1219.0, 0.0016602759135061226
1220.0, 0.0015874856666493104
1221.0, 0.006641021305706381
1222.0, 0.0020369223134621252
1223.0, 0.002268473245516236
1224.0, 0.004320068591426801
1225.0, 0.004780669934611654
1226.0, 0.0017021249342059155
1227.0, 0.0004493933200293359
1228.0, 0.003155874031222671
1229.0, 0.00520581393456223
1230.0, 0.004264876900112858
1231.0, 0.0012593464636198746
1232.0, 0.0014780407608878691
1233.0, 0.0022208913458841486
1234.0, 0.003844533254899037
1235.0, 0.005339721017742551
1236.0, 0.005810956569402729
1237.0, 0.004830179803184521
1238.0, 0.003312912146011213
1239.0, 0.004469390511346977
1240.0, 0.003670140886746009
1241.0, 0.0037693514963693595
1242.0, 0.004719177221558107
1243.0, 0.0028755237029224967
1244.0, 0.0032323745659145883
1245.0, 0.0034880529606591275
1246.0, 0.004559378031886945
1247.0, 0.004048380378285512
1248.0, 0.0015527600994256277
1249.0, 0.0036320604258979518
1250.0, 0.0010545796337155635
1251.0, 0.0012159300150105844
1252.0, 0.002506547467433752
1253.0, 0.0027099695304919477
1254.0, 0.0007742905965462981
1255.0, 0.0023204310601196722
1256.0, 0.0008783955184611653
1257.0, 0.0013005131405166327
1258.0, 0.002762018870731482
1259.0, 0.0035220710156620037
1260.0, 0.002249558374796463
1261.0, 0.0031700981012645836
1262.0, 0.0027529693462299424
1263.0, 0.0018941239378362875
1264.0, 0.0015373849611241472
1265.0, 0.0016654487969258525
1266.0, 7.356525906202448e-05
1267.0, 0.0015145111730900688
1268.0, 0.0036523135072387912
1269.0, 0.0025644510173422237
1270.0, 0.00021692135536644294
1271.0, 0.0008345684597189457
1272.0, 0.00208944008299727
1273.0, 0.000955451009714516
1274.0, 0.000695856342152186
1275.0, 0.0008323486426359388
1276.0, 0.0009458472709023599
1277.0, 0.0012841406524466952
1278.0, 0.003380756903137847
1279.0, 0.001750331526009231
1280.0, 0.0019340817439175643
1281.0, 0.002481495256785579
1282.0, 0.00166419450698395
1283.0, 0.0002943130823044558
1284.0, 0.0013680794311309015
1285.0, 0.0007174609182301848
1286.0, 0.0003953507714114688
1287.0, 0.0005717933917119716
1288.0, 0.0011208672698536065
1289.0, 0.00332409610602025
1290.0, 0.003305099339329126
1291.0, 0.0017613201454523533
1292.0, 0.0009514244032342818
1293.0, 0.002494899706002397
1294.0, 0.005515339080935974
1295.0, 0.0010638065719240073
1296.0, 0.0013527351349468465
1297.0, 0.0011141450153079363
1298.0, 0.0016856193817957252
1299.0, 0.0032214192358073165
1300.0, 0.003982270412486148
1301.0, 0.0007023572353099436
1302.0, 0.000531156433930161
1303.0, 0.0011208314093069471
1304.0, 0.001389701285373376
1305.0, 0.0011635109662301829
1306.0, 0.0010971436876311298
1307.0, 0.0011099624011780488
1308.0, 0.0006192594718245422
1309.0, 0.002258405277709248
1310.0, 0.0027766315963272015
1311.0, 0.0007923743785619331
1312.0, 0.0004423741171557159
1313.0, 0.0009203488588685293
1314.0, 0.0041510324058627686
1315.0, 0.003202538356348296
1316.0, 0.0017673325203260933
1317.0, 0.0030848935320409573
1318.0, 0.0011674965393952158
1319.0, 0.0013704714823776331
1320.0, 0.000846667835968202
1321.0, 0.0011296568993108664
1322.0, 0.0027140022479890174
1323.0, 0.004196481284050612
1324.0, 0.0008241177956143991
1325.0, 0.005651169061561998
1326.0, 0.0031832473909870506
1327.0, 0.001849672419115142
1328.0, 0.0018178525372596881
1329.0, 0.00022160120765847438
1330.0, 0.0014925300179961755
1331.0, 0.000984973815553405
1332.0, 0.0010697505552330453
1333.0, 0.0011307825111232725
1334.0, 0.0016499717209825877
1335.0, 0.0028690136729760812
1336.0, 0.0011493384060809611
1337.0, 0.0019472185979234023
1338.0, 0.00179902806310982
1339.0, 0.0012197393432732846
1340.0, 0.0015033452153568223
1341.0, 0.002938389097590855
1342.0, 0.0005066313816468227
1343.0, 0.0011555390743949168
1344.0, 0.0023042914054555975
1345.0, 0.0037004035575264687
1346.0, 0.004876027176148906
1347.0, 0.005411649991601089
1348.0, 0.006287576137128219
1349.0, 0.003005402211048897
1350.0, 0.004319129486867774
1351.0, 0.004849825641155964
1352.0, 0.004159462506663643
1353.0, 0.005797766556259493
1354.0, 0.008632420530938099
1355.0, 0.0072928954439316915
1356.0, 0.006815751119081278
1357.0, 0.006281183269232426
1358.0, 0.0055421311554988365
1359.0, 0.005200824060498865
1360.0, 0.004537871873008496
1361.0, 0.004003460978082679
1362.0, 0.006236996543287661
1363.0, 0.008182357577927795
1364.0, 0.008301415789216863
1365.0, 0.006941516413126145
1366.0, 0.005247029569380236
1367.0, 0.005438622196986622
1368.0, 0.006459771989728912
1369.0, 0.006051283439675368
1370.0, 0.005621184625927511
1371.0, 0.007148503372949496
1372.0, 0.005680067588378836
1373.0, 0.00553193066292326
1374.0, 0.005467926429732598
1375.0, 0.004521956542913217
1376.0, 0.003950880331447625
1377.0, 0.005039493348464754
1378.0, 0.0052877475671925835
1379.0, 0.006720864841120683
1380.0, 0.007077425611278939
1381.0, 0.007108923456403208
1382.0, 0.006933074442489012
1383.0, 0.006943643278854057
1384.0, 0.009068296320091696
1385.0, 0.007582401647388246
1386.0, 0.008090391709955127
1387.0, 0.00795767735876928
1388.0, 0.007631746028710965
1389.0, 0.008033728376480953
1390.0, 0.008193173040235101
1391.0, 0.0054955222480934495
1392.0, 0.00609284229920549
1393.0, 0.006831860877533434
1394.0, 0.005086158091322091
1395.0, 0.002279955005884456
1396.0, 0.004633188603561472
1397.0, 0.006735462862300113
1398.0, 0.005825072730909656
1399.0, 0.0066846698905441235
1400.0, 0.00834182403682345
1401.0, 0.008767594895912586
1402.0, 0.007176198317819377
1403.0, 0.007569181922768365
1404.0, 0.005963835430261967
1405.0, 0.00856230149146483
1406.0, 0.009921533452974422
1407.0, 0.0091617754039041
1408.0, 0.010111147387188641
1409.0, 0.010547020399435392
1410.0, 0.006560975946283755
1411.0, 0.008475568329017028
1412.0, 0.007052822499337312
1413.0, 0.004142466931114711
1414.0, 0.006237216530312546
1415.0, 0.007869003558694241
1416.0, 0.005937657666673106
1417.0, 0.005831753143985023
1418.0, 0.008639446050581534
1419.0, 0.009451487731306545
1420.0, 0.006616873674524095
1421.0, 0.00897705602541407
1422.0, 0.007339143128513009
1423.0, 0.008333180045044436
1424.0, 0.01061133151537462
1425.0, 0.011390181070946822
1426.0, 0.009912906398202213
1427.0, 0.00843731948268455
1428.0, 0.007844160853876984
1429.0, 0.006143593880976351
1430.0, 0.005483177288994709
1431.0, 0.005523774177167647
1432.0, 0.006131524296853069
1433.0, 0.007095074707638946
1434.0, 0.005753543226298539
1435.0, 0.0067209906060076655
1436.0, 0.008882588005440636
1437.0, 0.008973676279686309
1438.0, 0.008485396452563342
1439.0, 0.009492100018726258
1440.0, 0.009335363778373162
1441.0, 0.009646084369146744
1442.0, 0.009645111384014677
1443.0, 0.011347740028475545
1444.0, 0.010690703281470723
1445.0, 0.007251521712190292
1446.0, 0.007172945367023624
1447.0, 0.009780045148721588
1448.0, 0.009541980184880967
1449.0, 0.00709840845721075
1450.0, 0.009418755009408012
1451.0, 0.014012265543040726
1452.0, 0.012833599679261131
1453.0, 0.00806746927050862
1454.0, 0.011749611112175868
1455.0, 0.008769595684200295
1456.0, 0.01004276534089286
1457.0, 0.012749243848451242
1458.0, 0.011594641226053734
1459.0, 0.0098121860758055
1460.0, 0.013008614052884913
1461.0, 0.009563550340026783
1462.0, 0.008163587241788605
1463.0, 0.009381533026543029
1464.0, 0.009636352860525159
1465.0, 0.006760537610744896
1466.0, 0.014086001218528292
1467.0, 0.009297344530168812
1468.0, 0.007846042235248004
1469.0, 0.009564248592393486
1470.0, 0.010332379077281737
1471.0, 0.008123050078688604
1472.0, 0.007976549232523413
1473.0, 0.011197011761333003
1474.0, 0.009989207682609023
1475.0, 0.007460863381743519
1476.0, 0.006815283804925092
1477.0, 0.007695088003467323
1478.0, 0.007001250961597773
1479.0, 0.006589723491264524
1480.0, 0.00905018011282032
1481.0, 0.009282456377504106
1482.0, 0.009095712543378268
1483.0, 0.008629818044576255
1484.0, 0.007631982423006871
1485.0, 0.007304459854880888
1486.0, 0.004663369006758066
1487.0, 0.003796182754982633
1488.0, 0.00395173286052674
1489.0, 0.0032573438053184224
1490.0, 0.0030936640834134882
1491.0, 0.006313378349394129
1492.0, 0.00816106793201397
1493.0, 0.005630436246277995
1494.0, 0.0027667678077367645
1495.0, 0.003266107728357482
1496.0, 0.0034018897020153395
1497.0, 0.001852888901967374
1498.0, 0.00521849725489903
1499.0, 0.0011069422601929207
1500.0, 0.0019255984447924224
1501.0, 0.0016632332414631742
1502.0, 0.0008519294521924726
1503.0, 0.0009992659491638064
1504.0, 0.0024262007996111758
1505.0, 0.002733161954056289
1506.0, 0.0013904475983387199
1507.0, 0.00399951303478521
1508.0, 0.0033663072831699318
1509.0, 0.0011415017645958329
1510.0, 0.0015693772784111384
1511.0, 0.005849933327473742
1512.0, 0.003913583462836186
1513.0, 0.003212679824747844
1514.0, 0.001168181239111334
1515.0, 0.0006129523451173393
1516.0, 0.000722049565196635
1517.0, 0.0006514376205756904
1518.0, 0.002967177030714255
1519.0, 0.003311199904115347
1520.0, 0.0042540863750504245
1521.0, 0.0037345350697488783
1522.0, 0.0021928143279950976
1523.0, 0.00104175019794341
1524.0, 0.0009748578642814692
1525, 0.0
1526, 0.0
1527, 0.0
1528, 0.0
1529, 0.0
1530, 0.0
1531, 0.0
1532, 0.0
1533, 0.0
1534, 0.0
1535, 0.0
1536, 0.0
1537, 0.0
1538, 0.0
1539, 0.0
1540, 0.0
1541, 0.0
1542, 0.0
1543, 0.0
1544, 0.0
1545, 0.0
1546, 0.0
1547, 0.0
1548, 0.0
1549, 0.0
1550, 0.0
1551, 0.0
1552, 0.0
1553, 0.0
1554, 0.0
1555, 0.0
1556, 0.0
1557, 0.0
1558, 0.0
1559, 0.0
1560, 0.0
1561, 0.0
1562, 0.0
1563, 0.0
1564, 0.0
1565, 0.0
1566, 0.0
1567, 0.0
1568, 0.0
1569, 0.0
1570, 0.0
1571, 0.0
1572, 0.0
1573, 0.0
1574, 0.0
1575, 0.0
1576, 0.0
1577, 0.0
1578, 0.0
1579, 0.0
1580, 0.0
1581, 0.0
1582, 0.0
1583, 0.0
1584, 0.0
1585, 0.0
1586, 0.0
1587, 0.0
1588, 0.0
1589, 0.0
1590, 0.0
1591, 0.0
1592, 0.0
1593, 0.0
1594, 0.0
1595, 0.0
1596, 0.0
1597, 0.0
1598, 0.0
1599, 0.0
