30, 0.0
31, 0.0
32, 0.0
33, 0.0
34, 0.0
35, 0.0
36, 0.0
37, 0.0
38, 0.0
39, 0.0
40, 0.0
41, 0.0
42, 0.0
43, 0.0
44, 0.0
45, 0.0
46, 0.0
47, 0.0
48, 0.0
49, 0.0
50, 0.0
51, 0.0
52, 0.0
53, 0.0
54, 0.0
55, 0.0
56, 0.0
57, 0.0
58, 0.0
59, 0.0
60, 0.0
61, 0.0
62, 0.0
63, 0.0
64, 0.0
65, 0.0
66, 0.0
67, 0.0
68, 0.0
69, 0.0
70, 0.0
71, 0.0
72, 0.0
73, 0.0
74, 0.0
75, 0.0
76, 0.0
77, 0.0
78, 0.0
79, 0.0
80, 0.0
81, 0.0
82, 0.0
83, 0.0
84, 0.0
85, 0.0
86, 0.0
87, 0.0
88, 0.0
89, 0.0
90, 0.0
91, 0.0
92, 0.0
93, 0.0
94, 0.0
95, 0.0
96, 0.0
97, 0.0
98, 0.0
99, 0.0
100, 0.0
101, 0.0
102, 0.0
103, 0.0
104, 0.0
105, 0.0
106, 0.0
107, 0.0
108, 0.0
109, 0.0
110, 0.0
111, 0.0
112, 0.0
113, 0.0
114, 0.0
115, 0.0
116, 0.0
117, 0.0
118, 0.0
119, 0.0
120, 0.0
121, 0.0
122, 0.0
123, 0.0
124, 0.0
125, 0.0
126, 0.0
127, 0.0
128, 0.0
129, 0.0
130, 0.0
131, 0.0
132, 0.0
133, 0.0
134, 0.0
135, 0.0
136, 0.0
137, 0.0
138, 0.0
139, 0.0
140, 0.0
141, 0.0
142.0, 0.0009419540241856115
143.0, 0.0004002603022404571
144.0, 0.004015031147636194
145.0, 0.012854187255267945
146.0, 0.03032884416662887
147.0, 0.051755121637859794
148.0, 0.07138516818137443
149.0, 0.09291735885208764
150.0, 0.1101708741152222
151.0, 0.12441684180797422
152.0, 0.13601935622486072
153.0, 0.14299084068766232
154.0, 0.15033753795605526
155.0, 0.16204693054578265
156.0, 0.17724328271143552
157.0, 0.19119579097672082
158.0, 0.19572144535892447
159.0, 0.19278101480706653
160.0, 0.1790758187103226
161.0, 0.1546698931132457
162.0, 0.12747471451105646
163.0, 0.10582400163906103
164.0, 0.08855436595174819
165.0, 0.07441282416496453
166.0, 0.06360105268361843
167.0, 0.060463725301738214
168.0, 0.05884414233676357
169.0, 0.058583448890180675
170.0, 0.0615841706337885
171.0, 0.06789331025466658
172.0, 0.07493259633977062
173.0, 0.08126259343951879
174.0, 0.09198094152767221
175.0, 0.10989954280746587
176.0, 0.12533603730315304
177.0, 0.1410810836770168
178.0, 0.15005446181885623
179.0, 0.14686182528504266
180.0, 0.12955340572357282
181.0, 0.11283477320226504
182.0, 0.09293323452670552
183.0, 0.07607917245807518
184.0, 0.06770078909835807
185.0, 0.06030219517461537
186.0, 0.05718520246471727
187.0, 0.05711195275483156
188.0, 0.057950904744177426
189.0, 0.059305358725915774
190.0, 0.05827869562848169
191.0, 0.058506686615684395
192.0, 0.06156313543780241
193.0, 0.06843336029318699
194.0, 0.08057632986979521
195.0, 0.09400126370377986
196.0, 0.11097244239719153
197.0, 0.13007095254664397
198.0, 0.14375751211304913
199.0, 0.1485671204542974
200.0, 0.13753883860259605
201.0, 0.11353827497773572
202.0, 0.08682360152504892
203.0, 0.06691418227632429
204.0, 0.050413926556842396
205.0, 0.039226125281575444
206.0, 0.03181442245310792
207.0, 0.025660000731065977
208.0, 0.020913976836845028
209.0, 0.01591248498896694
210.0, 0.011377196656683164
211.0, 0.007740749674745514
212.0, 0.0044701547167705575
213.0, 0.002271808927150998
214.0, 0.0005538326839773544
215.0, 0.002376979938506727
216.0, 0.00274117326332766
217.0, 0.0037173284767726606
218.0, 0.0013629835649452107
219.0, 0.0024892810275309613
220.0, 0.005952545266821294
221.0, 0.002748658294630894
222.0, 0.0037588280335467414
223.0, 0.0029834592997140244
224.0, 0.003261615201354744
225.0, 0.00496688609173109
226.0, 0.0014602892987285137
227.0, 0.0006100559230323607
228.0, 0.0019138777703848694
229.0, 0.001973975930281949
230.0, 0.00029636591496198165
231.0, 0.00037245390260708735
232.0, 0.0006840046576433112
233.0, 0.0003491923833517435
234.0, 0.0018567606250483014
235.0, 0.002792149080210722
236.0, 0.00499481563608368
237.0, 0.006998542948011958
238.0, 0.009799297414737363
239.0, 0.01310219577718534
240.0, 0.014980366410437972
241.0, 0.018189688206530226
242.0, 0.02516788602763342
243.0, 0.02980920968505775
244.0, 0.02889737306804435
245.0, 0.039051667413887575
246.0, 0.045081186192276586
247.0, 0.049779254084459906
248.0, 0.0583654958362397
249.0, 0.0729274845796366
250.0, 0.0857677385349596
251.0, 0.10093721309095348
252.0, 0.11839432731407305
253.0, 0.13916963513760017
254.0, 0.16450785993443262
255.0, 0.19190961174098317
256.0, 0.21612455517828835
257.0, 0.22736971250967794
258.0, 0.22648091271875773
259.0, 0.222343483483811
260.0, 0.2143505457820201
261.0, 0.2102101623002375
262.0, 0.2173344904906789
263.0, 0.2347797833710591
264.0, 0.2544341308038481
265.0, 0.26754496505420716
266.0, 0.26952746924901383
267.0, 0.2608290111136387
268.0, 0.24316780673670713
269.0, 0.21971529902128456
270.0, 0.19856953999570814
271.0, 0.1833989836744523
272.0, 0.17398669838451583
273.0, 0.16914290313884672
274.0, 0.16991628714135187
275.0, 0.174637319208033
276.0, 0.18373758919988314
277.0, 0.19841168100352466
278.0, 0.21875823207006306
279.0, 0.24145227035241154
280.0, 0.27198820247534766
281.0, 0.30808344305637025
282.0, 0.3461061823040131
283.0, 0.3818820947574159
284.0, 0.404915618290561
285.0, 0.40764957418525943
286.0, 0.38468152043069515
287.0, 0.33936973822244687
288.0, 0.2851780992393375
289.0, 0.22579088500688926
290.0, 0.17766254409690824
291.0, 0.14027605243559307
292.0, 0.11645475016183433
293.0, 0.10973257107162422
294.0, 0.08141772611276789
295.0, 0.05902259840255548
296.0, 0.045680669487384
297.0, 0.03649589464397307
298.0, 0.03377937135432533
299.0, 0.02741777878120468
300.0, 0.02254180168648052
301.0, 0.019734650614172476
302.0, 0.017025677311503933
303.0, 0.012896830661533038
304.0, 0.007102284573044313
305.0, 0.007008677706112829
306.0, 0.005694185062093642
307.0, 0.0009966860477423642
308.0, 0.0020167120043238086
309.0, 0.0015923932562420607
310.0, 0.0015325089436038694
311.0, 0.002531709954241966
312.0, 0.0031209216016108675
313.0, 0.0006859027981617259
314.0, 0.0022962029802211636
315.0, 0.0012827167163641385
316.0, 0.00036560158309871993
317.0, 0.0008426098033807879
318.0, 0.0003915908894820344
319.0, 0.002657076264466004
320.0, 0.00349579687464143
321.0, 0.00455474229902181
322.0, 0.007846486966201337
323.0, 0.011931078243256288
324.0, 0.01702299407524919
325.0, 0.019188803499549243
326.0, 0.019588247540178846
327.0, 0.022624806996554815
328.0, 0.03306237630746169
329.0, 0.04279561461826015
330.0, 0.04464412362323454
331.0, 0.04386087884316266
332.0, 0.04434702302883203
333.0, 0.03988835805762046
334.0, 0.030289357120916634
335.0, 0.015369102787377902
336.0, 0.009624987162362722
337.0, 0.01202283584534841
338.0, 0.008977804744642022
339.0, 0.0037058793874036496
340.0, 0.0011477123283283263
341.0, 0.00020605954955110102
342.0, 0.0007700816823083802
343.0, 0.00030064652621452856
344.0, 0.0009275449493307186
345.0, 0.0015050232758806118
346.0, 0.0007429673660661634
347.0, 0.001684744925310681
348.0, 0.001218163059875638
349.0, 0.00438918426100824
350.0, 0.004656492618958723
351.0, 0.0030009843686251633
352.0, 0.002490631264181357
353.0, 0.004996564056813415
354.0, 0.006898628268967382
355.0, 0.006283440668463025
356.0, 0.008206926551412674
357.0, 0.008894491387138064
358.0, 0.005798966724299758
359.0, 0.006050927781801727
360.0, 0.0047684711422744976
361.0, 0.005999256398910889
362.0, 0.007117070778940707
363.0, 0.005693243564415596
364.0, 0.0044964678177173934
365.0, 0.005829981776971732
366.0, 0.007347426732571514
367.0, 0.007660761999812792
368.0, 0.009518000520323663
369.0, 0.016549660360305106
370.0, 0.018661520051158585
371.0, 0.02438533499153668
372.0, 0.028806609483323194
373.0, 0.02930719346548407
374.0, 0.026976610837409272
375.0, 0.01971812268587493
376.0, 0.01753509413938734
377.0, 0.013430190407617977
378.0, 0.007159166879127347
379.0, 0.004094149127665689
380.0, 0.004449353611947291
381.0, 0.0015900812609262504
382.0, 0.001187777072311472
383.0, 0.0032361878939641607
384.0, 0.004433588245829872
385.0, 0.004347562599759935
386.0, 0.0036741227833320903
387.0, 0.001390612501794058
388.0, 0.0016155126679408317
389.0, 0.0035634005952689934
390.0, 0.0034638521191921495
391.0, 0.007519830055314475
392.0, 0.006209363737602819
393.0, 0.01103676651328345
394.0, 0.017329198912660583
395.0, 0.016412086412308704
396.0, 0.019032231192424687
397.0, 0.023047094457318423
398.0, 0.025809101603774108
399.0, 0.031566220409228664
400.0, 0.04019815289418693
401.0, 0.04379310479252892
402.0, 0.049226508281929066
403.0, 0.0483769582044841
404.0, 0.04675208511385481
405.0, 0.04371137321732763
406.0, 0.03487074245401751
407.0, 0.027562027982808344
408.0, 0.02599477432438481
409.0, 0.02651824941562623
410.0, 0.029709582366731248
411.0, 0.03506279929430298
412.0, 0.03669184392962045
413.0, 0.036571822410933326
414.0, 0.028488487809832153
415.0, 0.01966735236697756
416.0, 0.013324665551899567
417.0, 0.006858811776342723
418.0, 0.00859362209960422
419.0, 0.005840393249547181
420.0, 0.0016906531708260693
421.0, 0.0009797656001094585
422.0, 0.00248315120718159
423.0, 0.0030830988311148118
424.0, 0.007173850247332486
425.0, 0.0029542167925676274
426.0, 0.004224822483497464
427.0, 0.0038733397680639826
428.0, 0.0060576525310165235
429.0, 0.000889387557852937
430.0, 0.0014927938090301838
431.0, 0.004375438909134323
432.0, 0.003881912060778487
433.0, 0.0008955397267418322
434.0, 0.0006109701586442163
435.0, 0.007557139338465371
436.0, 0.012207971783879687
437.0, 0.012076360644908394
438.0, 0.013726569143342022
439.0, 0.02257830571729991
440.0, 0.029579790792112717
441.0, 0.03712877122027806
442.0, 0.04562217796921269
443.0, 0.05427056755050195
444.0, 0.0638979340643035
445.0, 0.07866152750617393
446.0, 0.09120137008232305
447.0, 0.11067881205226505
448.0, 0.1356624517635195
449.0, 0.16378056110355962
450.0, 0.1946523927367507
451.0, 0.2280056724135541
452.0, 0.26452013085697657
453.0, 0.2854158627432931
454.0, 0.2857705500705331
455.0, 0.2691675378875391
456.0, 0.23920020803855022
457.0, 0.2013832306095019
458.0, 0.16218177465808017
459.0, 0.13415139860333772
460.0, 0.11867055649403155
461.0, 0.10969494752933709
462.0, 0.10464688315503466
463.0, 0.10399933145645941
464.0, 0.10695736375878605
465.0, 0.11839686329031686
466.0, 0.13313698097363647
467.0, 0.14389014294962782
468.0, 0.16200238799003752
469.0, 0.18370019095192244
470.0, 0.2170228648843573
471.0, 0.2512028588352488
472.0, 0.2806750605797492
473.0, 0.31550955688284793
474.0, 0.34238716911782735
475.0, 0.3486042301819146
476.0, 0.33084810745825827
477.0, 0.30102029294101323
478.0, 0.2678933822224625
479.0, 0.22617197667996033
480.0, 0.19594187062237536
481.0, 0.17858572904455164
482.0, 0.16379973058442265
483.0, 0.1501998128578296
484.0, 0.13888988200516944
485.0, 0.11987600788331017
486.0, 0.10453580779890449
487.0, 0.08596660794102515
488.0, 0.0680715452340899
489.0, 0.05582514599154057
490.0, 0.050804403074004814
491.0, 0.0509012321025861
492.0, 0.05043978294633544
493.0, 0.057820768535673264
494.0, 0.06366638031188455
495.0, 0.0653748963155272
496.0, 0.07258380263955547
497.0, 0.09236832034276053
498.0, 0.1148961896410479
499.0, 0.14085919373377404
500.0, 0.17280367470833013
501.0, 0.20829480275740198
502.0, 0.2425603485817264
503.0, 0.2932590911116159
504.0, 0.3418845498081485
505.0, 0.40304147903946874
506.0, 0.4725149797733627
507.0, 0.5500531572144809
508.0, 0.6456560013314123
509.0, 0.7473008291746509
510.0, 0.8511081325932558
511.0, 0.9378153219716303
512.0, 0.9903831166002082
513.0, 0.9936087626489549
514.0, 0.9330241069912514
515.0, 0.8057717005968346
516.0, 0.6651363816175235
517.0, 0.5279758223898062
518.0, 0.4154305121975345
519.0, 0.328910373520007
520.0, 0.25280244747960295
521.0, 0.2042376343178086
522.0, 0.16324008500674492
523.0, 0.1331729571761515
524.0, 0.10963416310672197
525.0, 0.0904894279474274
526.0, 0.07955241405886143
527.0, 0.06670192043769205
528.0, 0.05509128386564842
529.0, 0.04832628492736827
530.0, 0.04306180780031186
531.0, 0.03676341974187721
532.0, 0.030159874672978704
533.0, 0.02212346448903857
534.0, 0.025723368078387168
535.0, 0.02528138027541601
536.0, 0.019402472677892864
537.0, 0.014301251244604761
538.0, 0.01364119812391769
539.0, 0.013918603249382098
540.0, 0.012520310004253113
541.0, 0.005937151385660829
542.0, 0.004905517968362018
543.0, 0.00723844600103343
544.0, 0.004556593352213799
545.0, 0.001630126381492274
546.0, 0.0003241952958706451
547.0, 0.0022798909311360274
548.0, 0.0015767516126719602
549.0, 0.002995595583889074
550.0, 0.0003151525357070493
551.0, 0.0005738294266898036
552.0, 0.0008225434389088527
553.0, 0.00013345642836373953
554.0, 0.000263073720636835
555.0, 0.0009572658696386216
556.0, 0.0011548585639770063
557.0, 0.001890287952723998
558.0, 0.0029928759949731923
559.0, 0.0012914496831197477
560.0, 0.0008879306231166799
561.0, 0.0017000416928214608
562.0, 0.0018576586229113988
563.0, 0.00190705544430581
564.0, 0.006906793633166659
565.0, 0.0016633022623090937
566.0, 0.0029169996273498955
567.0, 0.0004932334049994454
568.0, 0.0017074569325387175
569.0, 0.0019534570641736534
570.0, 0.0014862337197677467
571.0, 0.003228833280221835
572.0, 0.006851814256776815
573.0, 0.007082875715673757
574.0, 0.004658217954053118
575.0, 0.005840404975054308
576.0, 0.008634449066977036
577.0, 0.007206117079950239
578.0, 0.011796757020640584
579.0, 0.019643672328737666
580.0, 0.02156340034179361
581.0, 0.019960342950180815
582.0, 0.025139781402779504
583.0, 0.024634748105081546
584.0, 0.019947009461212473
585.0, 0.014408229691041831
586.0, 0.010382857421445924
587.0, 0.006932358249391403
588.0, 0.004002545748939997
589.0, 0.005167038934107177
590.0, 0.0055957731514065506
591.0, 0.0020109517049474368
592.0, 0.004280375779881986
593.0, 0.00704742706081927
594.0, 0.0048790517833573405
595.0, 0.003042263013387413
596.0, 0.0012324871743998442
597.0, 0.001344208215695256
598.0, 0.001254112506274717
599.0, 0.002505304791223983
600.0, 0.001001827120745627
601.0, 0.0004112651659384119
602.0, 0.0015793967883668495
603.0, 0.004520533821641863
604.0, 0.005160361849788705
605.0, 0.0010762657919637202
606.0, 0.002046579791158143
607.0, 0.00666653838498616
608.0, 0.004867949195102046
609.0, 0.006995273228008059
610.0, 0.0009625232732160958
611.0, 0.0031641469205454338
612.0, 0.005705924960437316
613.0, 0.0040279773701655695
614.0, 0.002154091998017314
615.0, 0.0020229472732741136
616.0, 0.0007047720932473487
617.0, 0.004310427512484315
618.0, 0.006798703337822818
619.0, 0.007325753984816326
620.0, 0.007602235417310149
621.0, 0.007824505817222917
622.0, 0.0071568354941623745
623.0, 0.007031843417573645
624.0, 0.013523402301398427
625.0, 0.013450835719361665
626.0, 0.01363811953674379
627.0, 0.016748443992173758
628.0, 0.015260847647109815
629.0, 0.015921491518569402
630.0, 0.021929309523497604
631.0, 0.02043629758176943
632.0, 0.017661164688592395
633.0, 0.020203028758926045
634.0, 0.026598815799573575
635.0, 0.031055695085023996
636.0, 0.026568555604233227
637.0, 0.023643621795630825
638.0, 0.026332896463341714
639.0, 0.02753971453215623
640.0, 0.03476837894653656
641.0, 0.04664602377205058
642.0, 0.043616603427012166
643.0, 0.043428339665743526
644.0, 0.04563967704247889
645.0, 0.04698675757084936
646.0, 0.049931213309017806
647.0, 0.05655164274870082
648.0, 0.06397894314531158
649.0, 0.06615454712052504
650.0, 0.06957191585215314
651.0, 0.06631414650509666
652.0, 0.06428118498672651
653.0, 0.056988855612817385
654.0, 0.05149833069267591
655.0, 0.052227806677845774
656.0, 0.04803598003695886
657.0, 0.04229932844650755
658.0, 0.033338349793216836
659.0, 0.028794876855096928
660.0, 0.025900095549994367
661.0, 0.02695696552979691
662.0, 0.028280249061158527
663.0, 0.019742805243462908
664.0, 0.009534692579282435
665.0, 0.011575408274156256
666.0, 0.01084370787223098
667.0, 0.010600464816765826
668.0, 0.009285205945085868
669.0, 0.005828714907695345
670.0, 0.006656024877671221
671.0, 0.005618777347614372
672.0, 0.0007133791923475932
673.0, 0.003392641969823033
674.0, 0.006439675069263917
675.0, 0.005643108426917743
676.0, 0.0035199200366208975
677.0, 0.0028237343737953354
678.0, 0.0028865084333168575
679.0, 0.003047329423335921
680.0, 0.0007934508250223531
681.0, 0.0009003643803744094
682.0, 0.002962801806078804
683.0, 0.004648466707735909
684.0, 0.0053952667871873744
685.0, 0.0020703618952188003
686.0, 0.004478998908368527
687.0, 0.0026233198217630953
688.0, 0.003259993037469762
689.0, 0.007712552640578827
690.0, 0.00711431929818437
691.0, 0.004373839167576565
692.0, 0.005234306299654221
693.0, 0.001769976240598427
694.0, 0.00010751702113163336
695.0, 0.004661769801459683
696.0, 0.005167520269735559
697.0, 0.0016530095214021096
698.0, 0.0012721648306848292
699.0, 0.006145884699950082
700.0, 0.00727275018240582
701.0, 0.00874953462058299
702.0, 0.0019046360468268034
703.0, 0.005910911251329443
704.0, 0.01017939180343253
705.0, 0.008513212541894185
706.0, 0.00789839787166802
707.0, 0.0038897235282145106
708.0, 0.007833513287896212
709.0, 0.0032182369852920725
710.0, 0.0030085186339304107
711.0, 0.0018379622161597078
712.0, 0.002439834549819259
713.0, 0.0013628828643809073
714.0, 0.009940248707950938
715.0, 0.001275513370196809
716.0, 0.007124877257320257
717.0, 0.005367815868194428
718.0, 0.002258726026685485
719.0, 0.005458254714379504
720.0, 0.008564294191551853
721.0, 0.006842014818251119
722.0, 0.0068446305043524764
723.0, 0.008684367494780588
724.0, 0.008950538402283556
725.0, 0.01677247719572574
726.0, 0.011811311686538511
727.0, 0.003986161161149005
728.0, 0.007942859363654652
729.0, 0.01341554364626629
730.0, 0.008240269134688092
731.0, 0.015009698065738847
732.0, 0.018151218092995604
733.0, 0.013749882030930444
734.0, 0.0162178825731174
735.0, 0.021611326043180144
736.0, 0.023576064478772363
737.0, 0.0316394468524842
738.0, 0.0359972216725455
739.0, 0.041932279687216044
740.0, 0.04792270925761718
741.0, 0.05423441173787332
742.0, 0.0643158625018488
743.0, 0.08322993738019567
744.0, 0.10256073167359336
745.0, 0.1050241441297392
746.0, 0.11891162308327556
747.0, 0.1286280851530455
748.0, 0.14451376598094676
749.0, 0.14907317545342513
750.0, 0.14218701812361814
751.0, 0.1281563244107478
752.0, 0.11196196539369242
753.0, 0.09773123760443662
754.0, 0.07610663079292229
755.0, 0.06423420300422243
756.0, 0.05862152301346335
757.0, 0.05019467793342581
758.0, 0.039504385252450674
759.0, 0.03399608957452727
760.0, 0.033805774783437936
761.0, 0.029052176854622663
762.0, 0.024871855467590926
763.0, 0.029510249471906433
764.0, 0.027197331218801482
765.0, 0.026997766730839073
766.0, 0.023551821934968197
767.0, 0.017769032740873842
768.0, 0.01596728055819755
769.0, 0.01567415737642403
770.0, 0.010448012987707079
771.0, 0.003776856578304966
772.0, 0.011280571469133744
773.0, 0.004586077716021965
774.0, 0.016515225698709283
775.0, 0.02600893001053878
776.0, 0.014733093696331053
777.0, 0.006584460082257868
778.0, 0.004630567366070528
779.0, 0.008811946930276702
780.0, 0.003884976960908936
781.0, 0.001535716031546834
782.0, 0.006008835283883761
783.0, 0.0044869775096472
784.0, 0.002738377055529892
785.0, 0.010212769004835105
786.0, 0.006309537279767895
787.0, 0.0015701505062167824
788.0, 0.007814350481474892
789.0, 0.007175098548214629
790.0, 0.008625441224315605
791.0, 0.0063095893042418826
792.0, 0.007398038264623689
793.0, 0.015452824697454928
794.0, 0.015789980375477897
795.0, 0.022068329893602922
796.0, 0.017447671218384378
797.0, 0.016450544855303475
798.0, 0.020388168023110952
799.0, 0.02069863674459483
800.0, 0.01906071545024964
801.0, 0.022638715840185952
802.0, 0.03274222959409097
803.0, 0.0433524069790491
804.0, 0.05166896047862532
805.0, 0.06005613457922985
806.0, 0.07515215792130689
807.0, 0.08006917255539034
808.0, 0.08942540406271599
809.0, 0.10447979062048962
810.0, 0.11878989810470583
811.0, 0.1403728080404508
812.0, 0.16004364582196406
813.0, 0.1466145998430879
814.0, 0.1415018841877312
815.0, 0.12515698671386907
816.0, 0.10722482520350166
817.0, 0.08362073411313044
818.0, 0.06612575818626594
819.0, 0.05746051157478073
820.0, 0.041798848635574
821.0, 0.03449542797526575
822.0, 0.02685986747667528
823.0, 0.02409579882951968
824.0, 0.02332324190495589
825.0, 0.018449857918432035
826.0, 0.012413717756081513
827.0, 0.0118833073252353
828.0, 0.012947330162617994
829.0, 0.005769951954941121
830.0, 0.007434502985362754
831.0, 0.004729312531873315
832.0, 0.0069302118357453405
833.0, 0.0011336961452882625
834.0, 0.003879453486139774
835.0, 0.00977100759866988
836.0, 0.010482423973232053
837.0, 0.007821978098475423
838.0, 0.0015680815033886084
839.0, 0.001324912540506323
840.0, 0.0030976813453926105
841.0, 0.00027522013807417526
842.0, 0.0022408317337210947
843.0, 0.0024371192719300056
844.0, 0.005257380277449337
845.0, 0.004628463921038003
846.0, 0.00963405258067217
847.0, 0.006397463632753448
848.0, 0.0020765787144955937
849.0, 0.0021830320008432037
850.0, 0.003216856916887154
851.0, 0.006513777286166816
852.0, 0.0027852783338951
853.0, 0.0008579691202327185
854.0, 0.0020973929192303
855.0, 0.004936506070958546
856.0, 0.00614100986949062
857.0, 0.012882407052397737
858.0, 0.013555358215306061
859.0, 0.005177655331729709
860.0, 0.01462368827380397
861.0, 0.01019433768544136
862.0, 0.00744466315630286
863.0, 0.008684574338212573
864.0, 0.008369794187259758
865.0, 0.00857664576213084
866.0, 0.008727377462895291
867.0, 0.011735796926411222
868.0, 0.008308823355706844
869.0, 0.014497350094782858
870.0, 0.015603537665116697
871.0, 0.01123810856439809
872.0, 0.008036030579201183
873.0, 0.006087333461157969
874.0, 0.0053248615125448566
875.0, 0.0059987594790681786
876.0, 0.005474380306226953
877.0, 0.004978592543854651
878.0, 0.003292047528745239
879.0, 0.011091467938264423
880.0, 0.002826869066913047
881.0, 0.001286962480478771
882.0, 0.0066440866264288224
883.0, 0.008301882746260342
884.0, 0.0074377016807785044
885.0, 0.008447759423299001
886.0, 0.012657482647367612
887.0, 0.011935147283495392
888.0, 0.010599233424143232
889.0, 0.019006403913732237
890.0, 0.014402267288746252
891.0, 0.010329773043914315
892.0, 0.005211764209833623
893.0, 0.004971700454373099
894.0, 0.005992648799525491
895.0, 0.0037692167756976118
896.0, 0.008379802377230449
897.0, 0.006384916912785588
898.0, 0.009211050805878166
899.0, 0.01174462252741827
900.0, 0.0020767896997675606
901.0, 0.0011164919686522403
902.0, 0.003081630556608545
903.0, 0.00708608780198481
904.0, 0.00560915799338123
905.0, 0.0017505783895012347
906.0, 0.0014604018181459376
907.0, 0.003361775855104873
908.0, 0.0017096702675306597
909.0, 0.012029454177042098
910.0, 0.005741700570679223
911.0, 0.005999930979505438
912.0, 0.00740131491560325
913.0, 0.005971949933690391
914.0, 0.005716652509060409
915.0, 0.002720041321613626
916.0, 0.0004402531967211428
917.0, 0.007991956239108384
918.0, 0.00010681164173153986
919.0, 0.0024682024122984403
920.0, 0.008596337930420658
921.0, 0.002678222906416833
922.0, 0.003463252979488775
923.0, 0.006224020894116416
924.0, 0.010603905156360643
925.0, 0.011473787917896773
926.0, 0.005197447570084895
927.0, 0.004916775515186409
928.0, 0.008015666558641468
929.0, 0.0034453588541310696
930.0, 0.00648014946093339
931.0, 0.007857323954240667
932.0, 0.010187073556612379
933.0, 0.008205961803284515
934.0, 0.006711882116603865
935.0, 0.010500516127248373
936.0, 0.011478277301354145
937.0, 0.006637390494880801
938.0, 0.005633555899032102
939.0, 0.007379563808944011
940.0, 0.0008868476060980738
941.0, 0.00036155948786177313
942.0, 0.0037784871843716135
943.0, 0.01661217081301404
944.0, 0.008153260359790037
945.0, 0.0021579591930807507
946.0, 0.0020746351298357056
947.0, 0.007505012445314369
948.0, 0.006233464254231709
949.0, 0.00688293993686013
950.0, 0.0020546541157146687
951.0, 0.0018425888705315156
952.0, 0.0035879664552570974
953.0, 0.0021498648894219983
954.0, 0.0085445033765809
955.0, 0.011762328497272719
956.0, 0.0050140975260182285
957.0, 0.0020835185122113587
958.0, 0.011130245028833557
959.0, 0.015526544810504831
960.0, 0.008172448637848212
961.0, 0.01245578607353391
962.0, 0.005286191495909895
963.0, 0.0053924800146567045
964.0, 0.0014541516561507606
965.0, 0.0035083967231600882
966.0, 0.004007067073723523
967.0, 0.0016951256187839833
968.0, 0.004458379278551489
969.0, 0.01454016965397903
970.0, 0.008212171921116744
971.0, 0.0010443831890743689
972.0, 0.006599468317118728
973.0, 0.004437030752107884
974.0, 0.010688908834221229
975.0, 0.01105259407178508
976.0, 0.01219853198383495
977.0, 0.01171144460956408
978.0, 0.014792403647743787
979.0, 0.013956043453200253
980.0, 0.014432370747430678
981.0, 0.01737487887597715
982.0, 0.015823286574461953
983.0, 0.015364449034304867
984.0, 0.01987596568341577
985.0, 0.019292590749563285
986.0, 0.024258217199942547
987.0, 0.0281499392902474
988.0, 0.03711318879434039
989.0, 0.03853801483390877
990.0, 0.027019272272041966
991.0, 0.04237144042174407
992.0, 0.05697674780869918
993.0, 0.04988922683251102
994.0, 0.04422304215143808
995.0, 0.049197124829608474
996.0, 0.048945605571629754
997.0, 0.04223629948468793
998.0, 0.03455405313632215
999.0, 0.016989175664981027
1000.0, 0.03244206906828521
1001.0, 0.03159787723493938
1002.0, 0.04117350417018118
1003.0, 0.03271561269464955
1004.0, 0.024776152448781508
1005.0, 0.027310440726276447
1006.0, 0.02765557749906209
1007.0, 0.018902726166874054
1008.0, 0.013927674257150684
1009.0, 0.01718635726258954
1010.0, 0.01526472759432949
1011.0, 0.015459833500580826
1012.0, 0.015452244147686221
1013.0, 0.005286782775479713
1014.0, 0.015364413840917638
1015.0, 0.015817204194159003
1016.0, 0.020110924759024578
1017.0, 0.012652644765931175
1018.0, 0.006323892717233577
1019.0, 0.003999982818887756
1020.0, 0.005457876294588581
1021.0, 0.010066952316104702
1022.0, 0.010196002962053703
1023.0, 0.007086897366853126
1024.0, 0.009612951097974994
1025.0, 0.013771506693669172
1026.0, 0.00919514642698453
1027.0, 0.019206477382362613
1028.0, 0.01777357777707601
1029.0, 0.024658759584110363
1030.0, 0.006318678772899404
1031.0, 0.002392897301091824
1032.0, 0.009486688168844211
1033.0, 0.005595808236453413
1034.0, 0.005012594487515665
1035.0, 0.011174658067623224
1036.0, 0.012395122082226848
1037.0, 0.017177950705077293
1038.0, 0.01927155560796988
1039.0, 0.008680676903140366
1040.0, 0.008673892872504169
1041.0, 0.012430849523653179
1042.0, 0.020675788978420078
1043.0, 0.015240764519314767
1044.0, 0.013220535495196296
1045.0, 0.006369712047848633
1046.0, 0.005361272563825146
1047.0, 0.009035790180865743
1048.0, 0.0076967487928465955
1049.0, 0.007716572735060251
1050.0, 0.009889821643002977
1051.0, 0.005501618511282521
1052.0, 0.0017790347176536991
1053.0, 0.009332260091270141
1054.0, 0.009541923834292235
1055.0, 0.011415884320642642
1056.0, 0.005629462377336058
1057.0, 0.0005302309171652676
1058.0, 0.002016259559795107
1059.0, 0.007369003357479789
1060.0, 0.0059143102063302306
1061.0, 0.003618368941522329
1062.0, 0.0026467756142646163
1063.0, 0.005833266157602961
1064.0, 0.0008131110525980437
1065.0, 0.00010300262920797504
1066.0, 0.006889906436605906
1067.0, 0.003792145158918417
1068.0, 0.0017610324267081378
1069.0, 0.00034830739415357513
1070.0, 0.0012423575044811798
1071.0, 0.0011539889994709588
1072.0, 0.004970959072534096
1073.0, 0.0009756253744322361
1074.0, 0.006571603656434968
1075.0, 0.007452239618489881
1076.0, 0.0064334568470265485
1077.0, 0.004549746254330165
1078.0, 0.00263929887257583
1079.0, 0.011610948254228808
1080.0, 0.006217673703376988
1081.0, 0.010453408195159638
1082.0, 0.018000222140795132
1083.0, 0.00616912412903585
1084.0, 0.018070974082919272
1085.0, 0.017322272759560157
1086.0, 0.00978058960322426
1087.0, 0.010098875012435914
1088.0, 0.024918051451145888
1089.0, 0.014530720616831165
1090.0, 0.014426299424076645
1091.0, 0.021223680001473122
1092.0, 0.02295736138499534
1093.0, 0.01652062609979881
1094.0, 0.018246657481235145
1095.0, 0.021943244016308892
1096.0, 0.017799418637674973
1097.0, 0.022970660679908234
1098.0, 0.032559081473332446
1099.0, 0.030495526701826533
1100.0, 0.03170288244312485
1101.0, 0.032685360525984704
1102.0, 0.029800398310252923
1103.0, 0.02160310530364318
1104.0, 0.030382967567466775
1105.0, 0.019508799479281455
1106.0, 0.016926133927047702
1107.0, 0.017181976045075088
1108.0, 0.015349293214708553
1109.0, 0.02193986873535903
1110.0, 0.02922487737718518
1111.0, 0.021229755158676374
1112.0, 0.010300470158694681
1113.0, 0.00824565235396516
1114.0, 0.017660450391328675
1115.0, 0.02593751347465514
1116.0, 0.02524270305909225
1117.0, 0.03239826456799429
1118.0, 0.027634617463604683
1119.0, 0.029322311115342697
1120.0, 0.04046350287830938
1121.0, 0.03921170494254994
1122.0, 0.033295884418820566
1123.0, 0.04378005616155759
1124.0, 0.04387447864537071
1125.0, 0.040327558311086295
1126.0, 0.04202467704739503
1127.0, 0.03881903057215125
1128.0, 0.04752796531970028
1129.0, 0.04255453908966283
1130.0, 0.037441584711160665
1131.0, 0.03569628106520488
1132.0, 0.03430297544826853
1133.0, 0.041562780304396335
1134.0, 0.04943315842714808
1135.0, 0.05082841071698301
1136.0, 0.04497699158203138
1137.0, 0.047236428847788475
1138.0, 0.04297619608790533
1139.0, 0.032617062845270946
1140.0, 0.03604285511803738
1141.0, 0.038355517370936565
1142.0, 0.04360989517884125
1143.0, 0.03160578951341428
1144.0, 0.0289385472772289
1145.0, 0.01730140379348716
1146.0, 0.009644675283142981
1147.0, 0.022762087365868003
1148.0, 0.02374286312176487
1149.0, 0.021241418347189584
1150.0, 0.020938621673006214
1151.0, 0.020488177114946368
1152.0, 0.020705941982903098
1153.0, 0.018518835351933806
1154.0, 0.016886840201346804
1155.0, 0.016356653252666317
1156.0, 0.012746689183913362
1157.0, 0.008808181232039799
1158.0, 0.007207338051668259
1159.0, 0.0006123473880910243
1160.0, 0.0025550313515802893
1161.0, 0.003001242925323333
1162.0, 0.021239483048133164
1163.0, 0.006128436044884722
1164.0, 0.0015119483397181888
1165.0, 0.011352023757206654
1166.0, 0.0035613829490810187
1167.0, 0.002282560265758869
1168.0, 0.0052145810922614244
1169.0, 0.00320607099549527
1170.0, 0.011050930088220091
1171.0, 0.0024989072212574237
1172.0, 0.005058272840625307
1173.0, 0.011653484103266856
1174.0, 0.009256091776402709
1175.0, 0.013475362603358652
1176.0, 0.011693281377938784
1177.0, 0.012439185142970289
1178.0, 0.0058737806474318185
1179.0, 0.010516260396097479
1180.0, 0.01693898223261121
1181.0, 0.011091619694535156
1182.0, 0.006657473312754209
1183.0, 0.011261530920561732
1184.0, 0.021085818202305
1185.0, 0.008876257507484988
1186.0, 0.011197692484418887
1187.0, 0.0001986555354232917
1188.0, 0.010752720120431141
1189.0, 0.0007191590314770194
1190.0, 0.0008793195071324863
1191.0, 0.004743715370019911
1192.0, 0.002673600229141863
1193.0, 0.004938476116980383
1194.0, 0.01937552696611962
1195.0, 0.012704561354423886
1196.0, 0.0075959862242210045
1197.0, 0.006236229844539408
1198.0, 0.0007924279072072939
1199.0, 0.006245711692876351
1200.0, 0.01417750430685738
1201.0, 0.009194560831770398
1202.0, 0.002923010476787584
1203.0, 0.0166317340607378
1204.0, 0.006392501137341947
1205.0, 0.007819621222040522
1206.0, 0.01014331653226247
1207.0, 0.012936133422496453
1208.0, 0.01551845935057828
1209.0, 0.017618308526758747
1210.0, 0.018975464632719912
1211.0, 0.013061566966319965
1212.0, 0.02145376143516536
1213.0, 0.022951245791069778
1214.0, 0.011451043917494241
1215.0, 0.02338512375297823
1216.0, 0.024119046828100003
1217.0, 0.016344857999412064
1218.0, 0.007292892374573945
1219.0, 0.016389763504194358
1220.0, 0.013615003491666725
1221.0, 0.005848110424974611
1222.0, 0.012585697823161697
1223.0, 0.015105415463176354
1224.0, 0.007865502049880324
1225.0, 0.006271203731921056
1226.0, 0.0044048679477782255
1227.0, 0.001419989814868644
1228.0, 0.004675766835871688
1229.0, 0.009493272074495691
1230.0, 0.01536881547381493
1231.0, 0.017204748205800993
1232.0, 0.008263034569601384
1233.0, 0.005113755977640248
1234.0, 0.002261609844177889
1235.0, 0.0027058356688384262
1236.0, 0.009265360830494266
1237.0, 0.00969569488721726
1238.0, 0.01734247583888278
1239.0, 0.008834665452064707
1240.0, 4.5003838430790455e-05
1241.0, 0.011103481476094175
1242.0, 0.009711063644314948
1243, 0.0
1244, 0.0
1245, 0.0
1246, 0.0
1247, 0.0
1248, 0.0
1249, 0.0
1250, 0.0
1251, 0.0
1252, 0.0
1253, 0.0
1254, 0.0
1255, 0.0
1256, 0.0
1257, 0.0
1258, 0.0
1259, 0.0
1260, 0.0
1261, 0.0
1262, 0.0
1263, 0.0
1264, 0.0
1265, 0.0
1266, 0.0
1267, 0.0
1268, 0.0
1269, 0.0
1270, 0.0
1271, 0.0
1272, 0.0
1273, 0.0
1274, 0.0
1275, 0.0
1276, 0.0
1277, 0.0
1278, 0.0
1279, 0.0
1280, 0.0
1281, 0.0
1282, 0.0
1283, 0.0
1284, 0.0
1285, 0.0
1286, 0.0
1287, 0.0
1288, 0.0
1289, 0.0
1290, 0.0
1291, 0.0
1292, 0.0
1293, 0.0
1294, 0.0
1295, 0.0
1296, 0.0
1297, 0.0
1298, 0.0
1299, 0.0
1300, 0.0
1301, 0.0
1302, 0.0
1303, 0.0
1304, 0.0
1305, 0.0
1306, 0.0
1307, 0.0
1308, 0.0
1309, 0.0
1310, 0.0
1311, 0.0
1312, 0.0
1313, 0.0
1314, 0.0
1315, 0.0
1316, 0.0
1317, 0.0
1318, 0.0
1319, 0.0
1320, 0.0
1321, 0.0
1322, 0.0
1323, 0.0
1324, 0.0
1325, 0.0
1326, 0.0
1327, 0.0
1328, 0.0
1329, 0.0
1330, 0.0
1331, 0.0
1332, 0.0
1333, 0.0
1334, 0.0
1335, 0.0
1336, 0.0
1337, 0.0
1338, 0.0
1339, 0.0
1340, 0.0
1341, 0.0
1342, 0.0
1343, 0.0
1344, 0.0
1345, 0.0
1346, 0.0
1347, 0.0
1348, 0.0
1349, 0.0
1350, 0.0
1351, 0.0
1352, 0.0
1353, 0.0
1354, 0.0
1355, 0.0
1356, 0.0
1357, 0.0
1358, 0.0
1359, 0.0
1360, 0.0
1361, 0.0
1362, 0.0
1363, 0.0
1364, 0.0
1365, 0.0
1366, 0.0
1367, 0.0
1368, 0.0
1369, 0.0
1370, 0.0
1371, 0.0
1372, 0.0
1373, 0.0
1374, 0.0
1375, 0.0
1376, 0.0
1377, 0.0
1378, 0.0
1379, 0.0
1380, 0.0
1381, 0.0
1382, 0.0
1383, 0.0
1384, 0.0
1385, 0.0
1386, 0.0
1387, 0.0
1388, 0.0
1389, 0.0
1390, 0.0
1391, 0.0
1392, 0.0
1393, 0.0
1394, 0.0
1395, 0.0
1396, 0.0
1397, 0.0
1398, 0.0
1399, 0.0
1400, 0.0
1401, 0.0
1402, 0.0
1403, 0.0
1404, 0.0
1405, 0.0
1406, 0.0
1407, 0.0
1408, 0.0
1409, 0.0
1410, 0.0
1411, 0.0
1412, 0.0
1413, 0.0
1414, 0.0
1415, 0.0
1416, 0.0
1417, 0.0
1418, 0.0
1419, 0.0
1420, 0.0
1421, 0.0
1422, 0.0
1423, 0.0
1424, 0.0
1425, 0.0
1426, 0.0
1427, 0.0
1428, 0.0
1429, 0.0
1430, 0.0
1431, 0.0
1432, 0.0
1433, 0.0
1434, 0.0
1435, 0.0
1436, 0.0
1437, 0.0
1438, 0.0
1439, 0.0
1440, 0.0
1441, 0.0
1442, 0.0
1443, 0.0
1444, 0.0
1445, 0.0
1446, 0.0
1447, 0.0
1448, 0.0
1449, 0.0
1450, 0.0
1451, 0.0
1452, 0.0
1453, 0.0
1454, 0.0
1455, 0.0
1456, 0.0
1457, 0.0
1458, 0.0
1459, 0.0
1460, 0.0
1461, 0.0
1462, 0.0
1463, 0.0
1464, 0.0
1465, 0.0
1466, 0.0
1467, 0.0
1468, 0.0
1469, 0.0
1470, 0.0
1471, 0.0
1472, 0.0
1473, 0.0
1474, 0.0
1475, 0.0
1476, 0.0
1477, 0.0
1478, 0.0
1479, 0.0
1480, 0.0
1481, 0.0
1482, 0.0
1483, 0.0
1484, 0.0
1485, 0.0
1486, 0.0
1487, 0.0
1488, 0.0
1489, 0.0
1490, 0.0
1491, 0.0
1492, 0.0
1493, 0.0
1494, 0.0
1495, 0.0
1496, 0.0
1497, 0.0
1498, 0.0
1499, 0.0
1500, 0.0
1501, 0.0
1502, 0.0
1503, 0.0
1504, 0.0
1505, 0.0
1506, 0.0
1507, 0.0
1508, 0.0
1509, 0.0
1510, 0.0
1511, 0.0
1512, 0.0
1513, 0.0
1514, 0.0
1515, 0.0
1516, 0.0
1517, 0.0
1518, 0.0
1519, 0.0
1520, 0.0
1521, 0.0
1522, 0.0
1523, 0.0
1524, 0.0
1525, 0.0
1526, 0.0
1527, 0.0
1528, 0.0
1529, 0.0
1530, 0.0
1531, 0.0
1532, 0.0
1533, 0.0
1534, 0.0
1535, 0.0
1536, 0.0
1537, 0.0
1538, 0.0
1539, 0.0
1540, 0.0
1541, 0.0
1542, 0.0
1543, 0.0
1544, 0.0
1545, 0.0
1546, 0.0
1547, 0.0
1548, 0.0
1549, 0.0
1550, 0.0
1551, 0.0
1552, 0.0
1553, 0.0
1554, 0.0
1555, 0.0
1556, 0.0
1557, 0.0
1558, 0.0
1559, 0.0
1560, 0.0
1561, 0.0
1562, 0.0
1563, 0.0
1564, 0.0
1565, 0.0
1566, 0.0
1567, 0.0
1568, 0.0
1569, 0.0
1570, 0.0
1571, 0.0
1572, 0.0
1573, 0.0
1574, 0.0
1575, 0.0
1576, 0.0
1577, 0.0
1578, 0.0
1579, 0.0
1580, 0.0
1581, 0.0
1582, 0.0
1583, 0.0
1584, 0.0
1585, 0.0
1586, 0.0
1587, 0.0
1588, 0.0
1589, 0.0
1590, 0.0
1591, 0.0
1592, 0.0
1593, 0.0
1594, 0.0
1595, 0.0
1596, 0.0
1597, 0.0
1598, 0.0
1599, 0.0
