30, 0.0
31, 0.0
32, 0.0
33, 0.0
34, 0.0
35, 0.0
36, 0.0
37, 0.0
38, 0.0
39, 0.0
40, 0.0
41, 0.0
42, 0.0
43, 0.0
44, 0.0
45, 0.0
46, 0.0
47, 0.0
48, 0.0
49, 0.0
50, 0.0
51, 0.0
52, 0.0
53, 0.0
54, 0.0
55, 0.0
56, 0.0
57, 0.0
58, 0.0
59, 0.0
60, 0.0
61, 0.0
62, 0.0
63, 0.0
64, 0.0
65, 0.0
66, 0.0
67, 0.0
68, 0.0
69, 0.0
70, 0.0
71, 0.0
72, 0.0
73, 0.0
74, 0.0
75, 0.0
76, 0.0
77, 0.0
78, 0.0
79, 0.0
80, 0.0
81, 0.0
82, 0.0
83, 0.0
84, 0.0
85, 0.0
86, 0.0
87, 0.0
88, 0.0
89, 0.0
90, 0.0
91, 0.0
92, 0.0
93, 0.0
94, 0.0
95, 0.0
96, 0.0
97, 0.0
98, 0.0
99, 0.0
100, 0.0
101, 0.0
102, 0.0
103, 0.0
104, 0.0
105, 0.0
106, 0.0
107, 0.0
108, 0.0
109, 0.0
110, 0.0
111, 0.0
112, 0.0
113, 0.0
114, 0.0
115, 0.0
116, 0.0
117, 0.0
118, 0.0
119, 0.0
120, 0.0
121, 0.0
122, 0.0
123, 0.0
124, 0.0
125, 0.0
126, 0.0
127, 0.0
128, 0.0
129, 0.0
130, 0.0
131, 0.0
132, 0.0
133, 0.0
134, 0.0
135, 0.0
136, 0.0
137, 0.0
138, 0.0
139, 0.0
140, 0.0
141, 0.0
142, 0.0
143, 0.0
144, 0.0
145, 0.0
146, 0.0
147, 0.0
148, 0.0
149.0, 0.0004687991677600024
150.0, 0.0019454631466072415
151.0, 0.0003124414965858601
152.0, 0.0038643812000102545
153.0, 0.009432856623380415
154.0, 0.011150820993499887
155.0, 0.005923819836049397
156.0, 0.006845466044185143
157.0, 0.005794055785951457
158.0, 0.00863381935470455
159.0, 0.013338756080249833
160.0, 0.01617140819130665
161.0, 0.012733348186699751
162.0, 0.010530238489945703
163.0, 0.009835391998070986
164.0, 0.00851047206462593
165.0, 0.006576629608341418
166.0, 0.005729934968306042
167.0, 0.006804863161504111
168.0, 0.007116129014811335
169.0, 0.0043841287138897105
170.0, 0.005810243720353064
171.0, 0.013838658239753983
172.0, 0.0051394070839205
173.0, 0.009908031096859494
174.0, 0.006968921930278945
175.0, 0.005450287854564401
176.0, 0.00893605562772834
177.0, 0.010066793304385679
178.0, 0.015246306257059262
179.0, 0.016254496356793588
180.0, 0.015288108577382782
181.0, 0.01286010048803073
182.0, 0.008884935927535415
183.0, 0.0049097065158641845
184.0, 0.0012790768114647778
185.0, 0.00456699812726976
186.0, 0.007286501567333665
187.0, 0.004333113058897972
188.0, 0.00034784900246351844
189.0, 0.0028832566376164924
190.0, 0.0018598646755980668
191.0, 0.0010362483047247847
192.0, 0.0026323587264059844
193.0, 0.006438227137217443
194.0, 0.004504488213951527
195.0, 0.00922340304402062
196.0, 0.010720095081687319
197.0, 0.012116760655271714
198.0, 0.0146267971259664
199.0, 0.006485654055816289
200.0, 0.011512301259793058
201.0, 0.009776335206899075
202.0, 0.008600977612694018
203.0, 0.011696138634807375
204.0, 0.017397936393504055
205.0, 0.016833054822901858
206.0, 0.02068573413553382
207.0, 0.01666119602744112
208.0, 0.014529841899077597
209.0, 0.020683514943882136
210.0, 0.013567129498209655
211.0, 0.014822778761762826
212.0, 0.009840369353327364
213.0, 0.007031363192065972
214.0, 0.009374544476226546
215.0, 0.012917954970693181
216.0, 0.011446162748325953
217.0, 0.00820963159914442
218.0, 0.008077977807271243
219.0, 0.011264047763863638
220.0, 0.014062336343076492
221.0, 0.006608932112415587
222.0, 0.00621363630887971
223.0, 0.011189878765912719
224.0, 0.015233813310069965
225.0, 0.018801173975973837
226.0, 0.026993334766211817
227.0, 0.029191437449760795
228.0, 0.029969570446500685
229.0, 0.027837426615791177
230.0, 0.025265297221292112
231.0, 0.022522752731975813
232.0, 0.012571321983008771
233.0, 0.014771421235397982
234.0, 0.011865663449874874
235.0, 0.006729890799998542
236.0, 0.0036462763412995966
237.0, 0.005272463755525782
238.0, 0.0015197268960629614
239.0, 0.004206077806855073
240.0, 0.0027792056098148686
241.0, 0.004693900898384931
242.0, 0.011612970308173421
243.0, 0.01021366411553147
244.0, 0.009131191369888108
245.0, 0.005225205523404532
246.0, 0.005949956185254226
247.0, 0.007621235463728939
248.0, 0.004151460672149709
249.0, 0.003931136444953921
250.0, 0.003415682440123775
251.0, 0.006805623215402165
252.0, 0.01037324287988684
253.0, 0.011617024016785098
254.0, 0.010817965511550596
255.0, 0.009774842393985916
256.0, 0.005443122510997601
257.0, 0.001903303835090795
258.0, 0.0016683482610259182
259.0, 0.004323651474653344
260.0, 0.004016491641150856
261.0, 0.00227129272157889
262.0, 0.0019046038813533709
263.0, 0.0021925735257174858
264.0, 0.0027699326564526922
265.0, 0.003457413554487863
266.0, 0.0030444925157620648
267.0, 0.0031624190587609233
268.0, 0.0029647864427846987
269.0, 0.003357894791410417
270.0, 0.0036067550333125135
271.0, 0.0011726407278188399
272.0, 0.005851992708799622
273.0, 0.008778992976084215
274.0, 0.01388266056138415
275.0, 0.02150641409694669
276.0, 0.03145689948941119
277.0, 0.045645112124433125
278.0, 0.0572707560878873
279.0, 0.06482126037089062
280.0, 0.0651260276151927
281.0, 0.057400051400168114
282.0, 0.04373981718884424
283.0, 0.03152959415288789
284.0, 0.02805794262713735
285.0, 0.025646610615675733
286.0, 0.02450107443644252
287.0, 0.028301644533566872
288.0, 0.0416543260378433
289.0, 0.05043015908203706
290.0, 0.07202873101760192
291.0, 0.0986476206953486
292.0, 0.12473176057611207
293.0, 0.145867278019201
294.0, 0.15919017811355546
295.0, 0.1585800807127256
296.0, 0.14915190266665918
297.0, 0.15831532296468118
298.0, 0.1861026217511591
299.0, 0.22316317028842075
300.0, 0.27606072919526137
301.0, 0.36124271490214005
302.0, 0.4380995242192225
303.0, 0.4587854945174481
304.0, 0.4113435657484621
305.0, 0.3191555054947666
306.0, 0.23371726435863455
307.0, 0.15998076188146074
308.0, 0.10603595197786857
309.0, 0.0669508260302685
310.0, 0.040219890863938054
311.0, 0.02798565373617867
312.0, 0.026544215418231445
313.0, 0.03058580987350711
314.0, 0.031885695928285544
315.0, 0.03659926276665192
316.0, 0.0499415508402184
317.0, 0.06942342880906077
318.0, 0.08572282017064754
319.0, 0.10000338853401915
320.0, 0.10725710577745218
321.0, 0.11353066321745565
322.0, 0.13308089263253167
323.0, 0.18735528011428598
324.0, 0.2491160616899991
325.0, 0.32529491907637614
326.0, 0.406623067946893
327.0, 0.4480493869457408
328.0, 0.41194503802962423
329.0, 0.332252933586658
330.0, 0.23915840210983275
331.0, 0.16638123176576075
332.0, 0.11089928793399789
333.0, 0.0690065773247553
334.0, 0.03853574902897278
335.0, 0.01986883287655851
336.0, 0.018034481913194216
337.0, 0.013756876695570281
338.0, 0.008540691759288278
339.0, 0.007347276392998937
340.0, 0.014081395835728885
341.0, 0.022105616258563925
342.0, 0.022485834703282904
343.0, 0.021959868148183653
344.0, 0.018594972573346746
345.0, 0.013945768257778234
346.0, 0.012788175072504182
347.0, 0.011156770040558301
348.0, 0.00429780531319348
349.0, 0.005653500208675592
350.0, 0.010504303403249138
351.0, 0.012214566104183337
352.0, 0.008330922283293483
353.0, 0.015597264940532433
354.0, 0.02215950822996126
355.0, 0.023647836218571937
356.0, 0.029825221149801222
357.0, 0.044007529918612266
358.0, 0.05827523485301324
359.0, 0.07631230225504937
360.0, 0.11435087822764292
361.0, 0.137589486434973
362.0, 0.13868141799957348
363.0, 0.12228379147598079
364.0, 0.09929766198574654
365.0, 0.07737734126803696
366.0, 0.06239839800082651
367.0, 0.049512347653456475
368.0, 0.04438605114627345
369.0, 0.048722579917462906
370.0, 0.05665572317125944
371.0, 0.09124324723363461
372.0, 0.12348958918743515
373.0, 0.14655390274763244
374.0, 0.16170242680561506
375.0, 0.17503859419208578
376.0, 0.19341124810609367
377.0, 0.19129021517550168
378.0, 0.20844255370431353
379.0, 0.2106925814986256
380.0, 0.2035524159555853
381.0, 0.2001978715478604
382.0, 0.20724749178117946
383.0, 0.21562240396511465
384.0, 0.24900893243580802
385.0, 0.29280273805422724
386.0, 0.31819219385350794
387.0, 0.31007245809995493
388.0, 0.27841535249018823
389.0, 0.24391672361769304
390.0, 0.22884533341391217
391.0, 0.2268942520247754
392.0, 0.24575616224423524
393.0, 0.2781377972646956
394.0, 0.2947249075704641
395.0, 0.24915465272129522
396.0, 0.206657694850474
397.0, 0.17051633361338275
398.0, 0.14158598098852568
399.0, 0.125613974899731
400.0, 0.1304566589483
401.0, 0.14396952608328797
402.0, 0.18944796139710482
403.0, 0.24319529814897906
404.0, 0.29945733676289304
405.0, 0.34232946101469613
406.0, 0.34620222076306784
407.0, 0.28596246974956
408.0, 0.22951604110573476
409.0, 0.17580383881199566
410.0, 0.12217753941942858
411.0, 0.07707630520631546
412.0, 0.05160550400320213
413.0, 0.035697903198264214
414.0, 0.036920079359174546
415.0, 0.0348557219403868
416.0, 0.03610153909120297
417.0, 0.043205587328721325
418.0, 0.05543962359659507
419.0, 0.07388712394202403
420.0, 0.0798210009584373
421.0, 0.08791343408328739
422.0, 0.08018023227330281
423.0, 0.0630425671948553
424.0, 0.04927789599440118
425.0, 0.037843796285470035
426.0, 0.02948310732356783
427.0, 0.0309879431781902
428.0, 0.03943042672829643
429.0, 0.04560999966281678
430.0, 0.04916639403706552
431.0, 0.06497989321468943
432.0, 0.08559976929774103
433.0, 0.10111541711538789
434.0, 0.12450557282260241
435.0, 0.15737111450388966
436.0, 0.19700886408050317
437.0, 0.23671377519359463
438.0, 0.2516979557675682
439.0, 0.261891242377597
440.0, 0.24827695652308499
441.0, 0.2238010124136523
442.0, 0.19179189263395743
443.0, 0.1496108700757151
444.0, 0.11941852686968335
445.0, 0.09287730143024202
446.0, 0.08878302458148489
447.0, 0.09247972091824992
448.0, 0.10281600134711612
449.0, 0.11881688904489232
450.0, 0.11858581641351612
451.0, 0.09733437451277223
452.0, 0.07315367973460862
453.0, 0.05348666925337087
454.0, 0.037204145030073896
455.0, 0.023736088371669344
456.0, 0.017286938387988136
457.0, 0.007969374645450462
458.0, 0.005282802666974024
459.0, 0.004501868191583128
460.0, 0.003056511243397907
461.0, 0.003490803567012619
462.0, 0.009324173244919347
463.0, 0.006123761611415888
464.0, 0.01428902680344011
465.0, 0.023555125056867993
466.0, 0.028538088433449887
467.0, 0.028001663587362436
468.0, 0.024258758607574697
469.0, 0.021713383202201467
470.0, 0.029616959688252183
471.0, 0.021286391184950185
472.0, 0.025127342860548903
473.0, 0.033422686422961076
474.0, 0.035818243483019895
475.0, 0.04062008660247232
476.0, 0.060231647793719076
477.0, 0.08477599630274311
478.0, 0.125107445341551
479.0, 0.17232510232897347
480.0, 0.2210417026242878
481.0, 0.2721884174099806
482.0, 0.32340773036959247
483.0, 0.40423739582101903
484.0, 0.5208010332068639
485.0, 0.6676899343351258
486.0, 0.8171666445596608
487.0, 0.9352772293945254
488.0, 0.997169961592731
489.0, 0.91855778361304
490.0, 0.7748499324254469
491.0, 0.6211814768172352
492.0, 0.4806699335947399
493.0, 0.3706009020845304
494.0, 0.3008229461199255
495.0, 0.23537464346480894
496.0, 0.183227639720073
497.0, 0.15058678290759364
498.0, 0.11975777460717053
499.0, 0.09398361509902384
500.0, 0.08284626026280417
501.0, 0.07728202706354334
502.0, 0.05129479749289588
503.0, 0.051850984248928284
504.0, 0.050453816353992674
505.0, 0.04141513032424206
506.0, 0.03248494607049244
507.0, 0.03435645955655319
508.0, 0.036736174538489645
509.0, 0.03578359086551891
510.0, 0.03240222363123132
511.0, 0.028747235578828228
512.0, 0.029791279736234248
513.0, 0.03776312323600614
514.0, 0.04561559042350905
515.0, 0.034079827619675575
516.0, 0.03008206077283833
517.0, 0.020564872584100505
518.0, 0.018054808142044017
519.0, 0.02179100209031254
520.0, 0.0154896931632529
521.0, 0.009907167456392002
522.0, 0.004095438184733895
523.0, 0.0011732089147020576
524.0, 0.004871944226902002
525.0, 0.006421837157507502
526.0, 0.000964019478339779
527.0, 0.0007948290560755932
528.0, 0.0006268663535599496
529.0, 0.003923097148038573
530.0, 0.00826409959038079
531.0, 0.00981717296495984
532.0, 0.007179716375847753
533.0, 0.002836053629075871
534.0, 0.0034387422134866978
535.0, 0.0021911766129604883
536.0, 0.004607980508418505
537.0, 0.00740809538778223
538.0, 0.007686813294559384
539.0, 0.005228721444608945
540.0, 0.0029455932558053468
541.0, 0.0035327151745417652
542.0, 0.0011060015621181414
543.0, 0.0007310143176321225
544.0, 0.002865871181483046
545.0, 0.005197590550793402
546.0, 0.006102855554831684
547.0, 0.007800014606827217
548.0, 0.008980326660333509
549.0, 0.008209226947330906
550.0, 0.009410213098843663
551.0, 0.007835214732729301
552.0, 0.003565344197445733
553.0, 0.0014080389136165482
554.0, 0.0023421937708659347
555.0, 0.005310628868912445
556.0, 0.01617034882781195
557.0, 0.026797667783830977
558.0, 0.030931965894511592
559.0, 0.03282974389817711
560.0, 0.04444503144794492
561.0, 0.06095781864562063
562.0, 0.0771712267343082
563.0, 0.09807101886559699
564.0, 0.10999512437363622
565.0, 0.10808777671338755
566.0, 0.09385539447392952
567.0, 0.07132989229684589
568.0, 0.05299360187569905
569.0, 0.04579428931642268
570.0, 0.04262624304816338
571.0, 0.03340443779348834
572.0, 0.021243240292628116
573.0, 0.015950928905942338
574.0, 0.02121367251206487
575.0, 0.02597388152452069
576.0, 0.023091140337539128
577.0, 0.023266273346020803
578.0, 0.02312373910943743
579.0, 0.020857024740300996
580.0, 0.018896098520896867
581.0, 0.02064731002042154
582.0, 0.01627939300888344
583.0, 0.02461075278313397
584.0, 0.03801316657871536
585.0, 0.052911172679773764
586.0, 0.05866371975246466
587.0, 0.04844345756823182
588.0, 0.04930286240810256
589.0, 0.04400069252930972
590.0, 0.04126700668825745
591.0, 0.0312969289726395
592.0, 0.023361092594968023
593.0, 0.01911451023729588
594.0, 0.011023507968089872
595.0, 0.012929513958733097
596.0, 0.01440323359078961
597.0, 0.017961510863176725
598.0, 0.021233078598819614
599.0, 0.025254753174886346
600.0, 0.03005810523719936
601.0, 0.03466908407035868
602.0, 0.04539114014708497
603.0, 0.05277894892046161
604.0, 0.06528355247858601
605.0, 0.07881479444820802
606.0, 0.0917483946322132
607.0, 0.10049722689812916
608.0, 0.10065249022850295
609.0, 0.10059777376390858
610.0, 0.09106100160954411
611.0, 0.07612381675341667
612.0, 0.0644737904315235
613.0, 0.05595119934486024
614.0, 0.04816807978371293
615.0, 0.04203050040842348
616.0, 0.04361622883266124
617.0, 0.04189585432319669
618.0, 0.036103457303468596
619.0, 0.03991895061624721
620.0, 0.043400461694445364
621.0, 0.040795141985547026
622.0, 0.04195452438630253
623.0, 0.04913719837854344
624.0, 0.04351139534798623
625.0, 0.03759873757263615
626.0, 0.04205476030389733
627.0, 0.04926410223650709
628.0, 0.05679488675949669
629.0, 0.06972089010375608
630.0, 0.06875676353682982
631.0, 0.07546517658416768
632.0, 0.07609536656854586
633.0, 0.0738390967990398
634.0, 0.07499512733995918
635.0, 0.07925028101352369
636.0, 0.08145944076467551
637.0, 0.08578909608041413
638.0, 0.08414882991597537
639.0, 0.0851497071240715
640.0, 0.08420651937877725
641.0, 0.07840972850356533
642.0, 0.0695723601366809
643.0, 0.06218823857779177
644.0, 0.057213243462590775
645.0, 0.03945907914215142
646.0, 0.0391471897295338
647.0, 0.038098390167324914
648.0, 0.03642072648537087
649.0, 0.038524691356633646
650.0, 0.0446057351460914
651.0, 0.046909942450768
652.0, 0.048416533462520686
653.0, 0.0607113227838955
654.0, 0.06909186525782889
655.0, 0.07907913513057144
656.0, 0.08597873674870932
657.0, 0.08544215292919262
658.0, 0.08527648888241388
659.0, 0.07456436064360003
660.0, 0.0818221337484914
661.0, 0.08064427051489431
662.0, 0.06814209077367979
663.0, 0.05295909788094322
664.0, 0.04629995810106282
665.0, 0.051343128083035816
666.0, 0.049614768737184387
667.0, 0.04888559822827932
668.0, 0.04915747337113533
669.0, 0.051322794185522075
670.0, 0.054272686473114895
671.0, 0.05688594253586585
672.0, 0.05769958098650516
673.0, 0.052873109057306425
674.0, 0.054448162480347354
675.0, 0.043280414517143075
676.0, 0.0331382738006899
677.0, 0.0247409660091364
678.0, 0.01886918773615976
679.0, 0.016896130795584323
680.0, 0.017130944109922906
681.0, 0.017031984273153507
682.0, 0.016110215275603405
683.0, 0.016144499198952753
684.0, 0.017377947066901277
685.0, 0.014799714563214716
686.0, 0.009625875810150071
687.0, 0.011374992493953765
688.0, 0.016493390878233778
689.0, 0.006853853737329048
690.0, 0.0022634255034440914
691.0, 0.005989391013149983
692.0, 0.013297457370607741
693.0, 0.017521615550321838
694.0, 0.014304770871158237
695.0, 0.004621089128563356
696.0, 0.009095886323410268
697.0, 0.014627948290033957
698.0, 0.011344813361709158
699.0, 0.011751834792116687
700.0, 0.014527280155263826
701.0, 0.014276620770680702
702.0, 0.014391240176025314
703.0, 0.01461828960252169
704.0, 0.020155931514920563
705.0, 0.01470043703970866
706.0, 0.01598911338645614
707.0, 0.018568762974790754
708.0, 0.014954329437340855
709.0, 0.007244870059054467
710.0, 0.00456315471125629
711.0, 0.0102551496294628
712.0, 0.005499177218804506
713.0, 0.009750871913710903
714.0, 0.011261278367892357
715.0, 0.010099604605926162
716.0, 0.011257804930041472
717.0, 0.012264796711960022
718.0, 0.007943691956922273
719.0, 0.007990314548621506
720.0, 0.00849158547381482
721.0, 0.007778855992657294
722.0, 0.010074390305253865
723.0, 0.010404507207238237
724.0, 0.005488587300174118
725.0, 0.011437298529401226
726.0, 0.01676258007093074
727.0, 0.0034863569439335445
728.0, 0.008444849589795059
729.0, 0.011565636885493131
730.0, 0.010167562598685885
731.0, 0.007422116675204592
732.0, 0.0026875493113681435
733.0, 0.00209890905652678
734.0, 0.006362526850333151
735.0, 0.002243840253916717
736.0, 0.00599458925454039
737.0, 0.005557404181681262
738.0, 0.002901917590850418
739.0, 0.007490843631154374
740.0, 0.017549616530910132
741.0, 0.01652834756220951
742.0, 0.003043020100273331
743.0, 0.009281715777701453
744.0, 0.00937503811671941
745.0, 0.004397802336061859
746.0, 0.001476830885889955
747.0, 0.0033514676751649633
748.0, 0.007331121363408521
749.0, 0.0005476101372021373
750.0, 0.01145306541207186
751.0, 0.004229763740546655
752.0, 0.0046713572174553655
753.0, 0.006581302553542822
754.0, 0.005734370027765823
755.0, 0.007119845234113115
756.0, 0.0014518977856965388
757.0, 0.0067372442044165174
758.0, 0.0019304536727033144
759.0, 0.007519200872120098
760.0, 0.009150979045010433
761.0, 0.010223184229638345
762.0, 0.01344640600838492
763.0, 0.010781589771663599
764.0, 0.00034183395315408923
765.0, 0.006542008568098364
766.0, 0.00863670134226888
767.0, 0.003348997787059961
768.0, 0.002506748574620955
769.0, 0.00282810224989259
770.0, 0.0017445575617476704
771.0, 0.00506019892741456
772.0, 0.006495365322005787
773.0, 0.014461523834049113
774.0, 0.00851992427483595
775.0, 0.0048774853391396564
776.0, 0.0026902406883455143
777.0, 0.00354620373088749
778.0, 0.005829994153549424
779.0, 0.0036161258805916187
780.0, 0.0035789069999488683
781.0, 0.013632613454251607
782.0, 0.008558593300570872
783.0, 0.002685971341728017
784.0, 0.0028217893915377656
785.0, 0.004437272398646595
786.0, 0.004790470264426625
787.0, 0.007674736495232174
788.0, 0.006529958763511125
789.0, 0.0019571616387308094
790.0, 0.002263945897799128
791.0, 0.008694572315447341
792.0, 0.006844013661191184
793.0, 0.006994686893491123
794.0, 0.013569935400359726
795.0, 0.01179518608957434
796.0, 0.008578629368115532
797.0, 0.0023966631618552612
798.0, 0.0022990940902052077
799.0, 0.0016667684392078024
800.0, 0.0033058248507299563
801.0, 0.004858677036820035
802.0, 0.003804867201909559
803.0, 0.0025000101383260242
804.0, 0.0053046291793394165
805.0, 0.0014196312668417583
806.0, 0.0037638871245710246
807.0, 0.003640114405500424
808.0, 0.007358358027074188
809.0, 0.007027182431352191
810.0, 0.0020924770992071053
811.0, 0.003021585823064837
812.0, 0.01037478337609947
813.0, 0.0123083966916841
814.0, 0.010228769653517572
815.0, 0.004959655291643743
816.0, 0.003793364135931857
817.0, 0.005765531645940977
818.0, 0.007252950786331427
819.0, 0.007182931602332012
820.0, 0.008616922528036364
821.0, 0.016672558952803795
822.0, 0.0030635990362198797
823.0, 0.006687069603875745
824.0, 0.004483631353799039
825.0, 0.004277868711057676
826.0, 0.008067560114477497
827.0, 0.008977601247576971
828.0, 0.005621496376586707
829.0, 0.00815783319264179
830.0, 0.002781065225628673
831.0, 0.011329684907022828
832.0, 0.006350893918327834
833.0, 0.007796220094100418
834.0, 0.01276891927574432
835.0, 0.00987233297950595
836.0, 0.0034085729628004703
837.0, 0.010060306589216294
838.0, 0.004151820219378106
839.0, 0.012680581787715616
840.0, 0.011701391721415133
841.0, 0.011073714184318585
842.0, 0.011695315550946958
843.0, 0.011658251115733388
844.0, 0.010737498010823196
845.0, 0.009543716343350238
846.0, 0.0096714705415216
847.0, 0.009851301021616618
848.0, 0.008504297852840832
849.0, 0.011452079508354824
850.0, 0.012378194232261733
851.0, 0.013660853641215404
852.0, 0.017645770249365745
853.0, 0.01795563007232391
854.0, 0.01012410691822638
855.0, 0.027263678541646033
856.0, 0.01931264066106437
857.0, 0.016825005551178197
858.0, 0.02523348260942024
859.0, 0.028039705910096392
860.0, 0.023560255641576065
861.0, 0.022848268806091095
862.0, 0.02658511969089862
863.0, 0.03254655125636661
864.0, 0.030143877743311297
865.0, 0.0235196456077774
866.0, 0.026491618691843653
867.0, 0.02995104451516647
868.0, 0.024243726018370854
869.0, 0.020280086660018008
870.0, 0.027609473362835882
871.0, 0.01647596904472668
872.0, 0.03228487214342669
873.0, 0.03220919740368164
874.0, 0.036062602254731714
875.0, 0.0336651087561607
876.0, 0.027848067565639508
877.0, 0.02506094371844264
878.0, 0.026170882896924937
879.0, 0.029678384005171594
880.0, 0.04545596429203703
881.0, 0.04428107883552688
882.0, 0.04571400182699026
883.0, 0.05303518137904081
884.0, 0.05275130414950506
885.0, 0.051502434773543666
886.0, 0.05724439194279121
887.0, 0.06582047076045212
888.0, 0.0664740456466308
889.0, 0.0640195637535765
890.0, 0.07639714388750343
891.0, 0.0831030807101944
892.0, 0.08016714593097304
893.0, 0.08449135698428063
894.0, 0.09017832897495742
895.0, 0.09113266647106287
896.0, 0.09136961324384119
897.0, 0.09426029783896109
898.0, 0.09962965346944563
899.0, 0.1135250747231005
900.0, 0.11342975272964695
901.0, 0.11618480587139046
902.0, 0.12354043162233057
903.0, 0.12370348862584879
904.0, 0.11725436477483663
905.0, 0.11061660430017697
906.0, 0.0970521326477438
907.0, 0.10631595765022071
908.0, 0.09084028702591243
909.0, 0.08460766309660708
910.0, 0.0761385791248404
911.0, 0.0728641155871224
912.0, 0.06837698409622416
913.0, 0.06088101972584869
914.0, 0.05807335505975735
915.0, 0.061550101733346275
916.0, 0.07140899977531288
917.0, 0.06849187719419972
918.0, 0.06148056380335652
919.0, 0.06456817455631618
920.0, 0.06411707701955331
921.0, 0.069975964401554
922.0, 0.07813625818792588
923.0, 0.07833277030997192
924.0, 0.0873164187524407
925.0, 0.09440210003629741
926.0, 0.09458350940755782
927.0, 0.09334670490807852
928.0, 0.10295716391086014
929.0, 0.11383066867338713
930.0, 0.12114207036497163
931.0, 0.1287650092896915
932.0, 0.14104169274726586
933.0, 0.1544911090584522
934.0, 0.1625766562337364
935.0, 0.18431176944529803
936.0, 0.20332761786923187
937.0, 0.22156710753730513
938.0, 0.2418465433579533
939.0, 0.26100586905624046
940.0, 0.281935317321511
941.0, 0.3025547792478974
942.0, 0.31950944860595093
943.0, 0.35979396926060436
944.0, 0.39486502478447644
945.0, 0.42177694965795864
946.0, 0.485149476055052
947.0, 0.535450737460244
948.0, 0.5780788531002377
949.0, 0.6266496869263222
950.0, 0.6701654490569003
951.0, 0.6945856141002771
952.0, 0.7204351024800768
953.0, 0.7381698302315125
954.0, 0.7142631699316337
955.0, 0.6753983689661015
956.0, 0.6417310923312238
957.0, 0.5992930331498981
958.0, 0.5539529902011111
959.0, 0.5196006689843454
960.0, 0.5039255434048849
961.0, 0.5001101779052808
962.0, 0.47809307057907624
963.0, 0.4671442295477778
964.0, 0.4506974480786893
965.0, 0.4177991459371382
966.0, 0.37573319782251796
967.0, 0.3401282170813826
968.0, 0.3071301460002886
969.0, 0.2710877966810022
970.0, 0.23705704088669266
971.0, 0.20593275055918006
972.0, 0.17724534655168084
973.0, 0.16422315116846153
974.0, 0.15148993336821612
975.0, 0.13500941697952712
976.0, 0.11831551680917606
977.0, 0.10034069098722764
978.0, 0.08906630265834242
979.0, 0.0891402786557271
980.0, 0.08837022363995653
981.0, 0.0776838782711343
982.0, 0.06923911225153245
983.0, 0.07020615045991077
984.0, 0.055609893613646336
985.0, 0.054940638967829254
986.0, 0.046700054143170334
987.0, 0.046199540922674046
988.0, 0.049264127924773186
989.0, 0.03812711725732976
990.0, 0.03405406848143449
991.0, 0.04410314278930723
992.0, 0.04723161716222307
993.0, 0.040600651565877985
994.0, 0.049190685556077196
995.0, 0.056588476375944316
996.0, 0.06383259476873114
997.0, 0.07461971386419394
998.0, 0.08576371740966172
999.0, 0.09309430731450644
1000.0, 0.09959926129578112
1001.0, 0.10473694065173451
1002.0, 0.11100308002115788
1003.0, 0.10382727213252853
1004.0, 0.10679674825259361
1005.0, 0.09724968275447424
1006.0, 0.08131463642953499
1007.0, 0.06610071879344045
1008.0, 0.05515186943193399
1009.0, 0.04769049005014526
1010.0, 0.03684790998915043
1011.0, 0.03234594790131359
1012.0, 0.04162460128823882
1013.0, 0.027311238390030763
1014.0, 0.02521447630966886
1015.0, 0.02739124085909106
1016.0, 0.0178452735840511
1017.0, 0.012686694960143621
1018.0, 0.018380397623707113
1019.0, 0.021416788545454053
1020.0, 0.021778993920276435
1021.0, 0.015199631751783798
1022.0, 0.018916009854015748
1023.0, 0.014796326580053877
1024.0, 0.012271801463072416
1025.0, 0.012721367856300722
1026.0, 0.01094135597181125
1027.0, 0.008381969853755658
1028.0, 0.008728087185843789
1029.0, 0.011589831671407121
1030.0, 0.011446272332482316
1031.0, 0.0019781574504632677
1032.0, 0.006652112161923738
1033.0, 0.004646901060770881
1034.0, 0.008454737095633415
1035.0, 0.004062228121554766
1036.0, 0.0042657491961173985
1037.0, 0.005245886972897046
1038.0, 0.0036171081450069296
1039.0, 0.0028960033063257094
1040.0, 0.003504987856789977
1041.0, 0.0020714399237928534
1042.0, 0.0035461691640349636
1043.0, 0.005449778777831711
1044.0, 0.008273866979201617
1045.0, 0.0032313191089848687
1046.0, 0.0021824893840271874
1047.0, 0.0021702175690514196
1048.0, 0.00139593638597613
1049.0, 0.0023695520785524476
1050.0, 0.003913186642508081
1051.0, 0.0012602201438753197
1052.0, 0.0009021094674632447
1053.0, 0.0002824221740682812
1054.0, 0.002737703363816291
1055.0, 0.005696992146095833
1056.0, 0.005376500453547985
1057.0, 0.008056322760247165
1058.0, 0.010100606973756506
1059.0, 0.006685354512059179
1060.0, 0.005164786161705884
1061.0, 0.011836133417664181
1062.0, 0.009576609743843471
1063.0, 0.011996684018306076
1064.0, 0.004202133124324317
1065.0, 0.00960944091121047
1066.0, 0.009331895681582453
1067.0, 0.005647189158193282
1068.0, 0.002948898926313843
1069.0, 0.0025290666878933893
1070.0, 0.004734245882610772
1071.0, 0.010717838705586775
1072.0, 0.015263828953013734
1073.0, 0.003391053416238114
1074.0, 0.011392465051890049
1075.0, 0.011778185585080165
1076.0, 0.009249615273943414
1077.0, 0.0030523298819187805
1078.0, 0.012081656298939484
1079.0, 0.009801786821097029
1080.0, 0.010492176617575847
1081.0, 0.018342171145586346
1082.0, 0.015846693542002396
1083.0, 0.012785761235029187
1084.0, 0.0024736160794512885
1085.0, 0.0077276672591971365
1086.0, 0.007981260319367483
1087.0, 0.010568096580999201
1088.0, 0.012533087841006332
1089.0, 0.00924498886582942
1090.0, 0.009646507708312305
1091.0, 0.008223590462756468
1092.0, 0.0026803695536766516
1093.0, 0.0015482412740561169
1094.0, 0.004117458274410883
1095.0, 0.0020649586176113535
1096.0, 0.004672130150788451
1097.0, 0.007379357349096133
1098.0, 0.00831714511407869
1099.0, 0.013744513836778674
1100.0, 0.01448893951015307
1101.0, 0.007298953185651371
1102.0, 0.007062761228596673
1103.0, 0.010328095606202667
1104.0, 0.006098620092809627
1105.0, 0.006554229965082805
1106.0, 0.01371635677134279
1107.0, 0.007536702625808776
1108.0, 0.009000663323239953
1109.0, 0.01368813584670552
1110.0, 0.007119378272521236
1111.0, 0.004342536372313601
1112.0, 0.007729661817395795
1113.0, 0.005893894606321343
1114.0, 0.007958787261346127
1115.0, 0.012705146792039476
1116.0, 0.008942002414332606
1117.0, 0.02101502226686399
1118.0, 0.0015569959922440283
1119.0, 0.0024460340441125566
1120.0, 0.00359325113765907
1121.0, 0.015117236132400609
1122.0, 0.0071339771333769845
1123.0, 0.0017298173398180162
1124.0, 0.008616303785612326
1125.0, 0.012040114051104209
1126.0, 0.011221385443835288
1127.0, 0.01209608892509898
1128.0, 0.00677927010715602
1129.0, 0.01820956446230638
1130.0, 0.010297052797535202
1131.0, 0.0020336418529097785
1132.0, 0.004352078413575933
1133.0, 0.010418961010254798
1134.0, 0.004273299374145339
1135.0, 0.00714035506710858
1136.0, 0.010633111455131489
1137.0, 0.013242582377017142
1138.0, 0.014293413943974743
1139.0, 0.011451128436470554
1140.0, 0.018014241923003913
1141.0, 0.010190460529258032
1142.0, 0.018150450096773064
1143.0, 0.01619655429320463
1144.0, 0.003200939029786823
1145.0, 0.010485394478329624
1146.0, 0.010774958839834117
1147.0, 0.008550618632719852
1148.0, 0.006943088481709674
1149.0, 0.005506811058737664
1150.0, 0.004098297766177084
1151.0, 0.0029312035903120274
1152.0, 0.0039418789209329395
1153.0, 0.005408442143422389
1154.0, 0.007440301014220125
1155.0, 0.004993953546711925
1156.0, 0.002464685192843078
1157.0, 0.0018140463604869553
1158.0, 0.005008949200639022
1159.0, 0.00806405989026214
1160.0, 0.005929376570995561
1161.0, 0.006961456804159652
1162.0, 0.010470622566113003
1163.0, 0.0066608380100299045
1164.0, 0.004648779238653152
1165.0, 0.005124108890896917
1166.0, 0.005001525894352365
1167.0, 0.0027134939061655605
1168.0, 0.0007307809531907801
1169.0, 0.00648960185153058
1170.0, 0.0033614600693773786
1171.0, 0.0038687829076888363
1172.0, 0.011494610563571898
1173.0, 0.019859838519911903
1174.0, 0.023304554273182832
1175.0, 0.022034760108568564
1176.0, 0.01829457307018357
1177.0, 0.0103879223528201
1178.0, 0.004196386690331219
1179.0, 0.0019107608672997037
1180.0, 0.003205610172341333
1181.0, 0.004252529333541919
1182.0, 0.005961744532525949
1183.0, 0.007209831046421812
1184.0, 0.008633020990877666
1185.0, 0.005189549758072037
1186.0, 0.006892037686644619
1187.0, 0.011788193581787473
1188.0, 0.008104885697281926
1189.0, 0.011369011858665085
1190.0, 0.0053189593904394835
1191.0, 0.01069207036281028
1192.0, 0.0018606846432916114
1193.0, 0.002676014367410072
1194.0, 0.0011895854747472037
1195.0, 0.009851557129836996
1196.0, 0.005012337451324575
1197.0, 0.0006334348305923949
1198.0, 0.006368461543796659
1199.0, 0.007500162929195279
1200.0, 0.0009749597941958367
1201.0, 0.004681993065788146
1202.0, 0.011844723798794619
1203.0, 0.00048418136811634424
1204.0, 0.00424809346488642
1205.0, 0.005018892895989173
1206.0, 0.009204150088415717
1207.0, 0.011844548754038826
1208.0, 0.009990493382424016
1209.0, 0.0106251717879654
1210.0, 0.013201482217693501
1211.0, 0.012516119994130914
1212.0, 0.00773962515674348
1213.0, 0.0035917694678042943
1214.0, 0.0049757012867788705
1215.0, 0.008675598077200215
1216.0, 0.002493733026038317
1217.0, 0.01652913440149109
1218.0, 0.01423101319836408
1219.0, 0.003430176159547778
1220.0, 0.01794665760916543
1221.0, 0.015906456845160236
1222.0, 0.018439598594370204
1223.0, 0.014350580038149166
1224.0, 0.014853877348459135
1225.0, 0.013417229117950112
1226.0, 0.008071061158804752
1227.0, 0.013366190729113221
1228.0, 0.016917826720755837
1229.0, 0.015622005391195593
1230.0, 0.014280028390372795
1231.0, 0.010674670444949382
1232.0, 0.010758859047678645
1233.0, 0.008096044091156045
1234.0, 0.014312917330760821
1235.0, 0.014636555692531689
1236.0, 0.010135855291906352
1237.0, 0.015703150388994672
1238.0, 0.02008693965296247
1239.0, 0.01100068992045818
1240.0, 0.00610365784485933
1241.0, 0.013280074331228117
1242.0, 0.007144309728554164
1243.0, 0.016003723743216666
1244.0, 0.03020373617413464
1245.0, 0.005839118541649516
1246.0, 0.01366461871749759
1247.0, 0.0023532950822062514
1248.0, 0.008259917320903584
1249.0, 0.00649689278542479
1250.0, 0.00639017579494637
1251.0, 0.012287509510345152
1252.0, 0.016818768806223103
1253.0, 0.021107413364284844
1254.0, 0.02669576520380055
1255.0, 0.02433621136590315
1256.0, 0.015032119236106381
1257.0, 0.013240424857338342
1258.0, 0.012945720487667766
1259.0, 0.01849819591903264
1260.0, 0.011045698494649574
1261.0, 0.006732752629021815
1262.0, 0.02056944468981267
1263.0, 0.02087459925836683
1264.0, 0.015889155444655457
1265.0, 0.015022174334328245
1266.0, 0.020022168600714776
1267.0, 0.021103107749855125
1268.0, 0.01620386408846056
1269.0, 0.015101376722222342
1270.0, 0.015932173596008202
1271.0, 0.01423163102789922
1272.0, 0.018681393054691207
1273.0, 0.010239173249748993
1274.0, 0.013022701041663602
1275.0, 0.008002075396197586
1276.0, 0.015881948908689124
1277.0, 0.007470356127817634
1278.0, 0.007705893419932389
1279.0, 0.008951065447032305
1280.0, 0.013849982123147373
1281.0, 0.012492482204134868
1282.0, 0.009384537207715522
1283.0, 0.015940408237965775
1284.0, 0.019556122036517118
1285.0, 0.013450955218334457
1286.0, 0.006942174611534256
1287.0, 0.008853624800695051
1288.0, 0.011633319615975007
1289.0, 0.005432986686399431
1290.0, 0.006315168364155765
1291.0, 0.004642448659243599
1292.0, 0.001921914667148552
1293.0, 0.004856504108367693
1294.0, 0.019488355301738883
1295.0, 0.021263327695586517
1296.0, 0.02226448755699257
1297.0, 0.026151960752263653
1298.0, 0.024133010486210683
1299.0, 0.027306259465419563
1300.0, 0.028534401653164735
1301.0, 0.02014644734076642
1302.0, 0.02820274956348058
1303.0, 0.03195934811320642
1304.0, 0.038932173583999925
1305.0, 0.0191025289064226
1306.0, 0.02293607538507403
1307.0, 0.022915317206733645
1308.0, 0.021264486317198347
1309.0, 0.02464310286992287
1310.0, 0.0348213963685081
1311.0, 0.03971949318280497
1312.0, 0.04008093750666816
1313.0, 0.04151899918095626
1314.0, 0.0409556789781254
1315.0, 0.0372625811183991
1316.0, 0.033254636707011065
1317.0, 0.037692733514262396
1318.0, 0.04499670863708451
1319.0, 0.030763132568948737
1320.0, 0.03602255415948229
1321.0, 0.030245562687441486
1322.0, 0.04081379013226757
1323.0, 0.03689504769075012
1324.0, 0.029897281085866475
1325.0, 0.03209448583519094
1326.0, 0.030123349377502665
1327.0, 0.022074406385602575
1328.0, 0.01910384997997508
1329.0, 0.020563706534928578
1330.0, 0.01764888721694945
1331.0, 0.0145479408182872
1332.0, 0.018086702420639773
1333.0, 0.015167722426961135
1334.0, 0.00759800048276506
1335.0, 0.01378213812802378
1336.0, 0.022929584946983238
1337.0, 0.022314759431134742
1338.0, 0.01824047590847112
1339.0, 0.015569381722942663
1340.0, 0.014020895170977552
1341.0, 0.014498518214871577
1342.0, 0.013091833682642624
1343.0, 0.01376649185496488
1344.0, 0.012141381733218954
1345.0, 0.006973962191187477
1346.0, 0.004135935970725826
1347.0, 0.005062015998016205
1348.0, 0.007476509664255536
1349.0, 0.008674368897841499
1350.0, 0.011747385934507757
1351.0, 0.010576983486749247
1352.0, 0.005464995511757446
1353.0, 0.011597127105047084
1354.0, 0.010654734181239772
1355.0, 0.014118666366527833
1356.0, 0.015369425930601087
1357.0, 0.01806378768462087
1358.0, 0.021345552859610904
1359.0, 0.021327311648267344
1360.0, 0.020544132128196023
1361.0, 0.020201170241317293
1362.0, 0.020732480646203075
1363.0, 0.01923032517388139
1364.0, 0.016793280399765183
1365.0, 0.017848422413787143
1366.0, 0.013811885417634171
1367.0, 0.012516083139603482
1368.0, 0.01705673132275301
1369.0, 0.013514901673036872
1370.0, 0.007860693823163362
1371.0, 0.011599390403977642
1372.0, 0.009382039135595094
1373.0, 0.013324313211502414
1374.0, 0.01612407880616583
1375.0, 0.016543027078138806
1376.0, 0.01886244333079035
1377.0, 0.020583028976544345
1378.0, 0.021840091593876777
1379.0, 0.023408125694341385
1380.0, 0.023714898361598347
1381.0, 0.023869406741096354
1382.0, 0.022962093282414213
1383.0, 0.017748782485970314
1384.0, 0.015856820486728422
1385.0, 0.01729209822582406
1386.0, 0.010944189612313943
1387.0, 0.006888454385078706
1388.0, 0.013477233973672977
1389.0, 0.014660757992885248
1390.0, 0.0027170316502954242
1391.0, 0.007042651117292615
1392.0, 0.012604849706318227
1393.0, 0.00461412626932999
1394.0, 0.007170373946042133
1395.0, 0.004482106563287725
1396.0, 0.001910379715434074
1397.0, 0.010143495426422875
1398.0, 0.011706925592178272
1399.0, 0.003779557623964844
1400.0, 0.003094729289672609
1401.0, 0.006380169396241202
1402.0, 0.007520175726132375
1403.0, 0.013247200814922212
1404.0, 0.015276610935392875
1405.0, 0.019174648994783695
1406.0, 0.021930619750591122
1407.0, 0.013893811562178263
1408.0, 0.002165043418729931
1409.0, 0.007917048778964316
1410.0, 0.015725616852735907
1411.0, 0.01221839479398839
1412.0, 0.015139725240336431
1413.0, 0.006791641791308315
1414.0, 0.004554011533155689
1415.0, 0.01586994933977296
1416.0, 0.012088601136875347
1417.0, 0.007757402426906517
1418.0, 0.008482462302320515
1419.0, 0.008698307049355692
1420.0, 0.01143117816932528
1421.0, 0.007775642078010625
1422.0, 0.006253590787665123
1423.0, 0.0053709782650466715
1424.0, 0.012401414513586286
1425.0, 0.0029291569534567034
1426.0, 0.00026373869803319967
1427.0, 0.0008904253700015696
1428.0, 0.020901837923031262
1429.0, 0.023025294009064765
1430.0, 0.01202427936322803
1431.0, 0.01795531264015176
1432.0, 0.016213247825125458
1433.0, 0.011436133681603141
1434.0, 0.017913262050567418
1435.0, 0.020740739630800604
1436.0, 0.021861860596026954
1437.0, 0.014535966758394605
1438.0, 0.01400095574587197
1439.0, 0.0214100571960113
1440.0, 0.02303184923589671
1441.0, 0.026291864671187895
1442.0, 0.03226162056554445
1443.0, 0.03716799352649589
1444.0, 0.03833958085978649
1445.0, 0.0416669479237011
1446.0, 0.03827126009562101
1447.0, 0.025764737791613833
1448.0, 0.042018294779909
1449.0, 0.02696108096400568
1450.0, 0.040987837325672426
1451.0, 0.03706114134153212
1452.0, 0.03968670176226084
1453.0, 0.03620141165603717
1454.0, 0.04213348425334705
1455.0, 0.03845010046681193
1456.0, 0.03225187169747902
1457.0, 0.03753262103965509
1458.0, 0.04842302717400609
1459.0, 0.049966205454114475
1460.0, 0.04549715615040211
1461.0, 0.037608729432202684
1462.0, 0.03202037310610099
1463.0, 0.03342432688959293
1464.0, 0.03288421277484701
1465.0, 0.03775869710480073
1466.0, 0.033592029253530484
1467.0, 0.030617868039561083
1468.0, 0.028248554579224237
1469.0, 0.028881817667206044
1470.0, 0.02595082026882603
1471.0, 0.025706039360944323
1472.0, 0.02656527199931803
1473.0, 0.021026762737210422
1474.0, 0.017557231531612243
1475.0, 0.014737748105716993
1476.0, 0.017070873160712412
1477.0, 0.015253451924292167
1478.0, 0.005256118430027151
1479.0, 0.01900798031826513
1480.0, 0.03216206251695693
1481.0, 0.03368385769884946
1482.0, 0.023392501305162156
1483.0, 0.020587701399044298
1484.0, 0.022178316927001188
1485.0, 0.02561279866332939
1486.0, 0.02584669204447738
1487.0, 0.014326961446713913
1488.0, 0.021285431148758163
1489.0, 0.021028627236323302
1490.0, 0.02543338916508439
1491.0, 0.0036575663663282673
1492.0, 0.013896112600271734
1493.0, 0.0038453436156276706
1494.0, 0.00804819344907027
1495.0, 0.008684666354367373
1496.0, 0.02536002289711715
1497.0, 0.004882807367788228
1498.0, 0.015534229894729398
1499.0, 0.00364870508373746
1500.0, 0.008674293185250072
1501.0, 0.020132581772321613
1502.0, 0.012140031887927418
1503.0, 0.008793978410125722
1504.0, 0.007650379569366707
1505.0, 0.013670289538569308
1506.0, 0.011962985198698912
1507.0, 0.017311996777109068
1508.0, 0.014240273777355535
1509.0, 0.010437211866414279
1510.0, 0.013262510883721221
1511.0, 0.014238229233528236
1512.0, 0.020229852559601896
1513.0, 0.012086982474578383
1514.0, 0.009216411176286802
1515.0, 0.011392035122423698
1516.0, 0.0012073045106838231
1517.0, 0.002444071793443365
1518.0, 0.007122774204655757
1519.0, 0.016171020909537995
1520.0, 0.011812499934655222
1521.0, 0.022813526636462068
1522.0, 0.018774513287610754
1523.0, 0.011162930823579482
1524.0, 0.006394398823320618
1525.0, 0.013968151487105476
1526.0, 0.017672592274667158
1527.0, 0.010166145908804644
1528.0, 0.013724302713641131
1529.0, 0.007617795494833176
1530.0, 0.0048530872785751385
1531.0, 0.0049237435603794915
1532.0, 0.012665586434947723
1533.0, 0.00926197863316473
1534.0, 0.007639737353794697
1535.0, 0.006227028224854604
1536.0, 0.011449849311645933
1537.0, 0.01489413613897608
1538.0, 0.00784386957345589
1539.0, 0.003773750502686213
1540.0, 0.002701825944843501
1541.0, 0.009739997377736898
1542.0, 0.014343713005891079
1543.0, 0.012531273752977905
1544.0, 0.01965021767777766
1545.0, 0.021901185263985663
1546.0, 0.0027968084703432756
1547.0, 0.006477966062706045
1548.0, 0.023781838150344087
1549.0, 0.009076706462407508
1550.0, 0.0022612964673745057
1551.0, 0.013583566212323157
1552.0, 0.016522514600261703
1553.0, 0.010914406341439538
1554.0, 0.01463320923646981
1555.0, 0.013059956275849166
1556.0, 0.01670611126296448
1557.0, 0.008675904719467898
1558.0, 0.0037451386388258697
1559.0, 0.0010111197650252838
1560.0, 0.0054744071463390465
1561.0, 0.009857572044785894
1562.0, 0.012078078181091535
1563.0, 0.004687143233135973
1564, 0.0
1565, 0.0
1566, 0.0
1567, 0.0
1568, 0.0
1569, 0.0
1570, 0.0
1571, 0.0
1572, 0.0
1573, 0.0
1574, 0.0
1575, 0.0
1576, 0.0
1577, 0.0
1578, 0.0
1579, 0.0
1580, 0.0
1581, 0.0
1582, 0.0
1583, 0.0
1584, 0.0
1585, 0.0
1586, 0.0
1587, 0.0
1588, 0.0
1589, 0.0
1590, 0.0
1591, 0.0
1592, 0.0
1593, 0.0
1594, 0.0
1595, 0.0
1596, 0.0
1597, 0.0
1598, 0.0
1599, 0.0
