30, 0.0
31, 0.0
32, 0.0
33, 0.0
34, 0.0
35, 0.0
36, 0.0
37, 0.0
38, 0.0
39, 0.0
40, 0.0
41, 0.0
42, 0.0
43, 0.0
44, 0.0
45, 0.0
46, 0.0
47, 0.0
48, 0.0
49, 0.0
50, 0.0
51, 0.0
52, 0.0
53, 0.0
54, 0.0
55, 0.0
56, 0.0
57, 0.0
58, 0.0
59, 0.0
60, 0.0
61, 0.0
62, 0.0
63, 0.0
64, 0.0
65, 0.0
66, 0.0
67, 0.0
68, 0.0
69, 0.0
70, 0.0
71, 0.0
72, 0.0
73, 0.0
74, 0.0
75, 0.0
76, 0.0
77, 0.0
78, 0.0
79, 0.0
80, 0.0
81, 0.0
82, 0.0
83, 0.0
84, 0.0
85, 0.0
86, 0.0
87, 0.0
88, 0.0
89, 0.0
90, 0.0
91, 0.0
92, 0.0
93, 0.0
94, 0.0
95, 0.0
96, 0.0
97, 0.0
98, 0.0
99, 0.0
100, 0.0
101, 0.0
102, 0.0
103, 0.0
104, 0.0
105, 0.0
106, 0.0
107, 0.0
108, 0.0
109, 0.0
110, 0.0
111, 0.0
112, 0.0
113, 0.0
114, 0.0
115, 0.0
116, 0.0
117, 0.0
118, 0.0
119, 0.0
120, 0.0
121, 0.0
122, 0.0
123, 0.0
124, 0.0
125, 0.0
126, 0.0
127, 0.0
128, 0.0
129, 0.0
130, 0.0
131, 0.0
132, 0.0
133, 0.0
134, 0.0
135, 0.0
136, 0.0
137, 0.0
138, 0.0
139, 0.0
140, 0.0
141, 0.0
142, 0.0
143, 0.0
144, 0.0
145, 0.0
146, 0.0
147, 0.0
148, 0.0
149.0, 2.4252238715174914e-06
150.0, 4.991992917472072e-05
151.0, 0.0007934629334122396
152.0, 0.0013391199456339448
153.0, 0.0012693619768697091
154.0, 0.0006883179978096791
155.0, 0.00013497848028343478
156.0, 0.0011295675868002312
157.0, 0.0007229816055417037
158.0, 0.0013248271438359735
159.0, 0.0016307765138872951
160.0, 0.0012399320229300364
161.0, 0.00229728546067072
162.0, 0.0026801759554617188
163.0, 0.00223549864371359
164.0, 0.0020868415380117765
165.0, 0.002804036489427104
166.0, 0.004171536584242236
167.0, 0.0028644672577894013
168.0, 0.004175443661337894
169.0, 0.003431019538298398
170.0, 0.0030185742005837037
171.0, 0.005356401785966152
172.0, 0.00549125972854152
173.0, 0.005802009891922315
174.0, 0.005799365408543037
175.0, 0.006104087394127189
176.0, 0.007068863131392681
177.0, 0.008454685854732524
178.0, 0.006024002599781229
179.0, 0.0062008133220927365
180.0, 0.006036789275373916
181.0, 0.004325230055138414
182.0, 0.0016084128743853602
183.0, 0.0026406502284043497
184.0, 0.0019519979468231943
185.0, 0.002810417163856155
186.0, 0.0031965144604338327
187.0, 0.0021424645973942263
188.0, 0.0025282461827448757
189.0, 0.000691513165497
190.0, 0.0012821792549033131
191.0, 0.0011676467376785114
192.0, 0.0002813811638920835
193.0, 0.0006465985880053177
194.0, 0.0010348240478214197
195.0, 0.001453330822671005
196.0, 0.0013068722800098989
197.0, 0.0023682580218107947
198.0, 0.005253262661077509
199.0, 0.006317641284400794
200.0, 0.007634363441679121
201.0, 0.007778448887720459
202.0, 0.009381555644318681
203.0, 0.013014002708691462
204.0, 0.01740129387167219
205.0, 0.024358136490457725
206.0, 0.031097778782873464
207.0, 0.03524317277801246
208.0, 0.03625303784276103
209.0, 0.03461759537718623
210.0, 0.031738937652146304
211.0, 0.02428278057071372
212.0, 0.018129175627182994
213.0, 0.013003550893657217
214.0, 0.00832267238900663
215.0, 0.003988707831361247
216.0, 0.004834166449791683
217.0, 0.004589262727577391
218.0, 0.003701295450722387
219.0, 0.003599052716166507
220.0, 0.005114960851476881
221.0, 0.006737456389859631
222.0, 0.009035018516548497
223.0, 0.012429401686854793
224.0, 0.01634042818745214
225.0, 0.020541582889995812
226.0, 0.025266461969638075
227.0, 0.031588395859802575
228.0, 0.030178929072228668
229.0, 0.026529167237778435
230.0, 0.021271325566029373
231.0, 0.015178785281998865
232.0, 0.011979473244254822
233.0, 0.007671253364979139
234.0, 0.00538645000192211
235.0, 0.0027704881049299508
236.0, 0.0005082134216535929
237.0, 0.0008764504091224921
238.0, 0.0013203333191381223
239.0, 0.001145186506277783
240.0, 0.0012057136948155234
241.0, 0.002565053284874624
242.0, 0.005050658249700819
243.0, 0.006509717983211885
244.0, 0.009114823855979112
245.0, 0.009118348644634068
246.0, 0.010536980448717067
247.0, 0.011088327970534426
248.0, 0.007685335915348494
249.0, 0.00757295909670648
250.0, 0.009205367701030911
251.0, 0.009138133332168176
252.0, 0.007899914300894506
253.0, 0.007068225775817532
254.0, 0.008199704350292544
255.0, 0.004939630155144032
256.0, 0.002685927408973263
257.0, 0.0021276329070608682
258.0, 0.0017509345099147118
259.0, 0.000710704983420424
260.0, 0.0014975820329324752
261.0, 0.0012729971009589162
262.0, 0.0007956457123451646
263.0, 0.002058158554508806
264.0, 0.003598528530808203
265.0, 0.0026537962902259686
266.0, 0.002457059961520217
267.0, 0.0010429593587526589
268.0, 0.0003625255307510967
269.0, 0.0012155961192535664
270.0, 0.0028693072736251895
271.0, 0.003120849460076563
272.0, 0.0036773424868222597
273.0, 0.005712048610328394
274.0, 0.01156737377227934
275.0, 0.018127253377234274
276.0, 0.023065538540291922
277.0, 0.030947983435587682
278.0, 0.03672286623921002
279.0, 0.03903148328362489
280.0, 0.03818810504099869
281.0, 0.03360297781956474
282.0, 0.024964731924606735
283.0, 0.01627520799700317
284.0, 0.01671253821730021
285.0, 0.012527880316417807
286.0, 0.011542821509799746
287.0, 0.01661960999329741
288.0, 0.022059299860406056
289.0, 0.030340948096703266
290.0, 0.042401697444391234
291.0, 0.06073002520579653
292.0, 0.08151255647998441
293.0, 0.10130925629105604
294.0, 0.12107093213173795
295.0, 0.12872747333893733
296.0, 0.12965027480486305
297.0, 0.1442396416124326
298.0, 0.17997605730636929
299.0, 0.23509972224162237
300.0, 0.3021835596376195
301.0, 0.3643151239651837
302.0, 0.403048918268765
303.0, 0.406757213456397
304.0, 0.37361119724717984
305.0, 0.31088529533941855
306.0, 0.23187497050293798
307.0, 0.1588129326047056
308.0, 0.10117112807562337
309.0, 0.06179755010877219
310.0, 0.03891802075425341
311.0, 0.02728384488748758
312.0, 0.02520087169036297
313.0, 0.020052002805721322
314.0, 0.01831828751719837
315.0, 0.024023448763274315
316.0, 0.0355962861046979
317.0, 0.044655615730758186
318.0, 0.05990051239722468
319.0, 0.06964855187596834
320.0, 0.07719309670815985
321.0, 0.08838627763203132
322.0, 0.11075970265173128
323.0, 0.15291173411582507
324.0, 0.20056070029517245
325.0, 0.2435661076450206
326.0, 0.2751813545490951
327.0, 0.2876652186979913
328.0, 0.2742957356489457
329.0, 0.23097446839152141
330.0, 0.17579859443760398
331.0, 0.12306739155459266
332.0, 0.07968317624843241
333.0, 0.04856511799514451
334.0, 0.02913947183519091
335.0, 0.01843584044833456
336.0, 0.013664318789122012
337.0, 0.011017754738400158
338.0, 0.010428792521887085
339.0, 0.011516442136271192
340.0, 0.013959776995126402
341.0, 0.02074323319958712
342.0, 0.019519545333791546
343.0, 0.01836826619163217
344.0, 0.018408731068716683
345.0, 0.017704782501115283
346.0, 0.013300725950186066
347.0, 0.009063708999819103
348.0, 0.008519527681260162
349.0, 0.008527636028743228
350.0, 0.01182728511500823
351.0, 0.018404179001131893
352.0, 0.024568710257335983
353.0, 0.03199547469591862
354.0, 0.03638797068188464
355.0, 0.04049148743892726
356.0, 0.049307061039790025
357.0, 0.0658914005495672
358.0, 0.08926085515231565
359.0, 0.11086575533197444
360.0, 0.13425922117329495
361.0, 0.14497378916603343
362.0, 0.1447581179504143
363.0, 0.13356965148564565
364.0, 0.10534473245807655
365.0, 0.07817700794756313
366.0, 0.05360068070422981
367.0, 0.041684047397100424
368.0, 0.03613574630645445
369.0, 0.03405099961374937
370.0, 0.04242767537286903
371.0, 0.05154058983861794
372.0, 0.05727078890829797
373.0, 0.06637456766549604
374.0, 0.07999822174430851
375.0, 0.09691166150737132
376.0, 0.11544581111075741
377.0, 0.14329589438889262
378.0, 0.17076893736587095
379.0, 0.18973478802665508
380.0, 0.20251231078145454
381.0, 0.22059264776215215
382.0, 0.2612428760702482
383.0, 0.3215761445332086
384.0, 0.38679776750019135
385.0, 0.44494505445614774
386.0, 0.4767657559301707
387.0, 0.4719926937847209
388.0, 0.43645907270891465
389.0, 0.3868387339220765
390.0, 0.3498573868759449
391.0, 0.33083288617183976
392.0, 0.3239636303759779
393.0, 0.3193096318935794
394.0, 0.3066793202389093
395.0, 0.2787228242491699
396.0, 0.23800621500443017
397.0, 0.20233304768209848
398.0, 0.1713168374787116
399.0, 0.14901852931638895
400.0, 0.14594164609628674
401.0, 0.16381600960337916
402.0, 0.21120290878516498
403.0, 0.26007439712841
404.0, 0.3016674512003371
405.0, 0.32560449885331627
406.0, 0.32137710122762897
407.0, 0.29224665318526966
408.0, 0.2309875198190236
409.0, 0.1712791907156319
410.0, 0.11986635828842129
411.0, 0.07814926841780898
412.0, 0.046465675655891936
413.0, 0.030059917407140105
414.0, 0.022541853940579913
415.0, 0.015746279206373854
416.0, 0.010706326451486602
417.0, 0.008549125073847436
418.0, 0.008274152978915483
419.0, 0.004064862533971606
420.0, 0.004743574906416877
421.0, 0.006246489821108975
422.0, 0.006917178740094183
423.0, 0.00743105383440372
424.0, 0.008019754844707195
425.0, 0.005902341322836005
426.0, 0.011666320643342377
427.0, 0.017454411918648768
428.0, 0.02648839101968551
429.0, 0.03899767411511357
430.0, 0.054477422148599776
431.0, 0.07314682368177733
432.0, 0.09650253881208708
433.0, 0.11911971858401259
434.0, 0.14841194559967694
435.0, 0.1840449361201429
436.0, 0.22458364788819724
437.0, 0.2683176483113995
438.0, 0.30424056690720724
439.0, 0.3200286419100049
440.0, 0.3152140134965624
441.0, 0.2910654222919645
442.0, 0.2511534917407442
443.0, 0.20285147023273406
444.0, 0.16331871500030384
445.0, 0.13473444076847196
446.0, 0.12476800995047656
447.0, 0.12305375644982817
448.0, 0.1274161515192903
449.0, 0.13541020868113698
450.0, 0.13118736467712291
451.0, 0.11675708737808375
452.0, 0.09579990282102044
453.0, 0.07449482710234248
454.0, 0.054887989272595326
455.0, 0.03853144265205084
456.0, 0.028438869969923508
457.0, 0.025815229182397443
458.0, 0.02123054784849199
459.0, 0.021920878285281074
460.0, 0.024037724982323903
461.0, 0.026447106646417348
462.0, 0.03211416734361452
463.0, 0.038306060300054755
464.0, 0.0474176133482638
465.0, 0.0568018995644502
466.0, 0.06268579909050963
467.0, 0.06421669093153284
468.0, 0.06295530227534313
469.0, 0.06113134574268751
470.0, 0.05622863247103703
471.0, 0.05060707166807277
472.0, 0.05082978784851235
473.0, 0.053381093609740714
474.0, 0.05672322484695925
475.0, 0.06751187065554597
476.0, 0.08531475468354174
477.0, 0.11969096076039301
478.0, 0.16731272032195246
479.0, 0.22282005697857574
480.0, 0.28262829028625813
481.0, 0.34592060518108325
482.0, 0.4133681154485168
483.0, 0.5063873216082505
484.0, 0.645798634592795
485.0, 0.8029806292588304
486.0, 0.9331484283175889
487.0, 0.9999700351006652
488.0, 0.9994711176609327
489.0, 0.9892595426884007
490.0, 0.8790533768297857
491.0, 0.7321340879112624
492.0, 0.5859385451290668
493.0, 0.4602101403830504
494.0, 0.3607184196923156
495.0, 0.29229075365120477
496.0, 0.23582871429342606
497.0, 0.19010490162423535
498.0, 0.1518086325197107
499.0, 0.11918222690635576
500.0, 0.09256563518482457
501.0, 0.07399167679301549
502.0, 0.062191175473549465
503.0, 0.05103421226632717
504.0, 0.042648873680674104
505.0, 0.037018518109120456
506.0, 0.03266179888850967
507.0, 0.028262395712128165
508.0, 0.027881517927827337
509.0, 0.025770049472289894
510.0, 0.02550882545232312
511.0, 0.026187092025634344
512.0, 0.026339400186174537
513.0, 0.02485115296019472
514.0, 0.02155480648364878
515.0, 0.017892920496607838
516.0, 0.015359694267278007
517.0, 0.013379336958007554
518.0, 0.009330005564867964
519.0, 0.00431199547155854
520.0, 0.0025956817461448784
521.0, 0.0026114553277566113
522.0, 0.0024978992858352106
523.0, 0.0023911137374835333
524.0, 0.0011679651318775408
525.0, 2.883994969145601e-05
526.0, 0.0006396115251452581
527.0, 0.0027504820574823646
528.0, 0.0006197780256598281
529.0, 0.00211402171388892
530.0, 0.0023904805297776427
531.0, 0.0025899957056635305
532.0, 0.0036691898571453332
533.0, 0.0045181958002311244
534.0, 0.0015899685022069312
535.0, 0.0031146655579580708
536.0, 0.002389816840446023
537.0, 0.002638433089629575
538.0, 0.00359003644873148
539.0, 0.003509693240064141
540.0, 0.0014516372322151982
541.0, 0.0008463084306648046
542.0, 0.0010013630229523103
543.0, 0.0009198803547850601
544.0, 0.002535972748747399
545.0, 0.004134759350381705
546.0, 0.004534354420027471
547.0, 0.0076648506859907945
548.0, 0.006854297563931014
549.0, 0.00626651974648003
550.0, 0.002503503389980237
551.0, 0.0009289003890757394
552.0, 0.0014912413894057073
553.0, 0.00013760481908224148
554.0, 0.00033618259477392605
555.0, 0.002628577722513875
556.0, 0.004092918112631457
557.0, 0.0067402175625562505
558.0, 0.00997226948501182
559.0, 0.013721816168416796
560.0, 0.019299289987854896
561.0, 0.026135573872741277
562.0, 0.03221298388089449
563.0, 0.03919020505084474
564.0, 0.04291009375926666
565.0, 0.0417753479192516
566.0, 0.03698434519362217
567.0, 0.031141391535066287
568.0, 0.02325972018848435
569.0, 0.015660919676164217
570.0, 0.009187393832173927
571.0, 0.007537607550322889
572.0, 0.008810534039482265
573.0, 0.008202175437561339
574.0, 0.003791717926997384
575.0, 0.003862402174766049
576.0, 0.0038708015388776436
577.0, 0.0025141876205495386
578.0, 0.002405093159193431
579.0, 0.0035428673771313868
580.0, 0.003927228108722777
581.0, 0.0036765359306808938
582.0, 0.006414439806218995
583.0, 0.005843167218582743
584.0, 0.005771116266338544
585.0, 0.006883109908060254
586.0, 0.007866361504858577
587.0, 0.007590320030599338
588.0, 0.008613807826689765
589.0, 0.007975568431471423
590.0, 0.009751668281121163
591.0, 0.007436143336346143
592.0, 0.005774206798187271
593.0, 0.007266365041507764
594.0, 0.00852984816913869
595.0, 0.008653226544626403
596.0, 0.010879591814465107
597.0, 0.014399666962615191
598.0, 0.01789664240875132
599.0, 0.020600706646273743
600.0, 0.023355324499852212
601.0, 0.027937192803591627
602.0, 0.03356112532555142
603.0, 0.04263930023787266
604.0, 0.049048572889458485
605.0, 0.0576079273955011
606.0, 0.06459621616790424
607.0, 0.06878857611031428
608.0, 0.0733376113580608
609.0, 0.06712182654998217
610.0, 0.06394018139503976
611.0, 0.058453844104076856
612.0, 0.051741993629081676
613.0, 0.04896185045710284
614.0, 0.04977324455837804
615.0, 0.04782096543958993
616.0, 0.04840869150924164
617.0, 0.05419695229397621
618.0, 0.05615207543348893
619.0, 0.0598162301410583
620.0, 0.061251750822750785
621.0, 0.05849289191302068
622.0, 0.05633419510095191
623.0, 0.05645665765895136
624.0, 0.05213966767512854
625.0, 0.05539646452422349
626.0, 0.06102457168302297
627.0, 0.06396003877563797
628.0, 0.06462529661830789
629.0, 0.06731355331958912
630.0, 0.06909644502945889
631.0, 0.07340933143547085
632.0, 0.0772784544454764
633.0, 0.08251628538795232
634.0, 0.08964869056748903
635.0, 0.09769437083449785
636.0, 0.1056002611408949
637.0, 0.11523395418347514
638.0, 0.11507693461637154
639.0, 0.11657387260374752
640.0, 0.11363981367601254
641.0, 0.10686900002322242
642.0, 0.09910259492498272
643.0, 0.09249176494703296
644.0, 0.08682867161532067
645.0, 0.07758758490443615
646.0, 0.07667586171020292
647.0, 0.07265631112520098
648.0, 0.0705108364493545
649.0, 0.0746796620884818
650.0, 0.083122946155512
651.0, 0.08876442972767187
652.0, 0.10037901954875574
653.0, 0.10996321610879517
654.0, 0.12389861925116609
655.0, 0.13595835893162844
656.0, 0.142577371929341
657.0, 0.1448516963735795
658.0, 0.14563090515861524
659.0, 0.14123060454677563
660.0, 0.12876677879061899
661.0, 0.1129269030730448
662.0, 0.09426975932410289
663.0, 0.07837852697671478
664.0, 0.06725469177611962
665.0, 0.056334972546748074
666.0, 0.047372422209740576
667.0, 0.043073978694580614
668.0, 0.03767299402858211
669.0, 0.036284182931984724
670.0, 0.0357862081848278
671.0, 0.03283799152386582
672.0, 0.028617717759527164
673.0, 0.02832729222881311
674.0, 0.025176150862684106
675.0, 0.019139634544838895
676.0, 0.019455562472233876
677.0, 0.017208427066220573
678.0, 0.013753421966477712
679.0, 0.013565390441628442
680.0, 0.009126748812998738
681.0, 0.011978535404811239
682.0, 0.01270820386542096
683.0, 0.013501440469557573
684.0, 0.01177404151387369
685.0, 0.009081193270366997
686.0, 0.008347679372728371
687.0, 0.0101949118451215
688.0, 0.011579031511852422
689.0, 0.007812125688121932
690.0, 0.00462561203089002
691.0, 0.0026085173775732984
692.0, 0.003687593455508912
693.0, 0.005572791255784804
694.0, 0.004427543153092734
695.0, 0.002808444090538113
696.0, 0.005128287876015501
697.0, 0.0029401256209546614
698.0, 0.004207502195151562
699.0, 0.005090119947901119
700.0, 0.004887980044107702
701.0, 0.006985184771365908
702.0, 0.013093263461368862
703.0, 0.00942469473393525
704.0, 0.008087478895218918
705.0, 0.01011799770068894
706.0, 0.008615628255739999
707.0, 0.005687844646260992
708.0, 0.004017630690636263
709.0, 0.0032433964849981588
710.0, 0.002209296260368314
711.0, 0.002066651974441653
712.0, 0.0025533892741647518
713.0, 0.002758721761052027
714.0, 0.003162952060073207
715.0, 0.00372515500535568
716.0, 0.004093497319536117
717.0, 0.004028798881373894
718.0, 0.0030295981917183227
719.0, 0.00697355618953741
720.0, 0.007407514261072328
721.0, 0.010198538948966098
722.0, 0.012072386107744547
723.0, 0.01347465576672744
724.0, 0.016695585318289907
725.0, 0.017255170422321362
726.0, 0.019827215117201268
727.0, 0.01852090470903986
728.0, 0.014548133353490771
729.0, 0.011462485730012214
730.0, 0.009236313896194379
731.0, 0.006077873508956341
732.0, 0.0021430237622724335
733.0, 0.002718262642397155
734.0, 0.0010948715940805377
735.0, 0.004443735778756893
736.0, 0.003054725032915318
737.0, 0.0016587475933024071
738.0, 0.0024287216036497925
739.0, 0.0029369572395321892
740.0, 0.0007738608288623476
741.0, 0.000640518451829483
742.0, 0.002495105771754174
743.0, 0.0016357306111829811
744.0, 0.0012918231440176091
745.0, 0.0008814074832420952
746.0, 0.00034386032134671126
747.0, 0.0005881210320303261
748.0, 0.0016207522711283039
749.0, 0.0033769933107192693
750.0, 0.002565958291254824
751.0, 0.0010523149986841746
752.0, 0.0013853313585805288
753.0, 0.0012405858415616556
754.0, 0.0006279864872866841
755.0, 0.0013764582050685788
756.0, 0.000291636140579892
757.0, 0.0014702507283724023
758.0, 0.0006719443131584724
759.0, 0.0010375367580138261
760.0, 0.001846226060348123
761.0, 0.0025371441065902716
762.0, 0.0020798434704602554
763.0, 0.0005413044506960877
764.0, 0.0026643850232200804
765.0, 0.0004392822611115684
766.0, 0.001599574452593554
767.0, 0.0015456903700868656
768.0, 0.0009421728499480484
769.0, 0.0014148915995733278
770.0, 0.0023996335264705186
771.0, 0.0016257771706116872
772.0, 0.00020071970130343495
773.0, 0.00022845788223021702
774.0, 0.0003624900394111435
775.0, 0.0009419071123001962
776.0, 0.0012886500729501957
777.0, 0.0009170799966118771
778.0, 0.000485692543141263
779.0, 0.000911216207830463
780.0, 0.00021590362581813541
781.0, 0.0019344331086011658
782.0, 0.0005127551875246003
783.0, 0.001028326103988697
784.0, 0.0016030897159135047
785.0, 0.001214115095729866
786.0, 0.0008184422839825908
787.0, 0.0016594439956423574
788.0, 0.0028052807635696375
789.0, 0.0006679285057986158
790.0, 0.00022799852694769526
791.0, 0.000620549185437774
792.0, 0.0015522957122234857
793.0, 0.0022647392142884255
794.0, 0.0026054931469225084
795.0, 0.0033084641991245408
796.0, 0.004221692080794035
797.0, 0.002675217624759111
798.0, 0.004600993792917392
799.0, 0.0018688095268346245
800.0, 0.002744180048233726
801.0, 0.0047305911783317245
802.0, 0.0038656667496050207
803.0, 0.00245443640539111
804.0, 0.0027838939726915757
805.0, 0.004510147326209014
806.0, 0.0025871059432321835
807.0, 0.0018227909778295711
808.0, 0.0007764470324286446
809.0, 0.0006110103957280682
810.0, 0.0016773842439646402
811.0, 0.0021336453809430345
812.0, 0.0010874318369425138
813.0, 0.0027603755341319173
814.0, 0.004850420124863003
815.0, 0.003641383492606
816.0, 0.0036871295001183724
817.0, 0.004406347801113569
818.0, 0.005168117877657605
819.0, 0.005921074091029361
820.0, 0.005068354565612585
821.0, 0.004746218237320809
822.0, 0.0036112984757997926
823.0, 0.005740357883610145
824.0, 0.007544652502038545
825.0, 0.006756611616516727
826.0, 0.005457835746998179
827.0, 0.00529117228992701
828.0, 0.004836908323234761
829.0, 0.007993103731087178
830.0, 0.008426195939953295
831.0, 0.008528163856175
832.0, 0.008571740649745536
833.0, 0.008113272650530365
834.0, 0.00904610150973684
835.0, 0.010185965199110837
836.0, 0.008667379900183484
837.0, 0.0088821893105011
838.0, 0.006321441594660894
839.0, 0.009563012731880814
840.0, 0.010327721957355766
841.0, 0.0101595976468772
842.0, 0.011398975370173576
843.0, 0.012958842362178572
844.0, 0.012554373644294427
845.0, 0.011540813209811072
846.0, 0.014617783553873023
847.0, 0.01790135793602216
848.0, 0.01462452422502605
849.0, 0.01628292930612923
850.0, 0.017333097682697675
851.0, 0.017097134350633578
852.0, 0.01796043952961998
853.0, 0.019186592540535362
854.0, 0.018868990862230615
855.0, 0.019708851463782484
856.0, 0.022006480521438367
857.0, 0.023791727163756046
858.0, 0.026603087486949978
859.0, 0.029348813413127398
860.0, 0.03160350672268778
861.0, 0.03393144031134911
862.0, 0.03573630751505462
863.0, 0.035066403766347
864.0, 0.03805921667100699
865.0, 0.03455769361645432
866.0, 0.03430437768478707
867.0, 0.03298790544083172
868.0, 0.03236536711230165
869.0, 0.033565452453856226
870.0, 0.03384164608812784
871.0, 0.03473197367684933
872.0, 0.03754588927984803
873.0, 0.03563878194609528
874.0, 0.037281263417217124
875.0, 0.04187563223127912
876.0, 0.04763404445889959
877.0, 0.05304295245547984
878.0, 0.05776924322648137
879.0, 0.06316418757236827
880.0, 0.0715994446916473
881.0, 0.07758900333206675
882.0, 0.08889229372707064
883.0, 0.09895945654218494
884.0, 0.10870050942376054
885.0, 0.12312006803466444
886.0, 0.14040214990686328
887.0, 0.15792208852108996
888.0, 0.17794929800827486
889.0, 0.1878763779525304
890.0, 0.2008623725608967
891.0, 0.2089684148703902
892.0, 0.20560658970999732
893.0, 0.1909213890224919
894.0, 0.1755967449255968
895.0, 0.15939115336869383
896.0, 0.13946869046988936
897.0, 0.12820218620803359
898.0, 0.11747230265512533
899.0, 0.10964700116449351
900.0, 0.10161705926297915
901.0, 0.09718355312874317
902.0, 0.09347275080829659
903.0, 0.08890729249717208
904.0, 0.08476561763892208
905.0, 0.0813551020474529
906.0, 0.07503601385077067
907.0, 0.06694369241146435
908.0, 0.06249125229742742
909.0, 0.05966543856644917
910.0, 0.056611686878760864
911.0, 0.05302117413072648
912.0, 0.049320198156577934
913.0, 0.04769954803525319
914.0, 0.04824337286898561
915.0, 0.04647649009717995
916.0, 0.04859581719112349
917.0, 0.04807698526902276
918.0, 0.04766054480352106
919.0, 0.050466350178591045
920.0, 0.05213737925729857
921.0, 0.054275290643355026
922.0, 0.056897137332870856
923.0, 0.05927319835093089
924.0, 0.06477090482167955
925.0, 0.065543914555933
926.0, 0.06834110583481945
927.0, 0.0762811118566935
928.0, 0.08231393196867473
929.0, 0.0906550118336178
930.0, 0.1002094986302898
931.0, 0.10976588069285922
932.0, 0.12207659452804516
933.0, 0.13860196779090658
934.0, 0.14874506569465865
935.0, 0.16712939806280303
936.0, 0.18361505967195169
937.0, 0.19821096003679187
938.0, 0.21436641883036361
939.0, 0.23140414141474533
940.0, 0.24693109738274868
941.0, 0.26140646382006366
942.0, 0.27792926440317905
943.0, 0.295710219573741
944.0, 0.3130261571232847
945.0, 0.3191309506260898
946.0, 0.334261774615187
947.0, 0.3443984421375593
948.0, 0.3505124860517124
949.0, 0.3542534368613238
950.0, 0.35618067681290877
951.0, 0.35901168558785596
952.0, 0.366506047735286
953.0, 0.37686952461042567
954.0, 0.3824293247621045
955.0, 0.39619995942078023
956.0, 0.4115856703151186
957.0, 0.4317261610598147
958.0, 0.4503287400559346
959.0, 0.4678126504728365
960.0, 0.4907206022072681
961.0, 0.5134895501290087
962.0, 0.5126647540001149
963.0, 0.5058378285397914
964.0, 0.49277204035901456
965.0, 0.46331101177122064
966.0, 0.42826279941088363
967.0, 0.3877596966912972
968.0, 0.3468336939810844
969.0, 0.3074947924075595
970.0, 0.2668302117511996
971.0, 0.23151569126403518
972.0, 0.21133424633553188
973.0, 0.18030950402134185
974.0, 0.15652845372732604
975.0, 0.1372986862006592
976.0, 0.12286870382966933
977.0, 0.11056891762762909
978.0, 0.09765270358631858
979.0, 0.08590185387321266
980.0, 0.07905792469175114
981.0, 0.07274516356493306
982.0, 0.06500901659807595
983.0, 0.05656092552611186
984.0, 0.05572892194057172
985.0, 0.051217887202337734
986.0, 0.05088432233713727
987.0, 0.04794318336542008
988.0, 0.043502699534339405
989.0, 0.044869328330821204
990.0, 0.044956033515853734
991.0, 0.041997664203871035
992.0, 0.047719322249359326
993.0, 0.05174410137872673
994.0, 0.05333565168603405
995.0, 0.06258429493938553
996.0, 0.07056939944993504
997.0, 0.0824163360391385
998.0, 0.09784461037421177
999.0, 0.11001463247614499
1000.0, 0.12623534164003855
1001.0, 0.14162332315166287
1002.0, 0.15407390482003838
1003.0, 0.14779972212585246
1004.0, 0.1395669303952929
1005.0, 0.12579904396119185
1006.0, 0.10556762149052078
1007.0, 0.08559667793876904
1008.0, 0.07014110331091605
1009.0, 0.05810347549102271
1010.0, 0.04972364278229601
1011.0, 0.04249647475550752
1012.0, 0.033025508521404914
1013.0, 0.027622973633675295
1014.0, 0.028097432511986063
1015.0, 0.02383221911084489
1016.0, 0.02003751071018116
1017.0, 0.01917100335054683
1018.0, 0.0185128932247472
1019.0, 0.01736852530523001
1020.0, 0.018069301358657586
1021.0, 0.015711641517605617
1022.0, 0.01574128234821979
1023.0, 0.01414476931501847
1024.0, 0.014852163443258097
1025.0, 0.01252360059053327
1026.0, 0.013739030175827317
1027.0, 0.013342067497586292
1028.0, 0.010252346147133724
1029.0, 0.009795518828281008
1030.0, 0.010335868507747923
1031.0, 0.00970428054828269
1032.0, 0.009864403077985707
1033.0, 0.005630089704110783
1034.0, 0.0063800035806477326
1035.0, 0.003185404669811218
1036.0, 0.00234203381545227
1037.0, 0.0027059330217875373
1038.0, 0.002475791341925593
1039.0, 0.001900677849827862
1040.0, 0.0014186327637856653
1041.0, 0.003155482866740794
1042.0, 0.0008931658111296928
1043.0, 0.0021228826391335607
1044.0, 0.002387718997396586
1045.0, 0.0019708318787186453
1046.0, 0.003707400532137837
1047.0, 0.0026089889975250387
1048.0, 0.00042814855120883774
1049.0, 0.0010817440085606437
1050.0, 0.00243865815835567
1051.0, 0.000923172418601668
1052.0, 0.0018748418915946403
1053.0, 0.0019397540258184105
1054.0, 0.001099757049323417
1055.0, 0.0006984507492255236
1056.0, 0.0010272661615621046
1057.0, 0.0008303988452155434
1058.0, 0.0006522972012758053
1059.0, 0.0005102439607602845
1060.0, 0.0006133524225900274
1061.0, 0.001366442467002005
1062.0, 0.0006390508259716764
1063.0, 0.001487596935154972
1064.0, 0.00011509837401038224
1065.0, 0.0008116879200488482
1066.0, 0.0008635345728095314
1067.0, 0.000493050521315503
1068.0, 0.001245753568800771
1069.0, 0.0016146550086343372
1070.0, 0.0019891851223986755
1071.0, 0.002498731932166275
1072.0, 0.001102062426410201
1073.0, 0.0032174243642178017
1074.0, 0.002311821974839312
1075.0, 0.002745072566977017
1076.0, 0.006501221251008312
1077.0, 0.004322779279594756
1078.0, 0.004238943502437719
1079.0, 0.004230701402418359
1080.0, 0.0052355507770986695
1081.0, 0.007551619406078703
1082.0, 0.008154580141996905
1083.0, 0.007191714730813819
1084.0, 0.007396170721543076
1085.0, 0.008479170372721407
1086.0, 0.006157335859493508
1087.0, 0.009035924441725513
1088.0, 0.008630250494918282
1089.0, 0.004780888190458296
1090.0, 0.0016251766984487943
1091.0, 0.002482739752233565
1092.0, 0.004320656091128128
1093.0, 0.0035830433040275923
1094.0, 0.0032791646318469695
1095.0, 0.0033969399682847864
1096.0, 0.0035552364957994213
1097.0, 0.004637693516436095
1098.0, 0.0057197939577879895
1099.0, 0.0035449818517910054
1100.0, 0.005590253432069639
1101.0, 0.004854983288767758
1102.0, 0.001999738491636275
1103.0, 0.0017648964159818325
1104.0, 0.002586821278184053
1105.0, 0.0010686237024248547
1106.0, 0.0026420808694053756
1107.0, 0.007409870129262412
1108.0, 0.0017148223201167117
1109.0, 0.003490329438210165
1110.0, 0.0015348991709862138
1111.0, 0.002454707405029384
1112.0, 0.003429176214824581
1113.0, 0.0031615121253317827
1114.0, 0.002983100503668101
1115.0, 0.0035325733893378382
1116.0, 0.004033133378685454
1117.0, 0.004144316621432576
1118.0, 0.004433126413681016
1119.0, 0.004265660753197027
1120.0, 0.004843258643509407
1121.0, 0.004017719043975186
1122.0, 0.003997718783136033
1123.0, 0.004221631696937428
1124.0, 0.003984150231463456
1125.0, 0.004366996933177594
1126.0, 0.005248609230758893
1127.0, 0.005590994471045617
1128.0, 0.005064739293777395
1129.0, 0.002018366711535228
1130.0, 0.005515067660246344
1131.0, 0.002582711551159088
1132.0, 0.0009107815156173632
1133.0, 0.002056611447472648
1134.0, 0.0029505244695213696
1135.0, 0.005212158731081176
1136.0, 0.004103555435415408
1137.0, 0.003100912029708765
1138.0, 0.0037090405713935447
1139.0, 0.0014265575207273184
1140.0, 0.0007957262962190617
1141.0, 0.0022435178249434534
1142.0, 0.0007117184837137672
1143.0, 0.0015770281744902914
1144.0, 0.0017629855897966277
1145.0, 0.0004754160635492101
1146.0, 0.001694913675981949
1147.0, 0.0019040511866091057
1148.0, 0.001872301162524066
1149.0, 0.0017710563496775066
1150.0, 0.0015944964460997873
1151.0, 0.0017904151126893705
1152.0, 0.00025271383807841727
1153.0, 0.0013900331893517324
1154.0, 0.0025128793018908704
1155.0, 0.0028371461862497466
1156.0, 0.0021076883166811773
1157.0, 0.0028994279712725285
1158.0, 0.0017782690234045017
1159.0, 0.0015042639951075602
1160.0, 0.0021805562216586855
1161.0, 0.002497442565144016
1162.0, 0.0019334211872723695
1163.0, 0.0008626294423624645
1164.0, 0.0003121974493537278
1165.0, 0.0004997874726342687
1166.0, 0.0010264826317696364
1167.0, 0.0040487079040979115
1168.0, 0.0016195914554433953
1169.0, 0.0031505302555211332
1170.0, 0.001200528273941134
1171.0, 0.0013462717963976627
1172.0, 0.001959965409104986
1173.0, 0.0017611528838614666
1174.0, 0.002018773376488774
1175.0, 0.002515286377560759
1176.0, 0.0030098657980570575
1177.0, 0.0055578699963034295
1178.0, 0.004500273550099937
1179.0, 0.0068367999326765586
1180.0, 0.0025229868945050816
1181.0, 0.006153670995531997
1182.0, 0.006761581041131892
1183.0, 0.003671060248391779
1184.0, 0.0021019741212743174
1185.0, 0.001418834229891088
1186.0, 0.0006520443992727629
1187.0, 0.0008931007034774311
1188.0, 0.002688694222938083
1189.0, 0.0046829552279339555
1190.0, 0.0019912734159120873
1191.0, 0.0047650149425893604
1192.0, 0.001379930964894015
1193.0, 0.0004963233895841633
1194.0, 0.0017986412281753438
1195.0, 0.0026322125509400307
1196.0, 0.0027272212696565386
1197.0, 0.002207946417047982
1198.0, 0.0038200930826283105
1199.0, 0.004167250432182841
1200.0, 0.00196579183914506
1201.0, 0.0026061052997185027
1202.0, 0.0033113788784837036
1203.0, 0.004576185236512756
1204.0, 0.003977746373706834
1205.0, 0.00024197584086610977
1206.0, 0.0038923426340473997
1207.0, 0.00378895844907186
1208.0, 0.0015321442106691172
1209.0, 0.001611682937761958
1210.0, 0.0025754014729608694
1211.0, 0.00388237052136259
1212.0, 0.004883137137774087
1213.0, 0.0033686019679155855
1214.0, 0.0013953139588948236
1215.0, 0.0038941895327562234
1216.0, 0.0024951870034406105
1217.0, 0.002037617234299167
1218.0, 0.00720961438342229
1219.0, 0.006423594227347734
1220.0, 0.0034221606107847696
1221.0, 0.004239513604698884
1222.0, 0.002788253327768825
1223.0, 0.0028313581512780534
1224.0, 0.004630351769593818
1225.0, 0.00560499656158538
1226.0, 0.006500776767295597
1227.0, 0.008319983925242027
1228.0, 0.00816487801717027
1229.0, 0.006009608237645681
1230.0, 0.0060035328823252795
1231.0, 0.0038534868646158626
1232.0, 0.007033826267083214
1233.0, 0.008148475318643739
1234.0, 0.009313858708041044
1235.0, 0.011254403792119998
1236.0, 0.010268974997846264
1237.0, 0.009890678206780018
1238.0, 0.011740489174843523
1239.0, 0.011590228008802486
1240.0, 0.009719925103860603
1241.0, 0.010958426884068423
1242.0, 0.012538765213423108
1243.0, 0.01299209802797612
1244.0, 0.012680548430402026
1245.0, 0.006668542932963904
1246.0, 0.014544490542971243
1247.0, 0.009323540094792275
1248.0, 0.009448311368108715
1249.0, 0.011159125280158024
1250.0, 0.010581141864281622
1251.0, 0.008672921981021446
1252.0, 0.010566558163358586
1253.0, 0.012002561467881822
1254.0, 0.009547031579641112
1255.0, 0.010269349322023743
1256.0, 0.013597132078127759
1257.0, 0.01392253544801297
1258.0, 0.010811038330183783
1259.0, 0.010416677543344228
1260.0, 0.012208736483033054
1261.0, 0.013281526652667396
1262.0, 0.012770603328344593
1263.0, 0.014372491729420376
1264.0, 0.015548232556955371
1265.0, 0.015483401772878626
1266.0, 0.017002739333689423
1267.0, 0.018729737202195704
1268.0, 0.017598768793528494
1269.0, 0.016024711655696033
1270.0, 0.01645344079351479
1271.0, 0.014852834442124822
1272.0, 0.015572969057912885
1273.0, 0.015564415597945067
1274.0, 0.016800514925630828
1275.0, 0.016532863805399915
1276.0, 0.01638740262068997
1277.0, 0.01745209590913425
1278.0, 0.016160630618942816
1279.0, 0.01542329207589485
1280.0, 0.01327386961601817
1281.0, 0.012430639221375502
1282.0, 0.013462404090766837
1283.0, 0.012120733873224796
1284.0, 0.0112933162698474
1285.0, 0.015721480740205858
1286.0, 0.013832696409126747
1287.0, 0.009267242472832463
1288.0, 0.01473898116768736
1289.0, 0.014519530076583121
1290.0, 0.01599501477836788
1291.0, 0.014831256238347476
1292.0, 0.016857459158703954
1293.0, 0.018836943350567008
1294.0, 0.014799781032263839
1295.0, 0.01703083553469707
1296.0, 0.0190541595846152
1297.0, 0.018280180889593253
1298.0, 0.019646170066646634
1299.0, 0.01849478000722886
1300.0, 0.016868358200133795
1301.0, 0.016651625796944427
1302.0, 0.017043672540420204
1303.0, 0.019878451151850038
1304.0, 0.01847389411381944
1305.0, 0.01735864662847538
1306.0, 0.018860370230674942
1307.0, 0.017341566514364058
1308.0, 0.01724916312511601
1309.0, 0.018554830345235487
1310.0, 0.0188474217520443
1311.0, 0.02234256388203523
1312.0, 0.02373671758561915
1313.0, 0.021753666497565372
1314.0, 0.022699288188668974
1315.0, 0.02258686737194662
1316.0, 0.020806029249365643
1317.0, 0.025293455789693914
1318.0, 0.02021872839407864
1319.0, 0.02132161007681607
1320.0, 0.02364732967956005
1321.0, 0.020601477585711868
1322.0, 0.018215313143793044
1323.0, 0.020013722976918242
1324.0, 0.022417289717608684
1325.0, 0.019142466241030175
1326.0, 0.01737757251258055
1327.0, 0.015300397758407363
1328.0, 0.011661223265149087
1329.0, 0.011675203244333464
1330.0, 0.013286118945121352
1331.0, 0.011316423406093097
1332.0, 0.011017633782383211
1333.0, 0.010031207670998741
1334.0, 0.008247970256240137
1335.0, 0.009530003604909422
1336.0, 0.012253887686287709
1337.0, 0.008651402076081526
1338.0, 0.008488754028873955
1339.0, 0.009271396150464989
1340.0, 0.013419412113937611
1341.0, 0.011663774944025098
1342.0, 0.012439759275196442
1343.0, 0.009614360255970528
1344.0, 0.006550206224816548
1345.0, 0.0064603664841468246
1346.0, 0.006166956827044497
1347.0, 0.006255304336795799
1348.0, 0.0063943051111779725
1349.0, 0.0068988616302584575
1350.0, 0.005286552644753008
1351.0, 0.004784266612315308
1352.0, 0.0041475228232161244
1353.0, 0.007214530933507845
1354.0, 0.0049923052561241564
1355.0, 0.004837543296819294
1356.0, 0.007101326256120978
1357.0, 0.005587014822891677
1358.0, 0.007751740451465266
1359.0, 0.007726766142247281
1360.0, 0.006085872813942628
1361.0, 0.006939917626636999
1362.0, 0.007092899208738216
1363.0, 0.005970638930002236
1364.0, 0.005333298587400225
1365.0, 0.004950828439466239
1366.0, 0.00902763033754739
1367.0, 0.006273816378067038
1368.0, 0.007024477485393304
1369.0, 0.006222243236844538
1370.0, 0.0036283465558783513
1371.0, 0.007214546499619877
1372.0, 0.005322688791445398
1373.0, 0.006882006020742468
1374.0, 0.008839443721933167
1375.0, 0.006406609041291673
1376.0, 0.005355927297372886
1377.0, 0.00574754582344905
1378.0, 0.0058690096729081065
1379.0, 0.006331835347854126
1380.0, 0.007054835611302866
1381.0, 0.007715879884335994
1382.0, 0.008516315630299112
1383.0, 0.008608505270517255
1384.0, 0.008445779946866433
1385.0, 0.008723171720072111
1386.0, 0.005832599894955192
1387.0, 0.0020759545772847023
1388.0, 0.005821969277815141
1389.0, 0.0017547412358340617
1390.0, 0.005997264495497357
1391.0, 0.003136661353098155
1392.0, 0.004243415272393334
1393.0, 0.0037326423545827095
1394.0, 0.004994591737461768
1395.0, 0.005263742152411299
1396.0, 0.003456874133007931
1397.0, 0.003081639057464422
1398.0, 0.00355761865995619
1399.0, 0.0021492114624835773
1400.0, 0.0011464888388002191
1401.0, 0.003090363222097924
1402.0, 0.0036640166649495416
1403.0, 0.00033637461534616336
1404.0, 0.0001863850099518927
1405.0, 0.0009749077541032843
1406.0, 0.0040273125146421855
1407.0, 0.006632670978575722
1408.0, 0.0027279809248811136
1409.0, 0.005717527810239675
1410.0, 0.0009112159475833056
1411.0, 0.0032470801460374003
1412.0, 0.0022831712323937354
1413.0, 0.0062750396170561966
1414.0, 0.0029691488090517974
1415.0, 0.0020292656218519963
1416.0, 0.005956731205243553
1417.0, 0.005363598979180778
1418.0, 0.002554657537913576
1419.0, 0.001778690726692574
1420.0, 0.0011685414007633899
1421.0, 0.0012057032959050865
1422.0, 0.0007523034777969276
1423.0, 0.0026956796607264196
1424.0, 0.005510593006583634
1425.0, 0.00600719819041343
1426.0, 0.003594946174425298
1427.0, 0.005500130261549885
1428.0, 0.002125414868118568
1429.0, 0.008220266936700686
1430.0, 0.007161623934556613
1431.0, 0.007228849743056559
1432.0, 0.00734026856025431
1433.0, 0.007876059095809603
1434.0, 0.008833306724454993
1435.0, 0.009519202534667799
1436.0, 0.011147911917420684
1437.0, 0.011987283534373627
1438.0, 0.012682369868075308
1439.0, 0.014390496250418551
1440.0, 0.017165275442393952
1441.0, 0.02054821309608182
1442.0, 0.02348510411287597
1443.0, 0.02768949518319681
1444.0, 0.029400514019683188
1445.0, 0.026585306475737345
1446.0, 0.02898122140090495
1447.0, 0.025759122725189147
1448.0, 0.03242530692204262
1449.0, 0.02540627792605037
1450.0, 0.03447454357644732
1451.0, 0.03308867479116737
1452.0, 0.03420552069000798
1453.0, 0.03528440586785856
1454.0, 0.03196371618564465
1455.0, 0.03196890340347237
1456.0, 0.03367449484492203
1457.0, 0.03283326240197049
1458.0, 0.03251152392623436
1459.0, 0.03343836430339735
1460.0, 0.03249195188768633
1461.0, 0.029746773728801995
1462.0, 0.027085842199125444
1463.0, 0.025997318770049013
1464.0, 0.026650570281453533
1465.0, 0.025611616861574392
1466.0, 0.024215203785191597
1467.0, 0.023692722225573636
1468.0, 0.02140564014033895
1469.0, 0.02162886896163138
1470.0, 0.019996102461803694
1471.0, 0.02064552979914372
1472.0, 0.01687589362050061
1473.0, 0.015483770927713686
1474.0, 0.013327384980144453
1475.0, 0.010307960452396108
1476.0, 0.011425434439283556
1477.0, 0.014102662431059527
1478.0, 0.015255524407241322
1479.0, 0.015465795044745462
1480.0, 0.013999414335099908
1481.0, 0.013169064049672675
1482.0, 0.014942799879690464
1483.0, 0.014350279157600836
1484.0, 0.01301952610737017
1485.0, 0.011193165762391042
1486.0, 0.007897432106790836
1487.0, 0.008319982391534062
1488.0, 0.007905640665983054
1489.0, 0.006859193288366771
1490.0, 0.00568122187282253
1491.0, 0.00407879377120448
1492.0, 0.004953766244244517
1493.0, 0.002990466880490981
1494.0, 0.006258882938730412
1495.0, 0.005804106758240709
1496.0, 0.005273164038301364
1497.0, 0.004006462289886179
1498.0, 0.001421593895651619
1499.0, 0.003450917801786498
1500.0, 0.004739234986213894
1501.0, 0.004410928795851649
1502.0, 0.0023579862729867437
1503.0, 0.003960642954083877
1504.0, 0.0021006913254379227
1505.0, 0.0007368736274693605
1506.0, 0.0010766387529811301
1507.0, 0.002287128894764645
1508.0, 0.001784760281446275
1509.0, 0.0004052981567487456
1510.0, 0.00025955228856525993
1511.0, 0.00041174415463366814
1512.0, 0.00039687747141252844
1513.0, 0.00021626036924806221
1514.0, 0.0015160522708274403
1515.0, 0.0038786250543929816
1516.0, 0.004483155063905358
1517.0, 0.004790052879435427
1518.0, 0.005867985297269173
1519.0, 0.004000337900794475
1520.0, 0.005024492364432929
1521.0, 0.0052711107997141255
1522.0, 0.0054416256098944165
1523.0, 0.003933993047970572
1524.0, 0.003952972325213721
1525.0, 0.004509191637958368
1526.0, 0.004589123903891274
1527.0, 0.00554791520643573
1528.0, 0.005309428866543267
1529.0, 0.005609319029081735
1530.0, 0.004575355335136848
1531.0, 0.004865357498646141
1532.0, 0.005768657494457849
1533.0, 0.0035516728132754718
1534.0, 0.005319237673839764
1535.0, 0.007560138728131156
1536.0, 0.006761188706442917
1537.0, 0.004941415089270125
1538.0, 0.0038338413306260393
1539.0, 0.0026693864970967263
1540.0, 0.0010281907997655103
1541.0, 0.0030175609987882117
1542.0, 0.004872509027449259
1543.0, 0.005245733793708226
1544.0, 0.0044834552315527595
1545.0, 0.007437702126220542
1546.0, 0.0051372498548606866
1547.0, 0.007142103869908017
1548.0, 0.004051040114958063
1549.0, 0.000673922888373784
1550.0, 0.004014308865528711
1551.0, 0.0028831012377491354
1552.0, 0.0011491021632274384
1553.0, 0.0055697355514012
1554.0, 0.008688458514277183
1555.0, 0.0077895669931001815
1556.0, 0.0055627094379253885
1557.0, 0.0025982690295736923
1558.0, 0.007366012643710843
1559.0, 0.0036582333688210617
1560.0, 0.006650180664975973
1561.0, 0.0026391065325966755
1562.0, 0.0036479028880347553
1563.0, 0.0020374955052070098
1564, 0.0
1565, 0.0
1566, 0.0
1567, 0.0
1568, 0.0
1569, 0.0
1570, 0.0
1571, 0.0
1572, 0.0
1573, 0.0
1574, 0.0
1575, 0.0
1576, 0.0
1577, 0.0
1578, 0.0
1579, 0.0
1580, 0.0
1581, 0.0
1582, 0.0
1583, 0.0
1584, 0.0
1585, 0.0
1586, 0.0
1587, 0.0
1588, 0.0
1589, 0.0
1590, 0.0
1591, 0.0
1592, 0.0
1593, 0.0
1594, 0.0
1595, 0.0
1596, 0.0
1597, 0.0
1598, 0.0
1599, 0.0
