30, 0.0
31, 0.0
32, 0.0
33, 0.0
34, 0.0
35, 0.0
36, 0.0
37, 0.0
38, 0.0
39, 0.0
40, 0.0
41, 0.0
42, 0.0
43, 0.0
44, 0.0
45, 0.0
46, 0.0
47, 0.0
48, 0.0
49, 0.0
50, 0.0
51, 0.0
52, 0.0
53, 0.0
54, 0.0
55, 0.0
56, 0.0
57, 0.0
58, 0.0
59, 0.0
60, 0.0
61, 0.0
62, 0.0
63, 0.0
64, 0.0
65, 0.0
66, 0.0
67, 0.0
68, 0.0
69, 0.0
70, 0.0
71, 0.0
72, 0.0
73, 0.0
74, 0.0
75, 0.0
76, 0.0
77, 0.0
78, 0.0
79, 0.0
80, 0.0
81, 0.0
82, 0.0
83, 0.0
84, 0.0
85, 0.0
86, 0.0
87, 0.0
88, 0.0
89, 0.0
90, 0.0
91, 0.0
92, 0.0
93, 0.0
94, 0.0
95, 0.0
96, 0.0
97, 0.0
98, 0.0
99, 0.0
100, 0.0
101, 0.0
102, 0.0
103, 0.0
104, 0.0
105, 0.0
106, 0.0
107, 0.0
108, 0.0
109, 0.0
110, 0.0
111, 0.0
112, 0.0
113, 0.0
114, 0.0
115, 0.0
116, 0.0
117, 0.0
118, 0.0
119.0, 0.001878588293532749
120.0, 0.02128103130142427
121.0, 0.08867054714834775
122.0, 0.2096541835557605
123.0, 0.33572156229207706
124.0, 0.4349551168267156
125.0, 0.5103781359339244
126.0, 0.5817512452537404
127.0, 0.6134280096360297
128.0, 0.5894001751736342
129.0, 0.5587414763420125
130.0, 0.5376622294031898
131.0, 0.5192904943278303
132.0, 0.4810650722401255
133.0, 0.4551977948747601
134.0, 0.45943540626054874
135.0, 0.44449241967964703
136.0, 0.4578278030032768
137.0, 0.49068135317140715
138.0, 0.5218157312031435
139.0, 0.5277056842205461
140.0, 0.5355156497476475
141.0, 0.5226854671838816
142.0, 0.4881371240300184
143.0, 0.46504496144023355
144.0, 0.45422306793121187
145.0, 0.4457166467622503
146.0, 0.4309960126745594
147.0, 0.4074727257187112
148.0, 0.39443773502640433
149.0, 0.3866244519721149
150.0, 0.37863976574783836
151.0, 0.3675604284788845
152.0, 0.3548227708290036
153.0, 0.35502472377127037
154.0, 0.3646470899914804
155.0, 0.37070191337455877
156.0, 0.3456991839602778
157.0, 0.3284576475166912
158.0, 0.323691485729139
159.0, 0.3217350420368035
160.0, 0.30784578945040464
161.0, 0.2880788544295676
162.0, 0.2681175775497003
163.0, 0.25787243118614706
164.0, 0.2633632864696426
165.0, 0.243024721399429
166.0, 0.22250960953765397
167.0, 0.20962320988898245
168.0, 0.19954761862428033
169.0, 0.18793831078404216
170.0, 0.18230775818035766
171.0, 0.17940773125172893
172.0, 0.17093191522748338
173.0, 0.1562656254446158
174.0, 0.14578753798386307
175.0, 0.13847137492622863
176.0, 0.13093715955158255
177.0, 0.11941109676496252
178.0, 0.11320853350244532
179.0, 0.10453421621959867
180.0, 0.09004298733201654
181.0, 0.07281719767758371
182.0, 0.06535281764843541
183.0, 0.05690784057521283
184.0, 0.05963615485147035
185.0, 0.07260694065335006
186.0, 0.05993177484365089
187.0, 0.06674373567046929
188.0, 0.0734807663579195
189.0, 0.06705012741921251
190.0, 0.06111871285710735
191.0, 0.061296237930493186
192.0, 0.058524799265510165
193.0, 0.05205900534281815
194.0, 0.04580559588806952
195.0, 0.0375705504608861
196.0, 0.036378529207706234
197.0, 0.03932081880156724
198.0, 0.03898784799101741
199.0, 0.032167987307031576
200.0, 0.022239353737085788
201.0, 0.013784898612617884
202.0, 0.016360488073494026
203.0, 0.011296727594073387
204.0, 0.01078969862544866
205.0, 0.01127933849567956
206.0, 0.008764890071339081
207.0, 0.005006824451685373
208.0, 0.007500492757810728
209.0, 0.007331814667895642
210.0, 0.0018456522069743384
211.0, 0.0023545612578508113
212.0, 0.004912376547516546
213.0, 0.007418177608446663
214.0, 0.009952957094589607
215.0, 0.014063662004472875
216.0, 0.02132166835926813
217.0, 0.01407015206066671
218.0, 0.013525264408561328
219.0, 0.01760269619285949
220.0, 0.01766430485010524
221.0, 0.026659651916219815
222.0, 0.03354386528651066
223.0, 0.029100735207781975
224.0, 0.015503205319933981
225.0, 0.009184869525085978
226.0, 0.0015436420637067458
227.0, 0.0024789432206407075
228.0, 0.002074261846840259
229.0, 0.0023007858525672517
230.0, 0.005937915259172009
231.0, 0.009972664361500686
232.0, 0.008965821432956537
233.0, 0.0065229535478196436
234.0, 0.029566184895082535
235.0, 0.03258785317204102
236.0, 0.03805557993943321
237.0, 0.050760145223837476
238.0, 0.05298064458385773
239.0, 0.05690213236929476
240.0, 0.05559723609857149
241.0, 0.056444437128513096
242.0, 0.06604444259900119
243.0, 0.07434450838775788
244.0, 0.08322890841026326
245.0, 0.08819498569537726
246.0, 0.09021099559666813
247.0, 0.09618993722801142
248.0, 0.10869969480875755
249.0, 0.11606582822770267
250.0, 0.1155767370847745
251.0, 0.11460740745039832
252.0, 0.13514533705444345
253.0, 0.13356948145202657
254.0, 0.1315561421091916
255.0, 0.14169610241967565
256.0, 0.15044665146189867
257.0, 0.14968151575979222
258.0, 0.1572068933246304
259.0, 0.16682900147045993
260.0, 0.16477540219390238
261.0, 0.15996790766559701
262.0, 0.15381492568211766
263.0, 0.15230232275843036
264.0, 0.14849326099310256
265.0, 0.14404456788522468
266.0, 0.14087009354368174
267.0, 0.13603262286292803
268.0, 0.13460087329460788
269.0, 0.12949938103856143
270.0, 0.13156768307447197
271.0, 0.132976203025073
272.0, 0.1260591247477395
273.0, 0.11724304165379129
274.0, 0.12130279759633848
275.0, 0.11651196546433333
276.0, 0.10464322588579959
277.0, 0.09522453326056858
278.0, 0.09409071174267376
279.0, 0.0893057057715076
280.0, 0.08456750436615336
281.0, 0.07906785657176978
282.0, 0.06883613856266652
283.0, 0.050862085449691063
284.0, 0.0466373783418332
285.0, 0.05289031489002984
286.0, 0.05425535975903065
287.0, 0.044911525501377246
288.0, 0.042952314544547655
289.0, 0.043466400368886396
290.0, 0.04191732212352588
291.0, 0.03216619077327029
292.0, 0.015906444339556798
293.0, 0.015299004393280895
294.0, 0.02468765215519497
295.0, 0.030404493840598134
296.0, 0.029246168518497158
297.0, 0.02966904098369588
298.0, 0.016116026644857204
299.0, 0.010640052489279553
300.0, 0.010930291470617701
301.0, 0.006226307475621117
302.0, 0.006105097255545015
303.0, 0.007523056899925782
304.0, 0.006488135012570142
305.0, 0.004308675681269528
306.0, 0.004676178668019051
307.0, 0.001193237946933623
308.0, 0.006160206768352059
309.0, 0.0033464812398687174
310.0, 0.008091288727704387
311.0, 0.00751353285833503
312.0, 0.001389916396767296
313.0, 0.010784829523207681
314.0, 0.010375327942686278
315.0, 0.003997382013458858
316.0, 0.00852069783206934
317.0, 0.007856365424562235
318.0, 0.0033044855367068485
319.0, 0.006256533856688689
320.0, 0.002806185834883047
321.0, 0.009989619064664019
322.0, 0.019266864041167127
323.0, 0.01981890716152898
324.0, 0.010856611488159548
325.0, 0.020164033563927215
326.0, 0.03952950258704088
327.0, 0.03137082730554246
328.0, 0.011995417074518006
329.0, 0.01728953868616011
330.0, 0.02078431151358104
331.0, 0.00936829016942689
332.0, 0.005195579246686825
333.0, 0.013008347457999225
334.0, 0.010386232658366596
335.0, 0.002875839724354665
336.0, 0.005238410862492959
337.0, 0.0065438112645208445
338.0, 0.0014483941799295053
339.0, 0.01088059057276732
340.0, 0.016843480618947207
341.0, 0.016123400535394967
342.0, 0.007179307014539102
343.0, 0.004569196937439523
344.0, 0.0039117626255768334
345.0, 0.01495034160985801
346.0, 0.018364202771605
347.0, 0.0178056695523992
348.0, 0.020825411414133344
349.0, 0.014254038546201463
350.0, 0.013303307025984227
351.0, 0.019635124073483095
352.0, 0.02551090912840437
353.0, 0.02142242000565141
354.0, 0.023594158541725516
355.0, 0.029156271501395232
356.0, 0.03500716982609459
357.0, 0.04056429952181974
358.0, 0.048722356627249566
359.0, 0.06619444876631236
360.0, 0.07455304726974515
361.0, 0.07824277857992284
362.0, 0.08556565486990633
363.0, 0.08024841114812771
364.0, 0.08621208598015005
365.0, 0.09768160864292702
366.0, 0.10301396065680234
367.0, 0.09684258860960941
368.0, 0.12062330015367158
369.0, 0.13674447413486193
370.0, 0.15125321785003434
371.0, 0.16582717482446774
372.0, 0.17143412138735303
373.0, 0.17707552052542586
374.0, 0.18961937645554403
375.0, 0.20150927285090783
376.0, 0.21333653653294127
377.0, 0.23754606445170198
378.0, 0.23581259325522458
379.0, 0.24595364105366252
380.0, 0.26668434067836316
381.0, 0.28752050599224654
382.0, 0.3203864959975736
383.0, 0.35302915661868683
384.0, 0.37249172170751726
385.0, 0.3871076215254388
386.0, 0.41369932196668596
387.0, 0.4532488496562665
388.0, 0.4795609204338477
389.0, 0.5057096598783956
390.0, 0.5404008556597907
391.0, 0.5815405551621123
392.0, 0.6264517565944686
393.0, 0.6682519428388546
394.0, 0.7061970457418476
395.0, 0.7412969411702972
396.0, 0.7762957078850422
397.0, 0.8207871068848686
398.0, 0.8534894585891172
399.0, 0.8791703127490047
400.0, 0.9108780863278361
401.0, 0.9551983405881492
402.0, 0.9878607800846841
403.0, 0.9966886421415336
404.0, 0.9981960720677558
405.0, 0.9997193715191459
406.0, 0.9955686174439291
407.0, 0.9969319403065908
408.0, 0.9842717078307388
409.0, 0.9516124491508038
410.0, 0.9104520374746238
411.0, 0.8805920517362348
412.0, 0.8431012327663152
413.0, 0.7916755785409055
414.0, 0.7388358967359078
415.0, 0.689406902413321
416.0, 0.6378787338649734
417.0, 0.601980689886217
418.0, 0.5574087542913162
419.0, 0.5028345292626395
420.0, 0.4483845880177782
421.0, 0.40431335188094136
422.0, 0.36221714889906553
423.0, 0.3220098020897597
424.0, 0.28741004181693586
425.0, 0.2552952296504689
426.0, 0.21505916665630587
427.0, 0.1869265543904444
428.0, 0.16628246934046517
429.0, 0.14332182375427505
430.0, 0.11654471097988778
431.0, 0.09353664344928028
432.0, 0.06792269815790378
433.0, 0.05495312854750905
434.0, 0.05722551646051754
435.0, 0.05969068685715261
436.0, 0.037016607828050274
437.0, 0.019019181088986092
438.0, 0.005460639031753559
439.0, 0.005147875024898088
440.0, 0.010680173446028484
441.0, 0.0018708278515684584
442.0, 0.0014977685583485389
443.0, 0.007565146874509188
444.0, 0.007332960283120813
445.0, 0.000699642241585929
446.0, 0.002819325523252096
447.0, 0.00013024083795494344
448.0, 0.002565569365282567
449.0, 0.0016655457644765533
450.0, 0.008711033946996459
451.0, 0.008954086288373044
452.0, 0.02546313456906518
453.0, 0.04064468433049234
454.0, 0.05197883053615857
455.0, 0.0643586031594102
456.0, 0.08184018838981055
457.0, 0.10201414353167579
458.0, 0.1262203630261771
459.0, 0.14060470537598257
460.0, 0.15871048694396248
461.0, 0.20165650614383374
462.0, 0.22782111566076058
463.0, 0.256899308950284
464.0, 0.2876429000502918
465.0, 0.31432723257972456
466.0, 0.3376690555013722
467.0, 0.372651225999655
468.0, 0.3999811376057306
469.0, 0.42990332332056247
470.0, 0.46118354028727265
471.0, 0.4896063435014625
472.0, 0.5277729835008158
473.0, 0.5718826691570336
474.0, 0.6021324005951841
475.0, 0.6243962052455093
476.0, 0.6514235506462454
477.0, 0.6814191299491138
478.0, 0.7070642391502928
479.0, 0.7139795504058746
480.0, 0.7038738287999747
481.0, 0.6892690078068985
482.0, 0.6768611581820496
483.0, 0.6449191863771049
484.0, 0.6140335223468716
485.0, 0.5760186254085834
486.0, 0.5260786967536005
487.0, 0.47345089257215855
488.0, 0.41564589617010755
489.0, 0.36901609859861967
490.0, 0.32378086040730514
491.0, 0.28126002081132506
492.0, 0.2502005311094474
493.0, 0.21137159665789287
494.0, 0.17145593587635344
495.0, 0.14060496880950205
496.0, 0.11773172336115802
497.0, 0.09804247998423585
498.0, 0.08439242868218921
499.0, 0.0672422909361563
500.0, 0.0484213372133959
501.0, 0.03840066609234611
502.0, 0.03698887776988758
503.0, 0.022920757238304054
504.0, 0.022001938823265097
505.0, 0.017518513513381344
506.0, 0.017100627784725986
507.0, 0.01632132951612944
508.0, 0.002199810707110021
509.0, 0.005023385846302597
510.0, 0.0034565953318020236
511.0, 0.00011803115160126803
512.0, 0.00124719644279311
513.0, 0.00690899711031381
514.0, 0.009431869337407051
515.0, 0.002021256368576867
516.0, 0.005747369332258454
517.0, 0.007081489038382375
518.0, 0.0060040103495982875
519.0, 0.0027860617580507986
520.0, 0.0009150255867477633
521.0, 0.0033388687949680797
522.0, 0.0069711657222967394
523.0, 0.0036506488176102836
524.0, 0.005304577705807042
525.0, 0.0010943003300728756
526.0, 0.005329040829392901
527.0, 0.0029456767604120523
528.0, 0.004129261582100862
529.0, 0.006099528360029094
530.0, 0.0017659396721158376
531.0, 0.006897426918381788
532.0, 0.005733442629584465
533.0, 0.001972015424202083
534.0, 0.001352341344955829
535.0, 0.006510021760108861
536.0, 0.0016232553919819604
537.0, 0.0036416438934073724
538.0, 0.014917108545002424
539.0, 0.01800612240554289
540.0, 0.006121468480034497
541.0, 0.014519458607285566
542.0, 0.008086570049578664
543.0, 0.01192567731840344
544.0, 0.0223217753066208
545.0, 0.02053697534150013
546.0, 0.02107581994029622
547.0, 0.019010424536349955
548.0, 0.021466686017510467
549.0, 0.02432931763887969
550.0, 0.027500269750709735
551.0, 0.038756214219776215
552.0, 0.04247400593921232
553.0, 0.033236917991782605
554.0, 0.03775989536351463
555.0, 0.04524210572217253
556.0, 0.03203473859873253
557.0, 0.03013832063601758
558.0, 0.02659285961829398
559.0, 0.03889047579708965
560.0, 0.04467917530950429
561.0, 0.03325180656443504
562.0, 0.031913094154386715
563.0, 0.029428542055926564
564.0, 0.03816010895468559
565.0, 0.04625905816757472
566.0, 0.046513048684626024
567.0, 0.04402608137807187
568.0, 0.04703171157793087
569.0, 0.04378127378898767
570.0, 0.04572969045294924
571.0, 0.04301717487670213
572.0, 0.03552896559632886
573.0, 0.04184196938076648
574.0, 0.045600069123793094
575.0, 0.046519501694464026
576.0, 0.04461708262758389
577.0, 0.04243006967519218
578.0, 0.046890807275254354
579.0, 0.05543040134878595
580.0, 0.061697226559314276
581.0, 0.05626803172589263
582.0, 0.04910273043345798
583.0, 0.04982077785403242
584.0, 0.053991048008151084
585.0, 0.054615282166810906
586.0, 0.055168479821998906
587.0, 0.05795489820072009
588.0, 0.06409111362423091
589.0, 0.06652249523578163
590.0, 0.052364218581338266
591.0, 0.04707204410965846
592.0, 0.056930392716816075
593.0, 0.06547937585770879
594.0, 0.06743065845841412
595.0, 0.07254715460842169
596.0, 0.08076005434456532
597.0, 0.08314396271986908
598.0, 0.08441905599781027
599.0, 0.09145614911327334
600.0, 0.09656903372590607
601.0, 0.08646608587144002
602.0, 0.09938240860483613
603.0, 0.11307611980048671
604.0, 0.11622035391568807
605.0, 0.11871202549486057
606.0, 0.12891735079566813
607.0, 0.13529563453496124
608.0, 0.13506103345809015
609.0, 0.14388778997551557
610.0, 0.14725920400753176
611.0, 0.14858514999461753
612.0, 0.16100190633553274
613.0, 0.1634661570962701
614.0, 0.1626757158804929
615.0, 0.16946473663115297
616.0, 0.1673214431627259
617.0, 0.16282154287872783
618.0, 0.18250017552626455
619.0, 0.19210412673139696
620.0, 0.18369238830704268
621.0, 0.17843426013530125
622.0, 0.1768490874737741
623.0, 0.17049409939132731
624.0, 0.15797382940269045
625.0, 0.15242620478461735
626.0, 0.14228999208503823
627.0, 0.13736830265273536
628.0, 0.13680536885263
629.0, 0.13192582727496868
630.0, 0.12618014956952486
631.0, 0.1216103894526103
632.0, 0.11183047600801935
633.0, 0.10008848207268976
634.0, 0.08992449239163948
635.0, 0.0829447019254935
636.0, 0.07638238558520084
637.0, 0.07033811547985204
638.0, 0.05506153174813113
639.0, 0.0534320300086811
640.0, 0.05788105901462395
641.0, 0.03884586142453798
642.0, 0.024122557015996856
643.0, 0.02194087549748297
644.0, 0.03296701064977965
645.0, 0.02806243185013828
646.0, 0.015143438759958676
647.0, 0.024323287306498173
648.0, 0.01808136329742828
649.0, 0.025098734401359107
650.0, 0.026602477755620267
651.0, 0.02326504293736731
652.0, 0.018748193736175898
653.0, 0.012010353291182562
654.0, 0.014956138569796927
655.0, 0.007403110413012158
656.0, 0.010016758843857785
657.0, 0.015450565855470671
658.0, 0.015639080113481054
659.0, 0.01627311520457972
660.0, 0.005015243686291977
661.0, 0.0023633195754495726
662.0, 0.00554443114415804
663.0, 0.007976113166227284
664.0, 0.007862927204804086
665.0, 0.007950648806202292
666.0, 0.014004058829460106
667.0, 0.016209202885689503
668.0, 0.011371193332385114
669.0, 0.008544759682778576
670.0, 0.014472574207222682
671.0, 0.02037816922931361
672.0, 0.009564616463530535
673.0, 0.006552392435637234
674.0, 0.005628284335352302
675.0, 0.008852412603665353
676.0, 0.014560057782400646
677.0, 0.011246237082632362
678.0, 0.00814865942477622
679.0, 0.0008650293198079738
680.0, 0.00397122195444629
681.0, 0.003783878231501835
682.0, 0.0030042962387009757
683.0, 0.004346782210088244
684.0, 0.0019186714891957519
685.0, 0.00816503247771877
686.0, 0.005501650627549476
687.0, 0.002153368014184209
688.0, 0.0013330348632930185
689.0, 0.0023627299553463463
690.0, 0.00349824707980486
691.0, 0.00902635532160827
692.0, 0.0028364578210333534
693.0, 0.007652340185759742
694.0, 0.001756126073015193
695.0, 0.0009352387250496039
696.0, 0.0029395361203356906
697.0, 0.0064622095627249335
698.0, 0.0020527835687458823
699.0, 0.004880120678089266
700.0, 0.00550630978942475
701.0, 0.007177921167128868
702.0, 0.015717906387920307
703.0, 0.010594438330338518
704.0, 0.004779577031127623
705.0, 0.010129412770275023
706.0, 0.01848079877912123
707.0, 0.018400691264242642
708.0, 0.015002512261053537
709.0, 0.012178599829280252
710.0, 0.006891218289544696
711.0, 0.008644032375367483
712.0, 0.012294091081812189
713.0, 0.012267831838524085
714.0, 0.013900952210076785
715.0, 0.011031367482993947
716.0, 0.0073517723750611014
717.0, 0.002674475745359099
718.0, 0.00699267100950173
719.0, 0.014033992874548094
720.0, 0.006794715674149491
721.0, 0.006456462078428774
722.0, 0.012381976583670719
723.0, 0.02217384062298707
724.0, 0.019248753388236527
725.0, 0.013501191115078828
726.0, 0.021782648176312022
727.0, 0.02144795563397672
728.0, 0.009375230381012154
729.0, 0.019720288379432488
730.0, 0.017840307844939594
731.0, 0.010055942994178859
732.0, 0.013973569524007738
733.0, 0.010618158262687062
734.0, 0.003902431717967828
735.0, 0.007821642749324774
736.0, 0.0035115081161998557
737.0, 0.003240423476922815
738.0, 0.007147478748944984
739.0, 0.0003465925105152859
740.0, 0.008472432749676722
741.0, 0.019928538593972603
742.0, 0.013936118970094094
743.0, 0.006055076665011056
744.0, 0.008255460508264109
745.0, 0.013965835788518708
746.0, 0.010906464310498668
747.0, 0.012466895025218791
748.0, 0.018259715784083835
749.0, 0.0170432168054354
750.0, 0.016904593055475155
751.0, 0.024088786028725426
752.0, 0.024483090218665276
753.0, 0.0037107877721791753
754.0, 0.003989700646089661
755.0, 0.008308864042455441
756.0, 0.015899831185944843
757.0, 0.02001446757980095
758.0, 0.014035929549682842
759.0, 0.01608191873219334
760.0, 0.021454100400924332
761.0, 0.021381868796132214
762.0, 0.033061370843614137
763.0, 0.041675031291375446
764.0, 0.03692138159628541
765.0, 0.034555159231703596
766.0, 0.03243069485004921
767.0, 0.03546345607113359
768.0, 0.047117803677341655
769.0, 0.05618184004834916
770.0, 0.05212280506407298
771.0, 0.04371867060191606
772.0, 0.05377959063648455
773.0, 0.05614799269904929
774.0, 0.052229148766696876
775.0, 0.05726892159440864
776.0, 0.06689377083754428
777.0, 0.07110597745175344
778.0, 0.07308705452262788
779.0, 0.08403637651020628
780.0, 0.08374155257837645
781.0, 0.080998412412935
782.0, 0.0866053680367851
783.0, 0.08921463621191841
784.0, 0.08037416912154273
785.0, 0.07349678699916255
786.0, 0.09056839097026624
787.0, 0.09751228117820651
788.0, 0.10046968717058984
789.0, 0.09915243837010594
790.0, 0.09736045206783764
791.0, 0.09847275279161688
792.0, 0.09526869819708494
793.0, 0.09339259698441109
794.0, 0.1049763410781931
795.0, 0.10973097151035302
796.0, 0.10437912781671885
797.0, 0.09987053928042972
798.0, 0.09938317926894431
799.0, 0.08725395924490878
800.0, 0.08962109910913142
801.0, 0.08181914481277985
802.0, 0.07932175822739337
803.0, 0.08305344107340984
804.0, 0.08042689682460227
805.0, 0.06687902785476321
806.0, 0.050908309121271325
807.0, 0.04803832476554451
808.0, 0.04884895094799729
809.0, 0.05054243976636873
810.0, 0.04753684823286069
811.0, 0.04198474377496373
812.0, 0.04296215042796165
813.0, 0.041374638458532176
814.0, 0.03167572305035567
815.0, 0.03366751516841498
816.0, 0.03134713654900274
817.0, 0.028268033286782714
818.0, 0.028562892228057808
819.0, 0.02126804241538463
820.0, 0.025315105927596105
821.0, 0.022636142855940313
822.0, 0.025516110756182927
823.0, 0.029685060770200982
824.0, 0.027365778639918147
825.0, 0.023648456454905185
826.0, 0.02705201391325202
827.0, 0.013195976149156841
828.0, 0.021668889870056555
829.0, 0.027054767765243178
830.0, 0.018404421815938453
831.0, 0.012538762783513804
832.0, 0.016370566730624182
833.0, 0.013471356414490493
834.0, 0.009774943519486606
835.0, 0.012018514035637548
836.0, 0.007345406445227501
837.0, 0.005883483235201255
838.0, 0.009569071764024651
839.0, 0.0096505774081552
840.0, 0.0023825548088307388
841.0, 0.002048604183277287
842.0, 0.0013631464544243673
843.0, 0.01233533329284139
844.0, 0.008631386677367126
845.0, 0.0013763753211017372
846.0, 0.0007505174586913375
847.0, 0.003434665937069841
848.0, 0.013427643056902005
849.0, 0.011150508555643139
850.0, 0.0010958131385498996
851.0, 0.005981254395880426
852.0, 0.008567613421971855
853.0, 0.0061529989917166175
854.0, 0.005198452251256085
855.0, 0.003731104095136399
856.0, 0.005515559123863238
857.0, 0.009237779384473618
858.0, 0.007975932638027318
859.0, 0.006025443536439901
860.0, 0.012853426068327784
861.0, 0.01992628565490377
862.0, 0.0062395425704792045
863.0, 0.007285589946454065
864.0, 0.01024925561386921
865.0, 0.012901401139272446
866.0, 0.015990398243123007
867.0, 0.012386425992030166
868.0, 0.0040599660904296455
869.0, 0.007194317098298059
870.0, 0.003054362980595207
871.0, 0.005643450478894884
872.0, 0.008060694905393871
873.0, 0.010174491230107911
874.0, 0.010488217733394643
875.0, 0.0069960837401863195
876.0, 0.003325764636559891
877.0, 0.005823851365721676
878.0, 0.0006485871489193115
879.0, 0.002715070352481501
880.0, 0.0041954624488203225
881.0, 0.0015014858770518178
882.0, 0.0016590984931603389
883.0, 0.011037659498703455
884.0, 0.018248567116393458
885.0, 0.008758170132809875
886.0, 0.002218751599437685
887.0, 0.006148669428836836
888.0, 0.009350718180797728
889.0, 0.006411367476657944
890.0, 0.0020552274394589586
891.0, 0.0017898506883091932
892.0, 0.005113981122100245
893.0, 0.005326335209290346
894.0, 0.008020335630711004
895.0, 0.010245782851194969
896.0, 0.011672839676892229
897.0, 0.012717267537365724
898.0, 0.012873732429305522
899.0, 0.012144634903945111
900.0, 0.008101198545259244
901.0, 0.001120096128985467
902.0, 0.004289719845579368
903.0, 0.005981242919269952
904.0, 0.006566748691350785
905.0, 0.010842315029920464
906.0, 0.009746344325671463
907.0, 0.0013407727662818336
908.0, 0.01955346884532329
909.0, 0.005323397700266266
910.0, 0.0014986845143222139
911.0, 0.005041318266730637
912.0, 0.009372595938392179
913.0, 0.014952865930277112
914.0, 0.016055852692278647
915.0, 0.012529041272492292
916.0, 0.008993064774556546
917.0, 0.006892912350097723
918.0, 0.0072976608856521975
919.0, 0.01043090854689658
920.0, 0.011889767525054287
921.0, 0.011251382988029756
922.0, 0.017239006080255984
923.0, 0.0114181407197051
924.0, 0.019028266132105814
925.0, 0.009415218903600728
926.0, 0.009853082558542295
927.0, 0.01094438402376883
928.0, 0.011667561001133472
929.0, 0.025416832339096685
930.0, 0.015259088867729708
931.0, 0.012835286955343616
932.0, 0.006743474358004182
933.0, 0.006889894150682011
934.0, 0.003231826386307468
935.0, 0.0017916257206198188
936.0, 0.0071595549705442295
937.0, 0.005246401482530751
938.0, 0.0047586337292156375
939.0, 0.009653704655457465
940.0, 0.009207120774895496
941.0, 0.0037080759939966883
942.0, 0.006143519827129668
943.0, 0.008808042416613841
944.0, 0.008113838403923723
945.0, 0.009602719524227395
946.0, 0.0010970984071159329
947.0, 0.0019581862489462254
948.0, 0.00997339783498491
949.0, 0.01050982194392108
950.0, 0.007033305327158968
951.0, 0.00922930355952844
952.0, 0.014649065502655904
953.0, 0.017408784945838838
954.0, 0.01437262531534969
955.0, 0.002945620201130921
956.0, 0.001441198024193455
957.0, 0.004510988054473376
958.0, 0.010312090534027958
959.0, 0.008141698450018754
960.0, 0.002644049678135452
961.0, 0.00590643011168706
962.0, 0.0018267181940031952
963.0, 0.008200743001968826
964.0, 0.0018040025584196823
965.0, 0.0008317490287453448
966.0, 0.0006345080213141057
967.0, 0.005752983900018861
968.0, 0.0008668005937775333
969.0, 0.00240612989845149
970.0, 0.0015810428270029808
971.0, 0.001149902521279811
972.0, 0.00372183530168492
973.0, 0.0057958492607982645
974.0, 0.014317831301920408
975.0, 0.010551322198188755
976.0, 0.00920719705012418
977.0, 0.010156397535969112
978.0, 0.0040401369952769405
979.0, 0.007668271906061372
980.0, 0.004303242720159379
981.0, 0.01076641219285229
982.0, 0.014345352925900732
983.0, 0.011011672647912552
984.0, 0.012338818353880624
985.0, 0.018488437238383983
986.0, 0.01627423543246056
987.0, 0.0063757324445816435
988.0, 0.018566662096264494
989.0, 0.016457550591511935
990.0, 0.015514911557809128
991.0, 0.012987127991650776
992.0, 0.010871764354602433
993.0, 0.012886815358343288
994.0, 0.01583438116015489
995.0, 0.016301994419841086
996.0, 0.01663461754083091
997.0, 0.028466243965591966
998.0, 0.028245670490616385
999.0, 0.02212230214983042
1000.0, 0.015420617262591535
1001.0, 0.015247588068950444
1002.0, 0.019016571574896172
1003.0, 0.018000841582889213
1004.0, 0.017496526988505276
1005.0, 0.014635773250012678
1006.0, 0.0251509919051879
1007.0, 0.014727732640977752
1008.0, 0.00839555563686521
1009.0, 0.015724496025842968
1010.0, 0.020088967115995254
1011.0, 0.01870458213073722
1012.0, 0.02259991140110423
1013.0, 0.02158145047118733
1014.0, 0.02644015692158808
1015.0, 0.029393399071977997
1016.0, 0.014362263631418007
1017.0, 0.014273218213165895
1018.0, 0.02210978800270974
1019.0, 0.024785033707824877
1020.0, 0.027916389284724428
1021.0, 0.030078850983094135
1022.0, 0.031648867773709274
1023.0, 0.040376384545270635
1024.0, 0.043995672109544866
1025.0, 0.048820207853398974
1026.0, 0.03940852936353543
1027.0, 0.03122566908175742
1028.0, 0.03395750361966698
1029.0, 0.03388721015650022
1030.0, 0.03125598823948098
1031.0, 0.040414604030768554
1032.0, 0.03901083393257121
1033.0, 0.04656668224469171
1034.0, 0.04501850563047467
1035.0, 0.0429109044588953
1036.0, 0.03895546791929703
1037.0, 0.03331478861953562
1038.0, 0.03245037619886505
1039.0, 0.031727869996233435
1040.0, 0.025367043578660618
1041.0, 0.026967512585524007
1042.0, 0.03334131031485167
1043.0, 0.03669735592195595
1044.0, 0.03656168292718335
1045.0, 0.031027340614366582
1046.0, 0.026508619652685552
1047.0, 0.030144854484268627
1048.0, 0.03169184542763239
1049.0, 0.024289665641034974
1050.0, 0.03496124880543415
1051.0, 0.02505662723497357
1052.0, 0.032189870183592255
1053.0, 0.03365501436868561
1054.0, 0.02094112220127597
1055.0, 0.01843240747726669
1056.0, 0.02559546109569345
1057.0, 0.018228570124332443
1058.0, 0.017367248372934824
1059.0, 0.021047279256240014
1060.0, 0.008927331691417689
1061.0, 0.016962042437117904
1062.0, 0.0215330660457798
1063.0, 0.01823958082725659
1064.0, 0.009064129948997437
1065.0, 0.004273864712107542
1066.0, 0.009488346913554102
1067.0, 0.008735890529859354
1068.0, 0.0085001206222175
1069.0, 0.011659424719255336
1070.0, 0.0009060758260679927
1071.0, 0.0037995152366887153
1072.0, 0.0026859860680845497
1073.0, 0.0018336694022384015
1074.0, 0.0009873615891755091
1075.0, 0.0008949049138339593
1076.0, 0.003800630375759404
1077.0, 0.002229501149592696
1078.0, 0.009808776726850838
1079.0, 0.01659601547287687
1080.0, 0.007282820156159735
1081.0, 5.421461956771307e-05
1082.0, 0.0008461871196498842
1083.0, 0.0017475215533512686
1084.0, 0.003806077196579111
1085.0, 0.000769334473977423
1086.0, 0.002984336374921482
1087.0, 0.00811746326393853
1088.0, 0.017491646363943982
1089.0, 0.024941147030680545
1090.0, 0.004766471263398596
1091.0, 0.004827624376457375
1092.0, 0.020090954377441354
1093.0, 0.025483630972917365
1094.0, 0.019085483585163737
1095.0, 0.014916979653738423
1096.0, 0.022035361612034097
1097.0, 0.030850263994870845
1098.0, 0.028147357803713458
1099.0, 0.040041566369842546
1100.0, 0.037571502473917016
1101.0, 0.030478170022982927
1102.0, 0.029099074387608066
1103.0, 0.030871309592154252
1104.0, 0.04300274306448124
1105.0, 0.05669702785088203
1106.0, 0.04981049169259665
1107.0, 0.05440021858178712
1108.0, 0.05617113932765266
1109.0, 0.049680385798869436
1110.0, 0.050889478423758384
1111.0, 0.049384639038513756
1112.0, 0.05187285732354208
1113.0, 0.05928730973983366
1114.0, 0.06107478003489231
1115.0, 0.0630771254320433
1116.0, 0.0721798186986821
1117.0, 0.06649455949650289
1118.0, 0.07842073558442195
1119.0, 0.06991467990793221
1120.0, 0.06382978475085864
1121.0, 0.06590210184985269
1122.0, 0.07668989089065573
1123.0, 0.0782257146217339
1124.0, 0.07131747755642003
1125.0, 0.07325438298600241
1126.0, 0.07939886083374494
1127.0, 0.07453306265685053
1128.0, 0.08122090343781321
1129.0, 0.08033786794599598
1130.0, 0.07975559372463924
1131.0, 0.07630625407399146
1132.0, 0.08659927824491058
1133.0, 0.08915313191261175
1134.0, 0.08653636360822062
1135.0, 0.08629371032956586
1136.0, 0.09110327962818345
1137.0, 0.10042007209388981
1138.0, 0.07668711732020562
1139.0, 0.08237221003950522
1140.0, 0.08138546861780865
1141.0, 0.08768039365579322
1142.0, 0.08994425658633817
1143.0, 0.08352420577479742
1144.0, 0.08010569878144928
1145.0, 0.08551891674275128
1146.0, 0.08661754139774093
1147.0, 0.07964164035714884
1148.0, 0.08067939211017836
1149.0, 0.08184420828342001
1150.0, 0.095089914835203
1151.0, 0.09035465684493549
1152.0, 0.08952101416463228
1153.0, 0.08811981488705671
1154.0, 0.09309344216181617
1155.0, 0.08931198982556304
1156.0, 0.08210933274608977
1157.0, 0.08325199882911481
1158.0, 0.08244159780262436
1159.0, 0.0797372738061666
1160.0, 0.080904832416992
1161.0, 0.07268607158650692
1162.0, 0.08845611348240986
1163.0, 0.08889785110776834
1164.0, 0.08419972293155088
1165.0, 0.09088363836452837
1166.0, 0.09040031746041173
1167.0, 0.09122618785487015
1168.0, 0.09404127922342716
1169.0, 0.08592413880730064
1170.0, 0.08246359178657212
1171.0, 0.07712080261555257
1172.0, 0.073661541246375
1173.0, 0.07797352908536012
1174.0, 0.06793501285169731
1175.0, 0.0780700116511951
1176.0, 0.07902764698354843
1177.0, 0.07573201019834766
1178.0, 0.07354708251848223
1179.0, 0.07243119805765144
1180.0, 0.0692572205814812
1181.0, 0.06339063126525733
1182.0, 0.06534902188574795
1183.0, 0.05629137314894816
1184.0, 0.06330708241372361
1185.0, 0.060715256664634495
1186.0, 0.0609246849441815
1187.0, 0.04824503899929649
1188.0, 0.04841677546588708
1189.0, 0.05468382802534957
1190.0, 0.055394692481298025
1191.0, 0.054339753658607534
1192.0, 0.05135017570936265
1193.0, 0.04285688473739303
1194.0, 0.04005398444162507
1195.0, 0.04173617386223473
1196.0, 0.043174636288145544
1197.0, 0.03366673711411829
1198.0, 0.0398586323821626
1199.0, 0.03368116149848185
1200.0, 0.030248438193211904
1201.0, 0.03321453738422043
1202.0, 0.025422616281570116
1203.0, 0.014833615579766654
1204.0, 0.020415540771896723
1205.0, 0.029689916959624363
1206.0, 0.024661841585937205
1207.0, 0.027577466610250023
1208.0, 0.018207456509462528
1209.0, 0.007560567549100166
1210.0, 0.012836265918558631
1211.0, 0.029470660481827924
1212.0, 0.014752335434107424
1213.0, 0.003534920630733162
1214.0, 0.00605097216307728
1215.0, 0.011066375007815585
1216.0, 0.0168834429902899
1217.0, 0.011952121335468633
1218.0, 0.002510563618623835
1219.0, 0.00868451235578502
1220.0, 0.010463151074161368
1221.0, 0.004128699199209262
1222.0, 0.007790731299918569
1223.0, 0.0026425844034351246
1224.0, 0.008765906868638498
1225.0, 0.015835479787544907
1226.0, 0.00895591318488115
1227.0, 0.0067352147782911995
1228.0, 0.00639031732520419
1229.0, 0.0024934221114034857
1230.0, 0.007707183007777206
1231.0, 0.0058013744379033895
1232.0, 0.007707806317390428
1233.0, 0.011818611887107484
1234.0, 0.01383652000995491
1235.0, 0.007817371958350706
1236.0, 0.002751886529134363
1237.0, 0.003240413244198048
1238.0, 0.001279821685711455
1239.0, 0.0006655582106432448
1240.0, 0.0007661377649452936
1241.0, 0.007089300414847626
1242.0, 0.014357511266692423
1243.0, 0.004223645946079048
1244.0, 0.0034932132100344666
1245.0, 0.014202555072953841
1246.0, 0.025730121157518156
1247.0, 0.013549393140662907
1248.0, 0.016057885321748837
1249.0, 0.021885528406076226
1250.0, 0.011540586774790435
1251.0, 0.012646732953381363
1252.0, 0.017817069527160088
1253.0, 0.015902440638380942
1254.0, 0.011604242670302183
1255.0, 0.017806543206887532
1256.0, 0.02590860308452502
1257.0, 0.006991987736486341
1258.0, 0.004451376278495803
1259.0, 0.012334594259450311
1260.0, 0.009644677845242625
1261.0, 0.016519725185903087
1262.0, 0.013957249408637708
1263.0, 0.0179349629131897
1264.0, 0.016471805455511135
1265.0, 0.00934377021858763
1266.0, 0.012758504524276425
1267.0, 0.016139409063837932
1268.0, 0.006748614487711904
1269.0, 0.0006716701334284562
1270.0, 0.007139882418080481
1271.0, 0.0017427441386408337
1272.0, 0.005674213295132079
1273.0, 0.012027132711004062
1274.0, 0.004912222510020428
1275.0, 0.0018560840380148342
1276.0, 0.016267234021335644
1277.0, 0.0048677451015275534
1278.0, 0.0019266340957329138
1279, 0.0
1280, 0.0
1281, 0.0
1282, 0.0
1283, 0.0
1284, 0.0
1285, 0.0
1286, 0.0
1287, 0.0
1288, 0.0
1289, 0.0
1290, 0.0
1291, 0.0
1292, 0.0
1293, 0.0
1294, 0.0
1295, 0.0
1296, 0.0
1297, 0.0
1298, 0.0
1299, 0.0
1300, 0.0
1301, 0.0
1302, 0.0
1303, 0.0
1304, 0.0
1305, 0.0
1306, 0.0
1307, 0.0
1308, 0.0
1309, 0.0
1310, 0.0
1311, 0.0
1312, 0.0
1313, 0.0
1314, 0.0
1315, 0.0
1316, 0.0
1317, 0.0
1318, 0.0
1319, 0.0
1320, 0.0
1321, 0.0
1322, 0.0
1323, 0.0
1324, 0.0
1325, 0.0
1326, 0.0
1327, 0.0
1328, 0.0
1329, 0.0
1330, 0.0
1331, 0.0
1332, 0.0
1333, 0.0
1334, 0.0
1335, 0.0
1336, 0.0
1337, 0.0
1338, 0.0
1339, 0.0
1340, 0.0
1341, 0.0
1342, 0.0
1343, 0.0
1344, 0.0
1345, 0.0
1346, 0.0
1347, 0.0
1348, 0.0
1349, 0.0
1350, 0.0
1351, 0.0
1352, 0.0
1353, 0.0
1354, 0.0
1355, 0.0
1356, 0.0
1357, 0.0
1358, 0.0
1359, 0.0
1360, 0.0
1361, 0.0
1362, 0.0
1363, 0.0
1364, 0.0
1365, 0.0
1366, 0.0
1367, 0.0
1368, 0.0
1369, 0.0
1370, 0.0
1371, 0.0
1372, 0.0
1373, 0.0
1374, 0.0
1375, 0.0
1376, 0.0
1377, 0.0
1378, 0.0
1379, 0.0
1380, 0.0
1381, 0.0
1382, 0.0
1383, 0.0
1384, 0.0
1385, 0.0
1386, 0.0
1387, 0.0
1388, 0.0
1389, 0.0
1390, 0.0
1391, 0.0
1392, 0.0
1393, 0.0
1394, 0.0
1395, 0.0
1396, 0.0
1397, 0.0
1398, 0.0
1399, 0.0
1400, 0.0
1401, 0.0
1402, 0.0
1403, 0.0
1404, 0.0
1405, 0.0
1406, 0.0
1407, 0.0
1408, 0.0
1409, 0.0
1410, 0.0
1411, 0.0
1412, 0.0
1413, 0.0
1414, 0.0
1415, 0.0
1416, 0.0
1417, 0.0
1418, 0.0
1419, 0.0
1420, 0.0
1421, 0.0
1422, 0.0
1423, 0.0
1424, 0.0
1425, 0.0
1426, 0.0
1427, 0.0
1428, 0.0
1429, 0.0
1430, 0.0
1431, 0.0
1432, 0.0
1433, 0.0
1434, 0.0
1435, 0.0
1436, 0.0
1437, 0.0
1438, 0.0
1439, 0.0
1440, 0.0
1441, 0.0
1442, 0.0
1443, 0.0
1444, 0.0
1445, 0.0
1446, 0.0
1447, 0.0
1448, 0.0
1449, 0.0
1450, 0.0
1451, 0.0
1452, 0.0
1453, 0.0
1454, 0.0
1455, 0.0
1456, 0.0
1457, 0.0
1458, 0.0
1459, 0.0
1460, 0.0
1461, 0.0
1462, 0.0
1463, 0.0
1464, 0.0
1465, 0.0
1466, 0.0
1467, 0.0
1468, 0.0
1469, 0.0
1470, 0.0
1471, 0.0
1472, 0.0
1473, 0.0
1474, 0.0
1475, 0.0
1476, 0.0
1477, 0.0
1478, 0.0
1479, 0.0
1480, 0.0
1481, 0.0
1482, 0.0
1483, 0.0
1484, 0.0
1485, 0.0
1486, 0.0
1487, 0.0
1488, 0.0
1489, 0.0
1490, 0.0
1491, 0.0
1492, 0.0
1493, 0.0
1494, 0.0
1495, 0.0
1496, 0.0
1497, 0.0
1498, 0.0
1499, 0.0
1500, 0.0
1501, 0.0
1502, 0.0
1503, 0.0
1504, 0.0
1505, 0.0
1506, 0.0
1507, 0.0
1508, 0.0
1509, 0.0
1510, 0.0
1511, 0.0
1512, 0.0
1513, 0.0
1514, 0.0
1515, 0.0
1516, 0.0
1517, 0.0
1518, 0.0
1519, 0.0
1520, 0.0
1521, 0.0
1522, 0.0
1523, 0.0
1524, 0.0
1525, 0.0
1526, 0.0
1527, 0.0
1528, 0.0
1529, 0.0
1530, 0.0
1531, 0.0
1532, 0.0
1533, 0.0
1534, 0.0
1535, 0.0
1536, 0.0
1537, 0.0
1538, 0.0
1539, 0.0
1540, 0.0
1541, 0.0
1542, 0.0
1543, 0.0
1544, 0.0
1545, 0.0
1546, 0.0
1547, 0.0
1548, 0.0
1549, 0.0
1550, 0.0
1551, 0.0
1552, 0.0
1553, 0.0
1554, 0.0
1555, 0.0
1556, 0.0
1557, 0.0
1558, 0.0
1559, 0.0
1560, 0.0
1561, 0.0
1562, 0.0
1563, 0.0
1564, 0.0
1565, 0.0
1566, 0.0
1567, 0.0
1568, 0.0
1569, 0.0
1570, 0.0
1571, 0.0
1572, 0.0
1573, 0.0
1574, 0.0
1575, 0.0
1576, 0.0
1577, 0.0
1578, 0.0
1579, 0.0
1580, 0.0
1581, 0.0
1582, 0.0
1583, 0.0
1584, 0.0
1585, 0.0
1586, 0.0
1587, 0.0
1588, 0.0
1589, 0.0
1590, 0.0
1591, 0.0
1592, 0.0
1593, 0.0
1594, 0.0
1595, 0.0
1596, 0.0
1597, 0.0
1598, 0.0
1599, 0.0
