30, 0.0
31, 0.0
32, 0.0
33, 0.0
34, 0.0
35, 0.0
36, 0.0
37, 0.0
38, 0.0
39, 0.0
40, 0.0
41, 0.0
42, 0.0
43, 0.0
44, 0.0
45, 0.0
46, 0.0
47, 0.0
48, 0.0
49, 0.0
50, 0.0
51, 0.0
52, 0.0
53, 0.0
54, 0.0
55, 0.0
56, 0.0
57, 0.0
58, 0.0
59, 0.0
60, 0.0
61, 0.0
62, 0.0
63, 0.0
64, 0.0
65, 0.0
66, 0.0
67, 0.0
68, 0.0
69, 0.0
70, 0.0
71, 0.0
72, 0.0
73, 0.0
74, 0.0
75, 0.0
76, 0.0
77, 0.0
78, 0.0
79, 0.0
80, 0.0
81, 0.0
82, 0.0
83, 0.0
84, 0.0
85, 0.0
86, 0.0
87, 0.0
88, 0.0
89, 0.0
90, 0.0
91, 0.0
92, 0.0
93, 0.0
94, 0.0
95, 0.0
96, 0.0
97, 0.0
98, 0.0
99, 0.0
100, 0.0
101, 0.0
102, 0.0
103, 0.0
104, 0.0
105, 0.0
106, 0.0
107, 0.0
108, 0.0
109, 0.0
110, 0.0
111, 0.0
112, 0.0
113, 0.0
114, 0.0
115, 0.0
116, 0.0
117, 0.0
118, 0.0
119, 0.0
120, 0.0
121, 0.0
122, 0.0
123, 0.0
124, 0.0
125, 0.0
126, 0.0
127, 0.0
128, 0.0
129, 0.0
130, 0.0
131, 0.0
132, 0.0
133, 0.0
134, 0.0
135, 0.0
136, 0.0
137, 0.0
138, 0.0
139, 0.0
140, 0.0
141, 0.0
142, 0.0
143, 0.0
144, 0.0
145, 0.0
146, 0.0
147, 0.0
148, 0.0
149, 0.0
150, 0.0
151, 0.0
152, 0.0
153.0, 0.0023950591059431724
154.0, 0.005791787600625294
155.0, 0.007275189080930854
156.0, 0.0018450347902052163
157.0, 0.001475720919106438
158.0, 0.0007228212347270553
159.0, 0.003863608208193742
160.0, 0.011171326625203365
161.0, 0.019494633038226357
162.0, 0.02625434921810924
163.0, 0.03209699390243447
164.0, 0.03422439608001703
165.0, 0.03207935394341076
166.0, 0.0334868492280508
167.0, 0.03366623557936562
168.0, 0.0309326723417049
169.0, 0.029104526026109027
170.0, 0.03492306256946385
171.0, 0.036547090153840715
172.0, 0.03980934543853559
173.0, 0.04717768647740007
174.0, 0.0578900570138572
175.0, 0.07325458960238519
176.0, 0.09368064451756665
177.0, 0.11408817057668129
178.0, 0.13213772880646302
179.0, 0.15506559739475245
180.0, 0.17355187315043677
181.0, 0.18988349919779868
182.0, 0.20176737621776353
183.0, 0.2020739383796094
184.0, 0.1933538282551154
185.0, 0.18103644260333496
186.0, 0.16590850472505275
187.0, 0.14774227679346866
188.0, 0.12894117377018144
189.0, 0.11584525022948503
190.0, 0.1014846027625163
191.0, 0.08708713688091611
192.0, 0.07602752993416734
193.0, 0.062006594899852475
194.0, 0.05613525851437267
195.0, 0.05467801696961207
196.0, 0.05412081125837908
197.0, 0.05588492937153412
198.0, 0.0617273294373906
199.0, 0.06831391005162792
200.0, 0.07689267274931685
201.0, 0.0897193451278913
202.0, 0.10414315408637595
203.0, 0.12212625244154059
204.0, 0.13870358286610365
205.0, 0.1539446336783242
206.0, 0.17762995920488853
207.0, 0.19772218887686996
208.0, 0.21185312789349242
209.0, 0.2252332774622541
210.0, 0.24103268349368412
211.0, 0.24708438351775208
212.0, 0.24870572816894446
213.0, 0.2449072650158243
214.0, 0.23509071747473248
215.0, 0.2229899984695941
216.0, 0.2152691831593674
217.0, 0.20810637171287028
218.0, 0.2028442312811805
219.0, 0.2001842967691341
220.0, 0.19703894202212574
221.0, 0.18151607784351756
222.0, 0.16350080874531106
223.0, 0.14676355230677413
224.0, 0.13052875814846235
225.0, 0.11764236561736385
226.0, 0.10477919778667487
227.0, 0.0871893967835976
228.0, 0.06848999539713171
229.0, 0.05891186874971596
230.0, 0.04636184482516563
231.0, 0.03760769808819091
232.0, 0.03333805835161427
233.0, 0.031828770346481794
234.0, 0.03072595586134165
235.0, 0.027089286269585643
236.0, 0.029199460529819848
237.0, 0.0342095924345726
238.0, 0.03354178030378008
239.0, 0.036632867170703465
240.0, 0.04627072265111367
241.0, 0.05722522092389831
242.0, 0.06907454436465539
243.0, 0.08402584116403677
244.0, 0.08879766813578918
245.0, 0.09922443930484955
246.0, 0.11259150329894888
247.0, 0.12164109129568065
248.0, 0.1249605540535955
249.0, 0.134119527499062
250.0, 0.1370081002445878
251.0, 0.13523061139828352
252.0, 0.134902787143869
253.0, 0.13190499757097474
254.0, 0.12734025704936033
255.0, 0.12524077212633355
256.0, 0.12682142439767569
257.0, 0.13098488530971372
258.0, 0.1355411072828244
259.0, 0.13890811338760686
260.0, 0.1441857347543295
261.0, 0.15467656095822532
262.0, 0.1708484950450365
263.0, 0.18730036139883877
264.0, 0.20064864711960767
265.0, 0.21591202743764296
266.0, 0.2346662091671119
267.0, 0.2494535507387463
268.0, 0.2648776420288803
269.0, 0.2765391245271985
270.0, 0.28086340633791096
271.0, 0.2771841692872302
272.0, 0.2730857373297149
273.0, 0.26714434091129574
274.0, 0.2552618177045669
275.0, 0.23707361671161253
276.0, 0.21630283440542636
277.0, 0.1963294706191064
278.0, 0.17400634271926274
279.0, 0.15532654431211385
280.0, 0.1393327883646793
281.0, 0.11866471226638044
282.0, 0.09935774432379339
283.0, 0.08547422869756753
284.0, 0.07595642524673399
285.0, 0.06915994405230133
286.0, 0.06384056507028442
287.0, 0.05535062278892693
288.0, 0.048814504744009266
289.0, 0.043153751509496234
290.0, 0.03696088721854808
291.0, 0.030888080374838242
292.0, 0.023578083721941097
293.0, 0.016929283073875933
294.0, 0.009422821980896313
295.0, 0.0016347330343128464
296.0, 0.0005078051704820632
297.0, 0.00010901875103745605
298.0, 0.0029892450184917773
299.0, 0.007335883859369835
300.0, 0.007735027548134291
301.0, 0.00258428685496012
302.0, 0.0004284828348001087
303.0, 0.0020860087714492256
304.0, 0.007281994688188039
305.0, 0.013424612213949748
306.0, 0.015502921369612408
307.0, 0.021362532983915015
308.0, 0.02746795491554097
309.0, 0.02952220431321205
310.0, 0.027153259582317457
311.0, 0.0262792175948539
312.0, 0.02249942870202253
313.0, 0.01550971577927139
314.0, 0.008855453939644865
315.0, 0.005667826216788529
316.0, 0.0011149260125783358
317.0, 0.002284830305962733
318.0, 0.0060754553224349325
319.0, 0.009219414617321134
320.0, 0.008217995875974791
321.0, 0.007024800560077341
322.0, 0.00566823593921592
323.0, 0.0033603014559276485
324.0, 0.0003931551845633704
325.0, 0.002654255609748898
326.0, 0.005953778896688727
327.0, 0.005979556482798649
328.0, 0.010189916943959812
329.0, 0.016974486090623075
330.0, 0.021723859713853023
331.0, 0.026211612986137695
332.0, 0.02691277891055696
333.0, 0.025438219135450055
334.0, 0.026668623137933233
335.0, 0.03197966839809932
336.0, 0.03141478456502847
337.0, 0.030525727879376494
338.0, 0.031791653969751435
339.0, 0.03490580827627011
340.0, 0.037063288626396955
341.0, 0.03337768002911087
342.0, 0.032482577934989675
343.0, 0.033446708266614576
344.0, 0.03408607277332777
345.0, 0.033866512995813856
346.0, 0.03424418136210844
347.0, 0.034652459038463944
348.0, 0.03543924520437678
349.0, 0.038833616895919916
350.0, 0.04504152530963215
351.0, 0.04769860723132745
352.0, 0.04799918084391613
353.0, 0.04782638912141367
354.0, 0.04947087113336828
355.0, 0.053384328085643695
356.0, 0.054760027442044355
357.0, 0.06189762596720418
358.0, 0.06664883153852381
359.0, 0.06715069585163658
360.0, 0.06685390211759566
361.0, 0.06968474068634214
362.0, 0.07208702460153169
363.0, 0.07349953613967089
364.0, 0.07529558855613397
365.0, 0.07806083954016235
366.0, 0.08012892108646039
367.0, 0.08089100525763274
368.0, 0.08377805447873406
369.0, 0.08598406112522859
370.0, 0.08724525849580442
371.0, 0.08958520653919179
372.0, 0.0870998676559599
373.0, 0.08466208114505344
374.0, 0.0841025065026471
375.0, 0.08316198726605739
376.0, 0.07991812777235523
377.0, 0.07592297559794581
378.0, 0.06916108606167694
379.0, 0.06256907646785963
380.0, 0.05807684187068672
381.0, 0.05558347678132111
382.0, 0.054289141963776086
383.0, 0.053643022974627454
384.0, 0.05112893363644491
385.0, 0.049854019121978135
386.0, 0.05032970486250317
387.0, 0.04847249793644406
388.0, 0.04824006160879655
389.0, 0.04785717234214784
390.0, 0.047286408414859066
391.0, 0.045513355888645544
392.0, 0.042586375219725074
393.0, 0.04466045312431982
394.0, 0.04279426328115534
395.0, 0.04098258450265606
396.0, 0.03966526592673668
397.0, 0.03681859293125969
398.0, 0.03286364898759693
399.0, 0.030357685831715872
400.0, 0.025793366312282424
401.0, 0.02025689142887738
402.0, 0.015819416221716866
403.0, 0.01234228436883789
404.0, 0.007454827794877101
405.0, 0.005498046523177841
406.0, 0.0025993262286271067
407.0, 0.0029252510222977624
408.0, 0.0073594963959531115
409.0, 0.005131176593408199
410.0, 0.00837268718272961
411.0, 0.009876202158540105
412.0, 0.00973706156877563
413.0, 0.010523418941115066
414.0, 0.007985277678730121
415.0, 0.00749448924852381
416.0, 0.008424083713146511
417.0, 0.005177767143430712
418.0, 0.0009927390695999145
419.0, 0.000494932486108732
420.0, 0.0029704137531522
421.0, 0.0011251998125531271
422.0, 0.00591869154172635
423.0, 0.008974026048550163
424.0, 0.012493812022400713
425.0, 0.016273576291712638
426.0, 0.015942488424027842
427.0, 0.017987864756752837
428.0, 0.022448500019229666
429.0, 0.026213805538959058
430.0, 0.027629549444452842
431.0, 0.032466807991034706
432.0, 0.03908525957203581
433.0, 0.0471647901810202
434.0, 0.054298635589254116
435.0, 0.05758498496590976
436.0, 0.06229486848746649
437.0, 0.07358795109961967
438.0, 0.08308606514375036
439.0, 0.0902926539197141
440.0, 0.0978706490438964
441.0, 0.10590976663934457
442.0, 0.12595412506670944
443.0, 0.1315136997697967
444.0, 0.13655360518989887
445.0, 0.1483286065755409
446.0, 0.16019115834650843
447.0, 0.16707810234482523
448.0, 0.18155094594238552
449.0, 0.1955611230299322
450.0, 0.20165010337231826
451.0, 0.2015377959248987
452.0, 0.20652756620297724
453.0, 0.2167571420863833
454.0, 0.21773065816149997
455.0, 0.22208437310091123
456.0, 0.2310567335977608
457.0, 0.23549577743954933
458.0, 0.23247125056123008
459.0, 0.2346799606105068
460.0, 0.2323551984600519
461.0, 0.228998938085005
462.0, 0.23061240355921972
463.0, 0.23560715126675522
464.0, 0.22818048933495733
465.0, 0.2243301033885805
466.0, 0.22425853726544273
467.0, 0.22377406679073591
468.0, 0.22036538523222654
469.0, 0.21614736328785497
470.0, 0.21382028111481105
471.0, 0.2074102397317974
472.0, 0.20293540726604936
473.0, 0.2001838693752604
474.0, 0.19448373973434
475.0, 0.19357267367291559
476.0, 0.18665671027051026
477.0, 0.18432161946848716
478.0, 0.18032262019718462
479.0, 0.1721042854189187
480.0, 0.16851742716622822
481.0, 0.16698898637339285
482.0, 0.16010978545114765
483.0, 0.16071388822121968
484.0, 0.16064105990379632
485.0, 0.15522699936381215
486.0, 0.15984794268548239
487.0, 0.15390932063803553
488.0, 0.15351375451181185
489.0, 0.1543782590476866
490.0, 0.15370267008790509
491.0, 0.1533097935791152
492.0, 0.1540170632867655
493.0, 0.15114786808998007
494.0, 0.15525630891509765
495.0, 0.15751981033307638
496.0, 0.15395925690004145
497.0, 0.15041625412437612
498.0, 0.15426342682935373
499.0, 0.1527641535951395
500.0, 0.15058834741287688
501.0, 0.14989132686517506
502.0, 0.147124311369459
503.0, 0.13832991966382738
504.0, 0.13345808267426643
505.0, 0.1302598260652972
506.0, 0.1263868323382054
507.0, 0.12023225760297791
508.0, 0.11216809528308741
509.0, 0.10430599873819078
510.0, 0.09996551115504271
511.0, 0.09005201045653374
512.0, 0.08446545152419203
513.0, 0.08076546894074488
514.0, 0.07508559176205329
515.0, 0.06977413512116569
516.0, 0.06686782825393707
517.0, 0.05804983334895478
518.0, 0.05141581439615387
519.0, 0.04818180824858368
520.0, 0.044773270126677644
521.0, 0.03989575466975132
522.0, 0.03642515850457032
523.0, 0.032914891348770806
524.0, 0.031043517003954055
525.0, 0.028677191931552697
526.0, 0.02524641870127693
527.0, 0.023888113518596047
528.0, 0.023780384746926342
529.0, 0.01947415947715545
530.0, 0.01657140277696145
531.0, 0.017917776388892585
532.0, 0.018625846069458395
533.0, 0.014016037662829998
534.0, 0.013906790570193488
535.0, 0.0172491896699132
536.0, 0.017014672644064362
537.0, 0.016535504329947385
538.0, 0.019288443003875593
539.0, 0.023035987001060954
540.0, 0.023772105451325326
541.0, 0.03022232684913872
542.0, 0.03469111322406447
543.0, 0.03475228463465952
544.0, 0.035084552727699544
545.0, 0.04015249485147824
546.0, 0.045433253619622485
547.0, 0.044038516011770355
548.0, 0.04368626878226669
549.0, 0.048128149572414805
550.0, 0.050700244266622445
551.0, 0.04914422113583128
552.0, 0.05684832637716938
553.0, 0.05593494748278423
554.0, 0.058698134292042035
555.0, 0.06085736388256554
556.0, 0.06050340901934732
557.0, 0.06072040521011364
558.0, 0.06190008604067732
559.0, 0.06104719177163918
560.0, 0.06115578852978321
561.0, 0.060241370255260954
562.0, 0.058932354346908605
563.0, 0.059366325353115
564.0, 0.059534621126698516
565.0, 0.057258174710840416
566.0, 0.05761499166580628
567.0, 0.057191330288776
568.0, 0.05571408035949011
569.0, 0.05370335557670671
570.0, 0.04985262359966899
571.0, 0.04760329574925054
572.0, 0.046403252940282816
573.0, 0.043098904071895996
574.0, 0.03831595095196564
575.0, 0.034711565305324765
576.0, 0.03266943324202557
577.0, 0.029850639251580754
578.0, 0.027189168208684354
579.0, 0.026224068756585905
580.0, 0.02289619148125793
581.0, 0.01864101048144944
582.0, 0.017156552523133126
583.0, 0.013680212188335488
584.0, 0.01033140792089861
585.0, 0.0098154755247953
586.0, 0.011246318662652957
587.0, 0.010784164236984068
588.0, 0.007542337384286946
589.0, 0.005699216332777804
590.0, 0.005497215655331202
591.0, 0.0073722086836329375
592.0, 0.007684760092006205
593.0, 0.005049485754149119
594.0, 0.002897011761956239
595.0, 0.004347475952358993
596.0, 0.0006368284710291184
597.0, 0.0029412279822524333
598.0, 0.002244902654501916
599.0, 0.0036980068669240818
600.0, 0.00612856754090822
601.0, 0.006581538265916574
602.0, 0.006753192610997875
603.0, 0.005158777576497457
604.0, 0.0025662078074612923
605.0, 0.003402785127044305
606.0, 0.005020665191617805
607.0, 0.0028456238320067047
608.0, 0.0014794506003659048
609.0, 0.0010194165639555892
610.0, 0.0011811286134396982
611.0, 0.0007082512752119659
612.0, 0.002113589139307187
613.0, 0.004090423584303461
614.0, 0.0034510775966891606
615.0, 0.008198181583217496
616.0, 0.009110991126635683
617.0, 0.008301370036244428
618.0, 0.009256750229106884
619.0, 0.010004278226833963
620.0, 0.010698487865911667
621.0, 0.013245374318937415
622.0, 0.01603296958817709
623.0, 0.014182148124813498
624.0, 0.014240899470694634
625.0, 0.013465155681869378
626.0, 0.013099626434291274
627.0, 0.015523211231333395
628.0, 0.018314032993674546
629.0, 0.017374058241240307
630.0, 0.013842807158723037
631.0, 0.0134816453789525
632.0, 0.016975833584823997
633.0, 0.018089699953683255
634.0, 0.0163733090539632
635.0, 0.019341208327393097
636.0, 0.015194129406589166
637.0, 0.013384575370877262
638.0, 0.01463560659260048
639.0, 0.017253611386199862
640.0, 0.018661398999942763
641.0, 0.017910548739793076
642.0, 0.016981476620064398
643.0, 0.017418714630704442
644.0, 0.017006431830407464
645.0, 0.018157180328931828
646.0, 0.018006383310556092
647.0, 0.015350161555490948
648.0, 0.01284126340023708
649.0, 0.013919377228751213
650.0, 0.016117367964591674
651.0, 0.013757110196691942
652.0, 0.013924355952728344
653.0, 0.014795620775523564
654.0, 0.012604734466658933
655.0, 0.009171416483096656
656.0, 0.009574813074647292
657.0, 0.008748152664474073
658.0, 0.008822519052694995
659.0, 0.007286660211137991
660.0, 0.003861957915647949
661.0, 0.0017217667338930822
662.0, 0.0009577947241100533
663.0, 0.0032944035788071892
664.0, 0.006836372204909322
665.0, 0.007675759876902343
666.0, 0.009167989615554635
667.0, 0.009557350309118664
668.0, 0.008860704909271754
669.0, 0.01104579181281842
670.0, 0.01106958619927421
671.0, 0.013145793144302167
672.0, 0.01400200848421136
673.0, 0.012721475047284795
674.0, 0.009253237650180933
675.0, 0.006994667050847721
676.0, 0.009448296265824767
677.0, 0.011213941563103671
678.0, 0.009821380322095872
679.0, 0.006841885529244053
680.0, 0.001778482261772708
681.0, 0.0015644069035797596
682.0, 0.0016162086794420368
683.0, 0.0053296781387556875
684.0, 0.0052131163567300165
685.0, 0.01070805429600466
686.0, 0.01565688315373359
687.0, 0.02340819012634843
688.0, 0.031565547764068926
689.0, 0.03723631324114059
690.0, 0.04406479435109611
691.0, 0.056592499488735265
692.0, 0.06775532389661429
693.0, 0.07314385039338984
694.0, 0.08443631106112445
695.0, 0.09560692341100595
696.0, 0.10686081024274682
697.0, 0.11876373103953475
698.0, 0.12668049294598216
699.0, 0.13719912042704865
700.0, 0.14066540003546746
701.0, 0.144192510757532
702.0, 0.14575148968205454
703.0, 0.1458785971864279
704.0, 0.14342333285512926
705.0, 0.1361730852791881
706.0, 0.1323937669074459
707.0, 0.12700666692775497
708.0, 0.1188529400545931
709.0, 0.1147892645406626
710.0, 0.10847117594833289
711.0, 0.09743096788967794
712.0, 0.0894728740996881
713.0, 0.08927110921906228
714.0, 0.08118746173302742
715.0, 0.07648464905597081
716.0, 0.07172825634881448
717.0, 0.06976623387666726
718.0, 0.06761258692393429
719.0, 0.06799818115812144
720.0, 0.07214236417923314
721.0, 0.06837973934750481
722.0, 0.06292774045103483
723.0, 0.06657372268522464
724.0, 0.06522177431694857
725.0, 0.06536959377747524
726.0, 0.06754931818864657
727.0, 0.06487324924590311
728.0, 0.06222803116503527
729.0, 0.06250885076481598
730.0, 0.06274236039114389
731.0, 0.06234742680914302
732.0, 0.0647641321222887
733.0, 0.07150964998529194
734.0, 0.07517506334217916
735.0, 0.07245203459699714
736.0, 0.0772335434942079
737.0, 0.08544675160004395
738.0, 0.08912795108238647
739.0, 0.09783240386593993
740.0, 0.10468475021320062
741.0, 0.11124275745886349
742.0, 0.12131061866571947
743.0, 0.1315542760951236
744.0, 0.13878852825813176
745.0, 0.14813218076067472
746.0, 0.15432147330908655
747.0, 0.16820535318088184
748.0, 0.18535225284466006
749.0, 0.20182283466881099
750.0, 0.21568978080293097
751.0, 0.2290987763229968
752.0, 0.25270142434043197
753.0, 0.27194825856899724
754.0, 0.29686180617362873
755.0, 0.31719539415118625
756.0, 0.33804452169061056
757.0, 0.36271406582445814
758.0, 0.38906168411738246
759.0, 0.4175932931953652
760.0, 0.4458642181030949
761.0, 0.47903684567641247
762.0, 0.5055243465658404
763.0, 0.5318762234250757
764.0, 0.5586351992161463
765.0, 0.5856334055485367
766.0, 0.6138987581544082
767.0, 0.6409984282544786
768.0, 0.6620061110325424
769.0, 0.6799739104863445
770.0, 0.701892126482097
771.0, 0.7225704297671742
772.0, 0.7370919649146723
773.0, 0.7477297337035995
774.0, 0.7612507590084366
775.0, 0.7796751898794873
776.0, 0.7909489033572807
777.0, 0.795574810065177
778.0, 0.8169044305509809
779.0, 0.8333677388435645
780.0, 0.8524065703541341
781.0, 0.872898987951872
782.0, 0.8892745578203812
783.0, 0.9104364280456496
784.0, 0.9435686669990424
785.0, 0.9669147328192507
786.0, 0.9801365430584927
787.0, 0.9883669455657446
788.0, 0.9976317262000849
789.0, 0.9972984499995832
790.0, 0.9841335819410478
791.0, 0.9637453306309095
792.0, 0.9337168033337974
793.0, 0.891550686748421
794.0, 0.8410129669278587
795.0, 0.7865556066392011
796.0, 0.7379181892800974
797.0, 0.6875769639578295
798.0, 0.6329158886550802
799.0, 0.5808114920399436
800.0, 0.5359614840489094
801.0, 0.49970177697427587
802.0, 0.4569575701525981
803.0, 0.4241429586754138
804.0, 0.39062794026707637
805.0, 0.36272265071711196
806.0, 0.339670138257853
807.0, 0.31640920746940066
808.0, 0.2955545499022885
809.0, 0.28116316660615326
810.0, 0.2671198065207148
811.0, 0.25849496639444247
812.0, 0.25712834869420886
813.0, 0.24900249384830947
814.0, 0.24399595458736437
815.0, 0.24133633843209573
816.0, 0.24597314852377244
817.0, 0.24933359343476735
818.0, 0.259565242775153
819.0, 0.276812798194456
820.0, 0.2989028853876191
821.0, 0.31864386576783854
822.0, 0.33794342450761555
823.0, 0.365034905983804
824.0, 0.3979270268468773
825.0, 0.4279645830165544
826.0, 0.45351050931195047
827.0, 0.47604282780308116
828.0, 0.4822187366326902
829.0, 0.4732196447020722
830.0, 0.4445633512378089
831.0, 0.3861769413306796
832.0, 0.3236921127512864
833.0, 0.26309694641377385
834.0, 0.20116648874904997
835.0, 0.15598286595962596
836.0, 0.1181606525956945
837.0, 0.0880528356847266
838.0, 0.06442683740803076
839.0, 0.04857354145347795
840.0, 0.037022304972256316
841.0, 0.02824868226256641
842.0, 0.020244198660131933
843.0, 0.010690525010920519
844.0, 0.0038534468409745708
845.0, 0.0024803555879810116
846.0, 0.0037079545127834852
847.0, 0.007142593801303854
848.0, 0.007278091419076252
849.0, 0.009820017752804664
850.0, 0.011905118406327438
851.0, 0.011405156107200158
852.0, 0.010094025661084105
853.0, 0.009881584345974666
854.0, 0.012261135965828103
855.0, 0.008488438837948286
856.0, 0.007749540733627701
857.0, 0.008350929561852823
858.0, 0.009108679510335983
859.0, 0.009881129838368403
860.0, 0.008775491262355955
861.0, 0.006603774339368152
862.0, 0.005739403980492861
863.0, 0.004158639869908203
864.0, 0.0055740705238080035
865.0, 0.004690132111390577
866.0, 0.0034916266582109344
867.0, 0.0011265145252083262
868.0, 0.0016018206457163397
869.0, 0.0010525513185254817
870.0, 0.0027828979314374713
871.0, 0.00566595214825373
872.0, 0.0059188246048993125
873.0, 0.0062909446233504725
874.0, 0.006569733545992242
875.0, 0.008463545343470063
876.0, 0.009462486497775653
877.0, 0.009933703857729114
878.0, 0.012089554134094217
879.0, 0.014259775231114406
880.0, 0.015322499867503817
881.0, 0.01641518422785616
882.0, 0.016160914889722513
883.0, 0.018675296551982426
884.0, 0.02016332247040912
885.0, 0.022886521234705495
886.0, 0.023581952819769804
887.0, 0.023966565254373216
888.0, 0.024913404795774145
889.0, 0.026674725781926405
890.0, 0.027776571015432308
891.0, 0.0264932351276469
892.0, 0.02736734984224319
893.0, 0.02798937944630454
894.0, 0.026073251956326173
895.0, 0.028443721282413535
896.0, 0.02895945763155128
897.0, 0.029545214042391573
898.0, 0.03067096999100743
899.0, 0.02945075376643944
900.0, 0.029482263718573844
901.0, 0.033720240074629426
902.0, 0.033815604580350024
903.0, 0.033627756679865874
904.0, 0.033467376754584846
905.0, 0.03375525102322815
906.0, 0.037112723392638866
907.0, 0.03759075601704327
908.0, 0.038416701170681765
909.0, 0.03879887292938554
910.0, 0.03602479360203222
911.0, 0.035822457170592924
912.0, 0.034751607459103516
913.0, 0.030811556927757555
914.0, 0.03233458472560475
915.0, 0.030105820740879738
916.0, 0.02657823201729971
917.0, 0.027004120627992442
918.0, 0.026222265429524664
919.0, 0.02482853475597522
920.0, 0.023551915242564204
921.0, 0.021506734784009357
922.0, 0.021847179048125588
923.0, 0.02087105375535226
924.0, 0.01903406520923696
925.0, 0.020517181781868656
926.0, 0.020847546768671937
927.0, 0.01938966039112893
928.0, 0.018822753465997443
929.0, 0.01871068442086303
930.0, 0.01866851984322627
931.0, 0.018246026069311003
932.0, 0.016669039198223826
933.0, 0.01528698001826228
934.0, 0.013487165758421295
935.0, 0.013818116252581811
936.0, 0.016326661126363776
937.0, 0.016156451445392114
938.0, 0.013842170881909026
939.0, 0.013848854488745538
940.0, 0.014827595723292607
941.0, 0.015087069679145816
942.0, 0.014604133655647798
943.0, 0.01261552570686355
944.0, 0.011791542398307629
945.0, 0.015273217955757945
946.0, 0.013270183734340586
947.0, 0.011532329085968676
948.0, 0.011822965253517264
949.0, 0.01224488043527945
950.0, 0.010735315625652558
951.0, 0.010858658422807246
952.0, 0.013518440775399865
953.0, 0.013721556649476179
954.0, 0.011906930673667531
955.0, 0.01204221086720506
956.0, 0.011243187320415945
957.0, 0.011491330463940729
958.0, 0.010648722005949057
959.0, 0.00827275043985469
960.0, 0.007158658274341977
961.0, 0.009634477144114341
962.0, 0.010648586020666867
963.0, 0.007906791261952647
964.0, 0.007177570075008103
965.0, 0.010431257894524124
966.0, 0.009784769368455796
967.0, 0.008634368537930507
968.0, 0.00846637696643709
969.0, 0.008445571891818321
970.0, 0.006562438828619745
971.0, 0.005942986077975279
972.0, 0.005701277528226002
973.0, 0.005508876044364641
974.0, 0.005996751588110086
975.0, 0.005893697877693893
976.0, 0.004927015542076078
977.0, 0.004155534441799238
978.0, 0.002733509636441389
979.0, 0.00359349541640177
980.0, 0.005945379520076034
981.0, 0.0034282158048523814
982.0, 0.003394016519750173
983.0, 0.0034364950249229343
984.0, 0.004164208812081757
985.0, 0.0027908649375528705
986.0, 0.0018215696233985323
987.0, 0.0014558643672156384
988.0, 0.0014457527160374004
989.0, 0.0033068230602187132
990.0, 0.0034455052402191173
991.0, 0.001463288996144152
992.0, 0.0008293021421810178
993.0, 0.00239605088222569
994.0, 0.0006771934540297707
995.0, 0.0012080713331014071
996.0, 0.0017043491693625394
997.0, 0.0030282802703308458
998.0, 0.004995259269482445
999.0, 0.004440001110820829
1000.0, 0.0027874954577011947
1001.0, 0.0031007129512346443
1002.0, 0.004079629204887657
1003.0, 0.005469625912316537
1004.0, 0.005409922845433974
1005.0, 0.00354317315068077
1006.0, 0.003933585221037814
1007.0, 0.0062622272583365566
1008.0, 0.006394751095635094
1009.0, 0.005552784160806524
1010.0, 0.0057754733494353285
1011.0, 0.006337133764965947
1012.0, 0.008029910769371953
1013.0, 0.010038519292569575
1014.0, 0.01086833226974348
1015.0, 0.012678733154719533
1016.0, 0.014869371606930788
1017.0, 0.019057287482421494
1018.0, 0.019656742139974842
1019.0, 0.01914727802348509
1020.0, 0.02313389721330661
1021.0, 0.0260193994584917
1022.0, 0.029588034701340565
1023.0, 0.033512632729311445
1024.0, 0.03383631993461823
1025.0, 0.03561645631707497
1026.0, 0.03602069145014742
1027.0, 0.031714261717698866
1028.0, 0.031995419390225786
1029.0, 0.029927998715868577
1030.0, 0.027765668365598795
1031.0, 0.022385241114203022
1032.0, 0.020240676635255576
1033.0, 0.02030715824785894
1034.0, 0.013640266415616902
1035.0, 0.011927104028587262
1036.0, 0.01316163899971961
1037.0, 0.010302120889981439
1038.0, 0.009510168436512378
1039.0, 0.009889389073892932
1040.0, 0.007461900502067085
1041.0, 0.006792602361409237
1042.0, 0.007341437546434115
1043.0, 0.006964575253480626
1044.0, 0.004424285994034953
1045.0, 0.004154228940588719
1046.0, 0.0027793769846534873
1047.0, 0.0028705409757474472
1048.0, 0.00309894360734644
1049.0, 0.0012303367796163778
1050.0, 0.0009480849768973557
1051.0, 0.0006940195244524687
1052.0, 4.654343738241721e-05
1053.0, 0.0007641300287108178
1054.0, 0.0006964916755951062
1055.0, 0.0013294213472474514
1056.0, 0.0021809248843069865
1057.0, 0.00068982088190371
1058.0, 0.0011478585105319707
1059.0, 0.0006543873534555254
1060.0, 0.0019315698677796367
1061.0, 0.000471079958257734
1062.0, 0.00098531878944961
1063.0, 0.0016538817604593449
1064.0, 0.00043371739031777915
1065.0, 0.00021917986137543686
1066.0, 5.001240534490797e-05
1067.0, 0.0008848259401939479
1068.0, 0.0011883787987168972
1069.0, 0.001248908619504562
1070.0, 0.0022528523767522757
1071.0, 0.002215802615212804
1072.0, 0.0012729611472592174
1073.0, 0.00046829751390383095
1074.0, 0.0005665315949197693
1075.0, 0.0012173626089196526
1076.0, 0.00032978712560931104
1077.0, 0.0024927559024051967
1078.0, 0.0004383724389828861
1079.0, 0.00025714111953869905
1080.0, 0.0017876470217224882
1081.0, 0.0007345468649397052
1082.0, 0.0007106726694530502
1083.0, 0.0015277956647407427
1084.0, 0.0015967126647252943
1085.0, 0.0012447994064172527
1086.0, 0.0009185817358864299
1087.0, 0.0005763746905495174
1088.0, 0.00023371335101073865
1089.0, 0.0008824596526732454
1090.0, 0.0003916408036738162
1091.0, 0.0015109466271056274
1092.0, 0.0010605549456006516
1093.0, 0.0005549238347101645
1094.0, 0.0013139989588579599
1095.0, 0.0008010621916986888
1096.0, 0.0015363737854373963
1097.0, 0.002630064586556668
1098.0, 0.0019018585419808415
1099.0, 0.0020180938197762012
1100.0, 0.002417829324647723
1101.0, 0.00063357799680719
1102.0, 0.0005329094571156273
1103.0, 0.0008845446868163509
1104.0, 0.0005998266350478672
1105.0, 0.0010004513246942178
1106.0, 0.0002725972135885472
1107.0, 0.0038754064731191897
1108.0, 0.0029016871657349228
1109.0, 0.0037185134270993807
1110.0, 0.0031090320101586646
1111.0, 0.002228584863608692
1112.0, 0.0023758127770330813
1113.0, 0.002696985191123897
1114.0, 0.004272591064214125
1115.0, 0.004278716777423328
1116.0, 0.003055139906079902
1117.0, 0.0021995367244587
1118.0, 0.0025022241856314043
1119.0, 0.0032267206475849503
1120.0, 0.0025620015033504845
1121.0, 0.004476125286705229
1122.0, 0.0041669418472359285
1123.0, 0.0057252354285904595
1124.0, 0.0019219004687330845
1125.0, 0.0027236986593816397
1126.0, 0.003281063582417687
1127.0, 0.004402584751527558
1128.0, 0.003414389640984988
1129.0, 0.001788008585208246
1130.0, 0.004486187542236019
1131.0, 0.002673123166147783
1132.0, 0.00215332865739781
1133.0, 0.005033711801227498
1134.0, 0.005731054431577003
1135.0, 0.002733831164872518
1136.0, 0.003138290672673563
1137.0, 0.005449607768323905
1138.0, 0.0033266980646833692
1139.0, 0.0032597999928552735
1140.0, 0.002789651035794537
1141.0, 0.005465292504544222
1142.0, 0.0033016666168479
1143.0, 0.004354619585086944
1144.0, 0.005025355383264929
1145.0, 0.0057954293038773134
1146.0, 0.0060824401843058325
1147.0, 0.00475755108593667
1148.0, 0.0006025992148798974
1149.0, 0.002806091205350769
1150.0, 0.0033150869543860026
1151.0, 0.002330307208734136
1152.0, 0.003316090743409774
1153.0, 0.0038442708644132145
1154.0, 0.003491354404470244
1155.0, 0.00252216317983846
1156.0, 0.0006578528559472688
1157.0, 0.0009412702173162937
1158.0, 0.0033733086999929575
1159.0, 0.003742360383053137
1160.0, 0.0024080988970734928
1161.0, 0.001051909471836701
1162.0, 0.0014997083790262758
1163.0, 0.0006041413851459015
1164.0, 0.0008377106411110527
1165.0, 0.0018458259424198435
1166.0, 0.0016381768277041716
1167.0, 0.0007214888449451086
1168.0, 5.670095562964254e-05
1169.0, 0.002267942268889831
1170.0, 0.003777527309730218
1171.0, 0.001250203132237651
1172.0, 0.00044504105810929295
1173.0, 0.00013839125321296456
1174.0, 0.0016089229043709627
1175.0, 0.001982696365366818
1176.0, 0.001990835271604107
1177.0, 0.001971460688182162
1178.0, 0.0021891909164550192
1179.0, 0.004864672075082387
1180.0, 0.005564651191642686
1181.0, 0.005528647305186143
1182.0, 0.004126070731384085
1183.0, 0.0016245100823267934
1184.0, 0.0046609907688221226
1185.0, 0.005930382705950475
1186.0, 0.007197495628368537
1187.0, 0.0024791272664839246
1188.0, 0.0027800260043989557
1189.0, 0.0031467639089066144
1190.0, 0.003890402151097399
1191.0, 0.002756550302626577
1192.0, 0.005937224509200876
1193.0, 0.006738290062201534
1194.0, 0.00413934559313186
1195.0, 0.00587929439872634
1196.0, 0.004222055660646749
1197.0, 0.004738048628150641
1198.0, 0.004657717856118493
1199.0, 0.0039002760580113165
1200.0, 0.005314897798717023
1201.0, 0.006792581359844584
1202.0, 0.00758772686905392
1203.0, 0.007544880638761744
1204.0, 0.006464352484790262
1205.0, 0.006822240075540908
1206.0, 0.008946932940777095
1207.0, 0.008384872030365522
1208.0, 0.008284494521629776
1209.0, 0.007077393645684271
1210.0, 0.00692924922624831
1211.0, 0.009401940559937021
1212.0, 0.008791166777143838
1213.0, 0.010772878368772477
1214.0, 0.009537898252660378
1215.0, 0.008695404586231113
1216.0, 0.010110831746949635
1217.0, 0.010514856763241353
1218.0, 0.008049278734103885
1219.0, 0.008632516346784084
1220.0, 0.008568408685664497
1221.0, 0.006404065870534443
1222.0, 0.0069910383656126875
1223.0, 0.008674145862287345
1224.0, 0.008087925682528179
1225.0, 0.008842609196272479
1226.0, 0.006920129314539716
1227.0, 0.005917886815495337
1228.0, 0.004992510590862889
1229.0, 0.003824414788258417
1230.0, 0.005776057742291857
1231.0, 0.007152165702795647
1232.0, 0.0056846370984461065
1233.0, 0.0045167846393096515
1234.0, 0.0037080178289710304
1235.0, 0.003420004945849235
1236.0, 0.003914863945400315
1237.0, 0.003466368671395524
1238.0, 0.0037383849161332335
1239.0, 0.004268116956275025
1240.0, 0.0003719875678828433
1241.0, 0.0023954245408528106
1242.0, 0.002068093957508358
1243.0, 0.004167974690143454
1244.0, 0.0021936062127316737
1245.0, 0.003544005628184715
1246.0, 0.003748108258233142
1247.0, 0.002541777192886666
1248.0, 0.0040060692276375955
1249.0, 0.0047428097898350695
1250.0, 0.006681973079412564
1251.0, 0.002470959468177646
1252.0, 0.0021433610916007126
1253.0, 0.0028859105893877073
1254.0, 0.001061416831362941
1255.0, 7.77519850058748e-05
1256.0, 5.77762425250085e-06
1257.0, 0.00019506546183422794
1258.0, 0.003397626976525444
1259.0, 0.0024491899599663434
1260.0, 0.001151756917434458
1261.0, 0.0026498549496391825
1262.0, 0.001928698581932803
1263.0, 0.0019260985142108347
1264.0, 0.0010169529540206023
1265.0, 0.0011342918762531806
1266.0, 0.003398547744339455
1267.0, 0.002445096412594259
1268.0, 0.0009798161372186604
1269, 0.0
1270, 0.0
1271, 0.0
1272, 0.0
1273, 0.0
1274, 0.0
1275, 0.0
1276, 0.0
1277, 0.0
1278, 0.0
1279, 0.0
1280, 0.0
1281, 0.0
1282, 0.0
1283, 0.0
1284, 0.0
1285, 0.0
1286, 0.0
1287, 0.0
1288, 0.0
1289, 0.0
1290, 0.0
1291, 0.0
1292, 0.0
1293, 0.0
1294, 0.0
1295, 0.0
1296, 0.0
1297, 0.0
1298, 0.0
1299, 0.0
1300, 0.0
1301, 0.0
1302, 0.0
1303, 0.0
1304, 0.0
1305, 0.0
1306, 0.0
1307, 0.0
1308, 0.0
1309, 0.0
1310, 0.0
1311, 0.0
1312, 0.0
1313, 0.0
1314, 0.0
1315, 0.0
1316, 0.0
1317, 0.0
1318, 0.0
1319, 0.0
1320, 0.0
1321, 0.0
1322, 0.0
1323, 0.0
1324, 0.0
1325, 0.0
1326, 0.0
1327, 0.0
1328, 0.0
1329, 0.0
1330, 0.0
1331, 0.0
1332, 0.0
1333, 0.0
1334, 0.0
1335, 0.0
1336, 0.0
1337, 0.0
1338, 0.0
1339, 0.0
1340, 0.0
1341, 0.0
1342, 0.0
1343, 0.0
1344, 0.0
1345, 0.0
1346, 0.0
1347, 0.0
1348, 0.0
1349, 0.0
1350, 0.0
1351, 0.0
1352, 0.0
1353, 0.0
1354, 0.0
1355, 0.0
1356, 0.0
1357, 0.0
1358, 0.0
1359, 0.0
1360, 0.0
1361, 0.0
1362, 0.0
1363, 0.0
1364, 0.0
1365, 0.0
1366, 0.0
1367, 0.0
1368, 0.0
1369, 0.0
1370, 0.0
1371, 0.0
1372, 0.0
1373, 0.0
1374, 0.0
1375, 0.0
1376, 0.0
1377, 0.0
1378, 0.0
1379, 0.0
1380, 0.0
1381, 0.0
1382, 0.0
1383, 0.0
1384, 0.0
1385, 0.0
1386, 0.0
1387, 0.0
1388, 0.0
1389, 0.0
1390, 0.0
1391, 0.0
1392, 0.0
1393, 0.0
1394, 0.0
1395, 0.0
1396, 0.0
1397, 0.0
1398, 0.0
1399, 0.0
1400, 0.0
1401, 0.0
1402, 0.0
1403, 0.0
1404, 0.0
1405, 0.0
1406, 0.0
1407, 0.0
1408, 0.0
1409, 0.0
1410, 0.0
1411, 0.0
1412, 0.0
1413, 0.0
1414, 0.0
1415, 0.0
1416, 0.0
1417, 0.0
1418, 0.0
1419, 0.0
1420, 0.0
1421, 0.0
1422, 0.0
1423, 0.0
1424, 0.0
1425, 0.0
1426, 0.0
1427, 0.0
1428, 0.0
1429, 0.0
1430, 0.0
1431, 0.0
1432, 0.0
1433, 0.0
1434, 0.0
1435, 0.0
1436, 0.0
1437, 0.0
1438, 0.0
1439, 0.0
1440, 0.0
1441, 0.0
1442, 0.0
1443, 0.0
1444, 0.0
1445, 0.0
1446, 0.0
1447, 0.0
1448, 0.0
1449, 0.0
1450, 0.0
1451, 0.0
1452, 0.0
1453, 0.0
1454, 0.0
1455, 0.0
1456, 0.0
1457, 0.0
1458, 0.0
1459, 0.0
1460, 0.0
1461, 0.0
1462, 0.0
1463, 0.0
1464, 0.0
1465, 0.0
1466, 0.0
1467, 0.0
1468, 0.0
1469, 0.0
1470, 0.0
1471, 0.0
1472, 0.0
1473, 0.0
1474, 0.0
1475, 0.0
1476, 0.0
1477, 0.0
1478, 0.0
1479, 0.0
1480, 0.0
1481, 0.0
1482, 0.0
1483, 0.0
1484, 0.0
1485, 0.0
1486, 0.0
1487, 0.0
1488, 0.0
1489, 0.0
1490, 0.0
1491, 0.0
1492, 0.0
1493, 0.0
1494, 0.0
1495, 0.0
1496, 0.0
1497, 0.0
1498, 0.0
1499, 0.0
1500, 0.0
1501, 0.0
1502, 0.0
1503, 0.0
1504, 0.0
1505, 0.0
1506, 0.0
1507, 0.0
1508, 0.0
1509, 0.0
1510, 0.0
1511, 0.0
1512, 0.0
1513, 0.0
1514, 0.0
1515, 0.0
1516, 0.0
1517, 0.0
1518, 0.0
1519, 0.0
1520, 0.0
1521, 0.0
1522, 0.0
1523, 0.0
1524, 0.0
1525, 0.0
1526, 0.0
1527, 0.0
1528, 0.0
1529, 0.0
1530, 0.0
1531, 0.0
1532, 0.0
1533, 0.0
1534, 0.0
1535, 0.0
1536, 0.0
1537, 0.0
1538, 0.0
1539, 0.0
1540, 0.0
1541, 0.0
1542, 0.0
1543, 0.0
1544, 0.0
1545, 0.0
1546, 0.0
1547, 0.0
1548, 0.0
1549, 0.0
1550, 0.0
1551, 0.0
1552, 0.0
1553, 0.0
1554, 0.0
1555, 0.0
1556, 0.0
1557, 0.0
1558, 0.0
1559, 0.0
1560, 0.0
1561, 0.0
1562, 0.0
1563, 0.0
1564, 0.0
1565, 0.0
1566, 0.0
1567, 0.0
1568, 0.0
1569, 0.0
1570, 0.0
1571, 0.0
1572, 0.0
1573, 0.0
1574, 0.0
1575, 0.0
1576, 0.0
1577, 0.0
1578, 0.0
1579, 0.0
1580, 0.0
1581, 0.0
1582, 0.0
1583, 0.0
1584, 0.0
1585, 0.0
1586, 0.0
1587, 0.0
1588, 0.0
1589, 0.0
1590, 0.0
1591, 0.0
1592, 0.0
1593, 0.0
1594, 0.0
1595, 0.0
1596, 0.0
1597, 0.0
1598, 0.0
1599, 0.0
