30, 0.0
31, 0.0
32, 0.0
33, 0.0
34, 0.0
35, 0.0
36, 0.0
37, 0.0
38, 0.0
39, 0.0
40, 0.0
41, 0.0
42, 0.0
43, 0.0
44, 0.0
45, 0.0
46, 0.0
47, 0.0
48, 0.0
49, 0.0
50, 0.0
51, 0.0
52, 0.0
53, 0.0
54, 0.0
55, 0.0
56, 0.0
57, 0.0
58, 0.0
59, 0.0
60, 0.0
61, 0.0
62, 0.0
63, 0.0
64, 0.0
65, 0.0
66, 0.0
67, 0.0
68, 0.0
69, 0.0
70, 0.0
71, 0.0
72, 0.0
73, 0.0
74, 0.0
75, 0.0
76, 0.0
77, 0.0
78, 0.0
79, 0.0
80, 0.0
81, 0.0
82, 0.0
83, 0.0
84, 0.0
85, 0.0
86, 0.0
87, 0.0
88, 0.0
89, 0.0
90, 0.0
91, 0.0
92, 0.0
93, 0.0
94.0, 7.536179791255058e-05
95.0, 0.00013978377496300245
96.0, 1.4482150197032669e-05
97.0, 9.439166455004399e-05
98.0, 0.0021030547665996657
99.0, 0.0031123894447708873
100.0, 0.003488867980611178
101.0, 0.004322095843599302
102.0, 0.0032344196135650183
103.0, 0.005954821530617613
104.0, 0.01001609983109151
105.0, 0.014027228419972127
106.0, 0.017715931907880837
107.0, 0.023057899992769526
108.0, 0.03007995506905682
109.0, 0.03917957283198815
110.0, 0.04324037612321899
111.0, 0.04012138180711196
112.0, 0.0339309391380463
113.0, 0.03039519365338354
114.0, 0.03318203600602269
115.0, 0.03624450038675008
116.0, 0.038221179333894476
117.0, 0.040055166384947063
118.0, 0.04051683405289196
119.0, 0.0414061907264411
120.0, 0.0427370533096001
121.0, 0.04527317047637782
122.0, 0.04768251197534324
123.0, 0.04250756899574172
124.0, 0.034502875730919765
125.0, 0.02870638584454405
126.0, 0.023162990364858714
127.0, 0.018794002334290797
128.0, 0.020223415175850815
129.0, 0.021929686661784003
130.0, 0.024785863595478862
131.0, 0.028573548036036334
132.0, 0.03354819737059412
133.0, 0.03987389037430039
134.0, 0.04576893026591295
135.0, 0.052576274000921464
136.0, 0.06138849949334042
137.0, 0.06810573593776488
138.0, 0.07017514613368288
139.0, 0.0712126949055389
140.0, 0.0648937787901935
141.0, 0.055223794116453374
142.0, 0.045047102638198465
143.0, 0.035030803039600225
144.0, 0.024026362669498612
145.0, 0.018055772532131826
146.0, 0.010332179194334339
147.0, 0.004751849702702085
148.0, 0.0018274481634555446
149.0, 0.0008872688930111157
150.0, 0.002759791326048008
151.0, 0.0019707825806444717
152.0, 0.0012697360452437179
153.0, 0.0008447335330127308
154.0, 0.0007408683827628441
155.0, 0.0013074471606857661
156.0, 0.0014858285133298314
157.0, 0.0018415497457543106
158.0, 0.0029897483107551976
159.0, 0.005104201733259468
160.0, 0.007921682381938949
161.0, 0.010328418958834755
162.0, 0.013403601802802239
163.0, 0.017010867330252304
164.0, 0.020412065480068464
165.0, 0.022641859741870846
166.0, 0.022543742610359567
167.0, 0.02210063538682877
168.0, 0.020027100289833035
169.0, 0.017906272939621395
170.0, 0.01627737326620552
171.0, 0.014652563198786734
172.0, 0.013214217012284755
173.0, 0.01138835202253237
174.0, 0.007993016467838402
175.0, 0.005127145923073028
176.0, 0.0043310408327784326
177.0, 0.002418017968976574
178.0, 0.0005568532866733662
179.0, 0.0010530683422315874
180.0, 0.001315845563040261
181.0, 0.0009108870814642426
182.0, 0.0018232156996137784
183.0, 0.0014534254893754477
184.0, 0.003416715836257691
185.0, 0.0047877234968906985
186.0, 0.005577439630300232
187.0, 0.006650630848239742
188.0, 0.007988589578663642
189.0, 0.010380080908694486
190.0, 0.01275662711805281
191.0, 0.014953022255296397
192.0, 0.017679042073886524
193.0, 0.022160673643797694
194.0, 0.024029508548652767
195.0, 0.02690829229154272
196.0, 0.030182731413678724
197.0, 0.03386779913130136
198.0, 0.03768989101870236
199.0, 0.039661972526177106
200.0, 0.04423927626517205
201.0, 0.049571769806114066
202.0, 0.05369908925865451
203.0, 0.05577643309257878
204.0, 0.056065833882482326
205.0, 0.05157161446262101
206.0, 0.04751149812486233
207.0, 0.042939155465165656
208.0, 0.038440267131988524
209.0, 0.03480571483818498
210.0, 0.03191990606311614
211.0, 0.03084428165615667
212.0, 0.030498203585841602
213.0, 0.029363506596366478
214.0, 0.027711078971125756
215.0, 0.027286538506353954
216.0, 0.02828137004970494
217.0, 0.02671544627350969
218.0, 0.02845552210027962
219.0, 0.031147441563876874
220.0, 0.03227735874867926
221.0, 0.03400104621618147
222.0, 0.034265308850615864
223.0, 0.036792632294792
224.0, 0.03937144924401047
225.0, 0.04230238309906694
226.0, 0.04603192726432947
227.0, 0.040068731324963004
228.0, 0.03753876800299288
229.0, 0.03400052961170351
230.0, 0.03050918952278052
231.0, 0.027769428833793203
232.0, 0.02449421428854657
233.0, 0.021478114523493796
234.0, 0.018949884872967324
235.0, 0.01675454595536592
236.0, 0.014872709306299204
237.0, 0.012939159058073331
238.0, 0.009136905017227331
239.0, 0.007345688581418745
240.0, 0.005418328922818019
241.0, 0.0035562373545701413
242.0, 0.0019298177935892003
243.0, 0.0006670105976764839
244.0, 0.002161744010624218
245.0, 0.0024883864430782824
246.0, 0.0022874299375722175
247.0, 0.002568623704215043
248.0, 0.00303696626644948
249.0, 0.0007514916170617849
250.0, 0.0009874629123540202
251.0, 0.0014545258789955711
252.0, 0.0026426533863582284
253.0, 0.004481369224942936
254.0, 0.006633434389011478
255.0, 0.009145227590033712
256.0, 0.010202879793864127
257.0, 0.014567959387726655
258.0, 0.019252892433343778
259.0, 0.023946629990049186
260.0, 0.031425234897295255
261.0, 0.03576139367179154
262.0, 0.035579301487679314
263.0, 0.03437556408397286
264.0, 0.033131947063516645
265.0, 0.03203726431551405
266.0, 0.03103467471714114
267.0, 0.0328812813540443
268.0, 0.033205206300301986
269.0, 0.032401815015431254
270.0, 0.03259775352507118
271.0, 0.03506225914096129
272.0, 0.03495394361381904
273.0, 0.03555753656911979
274.0, 0.03585214001088571
275.0, 0.03610399941505323
276.0, 0.036336546793025865
277.0, 0.036288335460394644
278.0, 0.03595485923523333
279.0, 0.035926651125233806
280.0, 0.036767563828496566
281.0, 0.03813605100512502
282.0, 0.03941455440652099
283.0, 0.04009619803521078
284.0, 0.043766171388051354
285.0, 0.04574017355078385
286.0, 0.048187424957825256
287.0, 0.05108724194818299
288.0, 0.053757639852213525
289.0, 0.05596227380688537
290.0, 0.05717823596789829
291.0, 0.05634756920924102
292.0, 0.054990221094668126
293.0, 0.053714912350222514
294.0, 0.05240490709274723
295.0, 0.050631159097203234
296.0, 0.050069528582899286
297.0, 0.05025166078143813
298.0, 0.049602995584690814
299.0, 0.04754230625184033
300.0, 0.04478886959121953
301.0, 0.043842311069120544
302.0, 0.04264527415030816
303.0, 0.04074062260686138
304.0, 0.037594943889103484
305.0, 0.03355576690236429
306.0, 0.02989350797528736
307.0, 0.02621617619840832
308.0, 0.02195966597016371
309.0, 0.01963390154976579
310.0, 0.018075097695193484
311.0, 0.015702705699065164
312.0, 0.012230022393104974
313.0, 0.01070734645931526
314.0, 0.01016893147442327
315.0, 0.008671231758613118
316.0, 0.007116595959828992
317.0, 0.006960846550180822
318.0, 0.008157715807083101
319.0, 0.00750522612388529
320.0, 0.008225975812968113
321.0, 0.008379072878302203
322.0, 0.008112541543673506
323.0, 0.008348903021380171
324.0, 0.008584110507948838
325.0, 0.011062332136971094
326.0, 0.013366799824595241
327.0, 0.014076100920511286
328.0, 0.013857205326079654
329.0, 0.014490715817043615
330.0, 0.016575095193108475
331.0, 0.016507139451329703
332.0, 0.015872007063060085
333.0, 0.015996794975757556
334.0, 0.016402816020571028
335.0, 0.015716194005335696
336.0, 0.01579949685583507
337.0, 0.01693500270411033
338.0, 0.015431429663941284
339.0, 0.014965287005751634
340.0, 0.01539803935508779
341.0, 0.013274489852888984
342.0, 0.01501805210550615
343.0, 0.013356157230615971
344.0, 0.014375819249541115
345.0, 0.015765692017236946
346.0, 0.016293987945167614
347.0, 0.017564044971726176
348.0, 0.020842215904213767
349.0, 0.021852670961040217
350.0, 0.02284017779433045
351.0, 0.024983991536799647
352.0, 0.028368457324574384
353.0, 0.031758376590821875
354.0, 0.03128924193081075
355.0, 0.03307473965681782
356.0, 0.035803621987304704
357.0, 0.03805081928679557
358.0, 0.04034849596330142
359.0, 0.04520007923092807
360.0, 0.04836415168946682
361.0, 0.048229190599308774
362.0, 0.0501475596640505
363.0, 0.05351187518245784
364.0, 0.05669533462390768
365.0, 0.05884832018581602
366.0, 0.058914666376537556
367.0, 0.05820771161500202
368.0, 0.05587954639814718
369.0, 0.05294662539830222
370.0, 0.04941641951435688
371.0, 0.04363462640875188
372.0, 0.03824937997408841
373.0, 0.03231505078976155
374.0, 0.02834313528068783
375.0, 0.023472996896463073
376.0, 0.018113427287486557
377.0, 0.01765123757303022
378.0, 0.015783387196960676
379.0, 0.013018570933514544
380.0, 0.010971646740061455
381.0, 0.00925978314561825
382.0, 0.006887306951760531
383.0, 0.0033713004590882716
384.0, 0.004458704220206062
385.0, 0.0042615996499394525
386.0, 0.0030204305540339395
387.0, 0.0024420182787522476
388.0, 0.002199425537920331
389.0, 0.00028092248805105103
390.0, 0.003152673483242234
391.0, 0.0019088086602882504
392.0, 0.0012074957740810012
393.0, 0.0038253401589105466
394.0, 0.0061150860298244914
395.0, 0.001411746778487022
396.0, 0.0027269355491956445
397.0, 0.0027634778546687367
398.0, 0.0020272554818666767
399.0, 0.0031427858634550227
400.0, 0.005428678189888137
401.0, 0.006076559307385521
402.0, 0.008125147916764405
403.0, 0.010789228479248493
404.0, 0.011962213137984472
405.0, 0.014589436739516425
406.0, 0.018127387157578008
407.0, 0.02045144644848132
408.0, 0.025507220954328922
409.0, 0.029117815015621645
410.0, 0.03341733657251535
411.0, 0.038871697134705646
412.0, 0.04441040162369741
413.0, 0.049056547617626324
414.0, 0.054639249675485876
415.0, 0.06141325010232565
416.0, 0.06560492538107424
417.0, 0.06832927549658169
418.0, 0.06991037574534736
419.0, 0.0702466819863926
420.0, 0.06938655555871569
421.0, 0.06604292179089265
422.0, 0.06065222009544445
423.0, 0.05533270514934886
424.0, 0.04921879310118521
425.0, 0.04210595315921464
426.0, 0.03659646818001799
427.0, 0.033222852827226285
428.0, 0.02896790702735209
429.0, 0.024991991402617098
430.0, 0.02151261334783904
431.0, 0.01826909269255685
432.0, 0.014911439536857519
433.0, 0.012456904783585913
434.0, 0.010885755302049044
435.0, 0.008408142353826071
436.0, 0.007162912599381287
437.0, 0.007051524477510861
438.0, 0.006149148226544355
439.0, 0.006288224389156283
440.0, 0.005049004570058855
441.0, 0.004722921842957311
442.0, 0.004853100379248596
443.0, 0.004376937131981722
444.0, 0.0029799731401482063
445.0, 0.0028950311392771464
446.0, 0.0054208461925220625
447.0, 0.005319783603114666
448.0, 0.006281336371155714
449.0, 0.007159869506101791
450.0, 0.0062318847349255024
451.0, 0.004908566769739886
452.0, 0.0058485965211626
453.0, 0.008102327946710716
454.0, 0.008709325495093425
455.0, 0.008905282351066749
456.0, 0.010635805115094456
457.0, 0.014438226450164238
458.0, 0.015759344650793834
459.0, 0.01830999134732707
460.0, 0.021596631606372405
461.0, 0.025509438568850094
462.0, 0.027621330380908363
463.0, 0.025840699515665273
464.0, 0.024982103455582782
465.0, 0.023160360501837476
466.0, 0.020186642563944285
467.0, 0.016649177979398733
468.0, 0.012775737243511396
469.0, 0.009217335451206635
470.0, 0.007521087047173123
471.0, 0.0032557079088062135
472.0, 0.003493558549237366
473.0, 0.003377251358741748
474.0, 0.0026034360534957376
475.0, 0.0018511462749321464
476.0, 0.001458099992724617
477.0, 0.002203652523094301
478.0, 0.0025627332392256954
479.0, 0.0015670762730561722
480.0, 0.0005185939372387862
481.0, 0.00044715157698339223
482.0, 0.0011530216713526225
483.0, 0.0003679198959993007
484.0, 0.0003531900141132425
485.0, 0.0007920287740882553
486.0, 0.000814873412761502
487.0, 0.00040940786973789355
488.0, 0.00016939504859523114
489.0, 0.0007826920459334153
490.0, 0.0006515152601015545
491.0, 0.002150828990522396
492.0, 0.00547526049091843
493.0, 0.006404285974826347
494.0, 0.006026713759135953
495.0, 0.00819024093424279
496.0, 0.006861037952429362
497.0, 0.008438945958170345
498.0, 0.006887669014401976
499.0, 0.006044220165283199
500.0, 0.0069411008490494405
501.0, 0.007695542315146767
502.0, 0.005203604903674566
503.0, 0.007459172082845916
504.0, 0.007461393375889837
505.0, 0.007476068942049767
506.0, 0.008300030759034625
507.0, 0.009057374267589681
508.0, 0.009189330396819122
509.0, 0.014394020743125758
510.0, 0.013282107131582186
511.0, 0.012784134303016323
512.0, 0.013779128492873695
513.0, 0.013082460816146946
514.0, 0.009861074770991126
515.0, 0.009747178613127051
516.0, 0.006764671736549899
517.0, 0.0064524804003488565
518.0, 0.005803752656372774
519.0, 0.004768538087584588
520.0, 0.004341213507807549
521.0, 0.004910430745071383
522.0, 0.0035712738032830783
523.0, 0.004708991701307074
524.0, 0.005091349545373815
525.0, 0.004582316622422424
526.0, 0.003913872395862484
527.0, 0.003798272713121535
528.0, 0.004192901338975402
529.0, 0.0034435483688460026
530.0, 0.004400578922590918
531.0, 0.0033168278406810205
532.0, 0.0018380358166932911
533.0, 0.0017114491731502527
534.0, 0.002652753551731252
535.0, 0.0009488647983156987
536.0, 0.0019120523301799442
537.0, 0.002199662353992005
538.0, 0.0012857991151857479
539.0, 0.00046757302568403865
540.0, 0.0003696472621055564
541.0, 0.0002702634886628351
542.0, 0.0005684675573578511
543.0, 0.0005800080417264015
544.0, 0.001117159477173797
545.0, 0.000852073433850556
546.0, 0.00035013242729749325
547.0, 0.000720242103488001
548.0, 0.0016968429476627092
549.0, 0.00021616040447526466
550.0, 0.00030920217030592936
551.0, 0.00047009237784283533
552.0, 0.0014304448459155751
553.0, 0.0022244009746890873
554.0, 0.0013860413921610128
555.0, 0.0008991026438254654
556.0, 0.00032822017559516596
557.0, 0.0006875288093840223
558.0, 0.0005406238485913435
559.0, 0.000205968321928791
560.0, 0.0003270251514008864
561.0, 0.0008625989502296427
562.0, 0.00025261643475641283
563.0, 6.338976493901296e-05
564.0, 0.001171219941562291
565.0, 0.0013894803879378826
566.0, 0.0010076527301668017
567.0, 0.0012559680009010309
568.0, 0.0025060324467897147
569.0, 0.004035740424079842
570.0, 0.001782641402278259
571.0, 0.0006821362675044549
572.0, 0.0015200448138040564
573.0, 0.0020269344796200557
574.0, 0.0008695232570309712
575.0, 0.0016528405440762385
576.0, 0.000704144654268776
577.0, 0.001998673566599849
578.0, 0.0012720222444380872
579.0, 0.0002990611827041209
580.0, 0.0005015704149439018
581.0, 0.0017877551448961615
582.0, 0.003969575024025639
583.0, 0.0022632720331879274
584.0, 0.0023878232409494013
585.0, 0.0026264487235675557
586.0, 0.00256704996180639
587.0, 0.0024479616691596806
588.0, 0.002804378346314601
589.0, 0.004390276214332925
590.0, 0.004028702447802945
591.0, 0.0034507398969313473
592.0, 0.002994516383722386
593.0, 0.0033540047404784093
594.0, 0.004265178619870447
595.0, 0.0044880831970226754
596.0, 0.00418958113283487
597.0, 0.003561495248619136
598.0, 0.002391928915033851
599.0, 0.0022930465041558893
600.0, 0.003936100456063166
601.0, 0.005424747848549575
602.0, 0.0038416259136086293
603.0, 0.005643404608463877
604.0, 0.006038804992772674
605.0, 0.0056736790814598615
606.0, 0.005682227604982843
607.0, 0.005903648123414919
608.0, 0.006301240745031433
609.0, 0.007679670652070307
610.0, 0.00867353072802328
611.0, 0.00802123767850667
612.0, 0.008718710340240186
613.0, 0.008319904521895873
614.0, 0.008471776866155268
615.0, 0.01001981476106181
616.0, 0.009697250124634533
617.0, 0.010576597732520534
618.0, 0.011478165202538242
619.0, 0.010339883915008806
620.0, 0.010581708029884656
621.0, 0.012152882373701691
622.0, 0.013221289453223496
623.0, 0.01325041021642285
624.0, 0.01505839144045168
625.0, 0.017059838950803135
626.0, 0.022112158423362883
627.0, 0.02545094266777191
628.0, 0.026761212774019216
629.0, 0.02600129386908234
630.0, 0.021025783426414466
631.0, 0.021810802287704684
632.0, 0.022539214413933497
633.0, 0.02544998369768111
634.0, 0.027094687092837872
635.0, 0.02737557628952444
636.0, 0.028128433461903333
637.0, 0.03044027128154501
638.0, 0.032358650733597075
639.0, 0.03550115749962346
640.0, 0.037359121045978896
641.0, 0.04054113950123627
642.0, 0.043627694427201595
643.0, 0.04628102020863219
644.0, 0.05086372309280391
645.0, 0.053166691163810446
646.0, 0.05995328703732335
647.0, 0.06448967659912191
648.0, 0.07049422017733406
649.0, 0.07776966652137841
650.0, 0.08555336229613554
651.0, 0.09463973705616244
652.0, 0.10620397170464049
653.0, 0.11915021802602364
654.0, 0.13209338010836505
655.0, 0.15193165530089384
656.0, 0.17453910704549208
657.0, 0.20038273688122013
658.0, 0.23430778658637294
659.0, 0.27029178957935407
660.0, 0.31686014384928435
661.0, 0.3686960163250271
662.0, 0.4320777474658404
663.0, 0.5046799386450498
664.0, 0.5875652330804468
665.0, 0.6805671764245144
666.0, 0.7718658837665541
667.0, 0.866165605763535
668.0, 0.9389242461171076
669.0, 0.9844018305387273
670.0, 0.9871124305488352
671.0, 0.9439706248590964
672.0, 0.8619280646324248
673.0, 0.7508993793617514
674.0, 0.6317520484546669
675.0, 0.5287110902401612
676.0, 0.43684592965698843
677.0, 0.3575890503370625
678.0, 0.29561587365393893
679.0, 0.25033190132303096
680.0, 0.21379584077123087
681.0, 0.18304187915822662
682.0, 0.15628858845640528
683.0, 0.13758395159421086
684.0, 0.1224534292198719
685.0, 0.11021949195716828
686.0, 0.10093962011885278
687.0, 0.09330560149352791
688.0, 0.08450828893706439
689.0, 0.07908777827913899
690.0, 0.07375957262087922
691.0, 0.06956541593593409
692.0, 0.06803150938900741
693.0, 0.06750307112248356
694.0, 0.06654445297361482
695.0, 0.06796792749091399
696.0, 0.07383882007268484
697.0, 0.07718265510505111
698.0, 0.08206022462002528
699.0, 0.08801064655432576
700.0, 0.09560265684463348
701.0, 0.10381482430962051
702.0, 0.11052502228426675
703.0, 0.11921256329308752
704.0, 0.12158732248307248
705.0, 0.12473430442780818
706.0, 0.12094406660314487
707.0, 0.11359272999535076
708.0, 0.10439125878548443
709.0, 0.09318470771441338
710.0, 0.08351920868217871
711.0, 0.0732634143511017
712.0, 0.06627329128533233
713.0, 0.06258152172344066
714.0, 0.05786142035978951
715.0, 0.05352556288242102
716.0, 0.051253317050177404
717.0, 0.049632330029534454
718.0, 0.05049300791410721
719.0, 0.04938027406584483
720.0, 0.051900189808228664
721.0, 0.051293704171903876
722.0, 0.04871776988461517
723.0, 0.04559563293610138
724.0, 0.04127012576151937
725.0, 0.03492450181997663
726.0, 0.03128211706987373
727.0, 0.02551773358589011
728.0, 0.02160707139677166
729.0, 0.019873929339528314
730.0, 0.01746920094820127
731.0, 0.014654802602435858
732.0, 0.01419662211195703
733.0, 0.010292763887227776
734.0, 0.011453005650937783
735.0, 0.010566689102801867
736.0, 0.009395937424995116
737.0, 0.008357709856820245
738.0, 0.007350329693235226
739.0, 0.006682954954954927
740.0, 0.007150110308209658
741.0, 0.007070168565585098
742.0, 0.005073492599859045
743.0, 0.0043106929006384185
744.0, 0.004244967549690045
745.0, 0.005127377613472704
746.0, 0.005361726267579921
747.0, 0.004135272044623749
748.0, 0.005994736339655613
749.0, 0.002279374909824563
750.0, 0.0019257570485706884
751.0, 0.001670730408365068
752.0, 0.0025759751009059822
753.0, 0.003587764901769465
754.0, 0.003015859527873077
755.0, 0.0010699996209114463
756.0, 0.0011544342354298887
757.0, 0.0020872456779852206
758.0, 0.0006649194502704274
759.0, 0.0006799630477585148
760.0, 0.0011781090536508276
761.0, 0.0015745859931208946
762.0, 0.0015858011156726264
763.0, 0.0007796678348368974
764.0, 0.0014162236392230047
765.0, 0.0005094068914720934
766.0, 0.00023968223409548148
767.0, 0.00014972048446375362
768.0, 0.0014071336422999373
769.0, 0.002275336275951715
770.0, 0.0013585113427831434
771.0, 0.001321557719101168
772.0, 6.07367061064856e-05
773.0, 0.0006609862950585062
774.0, 0.0011083473203167163
775.0, 0.0010962252806865894
776.0, 0.0008960423580633202
777.0, 0.0005363770830508827
778.0, 0.0001738231918793332
779.0, 0.0005769364219479402
780.0, 0.00034795207850025535
781.0, 0.0014245133945741649
782.0, 0.0007043279213795171
783.0, 0.0010988521759316137
784.0, 0.0012773875598417316
785.0, 0.0011992649998480327
786.0, 0.0017924258480338264
787.0, 0.0010177838379337757
788.0, 0.00273919549549201
789.0, 0.0015765321384289196
790.0, 0.0014815419746402477
791.0, 0.001864786156348741
792.0, 0.001441771046383381
793.0, 0.0007059372103598382
794.0, 0.0008869936614356768
795.0, 0.00102685415587365
796.0, 0.0008625168087813032
797.0, 0.0024955512711037106
798.0, 0.0021852662981436378
799.0, 0.001225528249738375
800.0, 0.0007815765318544
801.0, 0.0008252915256571116
802.0, 0.0007702924181628921
803.0, 0.0008690073983098
804.0, 0.002275096330301284
805.0, 0.00040731416460164957
806.0, 0.0010487362469989438
807.0, 0.0018309734220860671
808.0, 0.0023153016957576772
809.0, 0.0028592069576224713
810.0, 0.0031845548552190636
811.0, 0.0023039216493445365
812.0, 0.0011998808775168495
813.0, 0.001740128982660428
814.0, 0.0012580465375513234
815.0, 0.0010580058531309592
816.0, 0.0030051100037146086
817.0, 0.004025306342023952
818.0, 0.0027510334548391364
819.0, 0.004890258895673897
820.0, 0.0027874249783032493
821.0, 0.0004196988035795775
822.0, 0.002953010165449782
823.0, 0.00483872218659687
824.0, 0.0054324174257544605
825.0, 0.005019126796134268
826.0, 0.004363545038297092
827.0, 0.004322850508546621
828.0, 0.002103918155705658
829.0, 0.006771114566017186
830.0, 0.005509550379646298
831.0, 0.005210989777973155
832.0, 0.00581320034644967
833.0, 0.005154157211216722
834.0, 0.0036578520132751896
835.0, 0.003961897096978601
836.0, 0.004816606246419913
837.0, 0.005355734461026011
838.0, 0.005798514576453523
839.0, 0.00540793052908546
840.0, 0.0066949482079384495
841.0, 0.007679278824851698
842.0, 0.007180864650262308
843.0, 0.007031530735402553
844.0, 0.008648868068473566
845.0, 0.0074478318467915035
846.0, 0.010226726479186437
847.0, 0.00846995430219974
848.0, 0.009215619438755894
849.0, 0.009822001987360164
850.0, 0.009660627063699415
851.0, 0.01032787073066895
852.0, 0.011112181184944475
853.0, 0.011337711193297625
854.0, 0.0097134840030269
855.0, 0.01080998906594557
856.0, 0.011301595513354416
857.0, 0.010955048266319751
858.0, 0.010353534793882733
859.0, 0.010850977602950373
860.0, 0.01304284479432851
861.0, 0.014092470409703092
862.0, 0.010932983237558232
863.0, 0.012572011192818429
864.0, 0.013323981215771635
865.0, 0.012817904349060773
866.0, 0.013262836271055008
867.0, 0.013308461125624926
868.0, 0.011523644985831557
869.0, 0.010951041584529857
870.0, 0.012726186460395424
871.0, 0.013862024063605823
872.0, 0.011456326289778943
873.0, 0.013082521246689677
874.0, 0.013867619984886217
875.0, 0.013553175720224677
876.0, 0.013533982507273208
877.0, 0.013445595367745923
878.0, 0.013028309746378232
879.0, 0.014009453694073352
880.0, 0.012773748505695643
881.0, 0.013020404951998528
882.0, 0.015032015600924814
883.0, 0.016094321034807388
884.0, 0.016368644613224598
885.0, 0.017114411807059495
886.0, 0.018153783247704582
887.0, 0.01988932441101028
888.0, 0.021742109928023435
889.0, 0.02258997673433708
890.0, 0.026487217174796164
891.0, 0.030161910482405636
892.0, 0.03408816631106776
893.0, 0.04057837801651496
894.0, 0.048766057689294234
895.0, 0.05485567751408271
896.0, 0.06364579121677257
897.0, 0.06817017835115537
898.0, 0.07899892068992016
899.0, 0.0852673497862578
900.0, 0.08785436662171812
901.0, 0.08715858140205716
902.0, 0.08378115301238072
903.0, 0.07852135139853576
904.0, 0.07131048826932063
905.0, 0.065341776842248
906.0, 0.05758686184118577
907.0, 0.05354268756168427
908.0, 0.04597336996862473
909.0, 0.03911120310117429
910.0, 0.03620972391328706
911.0, 0.03544009908565612
912.0, 0.03387334390446731
913.0, 0.03295158078915284
914.0, 0.031210948303611485
915.0, 0.028960455776153766
916.0, 0.027839258274550294
917.0, 0.02884427561375924
918.0, 0.028316540327112224
919.0, 0.02587468383430625
920.0, 0.024449259653879316
921.0, 0.02493326036753021
922.0, 0.023396640330569884
923.0, 0.0251351541827572
924.0, 0.02282490342869248
925.0, 0.02215456776842209
926.0, 0.021667407263136002
927.0, 0.021928679863962974
928.0, 0.023397873459383402
929.0, 0.023551995099083615
930.0, 0.02107843435168508
931.0, 0.02100614012772638
932.0, 0.020983835384662478
933.0, 0.019738796925807465
934.0, 0.020033075577046745
935.0, 0.019438268497869813
936.0, 0.018023604675203475
937.0, 0.01739853299544655
938.0, 0.01797808391400838
939.0, 0.018964515917248077
940.0, 0.020435308364628788
941.0, 0.023170742656061297
942.0, 0.021838616883265258
943.0, 0.020505869340223883
944.0, 0.020220336231441174
945.0, 0.02131089058984501
946.0, 0.02382608960362918
947.0, 0.026091245858644398
948.0, 0.027225226144456816
949.0, 0.028765128242995895
950.0, 0.02966176475317208
951.0, 0.03415549660670402
952.0, 0.03560855674441491
953.0, 0.0378258984176529
954.0, 0.03876632462159946
955.0, 0.04188621161416806
956.0, 0.048057995083951664
957.0, 0.05344190307544005
958.0, 0.05593614540061048
959.0, 0.06182013371285343
960.0, 0.0677532297046447
961.0, 0.07387900005135857
962.0, 0.07826075375660137
963.0, 0.0843752079326776
964.0, 0.09122632817358856
965.0, 0.09996854267411971
966.0, 0.10811994419806625
967.0, 0.11410974651161629
968.0, 0.12521178570259878
969.0, 0.13678072300313174
970.0, 0.1419897852218653
971.0, 0.14752530672213532
972.0, 0.154389747251314
973.0, 0.16252545759765513
974.0, 0.16925597237234305
975.0, 0.17371785137313597
976.0, 0.17648527983493392
977.0, 0.1771984954791006
978.0, 0.17573098867705808
979.0, 0.17727748331878657
980.0, 0.17356262994021573
981.0, 0.16791586696545505
982.0, 0.16275545929766716
983.0, 0.1551456720572496
984.0, 0.14469614869297873
985.0, 0.13503918445501983
986.0, 0.12884289264995336
987.0, 0.12365063698188752
988.0, 0.11739391835644905
989.0, 0.11002692704082935
990.0, 0.10544260088115909
991.0, 0.10572996042484868
992.0, 0.10483592786233813
993.0, 0.10450875943205859
994.0, 0.10748731976761047
995.0, 0.11172905688094034
996.0, 0.1139524806058911
997.0, 0.1171065783160401
998.0, 0.12295189617907792
999.0, 0.1250869755533132
1000.0, 0.1354044211129478
1001.0, 0.14093354097829586
1002.0, 0.13971132018078689
1003.0, 0.1375024112144999
1004.0, 0.1362780195677643
1005.0, 0.13506804941496361
1006.0, 0.13474494761679734
1007.0, 0.1364965129626568
1008.0, 0.14145895211138754
1009.0, 0.14782750554212482
1010.0, 0.15838851173664353
1011.0, 0.17692249317133166
1012.0, 0.19376909508904164
1013.0, 0.21333985684835977
1014.0, 0.239502807192045
1015.0, 0.27203628152781617
1016.0, 0.30963169285399356
1017.0, 0.3460995948777752
1018.0, 0.38468942495792185
1019.0, 0.4175422082628745
1020.0, 0.4427987391326071
1021.0, 0.4584521599060274
1022.0, 0.46438130751968404
1023.0, 0.4508375115214569
1024.0, 0.4238063285909992
1025.0, 0.39132141756192557
1026.0, 0.35046160947026866
1027.0, 0.3100178125704207
1028.0, 0.2739442214995784
1029.0, 0.23670185964945428
1030.0, 0.20676886913504514
1031.0, 0.18109828511198886
1032.0, 0.15738477887763713
1033.0, 0.13968360162149313
1034.0, 0.1248299652046688
1035.0, 0.11008685796587465
1036.0, 0.09815428262688795
1037.0, 0.08778726060172574
1038.0, 0.0850462276670648
1039.0, 0.07144611961175586
1040.0, 0.06796672409113766
1041.0, 0.06202136894007277
1042.0, 0.05364542889455823
1043.0, 0.05100010131428097
1044.0, 0.05013938660698563
1045.0, 0.046190094990100114
1046.0, 0.041606982532701106
1047.0, 0.03827741410026935
1048.0, 0.03664706865015644
1049.0, 0.035724978103060794
1050.0, 0.03705126173552287
1051.0, 0.03276247409301505
1052.0, 0.03196085648158675
1053.0, 0.03040371330522389
1054.0, 0.028787941059110714
1055.0, 0.029138712477504446
1056.0, 0.028560782398846615
1057.0, 0.02450803503486659
1058.0, 0.023992301461027994
1059.0, 0.02388914295122212
1060.0, 0.025221221233303972
1061.0, 0.02242312989461292
1062.0, 0.020542086228371607
1063.0, 0.021921580103145825
1064.0, 0.021432957666161614
1065.0, 0.01961860755934942
1066.0, 0.0189203635708552
1067.0, 0.018859869603930275
1068.0, 0.01874633221212273
1069.0, 0.01723621302866895
1070.0, 0.018384535455539825
1071.0, 0.015652322351442677
1072.0, 0.015781516274288733
1073.0, 0.01617531982874715
1074.0, 0.014991750609166155
1075.0, 0.013458767585332269
1076.0, 0.013094947391335076
1077.0, 0.01289389474868028
1078.0, 0.011830610469208703
1079.0, 0.0123886590966737
1080.0, 0.012448403663154198
1081.0, 0.012910138653844447
1082.0, 0.011241956638035924
1083.0, 0.011037340095906713
1084.0, 0.011897848026477203
1085.0, 0.01255895229962257
1086.0, 0.012832767477891301
1087.0, 0.012095300612223804
1088.0, 0.009716126097931812
1089.0, 0.007696309782467232
1090.0, 0.009535022655991002
1091.0, 0.009626095243292354
1092.0, 0.009553246461948302
1093.0, 0.008844757254557935
1094.0, 0.008231067486849814
1095.0, 0.007820086382480261
1096.0, 0.005824165253537995
1097.0, 0.004689991732399174
1098.0, 0.005343681350393907
1099.0, 0.005308874549265286
1100.0, 0.0042520729265506
1101.0, 0.005979738244665373
1102.0, 0.006024109316988472
1103.0, 0.005580795466733105
1104.0, 0.0038889579305414783
1105.0, 0.003811097534031051
1106.0, 0.002969102859151196
1107.0, 0.0015202629861263285
1108.0, 0.003125596448160996
1109.0, 0.0047425413315305386
1110.0, 0.003383047120508238
1111.0, 0.002808629586747428
1112.0, 0.0048683208585705426
1113.0, 0.005085499289663518
1114.0, 0.003277972971445497
1115.0, 0.001964671688938147
1116.0, 0.004195279827508549
1117.0, 0.0014100635598536435
1118.0, 0.002561162877078691
1119.0, 0.0020330314683466287
1120.0, 0.000832472887329789
1121.0, 0.0020727277912392255
1122.0, 0.0030120509709013177
1123.0, 0.0022027779677024776
1124.0, 0.002429880306782359
1125.0, 0.004236842586183478
1126.0, 0.0004722901000532708
1127.0, 0.001473228357760779
1128.0, 0.0034266026621115634
1129.0, 0.0022596285045200903
1130.0, 0.0014913453656895624
1131.0, 0.0013872410043310017
1132.0, 0.0008936329171051197
1133.0, 0.0006655654874280055
1134.0, 0.0017087419707808326
1135.0, 0.002699517040146553
1136.0, 0.0001505577206194137
1137.0, 0.0014278944977907486
1138.0, 0.0010780279026545885
1139.0, 0.0019269596644798236
1140.0, 0.0016645735083127495
1141.0, 0.0009565226320585028
1142.0, 0.0019087821376028806
1143.0, 0.0016808024715687208
1144.0, 0.0008648124008590384
1145.0, 0.0011607500414607098
1146.0, 0.0011634452783869974
1147.0, 0.003875921437652008
1148.0, 0.003373895934606674
1149.0, 0.0005307270614541225
1150.0, 0.0014887408658539616
1151.0, 0.00226763084861495
1152.0, 0.0009284280377361734
1153.0, 0.0016271581128580062
1154.0, 0.0025506387115868806
1155.0, 0.001971366228613939
1156.0, 0.001851383612496523
1157.0, 0.002814983712665086
1158.0, 0.002376691677383203
1159.0, 0.0015564220899767743
1160.0, 0.00017547548780308392
1161.0, 0.00014639862199229136
1162.0, 0.0014122819821763442
1163.0, 0.0002908881808736099
1164.0, 0.0003210307905107571
1165.0, 0.0011405432625966707
1166.0, 0.0010037743820793174
1167.0, 0.0004249806669482674
1168.0, 0.0012857791215711506
1169.0, 0.0026108231618953022
1170.0, 0.0019938570237285074
1171.0, 0.0012703548240731678
1172.0, 0.0006613988265219302
1173.0, 0.0008622089377568569
1174.0, 0.0025604070991736803
1175.0, 0.0030285053723906855
1176.0, 0.0017670930353336687
1177.0, 0.0004881001520194142
1178.0, 0.0011285454501585527
1179.0, 0.0016079989457314149
1180.0, 0.0015210162148651038
1181.0, 0.0012910270250740606
1182.0, 0.001082183036768712
1183.0, 0.0017722073096008745
1184.0, 0.00035860881429253667
1185.0, 0.00011348602931246076
1186.0, 0.001182281403843433
1187.0, 0.002499576198701147
1188.0, 0.0011579458739325048
1189.0, 0.0017317224266181317
1190.0, 0.001274597131635095
1191.0, 0.0013839313349740606
1192.0, 0.0009817820975863967
1193.0, 0.0012089091880572581
1194.0, 0.0021577569328951494
1195.0, 0.0011942613503599442
1196.0, 0.0013644372250720932
1197.0, 0.001963839535899809
1198.0, 0.004181727374216609
1199.0, 0.003228253262738899
1200.0, 0.002011250714416437
1201.0, 0.0016716840547549177
1202.0, 0.0013839697613777762
1203.0, 0.0023717678817674493
1204.0, 0.0035998440192312508
1205.0, 0.0037383635588566656
1206.0, 0.0025658169933635757
1207.0, 0.0014754289154052522
1208.0, 0.001959414129499984
1209.0, 0.0029954673896427616
1210.0, 0.003130634139955684
1211.0, 0.0015349454547939133
1212.0, 0.0014034753054758162
1213.0, 0.0010600931429273798
1214.0, 0.004228761039327889
1215.0, 0.0021355907674934587
1216.0, 0.0032873449343607986
1217.0, 0.004331752739026158
1218.0, 0.0027216002617460548
1219.0, 0.0009585457426797391
1220.0, 0.0004602916532824759
1221.0, 0.00022854333363531452
1222.0, 0.0007532225281508363
1223.0, 0.00240169035720889
1224.0, 0.001436436533331193
1225.0, 0.004315158861063525
1226.0, 0.001886302926468792
1227.0, 0.003879789322930614
1228.0, 0.0023019905246725045
1229.0, 0.003060735843020108
1230.0, 0.0024186294951252236
1231.0, 0.002332267987892224
1232.0, 0.0036719754316643736
1233.0, 0.0036917488486269833
1234.0, 0.002909678595668301
1235.0, 0.003719182427645957
1236.0, 0.0033357168318380735
1237.0, 0.004143369045978866
1238.0, 0.006026385229367806
1239.0, 0.007102025299217241
1240.0, 0.004965347598234258
1241.0, 0.005957141106065079
1242.0, 0.005707740688576765
1243.0, 0.0037196792349755473
1244.0, 0.004658997499012294
1245.0, 0.003990256609409515
1246.0, 0.003265345775248743
1247.0, 0.004391427848961562
1248.0, 0.00402989043216159
1249.0, 0.0031950044907530528
1250.0, 0.002699878402022824
1251.0, 0.001842148388746621
1252.0, 0.0034547135743065983
1253.0, 0.0056774740781954675
1254.0, 0.002231338488324819
1255.0, 0.0026609488112544852
1256.0, 0.005612324677039362
1257.0, 0.006535725074867618
1258.0, 0.0053571328543526794
1259.0, 0.0038295668623699237
1260.0, 0.0038253496269527467
1261.0, 0.004997973527056723
1262.0, 0.006302726046423991
1263.0, 0.007157478679502
1264.0, 0.006113003012597609
1265.0, 0.007048959326937683
1266.0, 0.008052649371188401
1267.0, 0.00654497752525032
1268.0, 0.005920825199243477
1269.0, 0.00693516886030136
1270.0, 0.004073962658023921
1271.0, 0.006677599802181969
1272.0, 0.006439509419529529
1273.0, 0.005021814260001811
1274.0, 0.003708161829775425
1275.0, 0.004540564413104178
1276.0, 0.006988535558771407
1277.0, 0.00757459245856944
1278.0, 0.007000322408397183
1279.0, 0.005031741632489155
1280.0, 0.005377301024072394
1281.0, 0.005986818486838601
1282.0, 0.006890121576116217
1283.0, 0.007017763229567128
1284.0, 0.005757627253371349
1285.0, 0.006179954968850008
1286.0, 0.005192260226828994
1287.0, 0.004001432108810297
1288.0, 0.004497658005475988
1289.0, 0.003553123663394801
1290.0, 0.002534055469637282
1291.0, 0.00498749831525494
1292.0, 0.006981595984044927
1293.0, 0.005342444774266865
1294.0, 0.006495679676521454
1295.0, 0.004728726195224102
1296.0, 0.0032322706186108724
1297.0, 0.007312280797508335
1298.0, 0.006842200124237723
1299.0, 0.005186578072185998
1300.0, 0.005455732502553909
1301.0, 0.004592292296663747
1302.0, 0.004360540328086454
1303.0, 0.006145920275346641
1304.0, 0.007787212298236824
1305.0, 0.007740286360014396
1306.0, 0.006663205426039934
1307.0, 0.006167182324906916
1308.0, 0.006420345991173124
1309.0, 0.005901268152425305
1310.0, 0.006517914327546129
1311.0, 0.008806545739470411
1312.0, 0.004802099309427302
1313.0, 0.005998417787472699
1314.0, 0.00916515210093245
1315.0, 0.007934797228669183
1316.0, 0.00779806400339708
1317.0, 0.008286454545443425
1318.0, 0.00804855730406039
1319.0, 0.006038622200963892
1320.0, 0.005985890362862633
1321.0, 0.006839618537291344
1322.0, 0.0062988795798168
1323.0, 0.00636330955444173
1324.0, 0.007115254603791732
1325.0, 0.0056217075846871495
1326.0, 0.004849161300252727
1327.0, 0.006782274157112779
1328.0, 0.005184318946743138
1329.0, 0.0025601812806698983
1330.0, 0.006385090132025763
1331.0, 0.004291334952324329
1332.0, 0.00793774991112808
1333.0, 0.004787819809138824
1334.0, 0.006181179693637158
1335.0, 0.00771738037537708
1336.0, 0.007536846540172285
1337.0, 0.006823362770845077
1338.0, 0.006665889999015657
1339.0, 0.006598745758889989
1340.0, 0.006835305198572258
1341.0, 0.008616830693048243
1342.0, 0.00846280771968038
1343.0, 0.004837005993090644
1344.0, 0.0070841055296936
1345.0, 0.010486648113966353
1346.0, 0.007183882714813509
1347.0, 0.012023392302128306
1348.0, 0.008765567995382863
1349.0, 0.010219662286946863
1350.0, 0.012202689080712478
1351.0, 0.012584582574684
1352.0, 0.01240005351060466
1353.0, 0.011483287330786782
1354.0, 0.01419433041105703
1355.0, 0.015759533771773738
1356.0, 0.014590976119406199
1357.0, 0.01579681856539386
1358.0, 0.01793730958529621
1359.0, 0.01918827366102437
1360.0, 0.019903871438087396
1361.0, 0.01977842075323141
1362.0, 0.019068337731348046
1363.0, 0.019001684528443218
1364.0, 0.020463578927783638
1365.0, 0.018563675305765838
1366.0, 0.024722268244908443
1367.0, 0.02350490338711096
1368.0, 0.026979534323775693
1369.0, 0.03055902001154186
1370.0, 0.030748248187835
1371.0, 0.029802570847906305
1372.0, 0.030783620866294704
1373.0, 0.030469498624144133
1374.0, 0.030378426252094984
1375.0, 0.03095509914400054
1376.0, 0.029136358747824657
1377.0, 0.031103516031521578
1378.0, 0.033942882916231036
1379.0, 0.03247652409867838
1380.0, 0.03442733224618318
1381.0, 0.030311216256385505
1382.0, 0.03137360534528739
1383.0, 0.027119060557705556
1384.0, 0.025924733627676423
1385.0, 0.028623380134017305
1386.0, 0.02482423810349123
1387.0, 0.022930325814892783
1388.0, 0.02289158013704724
1389.0, 0.02163254597110893
1390.0, 0.02124675700800708
1391.0, 0.02170756185554705
1392.0, 0.02024178017282223
1393.0, 0.018419952791705788
1394.0, 0.017568610395952554
1395.0, 0.017351854270306964
1396.0, 0.017740425090683114
1397.0, 0.013779474829261994
1398.0, 0.014011565598303953
1399.0, 0.012124554853310482
1400.0, 0.012429611638717931
1401.0, 0.00981101724107536
1402.0, 0.011547695005646527
1403.0, 0.011155324630381692
1404.0, 0.0055688971839611915
1405.0, 0.007537226373721043
1406.0, 0.008133557488215338
1407.0, 0.006648350447508165
1408.0, 0.006674137806913415
1409.0, 0.005923494546327761
1410.0, 0.005845172452835718
1411.0, 0.005973040810011081
1412.0, 0.00430002066428586
1413.0, 0.003071962878856934
1414.0, 0.003951562846989215
1415.0, 0.004889110712306948
1416.0, 0.004116288101538222
1417.0, 0.0019912640353530625
1418.0, 0.004667053295859397
1419.0, 0.005458985241766022
1420.0, 0.0012124730905253246
1421.0, 0.0028599210172335614
1422.0, 0.001958720102323358
1423.0, 0.0005277777085542167
1424.0, 0.002381271244540655
1425.0, 0.00045354720887032685
1426.0, 0.0021402055201503794
1427.0, 0.0011019741787002052
1428.0, 0.002002408702377813
1429.0, 0.0012575484246978251
1430.0, 0.002264224883508299
1431.0, 0.002260686603821131
1432.0, 0.00198728866158418
1433.0, 0.004738478628714991
1434.0, 0.004165698344732853
1435.0, 0.001384157461818341
1436.0, 0.002455977151053614
1437.0, 0.0025114630577941772
1438.0, 0.004671104077799661
1439.0, 0.006127087475532824
1440.0, 0.004198736722464304
1441.0, 0.0050697339493896015
1442.0, 0.006592212115098072
1443.0, 0.009298611446147072
1444.0, 0.0086392786510839
1445.0, 0.007840009018162297
1446.0, 0.007309368799134701
1447.0, 0.0069175784372371
1448.0, 0.011132285578363288
1449.0, 0.013904234593963468
1450.0, 0.011546849094258422
1451.0, 0.008152160028916246
1452.0, 0.006776329502992507
1453.0, 0.008066166444067557
1454.0, 0.006810424390049796
1455.0, 0.00914097996213696
1456.0, 0.010906830597086829
1457.0, 0.009652279517258664
1458.0, 0.008794555427740281
1459.0, 0.006139841125852731
1460.0, 0.007867071092081582
1461.0, 0.010737924801824134
1462.0, 0.008217251106272376
1463.0, 0.010258614738400335
1464.0, 0.008131509996541
1465.0, 0.007624977153220861
1466.0, 0.005464875386325552
1467.0, 0.004463716870322069
1468.0, 0.007023149483862172
1469.0, 0.00637982142168432
1470.0, 0.008289546998126283
1471.0, 0.005651408709889045
1472.0, 0.0034677040956930553
1473.0, 0.004932258290097611
1474.0, 0.0038194655949465813
1475.0, 0.004668049166716
1476.0, 0.0040077395843648445
1477.0, 0.005196606593780439
1478.0, 0.005629161772377687
1479.0, 0.004742349492498224
1480.0, 0.004555818277595049
1481.0, 0.006055130717784742
1482.0, 0.006164289839747876
1483.0, 0.004050832897562453
1484.0, 0.0035290581000853027
1485.0, 0.00418208646447292
1486.0, 0.004840528816092657
1487.0, 0.0031781832886759653
1488.0, 0.004077277098607323
1489.0, 0.002832612828396817
1490.0, 0.002453452372047373
1491.0, 0.002467405023146736
1492.0, 0.002836796073674761
1493.0, 0.0025888870605221144
1494.0, 0.006511823518691045
1495.0, 0.0017938921137828478
1496.0, 0.002900264148759964
1497.0, 0.003656948748744193
1498.0, 0.0048597052515757175
1499.0, 0.0036788836966938033
1500.0, 0.002587756247769343
1501.0, 0.0019705118714182495
1502.0, 0.0019326592545833333
1503.0, 0.0011002344749296176
1504.0, 0.0026616978879923448
1505.0, 0.0024858151008472907
1506.0, 0.0016351337558328316
1507.0, 0.00109576697421858
1508.0, 0.0020201350421399276
1509.0, 0.0026506488488827157
1510.0, 0.0019846901508237306
1511.0, 0.0030986705296417068
1512.0, 0.0026076233895098565
1513.0, 0.0009385290506449691
1514.0, 0.0014750753698922754
1515.0, 0.0011178343864469006
1516.0, 0.0012917485394044177
1517.0, 0.002559662477268514
1518.0, 0.004157616893869629
1519.0, 0.002111512536037918
1520.0, 0.0022242470897617813
1521.0, 0.004554382875234422
1522.0, 0.0009144021610427023
1523.0, 0.0036312291548635358
1524.0, 0.000632025427524474
1525.0, 0.005297278149570257
1526.0, 0.0037238207091214942
1527.0, 0.0041338761227933075
1528.0, 0.002696327759366887
1529.0, 0.0056355390900886225
1530.0, 0.0037252866877164857
1531.0, 0.0028154474089807156
1532.0, 0.0038456567358520597
1533.0, 0.0030811853639211044
1534.0, 0.0020562604974150274
1535.0, 0.004281028478021379
1536.0, 0.0039553438040357235
1537.0, 0.002573125118196976
1538.0, 0.003041427512837817
1539.0, 0.002292425163727474
1540.0, 0.003349482250863313
1541.0, 0.005179275864083596
1542.0, 0.002885838611774514
1543.0, 0.0010432875890682954
1544.0, 0.0004302324471476965
1545.0, 0.0004050639529542729
1546.0, 0.0012934150108850357
1547.0, 0.003303843676455684
1548.0, 0.006188674315755755
1549.0, 0.004846940636156048
1550.0, 0.003141468421863757
1551.0, 0.0023018114275622373
1552.0, 0.005062138433704302
1553.0, 0.0028502598544592602
1554.0, 0.003928346051736087
1555.0, 0.005627878234774871
1556.0, 0.0029340633549862017
1557.0, 0.0002600123663593411
1558.0, 0.0025277394678766526
1559.0, 0.001793858706072537
1560.0, 0.0020427120605634634
1561.0, 0.004104502721822215
1562.0, 0.003708620842111334
1563.0, 0.0037114391035461504
1564.0, 0.0019937113577374764
1565.0, 0.0024752620810997833
1566.0, 0.0008421331757480748
1567.0, 4.0716377520944743e-05
1568.0, 0.0002725192207318662
1569.0, 0.00018642784990587966
1570.0, 2.7307470654850008e-05
1571, 0.0
1572, 0.0
1573, 0.0
1574, 0.0
1575, 0.0
1576, 0.0
1577, 0.0
1578, 0.0
1579, 0.0
1580, 0.0
1581, 0.0
1582, 0.0
1583, 0.0
1584, 0.0
1585, 0.0
1586, 0.0
1587, 0.0
1588, 0.0
1589, 0.0
1590, 0.0
1591, 0.0
1592, 0.0
1593, 0.0
1594, 0.0
1595, 0.0
1596, 0.0
1597, 0.0
1598, 0.0
1599, 0.0
