30, 0.0
31, 0.0
32, 0.0
33, 0.0
34, 0.0
35, 0.0
36, 0.0
37, 0.0
38, 0.0
39, 0.0
40, 0.0
41, 0.0
42, 0.0
43, 0.0
44, 0.0
45, 0.0
46, 0.0
47, 0.0
48, 0.0
49, 0.0
50, 0.0
51, 0.0
52, 0.0
53, 0.0
54, 0.0
55, 0.0
56, 0.0
57, 0.0
58, 0.0
59, 0.0
60, 0.0
61, 0.0
62, 0.0
63, 0.0
64, 0.0
65, 0.0
66, 0.0
67, 0.0
68, 0.0
69, 0.0
70, 0.0
71, 0.0
72, 0.0
73, 0.0
74, 0.0
75, 0.0
76, 0.0
77, 0.0
78, 0.0
79, 0.0
80, 0.0
81, 0.0
82, 0.0
83, 0.0
84, 0.0
85, 0.0
86, 0.0
87, 0.0
88, 0.0
89, 0.0
90, 0.0
91, 0.0
92, 0.0
93, 0.0
94, 0.0
95, 0.0
96, 0.0
97, 0.0
98, 0.0
99, 0.0
100, 0.0
101, 0.0
102, 0.0
103, 0.0
104, 0.0
105, 0.0
106, 0.0
107, 0.0
108, 0.0
109, 0.0
110, 0.0
111, 0.0
112, 0.0
113, 0.0
114, 0.0
115.0, 9.412208740411058e-05
116.0, 0.015116640578385954
117.0, 0.04714464369398156
118.0, 0.09247234282546715
119.0, 0.1376175583808357
120.0, 0.16413747385185493
121.0, 0.15603948140389812
122.0, 0.11839256796778702
123.0, 0.0713875542090039
124.0, 0.03277137154504869
125.0, 0.010048372453191666
126.0, 0.009465905582175633
127.0, 0.024798205311161416
128.0, 0.03823550514628229
129.0, 0.05140131045012258
130.0, 0.06799599153251051
131.0, 0.0833019471735728
132.0, 0.08818313653387283
133.0, 0.0698290961679221
134.0, 0.0430718871403276
135.0, 0.019618656368654515
136.0, 0.003557327892764827
137.0, 0.005294967360532983
138.0, 0.00798269259725075
139.0, 0.005182206210826057
140.0, 0.0012973918222320426
141.0, 0.008234123296377807
142.0, 0.016756758431551284
143.0, 0.026118902410454465
144.0, 0.037225701281734365
145.0, 0.052626236294600795
146.0, 0.07698541007605783
147.0, 0.08821559967543682
148.0, 0.10215496760267884
149.0, 0.12369394093641338
150.0, 0.14628235157812594
151.0, 0.1734520590442435
152.0, 0.2042189228513167
153.0, 0.23727046655602355
154.0, 0.2700527524997129
155.0, 0.3013369648847538
156.0, 0.3345674286638666
157.0, 0.3617497530361915
158.0, 0.3759751360206595
159.0, 0.3793126315860255
160.0, 0.36624156069727265
161.0, 0.33756478643265236
162.0, 0.2986412711733415
163.0, 0.2548191718358409
164.0, 0.20921711212369443
165.0, 0.16657247086378943
166.0, 0.1296938129644705
167.0, 0.10051914274377866
168.0, 0.0789303897218992
169.0, 0.060260420598348075
170.0, 0.04414400707201942
171.0, 0.0319376483888736
172.0, 0.023406580171444123
173.0, 0.018343674129262775
174.0, 0.014272254853999862
175.0, 0.01056187921594844
176.0, 0.007115874390692565
177.0, 0.0024561071732054902
178.0, 0.0008306472657917893
179.0, 0.0005469003674586215
180.0, 0.0003602293899113336
181.0, 0.0016993060125116933
182.0, 0.002255665518213385
183.0, 0.0023357797803835833
184.0, 0.0032413532376345798
185.0, 0.005127750066828608
186.0, 0.004253353298132651
187.0, 0.0031340958281292426
188.0, 0.002309275152834265
189.0, 0.00020096578671665054
190.0, 0.0003092950726649034
191.0, 0.00024557944103115235
192.0, 0.00030444205507000274
193.0, 0.0010981548796577638
194.0, 0.0004027278313940252
195.0, 0.00029871832240651556
196.0, 0.00040160203959001365
197.0, 0.0005951336230097735
198.0, 0.0018686186417931835
199.0, 0.006147006205182222
200.0, 0.010759338498127689
201.0, 0.015538961112116704
202.0, 0.02154751112481632
203.0, 0.02747859229831037
204.0, 0.033805790049638844
205.0, 0.040512720903628535
206.0, 0.04738251769816556
207.0, 0.054064831401891056
208.0, 0.060592766952478096
209.0, 0.06612378867895287
210.0, 0.07297394172813287
211.0, 0.0827467969886375
212.0, 0.08779824699020633
213.0, 0.09501153838589685
214.0, 0.10370977822734449
215.0, 0.110228888089014
216.0, 0.113834847626486
217.0, 0.1210962600847452
218.0, 0.1234874416835959
219.0, 0.12085187318441008
220.0, 0.11832686938970373
221.0, 0.11471896516759349
222.0, 0.1085669925503286
223.0, 0.09875586601864822
224.0, 0.08630294900458269
225.0, 0.07521549220854026
226.0, 0.06759061581140773
227.0, 0.05725596214901574
228.0, 0.046077727126651195
229.0, 0.0401207813371883
230.0, 0.03199149368283222
231.0, 0.026710826285346576
232.0, 0.02195963202629809
233.0, 0.01591772858457337
234.0, 0.011668607436179696
235.0, 0.008910216689871598
236.0, 0.0077159318107845095
237.0, 0.006118965676619821
238.0, 0.002240200615260026
239.0, 0.0002505209605624322
240.0, 0.0022602106859477846
241.0, 0.002445452716658383
242.0, 0.0003976547760600427
243.0, 0.0009370590264965467
244.0, 9.601040885064825e-05
245.0, 0.0002053784640098525
246.0, 0.0008264407357834809
247.0, 0.0011548814121410632
248.0, 0.0016813740832435685
249.0, 0.0009477447730713877
250.0, 0.0006129993884199038
251.0, 0.0012836855156037024
252.0, 0.0005885899761356062
253.0, 0.0011696184025493305
254.0, 0.0006003577594697408
255.0, 0.0015096048135259973
256.0, 0.0008844344517679251
257.0, 0.0007756514663552631
258.0, 0.0006015172784478041
259.0, 0.0011621860648836537
260.0, 0.0012954811407226217
261.0, 0.0034623941364145625
262.0, 0.009448390924081522
263.0, 0.013089321470873895
264.0, 0.01612000577266055
265.0, 0.020508901639745954
266.0, 0.02437196877424832
267.0, 0.030327289281802297
268.0, 0.036190915281203176
269.0, 0.04238591296946039
270.0, 0.05097882626090542
271.0, 0.06179550925870239
272.0, 0.07127331619035042
273.0, 0.0810248803283
274.0, 0.09323204364225328
275.0, 0.1081924752929626
276.0, 0.12316516984597715
277.0, 0.1369955045233081
278.0, 0.15237759186674305
279.0, 0.17045255175015878
280.0, 0.18731329888334025
281.0, 0.20432425640226307
282.0, 0.2241283011826563
283.0, 0.246967569961211
284.0, 0.2713468149106176
285.0, 0.29401597279399744
286.0, 0.3193390887009119
287.0, 0.3449050121673357
288.0, 0.3706802534737139
289.0, 0.39969437478451186
290.0, 0.4279700370017411
291.0, 0.4567771894394285
292.0, 0.4791374228832983
293.0, 0.4905765147675421
294.0, 0.4955371013060181
295.0, 0.4871794492375858
296.0, 0.4685623724074727
297.0, 0.4436857567182135
298.0, 0.4140416654014903
299.0, 0.37668719487476326
300.0, 0.33472029720018603
301.0, 0.29654344954847534
302.0, 0.2616247850400119
303.0, 0.22534753040936903
304.0, 0.19773384774240724
305.0, 0.17046375849278955
306.0, 0.14565189683504878
307.0, 0.12604759793317113
308.0, 0.11025905026348251
309.0, 0.09414977897553091
310.0, 0.07939914829722428
311.0, 0.06751584281806973
312.0, 0.05849327443955694
313.0, 0.049989148747668
314.0, 0.043024485313478425
315.0, 0.03564189637514836
316.0, 0.029745940016917636
317.0, 0.026576063772813126
318.0, 0.021396977678091376
319.0, 0.01932318825642429
320.0, 0.01753105756893651
321.0, 0.015530819392367144
322.0, 0.014624514859441478
323.0, 0.012813301422525677
324.0, 0.010835408257001262
325.0, 0.010199534079123914
326.0, 0.01018283572355261
327.0, 0.00925194068901226
328.0, 0.009321067316815654
329.0, 0.011196141405519363
330.0, 0.012535257570636026
331.0, 0.013261198745838058
332.0, 0.015400072408741318
333.0, 0.016498631604605598
334.0, 0.017791413566238347
335.0, 0.020399330754068513
336.0, 0.023662157536766884
337.0, 0.02554360420693253
338.0, 0.030904080487375894
339.0, 0.035347781475229045
340.0, 0.03887823161509678
341.0, 0.04212703720871698
342.0, 0.044337896882962496
343.0, 0.04871266376889295
344.0, 0.05218613806465062
345.0, 0.055167008482362515
346.0, 0.05950983416898625
347.0, 0.06498354905202554
348.0, 0.06814736980753146
349.0, 0.07001280291059528
350.0, 0.07048095157647423
351.0, 0.06940135870155097
352.0, 0.06895848379963336
353.0, 0.06697098230645086
354.0, 0.0645519068615549
355.0, 0.06010035834870855
356.0, 0.05252251721903039
357.0, 0.04600066986956392
358.0, 0.040682044701340944
359.0, 0.03392026749754603
360.0, 0.026613370265896937
361.0, 0.020762105416776377
362.0, 0.015596389587572685
363.0, 0.013510223223969456
364.0, 0.01185031878029634
365.0, 0.009095174788133821
366.0, 0.006018781119739848
367.0, 0.004310959729175394
368.0, 0.0020095184806850023
369.0, 0.00034412733283051907
370.0, 0.0011411894376506012
371.0, 0.0010067467695458483
372.0, 0.0006271864336705716
373.0, 0.0007334909712704421
374.0, 0.002050284692260643
375.0, 0.0029448738725399207
376.0, 0.0018569697261344971
377.0, 0.0008214608753607521
378.0, 0.0011100874537847793
379.0, 0.0018386323251184144
380.0, 0.0018139863240038004
381.0, 0.0004237169171087598
382.0, 0.00017092899942859125
383.0, 0.0006474145661131017
384.0, 0.001955611701461584
385.0, 0.0032628798515894975
386.0, 0.004011675188977288
387.0, 0.00625869192953084
388.0, 0.007973322961547343
389.0, 0.008809331104340715
390.0, 0.008440930900826874
391.0, 0.007906468774806899
392.0, 0.009717484266101492
393.0, 0.012249375756606416
394.0, 0.014497516799334819
395.0, 0.017355323103949338
396.0, 0.019799774542791856
397.0, 0.018489304518986324
398.0, 0.019285736053198523
399.0, 0.020698268109998554
400.0, 0.02246347364061637
401.0, 0.023970749193615623
402.0, 0.023502463964607517
403.0, 0.025122104891932624
404.0, 0.02427618008675573
405.0, 0.021779077763878614
406.0, 0.01950501516722292
407.0, 0.018116886785276128
408.0, 0.017480432832364046
409.0, 0.013528254154135772
410.0, 0.010274939509712559
411.0, 0.009129537017185814
412.0, 0.007351935697428387
413.0, 0.005560323523575068
414.0, 0.006012104495689006
415.0, 0.005421449852512895
416.0, 0.00310496582376399
417.0, 0.0010246253859117565
418.0, 0.0006842978966483962
419.0, 0.00024599812544878936
420.0, 0.0008189745094641394
421.0, 0.0010131455914113986
422.0, 0.0015843768312588649
423.0, 0.0013357738479747923
424.0, 0.00033275619260943017
425.0, 0.0004682953076297546
426.0, 5.346556715158398e-05
427.0, 0.00040590924198270805
428.0, 0.0012712236881226029
429.0, 0.0003830652495132582
430.0, 0.0015771830556426964
431.0, 0.0009214846130052444
432.0, 0.0016682065951325012
433.0, 0.0022507132542182676
434.0, 0.0024226599855696708
435.0, 0.0016221151058356106
436.0, 0.002579164158841499
437.0, 0.004565005078616998
438.0, 0.004967924082239376
439.0, 0.005409114690267695
440.0, 0.007772562302978423
441.0, 0.009951913696716785
442.0, 0.011788537794688239
443.0, 0.013984754803049938
444.0, 0.015617268754647449
445.0, 0.016319158150486502
446.0, 0.018934346915274472
447.0, 0.02237443391398913
448.0, 0.0248245293901675
449.0, 0.026024516871435466
450.0, 0.027778086538791213
451.0, 0.03211741663554392
452.0, 0.035393405944941746
453.0, 0.03830858885467159
454.0, 0.04351119117321201
455.0, 0.04707149352769204
456.0, 0.047223171969016244
457.0, 0.049126080354098635
458.0, 0.054012179800305996
459.0, 0.059326488574155546
460.0, 0.058384528848384014
461.0, 0.06028256219562016
462.0, 0.06164769969821194
463.0, 0.06343278391624466
464.0, 0.06536008687100385
465.0, 0.06410565277292579
466.0, 0.06316302332119644
467.0, 0.061890503047913506
468.0, 0.06046950819077984
469.0, 0.0587064633187902
470.0, 0.05646191696206509
471.0, 0.05486901100729983
472.0, 0.05582688123422366
473.0, 0.05431481317265323
474.0, 0.05073935243517399
475.0, 0.04761326768580447
476.0, 0.04592134970408259
477.0, 0.043686873880648
478.0, 0.040909374536221975
479.0, 0.03737622912321078
480.0, 0.03342870189015457
481.0, 0.03000975488350003
482.0, 0.027872357445283567
483.0, 0.024287699387346203
484.0, 0.020958146323581596
485.0, 0.017755540343119963
486.0, 0.014622384745280959
487.0, 0.012931284649959176
488.0, 0.012221193753941366
489.0, 0.010284300212120128
490.0, 0.008311050202853136
491.0, 0.007158418450535073
492.0, 0.006751023949502966
493.0, 0.006833104184031817
494.0, 0.005562761422013377
495.0, 0.005903257640372282
496.0, 0.00580032693947047
497.0, 0.004527064941227191
498.0, 0.005059583491250673
499.0, 0.005441186177623549
500.0, 0.005032598053558778
501.0, 0.004764301946090669
502.0, 0.0053509357629899406
503.0, 0.00731351295607298
504.0, 0.010999609417533827
505.0, 0.011995977975611406
506.0, 0.010601686288133478
507.0, 0.010524522843671546
508.0, 0.013092537136706193
509.0, 0.016358332434886626
510.0, 0.01867988327341099
511.0, 0.022239794772667854
512.0, 0.025655599048731995
513.0, 0.028126344815331276
514.0, 0.03076373650030277
515.0, 0.03517536167821129
516.0, 0.038568597236736085
517.0, 0.04296067622938197
518.0, 0.04663699061398458
519.0, 0.04956775398437857
520.0, 0.0535046555473286
521.0, 0.05945175375175626
522.0, 0.06286324241162547
523.0, 0.0633453977021932
524.0, 0.06440833080256914
525.0, 0.06596755319093786
526.0, 0.06422553254875543
527.0, 0.06199349124457582
528.0, 0.05771243622969105
529.0, 0.05174102248999021
530.0, 0.04558907237791653
531.0, 0.040751403102728685
532.0, 0.037063065256754686
533.0, 0.03178052423545625
534.0, 0.02700329226964297
535.0, 0.023471622618750763
536.0, 0.020750561804434454
537.0, 0.018546066719652386
538.0, 0.017233777032198184
539.0, 0.013423937219469143
540.0, 0.011255131231685048
541.0, 0.009451158844930422
542.0, 0.00778208677773326
543.0, 0.007195197898921405
544.0, 0.0064629254088025565
545.0, 0.006325165333748105
546.0, 0.00569866994325428
547.0, 0.005981189629216796
548.0, 0.006750806174034592
549.0, 0.006234717826458131
550.0, 0.005123260641905613
551.0, 0.008235862149361724
552.0, 0.0072871559924411675
553.0, 0.006819526371600647
554.0, 0.008837072057278768
555.0, 0.007042599637491094
556.0, 0.007587863413786599
557.0, 0.007491560411404594
558.0, 0.00681696044405971
559.0, 0.006473586733646164
560.0, 0.006330673550850198
561.0, 0.005352829560353685
562.0, 0.003282586928728815
563.0, 0.002293671695461098
564.0, 0.0010429231992079686
565.0, 0.0001166087523678547
566.0, 0.0003011940951455778
567.0, 0.0002461622397607135
568.0, 0.002663177179705314
569.0, 0.003042136613437036
570.0, 0.003986258927503109
571.0, 0.0049802902086766776
572.0, 0.0042960659744501325
573.0, 0.003437184775679159
574.0, 0.005282199771852946
575.0, 0.005335983615423749
576.0, 0.004121578214061999
577.0, 0.0030064873621068245
578.0, 0.0026755642357986914
579.0, 0.0033070808236278946
580.0, 0.004245620002686888
581.0, 0.0021926130556298813
582.0, 0.001758417728815535
583.0, 0.002117277652821772
584.0, 0.000980329599344463
585.0, 0.0002359780427978279
586.0, 0.0012547600562544307
587.0, 0.0005774161751464985
588.0, 0.00036283024919910354
589.0, 0.0003192732148599449
590.0, 0.0017446863592685776
591.0, 0.0022206022775172205
592.0, 0.00414180028923751
593.0, 0.00369463036767589
594.0, 0.005115531343237783
595.0, 0.00741942578140367
596.0, 0.009072503611848954
597.0, 0.01042266764426883
598.0, 0.00921461644312453
599.0, 0.013341191157796905
600.0, 0.014940490927729158
601.0, 0.01614697887945613
602.0, 0.019221355788230157
603.0, 0.021978573147941882
604.0, 0.024502275870932157
605.0, 0.02665875555651075
606.0, 0.028669983345094102
607.0, 0.03101736007687788
608.0, 0.03452324877160201
609.0, 0.03861866140068985
610.0, 0.039740863996917015
611.0, 0.04415949082794683
612.0, 0.048532827372835326
613.0, 0.05034808069486929
614.0, 0.052135437742071494
615.0, 0.055689332332817504
616.0, 0.05845381513928464
617.0, 0.0625632274708864
618.0, 0.06554252068242086
619.0, 0.06804199371703366
620.0, 0.06913595917194916
621.0, 0.06968479703286948
622.0, 0.07377782278962307
623.0, 0.07893446735271821
624.0, 0.08471433691663656
625.0, 0.08732405872588786
626.0, 0.09010433175175439
627.0, 0.09551701262281537
628.0, 0.10133900673055206
629.0, 0.10560550371738046
630.0, 0.1100157397327294
631.0, 0.11847332499405869
632.0, 0.12611726662361053
633.0, 0.13351611387879184
634.0, 0.14371679185535946
635.0, 0.1537927192529469
636.0, 0.16131158089417838
637.0, 0.17550277564921776
638.0, 0.19048204205331776
639.0, 0.20409204043050128
640.0, 0.21846644818791075
641.0, 0.23554446148864494
642.0, 0.255118096336866
643.0, 0.2764570684757804
644.0, 0.30076901341728723
645.0, 0.3254791714931953
646.0, 0.35081218772188816
647.0, 0.3786468237025264
648.0, 0.4070729509143763
649.0, 0.4390600349621535
650.0, 0.47308254284150836
651.0, 0.5138041344961461
652.0, 0.5513873095967098
653.0, 0.5839648678077015
654.0, 0.6239334172417523
655.0, 0.6688840976779072
656.0, 0.714508997262671
657.0, 0.7562460630411637
658.0, 0.7958151498502926
659.0, 0.835624270762599
660.0, 0.8738246703954171
661.0, 0.9070088198390652
662.0, 0.9391493959538972
663.0, 0.9691223125163664
664.0, 0.9856963305706093
665.0, 0.9944344203778497
666.0, 0.9989776209341199
667.0, 0.9940802752926836
668.0, 0.9912054160840612
669.0, 0.9687316599628634
670.0, 0.9376334735487916
671.0, 0.9053194586064204
672.0, 0.8668381754028076
673.0, 0.8217987076042077
674.0, 0.7781702566983564
675.0, 0.7268040002736126
676.0, 0.6803705446829554
677.0, 0.6351271745790562
678.0, 0.5904227775620281
679.0, 0.5475135468453006
680.0, 0.5049615585231165
681.0, 0.4616683679579686
682.0, 0.42354472515899916
683.0, 0.39139305140479397
684.0, 0.36120391217948183
685.0, 0.3303077672791402
686.0, 0.3017357933442818
687.0, 0.2797067231258195
688.0, 0.2576467324510128
689.0, 0.23701454238348124
690.0, 0.21837175764754846
691.0, 0.20283021667538895
692.0, 0.18821183619567142
693.0, 0.17278269599125295
694.0, 0.15920657423684112
695.0, 0.14733300398205965
696.0, 0.13583596106114948
697.0, 0.12631537861558423
698.0, 0.11763894850747628
699.0, 0.10911165392552923
700.0, 0.10193252019176315
701.0, 0.0972060407589182
702.0, 0.08913612175527919
703.0, 0.08453796726983531
704.0, 0.07953205266484666
705.0, 0.07538537529131771
706.0, 0.07111223437967375
707.0, 0.06552475032494247
708.0, 0.06101022917667603
709.0, 0.05652605956159291
710.0, 0.051967107973916286
711.0, 0.048004999233323735
712.0, 0.043315627880985155
713.0, 0.038830637396949565
714.0, 0.03700424821143554
715.0, 0.0366719859384687
716.0, 0.03190254865055499
717.0, 0.0286491869815873
718.0, 0.023390977069539423
719.0, 0.020059546316290037
720.0, 0.019269476199956524
721.0, 0.01878453440841265
722.0, 0.018124086272002796
723.0, 0.012924581295727114
724.0, 0.011708938308549572
725.0, 0.00946678482659533
726.0, 0.007475622867348026
727.0, 0.007024095102953455
728.0, 0.006157813657970769
729.0, 0.004741332480347992
730.0, 0.004007491577490888
731.0, 0.003186565066129226
732.0, 0.002339663602797514
733.0, 0.002173122933274313
734.0, 0.0016497672422644562
735.0, 0.0003235185269088359
736.0, 0.0008777154141211685
737.0, 0.0008711798262596327
738.0, 0.0005121795801036163
739.0, 0.0013883622634265147
740.0, 0.002189558140050146
741.0, 0.0025325786655427843
742.0, 0.002507949772362599
743.0, 0.0015782066249207507
744.0, 0.0008627333212018563
745.0, 0.00243990945162537
746.0, 0.003181229024712155
747.0, 0.003412069680886601
748.0, 0.0024715046335865186
749.0, 0.0013751838193950497
750.0, 0.0015727332140630609
751.0, 0.0015507952255844918
752.0, 0.0033281391501068214
753.0, 0.001297490717362837
754.0, 0.0013578256380726173
755.0, 0.002330049091478262
756.0, 0.002002469546689273
757.0, 0.0019556058888312313
758.0, 0.003571341428169324
759.0, 0.002516144974619618
760.0, 0.0007496243486727321
761.0, 0.000660645607969717
762.0, 0.0007783599810345674
763.0, 0.001040181161084527
764.0, 0.0014297478825554912
765.0, 0.0007229484736612722
766.0, 0.0007977018526368459
767.0, 0.00015134570710442067
768.0, 0.0017910905149259395
769.0, 0.001067261548476799
770.0, 0.00015714132129535828
771.0, 0.0011258852468225586
772.0, 0.0020457099903174033
773.0, 0.0019808323259511763
774.0, 0.0020618621853649576
775.0, 0.003468141030549844
776.0, 0.0027471088739262502
777.0, 0.0023313577647940892
778.0, 0.003315695005965613
779.0, 0.004416833738252863
780.0, 0.004938143875472413
781.0, 0.003924325742653341
782.0, 0.005999318199349253
783.0, 0.0065719634081520435
784.0, 0.004750657618267526
785.0, 0.004386938601834606
786.0, 0.00587298833978854
787.0, 0.006249825214417153
788.0, 0.005776823646904037
789.0, 0.007556597184137804
790.0, 0.007681011474493184
791.0, 0.008455954267809939
792.0, 0.009966877524356125
793.0, 0.009301786129794527
794.0, 0.00799039193127451
795.0, 0.00862541526107281
796.0, 0.008937091210061138
797.0, 0.009108995403484732
798.0, 0.009455714751001404
799.0, 0.009775021698632742
800.0, 0.00963771270281721
801.0, 0.009625029971803065
802.0, 0.010052105564992784
803.0, 0.010058423519076485
804.0, 0.009492066239716462
805.0, 0.009552998041860734
806.0, 0.011957972296471027
807.0, 0.011501912852497844
808.0, 0.010536957837398584
809.0, 0.009931309116674478
810.0, 0.009310373512171045
811.0, 0.010419521117024624
812.0, 0.01157462193985918
813.0, 0.008760906129088359
814.0, 0.008445366679066363
815.0, 0.0084514909999176
816.0, 0.008152971222808746
817.0, 0.007354052791229917
818.0, 0.006918184149023903
819.0, 0.00780698499498296
820.0, 0.009305975726573417
821.0, 0.010314561777202648
822.0, 0.008115536364993996
823.0, 0.008707807086219273
824.0, 0.009388505278036242
825.0, 0.009105817309205405
826.0, 0.008619275163035836
827.0, 0.00758407666739237
828.0, 0.006616140779582705
829.0, 0.007420544935006628
830.0, 0.007266120564024739
831.0, 0.007370333424469937
832.0, 0.007675040164016878
833.0, 0.007323617441130485
834.0, 0.007570656065659459
835.0, 0.009213749205441976
836.0, 0.009638510405834128
837.0, 0.007711367893602414
838.0, 0.018068274944995875
839.0, 0.01258240515333785
840.0, 0.0074986556579065295
841.0, 0.00609828457306385
842.0, 0.0060210713630761544
843.0, 0.0077388669653267505
844.0, 0.007544425909735627
845.0, 0.00784422704852443
846.0, 0.007989908533546232
847.0, 0.007531223570176632
848.0, 0.00802999128028074
849.0, 0.007846538756730458
850.0, 0.007065708283446996
851.0, 0.007310303552975748
852.0, 0.00790069200467918
853.0, 0.0065989593326135545
854.0, 0.006982056680550883
855.0, 0.006584246753842574
856.0, 0.006631206411175144
857.0, 0.007300918165393966
858.0, 0.007424166203207503
859.0, 0.006744664854917559
860.0, 0.006942195018794335
861.0, 0.008540829092366005
862.0, 0.006476435307166999
863.0, 0.005411375988112481
864.0, 0.006313193646336383
865.0, 0.00650194218363474
866.0, 0.006267825114720362
867.0, 0.005880873775681595
868.0, 0.005585904643215828
869.0, 0.005847859849904433
870.0, 0.005854395604035709
871.0, 0.0054831693561012106
872.0, 0.005902171783449878
873.0, 0.005333102839886426
874.0, 0.0046900383078139025
875.0, 0.004440368407030791
876.0, 0.004065481214712631
877.0, 0.003500676576685885
878.0, 0.004566959404763822
879.0, 0.009691557734085718
880.0, 0.011982522570267242
881.0, 0.008257821167564343
882.0, 0.005607231257643664
883.0, 0.00425522752809277
884.0, 0.0028144054746335623
885.0, 0.0023687162059446787
886.0, 0.0034233941417303854
887.0, 0.00435114899814129
888.0, 0.0034684130207957692
889.0, 0.001558542379180412
890.0, 0.0025470987915742573
891.0, 0.002018428277136471
892.0, 0.0017988806213040597
893.0, 0.0012459140041772721
894.0, 0.0016296060280953906
895.0, 0.002457521035691907
896.0, 0.0011948223761704365
897.0, 0.0013661222155976825
898.0, 0.0013988626691503426
899.0, 0.0018661993859556375
900.0, 0.0006762997447687117
901.0, 0.0005895852917895943
902.0, 0.00199647660471974
903.0, 0.002199922640379873
904.0, 0.0008446844676344013
905.0, 0.0005053230093182235
906.0, 0.0016186536735613116
907.0, 0.0015406897736896807
908.0, 0.0011229424238550691
909.0, 0.00022336994118900695
910.0, 0.000916165500073908
911.0, 0.0017642271095271828
912.0, 0.0014980308860600084
913.0, 0.0010314835682233119
914.0, 0.0010197729199648
915.0, 0.000865761553998381
916.0, 0.0011256534168395292
917.0, 0.0024334312983914893
918.0, 0.0016077717920323868
919.0, 0.0002799315908778952
920.0, 0.0015383216386047976
921.0, 0.0016206876286092276
922.0, 0.00012674950106516573
923.0, 0.00046458820937907884
924.0, 0.0010893890527425292
925.0, 0.0003946399033071164
926.0, 0.0004624586942322775
927.0, 0.00021233274830727208
928.0, 0.0002718880378144285
929.0, 0.00020932556182381843
930.0, 0.0002944466265135996
931.0, 0.00041709121977155276
932.0, 0.0004991917424907106
933.0, 0.0007025101318482021
934.0, 0.0010223778190537537
935.0, 0.0010922666759180242
936.0, 0.0016107782728418737
937.0, 0.0019030487555077487
938.0, 0.0005702895327638316
939.0, 0.0006240169276697494
940.0, 0.0006443121921407834
941.0, 0.00028957419140736946
942.0, 0.0006195549707043851
943.0, 0.0005124658524564446
944.0, 0.0013460935607376976
945.0, 0.0004676406852460008
946.0, 8.053583693368243e-05
947.0, 0.0012019482808034176
948.0, 0.0008093518944327827
949.0, 0.000539540891793774
950.0, 0.0005127989121733362
951.0, 0.0010326875582142086
952.0, 0.0003715321293834965
953.0, 0.0006125503035404188
954.0, 0.0008590813663330293
955.0, 0.0009177773145883342
956.0, 0.00017915963347796978
957.0, 0.0015375212314705324
958.0, 0.00031387347061710843
959.0, 0.0010142926789922287
960.0, 0.0009452541619970804
961.0, 0.00042854006409275296
962.0, 0.0005552197275293028
963.0, 0.0005857831952764599
964.0, 8.287204102361025e-05
965.0, 0.00013044103071472289
966.0, 0.0012469413284166612
967.0, 0.0008868056198749654
968.0, 0.0016736970235661653
969.0, 0.0005640751051291411
970.0, 0.00035948188972576386
971.0, 0.000304547274289887
972.0, 0.001082021920058492
973.0, 0.0009855664346237593
974.0, 0.00023632709036278408
975.0, 0.00014113186959335876
976.0, 0.0001636946268623512
977.0, 0.0006244627042751071
978.0, 0.0003497362110508191
979.0, 0.00017726775438111345
980.0, 0.0004255840300389022
981.0, 0.0007515223631744909
982.0, 0.0016097338473863505
983.0, 0.001114191771318903
984.0, 0.0015371535467638997
985.0, 0.0012418066268319464
986.0, 0.0007298476967872529
987.0, 0.00041907401023389367
988.0, 7.472491892321905e-05
989.0, 0.001432237865608579
990.0, 0.0011848230151084963
991.0, 0.000655000370926407
992.0, 0.0007807172839600263
993.0, 0.0008348035212702744
994.0, 0.001223263914220994
995.0, 0.0018659031951682844
996.0, 0.002604827863621156
997.0, 0.002881811954479581
998.0, 0.0008888159566502076
999.0, 0.0013094369982089434
1000.0, 0.0008004241053443612
1001.0, 0.0014931439719127573
1002.0, 0.002270329543610164
1003.0, 0.0019826261101431176
1004.0, 0.0011304916756205486
1005.0, 0.0010162154309526676
1006.0, 0.0023930906668250037
1007.0, 0.0026863827789032854
1008.0, 0.0015381052276714374
1009.0, 0.0018390684494685916
1010.0, 0.0018019264762027106
1011.0, 0.0013314432308058502
1012.0, 0.0019663821380218886
1013.0, 0.0020674059130743015
1014.0, 0.0016978680796198523
1015.0, 0.0016567895377434677
1016.0, 0.0023065622761647532
1017.0, 0.0027122898990965833
1018.0, 0.0011763208120405802
1019.0, 0.002138703459694846
1020.0, 0.002064647827461563
1021.0, 0.0019969834668047415
1022.0, 0.0013772359247803134
1023.0, 0.001129489451301302
1024.0, 0.002673705127193441
1025.0, 0.0028243378166212104
1026.0, 0.001582221178473233
1027.0, 0.001268879962152846
1028.0, 0.0017378586024769768
1029.0, 0.002011456615454664
1030.0, 0.0017892100072746902
1031.0, 0.0016766501438526128
1032.0, 0.0024491556925793152
1033.0, 0.0018346840120181908
1034.0, 0.0005132832428948761
1035.0, 0.0006586254345839547
1036.0, 0.0020069353722726104
1037.0, 0.0029205625050822788
1038.0, 0.001981729337145451
1039.0, 0.0008046300868998024
1040.0, 0.0016378224343813908
1041.0, 0.0028259415430602055
1042.0, 0.0019528032620345088
1043.0, 0.0015805834719989623
1044.0, 0.002520239764252199
1045.0, 0.001331372997232062
1046.0, 0.0020356104068437624
1047.0, 0.002023057985167793
1048.0, 0.0012810238562600104
1049.0, 0.000340744368337337
1050.0, 0.0012794426981272773
1051.0, 0.0023609268856425256
1052.0, 0.0014963968398842447
1053.0, 0.001284550222547117
1054.0, 0.0012711181301487443
1055.0, 0.003274033763254275
1056.0, 0.002265621356976284
1057.0, 0.0020887392426032804
1058.0, 0.00038217865658844035
1059.0, 0.0014751925074823397
1060.0, 0.0027193843763878844
1061.0, 0.0025565102429631914
1062.0, 0.001426137262082478
1063.0, 0.000809992797766494
1064.0, 0.001106173449931314
1065.0, 0.0015864445427469602
1066.0, 0.0018317777072272203
1067.0, 0.0013678679687824185
1068.0, 0.00014155600199331514
1069.0, 0.00016905355233185664
1070.0, 0.00028132571577065463
1071.0, 0.00026013367455317293
1072.0, 0.0003657986287113974
1073.0, 0.0017200667438431296
1074.0, 0.0015302142925102344
1075.0, 0.0008283740756370655
1076.0, 0.0007342977734530529
1077.0, 0.000398799058562827
1078.0, 0.00010461104234630706
1079.0, 3.211711137735655e-05
1080.0, 0.0010739608651942692
1081.0, 0.0026298108335506545
1082.0, 0.0017252236176633687
1083.0, 0.0018375331376011886
1084.0, 0.0013021584291646256
1085.0, 0.0007617113771037006
1086.0, 0.001831707372692524
1087.0, 0.0015355241381715503
1088.0, 0.0013715357284226455
1089.0, 0.0016225916781336018
1090.0, 0.0011495068933704067
1091.0, 0.0014750669386315988
1092.0, 0.0021742419202035778
1093.0, 0.0013404039110882131
1094.0, 0.002059410457186531
1095.0, 0.0013863581773992102
1096.0, 0.001134648357505561
1097.0, 0.0014619658794324394
1098.0, 0.0016905337850376546
1099.0, 0.0023000111956706292
1100.0, 0.0024918663946588955
1101.0, 0.0007803267770656922
1102.0, 0.0006516161497276182
1103.0, 0.0012457375869566088
1104.0, 0.0008131830358391963
1105.0, 0.0009840367163565776
1106.0, 0.0009375396498703764
1107.0, 0.00015248090957304894
1108.0, 0.0009728682480707646
1109.0, 0.0019246295425895648
1110.0, 0.0014985314225557705
1111.0, 0.0028496625990087716
1112.0, 0.0019584307764130117
1113.0, 0.0013294010447902696
1114.0, 0.0012314066720358766
1115.0, 0.0018198699559537183
1116.0, 0.0019560357719031352
1117.0, 0.0009603697007534503
1118.0, 0.0008535631873356803
1119.0, 0.0012276417574150996
1120.0, 0.000580278340901353
1121.0, 0.0015807284209264855
1122.0, 0.0010756213273465675
1123.0, 0.0016218557883055837
1124.0, 0.00025292643300910134
1125.0, 0.0005537867254375544
1126.0, 0.0007599682412558333
1127.0, 0.001156154128016703
1128.0, 0.0002569246744789134
1129.0, 0.0009022635295995057
1130.0, 0.0008313985995646073
1131.0, 0.0010290935073340552
1132.0, 0.0009791602983653647
1133.0, 0.00024040610808215247
1134.0, 0.00018494160955540007
1135.0, 0.0018305033936533593
1136.0, 0.0014258878012073989
1137.0, 0.0013325847370812426
1138.0, 0.0004000303013975053
1139.0, 0.0012321690223629884
1140.0, 0.00222264715387771
1141.0, 0.0003767320528993394
1142.0, 0.00036449138816331116
1143.0, 0.00011529712916970087
1144.0, 0.0006560518218423667
1145.0, 0.0011725066565958738
1146.0, 0.0005605016169633812
1147.0, 0.0002488980846097
1148.0, 0.00028813369750905566
1149.0, 0.00024949343287605075
1150.0, 0.00026495098695180226
1151.0, 0.00036548918836431306
1152.0, 0.0011364625214445535
1153.0, 0.0010227712214857527
1154.0, 0.0005145023221523827
1155.0, 0.00034262090401229365
1156.0, 0.0009034630441359922
1157.0, 0.0005178888753420521
1158.0, 0.00016465311213288944
1159.0, 0.0003616698163863983
1160.0, 0.0023263126287318605
1161.0, 0.0007120829818727673
1162.0, 0.0009308054923971379
1163.0, 0.0019720067367166214
1164.0, 0.0019527404822259015
1165.0, 0.0012530456800262202
1166.0, 0.0010165071153743592
1167.0, 0.001193393715916763
1168.0, 0.0010427746826841072
1169.0, 0.0018594187579170404
1170.0, 0.0018386721140500716
1171.0, 0.0012848566033441965
1172.0, 0.0010916423868836
1173.0, 0.0026558627091657324
1174.0, 0.0021011610948579226
1175.0, 0.0010376444449468239
1176.0, 0.0012940832362226084
1177.0, 0.002017338773069954
1178.0, 0.0014991976011723739
1179.0, 0.0009619355143857617
1180.0, 0.0007266340087864333
1181.0, 0.0009331939957757131
1182.0, 0.0012134239975611324
1183.0, 0.0010962203341340307
1184.0, 0.0004329897367897344
1185.0, 6.090646037602507e-05
1186.0, 0.0004990679938909647
1187.0, 0.0007758563398110249
1188.0, 0.0002884260842666989
1189.0, 0.002753510558246072
1190.0, 0.0020408906846248083
1191.0, 0.00020362187077875728
1192.0, 0.0009495850896755568
1193.0, 0.0019800231397677573
1194.0, 0.00231642283728055
1195.0, 0.0018133316623595759
1196.0, 0.0010636159645742134
1197.0, 0.0014574546014019855
1198.0, 0.0029112285596927918
1199.0, 0.002874923413624298
1200.0, 0.002657184750842554
1201.0, 0.0026546039567180994
1202.0, 0.0022810210600857856
1203.0, 0.0018557255649440678
1204.0, 0.0017262954302854532
1205.0, 0.0024533775380521563
1206.0, 0.002631077961352121
1207.0, 0.001310380340042429
1208.0, 0.0014390209790977587
1209.0, 0.0017168978752258946
1210.0, 0.0010900355041689798
1211.0, 0.0015926922229815114
1212.0, 0.0015065176646765854
1213.0, 0.0014168459221344581
1214.0, 0.000987464057694247
1215.0, 0.00141316049875057
1216.0, 0.0013125987464843237
1217.0, 0.0021113106364028566
1218.0, 0.0019212747481440165
1219.0, 0.0011262784162021319
1220.0, 0.0014024458008059081
1221.0, 0.0006410219731222423
1222.0, 0.0004433404975237594
1223.0, 0.0009182344684212965
1224.0, 0.0009585925367390116
1225.0, 0.00248550567130632
1226.0, 0.0036773205803795686
1227.0, 0.0030866689807166436
1228.0, 0.0021335098142091055
1229.0, 0.0007088458681423083
1230.0, 0.0005122754174479052
1231.0, 0.0017353832508948727
1232.0, 0.00033906270881458965
1233.0, 0.001620074932638885
1234.0, 0.0013141081713361218
1235.0, 0.002246338966322031
1236.0, 0.0022438646945810246
1237.0, 0.0014213810049568977
1238.0, 0.0014476652395716575
1239.0, 0.00030906737605493155
1240.0, 0.00142784719061842
1241.0, 0.0008698014352889656
1242.0, 0.00019367168847986117
1243.0, 0.0003600079846794782
1244.0, 0.0010911406821281788
1245.0, 0.003337611481257937
1246.0, 0.0029459720244308482
1247.0, 0.00013749515251162728
1248.0, 0.000362388559560948
1249.0, 0.0008361986561024885
1250.0, 0.0007798091380683052
1251.0, 0.0014745394142585589
1252.0, 0.0010601204439947027
1253.0, 7.392137636730008e-05
1254.0, 0.0004984223366466379
1255.0, 0.0025652607317175335
1256.0, 0.0011292985564476125
1257.0, 0.0007158867268530853
1258.0, 0.0017674961610218659
1259.0, 0.001468905900289597
1260.0, 0.00078638232457987
1261.0, 0.0022539910809944727
1262.0, 0.0014407288137955475
1263.0, 0.0011531101742001313
1264.0, 0.0015566970072047378
1265.0, 0.002153018273568752
1266.0, 0.0016420174023431956
1267.0, 6.0938274455298296e-05
1268.0, 0.0005746204264910743
1269.0, 0.0015657603774422778
1270.0, 0.0014713941660701188
1271.0, 0.0006675028585746298
1272.0, 9.732991486045133e-05
1273.0, 0.0004377186467175748
1274.0, 0.0005600621479336407
1275.0, 0.0011063077277450914
1276.0, 0.002526978219142136
1277.0, 0.0011619508121359999
1278.0, 0.0009108589642896266
1279.0, 0.0006876465749994296
1280.0, 0.0001368304776881615
1281.0, 0.0010824330952361903
1282.0, 0.0010378278599248575
1283.0, 0.0006471558266815283
1284.0, 0.00021792440094985688
1285.0, 0.0001317297707411901
1286, 0.0
1287, 0.0
1288, 0.0
1289, 0.0
1290, 0.0
1291, 0.0
1292, 0.0
1293, 0.0
1294, 0.0
1295, 0.0
1296, 0.0
1297, 0.0
1298, 0.0
1299, 0.0
1300, 0.0
1301, 0.0
1302, 0.0
1303, 0.0
1304, 0.0
1305, 0.0
1306, 0.0
1307, 0.0
1308, 0.0
1309, 0.0
1310, 0.0
1311, 0.0
1312, 0.0
1313, 0.0
1314, 0.0
1315, 0.0
1316, 0.0
1317, 0.0
1318, 0.0
1319, 0.0
1320, 0.0
1321, 0.0
1322, 0.0
1323, 0.0
1324, 0.0
1325, 0.0
1326, 0.0
1327, 0.0
1328, 0.0
1329, 0.0
1330, 0.0
1331, 0.0
1332, 0.0
1333, 0.0
1334, 0.0
1335, 0.0
1336, 0.0
1337, 0.0
1338, 0.0
1339, 0.0
1340, 0.0
1341, 0.0
1342, 0.0
1343, 0.0
1344, 0.0
1345, 0.0
1346, 0.0
1347, 0.0
1348, 0.0
1349, 0.0
1350, 0.0
1351, 0.0
1352, 0.0
1353, 0.0
1354, 0.0
1355, 0.0
1356, 0.0
1357, 0.0
1358, 0.0
1359, 0.0
1360, 0.0
1361, 0.0
1362, 0.0
1363, 0.0
1364, 0.0
1365, 0.0
1366, 0.0
1367, 0.0
1368, 0.0
1369, 0.0
1370, 0.0
1371, 0.0
1372, 0.0
1373, 0.0
1374, 0.0
1375, 0.0
1376, 0.0
1377, 0.0
1378, 0.0
1379, 0.0
1380, 0.0
1381, 0.0
1382, 0.0
1383, 0.0
1384, 0.0
1385, 0.0
1386, 0.0
1387, 0.0
1388, 0.0
1389, 0.0
1390, 0.0
1391, 0.0
1392, 0.0
1393, 0.0
1394, 0.0
1395, 0.0
1396, 0.0
1397, 0.0
1398, 0.0
1399, 0.0
1400, 0.0
1401, 0.0
1402, 0.0
1403, 0.0
1404, 0.0
1405, 0.0
1406, 0.0
1407, 0.0
1408, 0.0
1409, 0.0
1410, 0.0
1411, 0.0
1412, 0.0
1413, 0.0
1414, 0.0
1415, 0.0
1416, 0.0
1417, 0.0
1418, 0.0
1419, 0.0
1420, 0.0
1421, 0.0
1422, 0.0
1423, 0.0
1424, 0.0
1425, 0.0
1426, 0.0
1427, 0.0
1428, 0.0
1429, 0.0
1430, 0.0
1431, 0.0
1432, 0.0
1433, 0.0
1434, 0.0
1435, 0.0
1436, 0.0
1437, 0.0
1438, 0.0
1439, 0.0
1440, 0.0
1441, 0.0
1442, 0.0
1443, 0.0
1444, 0.0
1445, 0.0
1446, 0.0
1447, 0.0
1448, 0.0
1449, 0.0
1450, 0.0
1451, 0.0
1452, 0.0
1453, 0.0
1454, 0.0
1455, 0.0
1456, 0.0
1457, 0.0
1458, 0.0
1459, 0.0
1460, 0.0
1461, 0.0
1462, 0.0
1463, 0.0
1464, 0.0
1465, 0.0
1466, 0.0
1467, 0.0
1468, 0.0
1469, 0.0
1470, 0.0
1471, 0.0
1472, 0.0
1473, 0.0
1474, 0.0
1475, 0.0
1476, 0.0
1477, 0.0
1478, 0.0
1479, 0.0
1480, 0.0
1481, 0.0
1482, 0.0
1483, 0.0
1484, 0.0
1485, 0.0
1486, 0.0
1487, 0.0
1488, 0.0
1489, 0.0
1490, 0.0
1491, 0.0
1492, 0.0
1493, 0.0
1494, 0.0
1495, 0.0
1496, 0.0
1497, 0.0
1498, 0.0
1499, 0.0
1500, 0.0
1501, 0.0
1502, 0.0
1503, 0.0
1504, 0.0
1505, 0.0
1506, 0.0
1507, 0.0
1508, 0.0
1509, 0.0
1510, 0.0
1511, 0.0
1512, 0.0
1513, 0.0
1514, 0.0
1515, 0.0
1516, 0.0
1517, 0.0
1518, 0.0
1519, 0.0
1520, 0.0
1521, 0.0
1522, 0.0
1523, 0.0
1524, 0.0
1525, 0.0
1526, 0.0
1527, 0.0
1528, 0.0
1529, 0.0
1530, 0.0
1531, 0.0
1532, 0.0
1533, 0.0
1534, 0.0
1535, 0.0
1536, 0.0
1537, 0.0
1538, 0.0
1539, 0.0
1540, 0.0
1541, 0.0
1542, 0.0
1543, 0.0
1544, 0.0
1545, 0.0
1546, 0.0
1547, 0.0
1548, 0.0
1549, 0.0
1550, 0.0
1551, 0.0
1552, 0.0
1553, 0.0
1554, 0.0
1555, 0.0
1556, 0.0
1557, 0.0
1558, 0.0
1559, 0.0
1560, 0.0
1561, 0.0
1562, 0.0
1563, 0.0
1564, 0.0
1565, 0.0
1566, 0.0
1567, 0.0
1568, 0.0
1569, 0.0
1570, 0.0
1571, 0.0
1572, 0.0
1573, 0.0
1574, 0.0
1575, 0.0
1576, 0.0
1577, 0.0
1578, 0.0
1579, 0.0
1580, 0.0
1581, 0.0
1582, 0.0
1583, 0.0
1584, 0.0
1585, 0.0
1586, 0.0
1587, 0.0
1588, 0.0
1589, 0.0
1590, 0.0
1591, 0.0
1592, 0.0
1593, 0.0
1594, 0.0
1595, 0.0
1596, 0.0
1597, 0.0
1598, 0.0
1599, 0.0
