30, 0.0
31, 0.0
32, 0.0
33, 0.0
34, 0.0
35, 0.0
36, 0.0
37, 0.0
38, 0.0
39, 0.0
40, 0.0
41, 0.0
42, 0.0
43, 0.0
44, 0.0
45, 0.0
46, 0.0
47, 0.0
48, 0.0
49, 0.0
50, 0.0
51, 0.0
52, 0.0
53, 0.0
54, 0.0
55, 0.0
56, 0.0
57, 0.0
58, 0.0
59, 0.0
60, 0.0
61, 0.0
62, 0.0
63, 0.0
64, 0.0
65, 0.0
66, 0.0
67, 0.0
68, 0.0
69, 0.0
70, 0.0
71, 0.0
72, 0.0
73, 0.0
74, 0.0
75, 0.0
76, 0.0
77, 0.0
78, 0.0
79, 0.0
80, 0.0
81, 0.0
82, 0.0
83, 0.0
84, 0.0
85, 0.0
86, 0.0
87, 0.0
88, 0.0
89, 0.0
90, 0.0
91, 0.0
92, 0.0
93, 0.0
94, 0.0
95, 0.0
96, 0.0
97, 0.0
98.0, 4.5219875843799106e-05
99.0, 0.0005479521537610545
100.0, 0.0011191271275424312
101.0, 0.0011483386774948172
102.0, 0.000580000393367451
103.0, 0.0009514102809572746
104.0, 0.002373429801274422
105.0, 0.009132354794669492
106.0, 0.021772174834567743
107.0, 0.030633247851606114
108.0, 0.038701060439442846
109.0, 0.03449019303074614
110.0, 0.028613268302736798
111.0, 0.027523848529158887
112.0, 0.03086136134970298
113.0, 0.03203180385207806
114.0, 0.03457676475322968
115.0, 0.033775396617371736
116.0, 0.031105588152750156
117.0, 0.030622283370581507
118.0, 0.03066342329981595
119.0, 0.029543931746012
120.0, 0.02983473636918498
121.0, 0.029960193456836526
122.0, 0.029078835135071018
123.0, 0.030995411932898495
124.0, 0.031138317945805054
125.0, 0.034093412607095974
126.0, 0.03943509250839996
127.0, 0.04619683074940434
128.0, 0.05347651216534704
129.0, 0.06821242767174593
130.0, 0.08202758211580617
131.0, 0.09966647677985176
132.0, 0.1230350462312961
133.0, 0.15208570446072678
134.0, 0.18604191392003147
135.0, 0.22627946289856654
136.0, 0.27361362699149055
137.0, 0.3232132977414305
138.0, 0.36677748973629365
139.0, 0.39103716993332843
140.0, 0.3911736468121213
141.0, 0.36279939379357007
142.0, 0.3175643895238135
143.0, 0.26814132950655567
144.0, 0.22558702932146635
145.0, 0.18822922202479275
146.0, 0.15686650349943407
147.0, 0.1294995468885931
148.0, 0.10576127241076917
149.0, 0.08678884128304488
150.0, 0.0783895004738517
151.0, 0.06947424612111605
152.0, 0.05789125464212973
153.0, 0.046878369102200376
154.0, 0.03984959315256481
155.0, 0.038971541997698984
156.0, 0.0333640952278618
157.0, 0.032067697523697355
158.0, 0.03053704686560038
159.0, 0.026303495310042502
160.0, 0.01971730532640445
161.0, 0.020166964225669243
162.0, 0.018529705765224676
163.0, 0.018022787383477862
164.0, 0.016646271241913698
165.0, 0.013475722495740718
166.0, 0.012790146960239633
167.0, 0.006339938956805352
168.0, 0.006103890890205285
169.0, 0.007763936638680263
170.0, 0.009468033526190987
171.0, 0.01180835419249869
172.0, 0.009122529519874441
173.0, 0.008750473075964665
174.0, 0.011342994896521843
175.0, 0.011056054213872683
176.0, 0.005277129890989792
177.0, 0.00693298207754634
178.0, 0.007669894024846294
179.0, 0.006337713225254188
180.0, 0.005640079916368837
181.0, 0.006136246421627236
182.0, 0.005907368454001939
183.0, 0.005168188457966833
184.0, 0.005820630803302314
185.0, 0.006701363012292864
186.0, 0.00717369172434281
187.0, 0.007174888496787616
188.0, 0.007860663991255562
189.0, 0.007824810551541812
190.0, 0.008312409085690566
191.0, 0.008900858828326393
192.0, 0.009669007347838834
193.0, 0.011228067164432575
194.0, 0.01076128674553399
195.0, 0.011337245577103278
196.0, 0.012116266497442027
197.0, 0.012777982775372199
198.0, 0.013272404732992587
199.0, 0.013771053870011521
200.0, 0.015202780003316664
201.0, 0.01639749802902211
202.0, 0.01772611341171109
203.0, 0.01909695852213459
204.0, 0.019912860350939032
205.0, 0.02126248125638677
206.0, 0.02107405272795568
207.0, 0.02130199040855063
208.0, 0.021256906470860815
209.0, 0.021017826945191463
210.0, 0.025405158781167753
211.0, 0.02213509077662955
212.0, 0.0203605090641929
213.0, 0.022646881550613722
214.0, 0.024929855878101374
215.0, 0.01930475311049551
216.0, 0.012505426457062893
217.0, 0.01455663295440125
218.0, 0.012533213754641311
219.0, 0.011228444185805875
220.0, 0.013959740942449454
221.0, 0.010438441450132473
222.0, 0.00871249334450332
223.0, 0.00588034972838655
224.0, 0.006485490153334323
225.0, 0.00877308887210205
226.0, 0.008397558475483402
227.0, 0.012853599691446657
228.0, 0.010178231934634376
229.0, 0.011537957193880665
230.0, 0.01067266120250158
231.0, 0.0059156781456983385
232.0, 0.006841404981838887
233.0, 0.006543889574040038
234.0, 0.005538985016242109
235.0, 0.00607047275994991
236.0, 0.00670495345112094
237.0, 0.006247147104441892
238.0, 0.010476484010249199
239.0, 0.006765122458681603
240.0, 0.0046271631756873615
241.0, 0.005750345356124392
242.0, 0.007951834324077872
243.0, 0.006786634524615616
244.0, 0.00484590374188827
245.0, 0.0029505901224520185
246.0, 0.0028745620554160066
247.0, 0.002536318384963984
248.0, 0.0007344393839797178
249.0, 3.6956052211478674e-05
250.0, 0.0016183445706952015
251.0, 0.002650092575782334
252.0, 0.0035025347214540626
253.0, 0.0032099223675632793
254.0, 0.001061598539003213
255.0, 0.0005567321594574768
256.0, 0.0011180920600630361
257.0, 0.0006378101628525945
258.0, 0.00010152866330968369
259.0, 0.00024560382803500965
260.0, 0.001096516272404109
261.0, 0.002772695938380633
262.0, 0.0021841207170298373
263.0, 0.0034685145639117426
264.0, 0.004192517546902657
265.0, 0.0038606774800215085
266.0, 0.008997136228900915
267.0, 0.006332073422512829
268.0, 0.0051233790758642055
269.0, 0.005596370628641397
270.0, 0.006046910693980447
271.0, 0.0053487665988873785
272.0, 0.008018453583549683
273.0, 0.01319153641535618
274.0, 0.011692931780266032
275.0, 0.010759831723147909
276.0, 0.013061531831650666
277.0, 0.015302966561798954
278.0, 0.011854276241536154
279.0, 0.017451115924943507
280.0, 0.01866204316335555
281.0, 0.01723151309493632
282.0, 0.016525815386533717
283.0, 0.0171784621654925
284.0, 0.0129575326155001
285.0, 0.010679815898594413
286.0, 0.012124143515590274
287.0, 0.013400339265717716
288.0, 0.011208980725307755
289.0, 0.008576890178645588
290.0, 0.008571601174672825
291.0, 0.010773184856183598
292.0, 0.011127768851147324
293.0, 0.010623330759280939
294.0, 0.011673216563228339
295.0, 0.010128164026576054
296.0, 0.011118336790905459
297.0, 0.009141428370701792
298.0, 0.010246311253924903
299.0, 0.0134154690992937
300.0, 0.012266515384778496
301.0, 0.012273435966098006
302.0, 0.01462992085582762
303.0, 0.012726906694282768
304.0, 0.010106685630712453
305.0, 0.010350966002621864
306.0, 0.013951080574366028
307.0, 0.013995491360691142
308.0, 0.010835980211529426
309.0, 0.007507527958661629
310.0, 0.0053385632049187445
311.0, 0.004716531827556446
312.0, 0.005149365449128723
313.0, 0.002818360978151784
314.0, 0.003048663220144356
315.0, 0.0047635613178610365
316.0, 0.006175769149370062
317.0, 0.006187002676385503
318.0, 0.005913504763875859
319.0, 0.005304257845604847
320.0, 0.004131686529321653
321.0, 0.002468772000487803
322.0, 0.0009506066998092262
323.0, 0.0005327469224915112
324.0, 0.0023257013446711305
325.0, 0.001384366613427549
326.0, 0.0031521920618835858
327.0, 0.002760958641822096
328.0, 0.0008147851671343112
329.0, 0.0009454943595845765
330.0, 0.0017854789447264699
331.0, 0.001594206822451141
332.0, 0.001534367257907839
333.0, 0.003273946468855614
334.0, 0.004239937435829996
335.0, 0.0009585901355826836
336.0, 0.0038416681561041243
337.0, 0.00400877000679177
338.0, 0.00273658002841498
339.0, 0.0019028906913078523
340.0, 0.0016325826836640983
341.0, 0.0006499353242242667
342.0, 0.0008155068556892113
343.0, 0.0008988019297391489
344.0, 0.002187819411311462
345.0, 0.0024829580476454644
346.0, 0.0020530232241726567
347.0, 0.0037385933092074822
348.0, 0.0033431455556043456
349.0, 0.0026466147009187057
350.0, 0.0022809514597392326
351.0, 0.0021994194673353286
352.0, 0.0027962429014215685
353.0, 0.004499352547674201
354.0, 0.0007740320510680422
355.0, 0.0034981777615296244
356.0, 0.0032357738429544883
357.0, 0.0020525325981879186
358.0, 0.0018525117262675017
359.0, 0.0009685831556934074
360.0, 0.00018686054199833587
361.0, 4.5017207074362045e-05
362.0, 0.001399211785144145
363.0, 0.0025342873434187818
364.0, 0.0027315651090086815
365.0, 0.003396756566735548
366.0, 0.004147397080711793
367.0, 0.0012416642462516443
368.0, 0.002775220658825547
369.0, 0.005421737146680446
370.0, 0.006083372181297041
371.0, 0.00632017325570477
372.0, 0.009902864901242725
373.0, 0.009344437585363763
374.0, 0.0054964551852496385
375.0, 0.003255650425030199
376.0, 0.0037890620748454672
377.0, 0.002986065280713063
378.0, 0.009660120905525075
379.0, 0.009403795041537152
380.0, 0.008348106361261019
381.0, 0.010097080094055853
382.0, 0.01242552563189884
383.0, 0.00852559381139035
384.0, 0.009252185898148415
385.0, 0.014080679831327896
386.0, 0.016693131547226098
387.0, 0.01745210682981909
388.0, 0.01719613070803361
389.0, 0.016275864713431634
390.0, 0.020767381168512733
391.0, 0.020424924987367473
392.0, 0.02169251374271333
393.0, 0.023417171595216515
394.0, 0.02356174126272573
395.0, 0.021168694879573152
396.0, 0.017750093858421245
397.0, 0.018057579762384472
398.0, 0.015316741142023117
399.0, 0.013942359418866077
400.0, 0.01481206002981736
401.0, 0.015000254114653553
402.0, 0.016733011546451234
403.0, 0.0153492964819031
404.0, 0.012384420734498454
405.0, 0.011623928983843918
406.0, 0.011385341676649858
407.0, 0.008242323647180815
408.0, 0.009076912001087586
409.0, 0.015810329993788383
410.0, 0.013074360489581792
411.0, 0.007303158245920214
412.0, 0.006623096121984681
413.0, 0.013541675770155167
414.0, 0.015505587261124875
415.0, 0.011974132659730258
416.0, 0.013831468986086028
417.0, 0.015155415267496558
418.0, 0.01736408619536778
419.0, 0.02268411112117764
420.0, 0.026441305579696595
421.0, 0.03035212460673617
422.0, 0.03183084865962647
423.0, 0.037010775136239786
424.0, 0.041501633416598335
425.0, 0.04194270173769309
426.0, 0.04335141927338542
427.0, 0.04914092766217445
428.0, 0.047242449467480074
429.0, 0.051044784942153594
430.0, 0.054691447301665516
431.0, 0.05225007231198555
432.0, 0.04541703840168527
433.0, 0.043621905262801866
434.0, 0.03689153559807441
435.0, 0.03681047469285359
436.0, 0.036997152801645075
437.0, 0.03459127154002465
438.0, 0.03232850151135867
439.0, 0.030133288233447682
440.0, 0.030121235315423944
441.0, 0.030870146627455
442.0, 0.030637460975938884
443.0, 0.03004471881606431
444.0, 0.03070240226130831
445.0, 0.03252009769331716
446.0, 0.02962383001994111
447.0, 0.030385808611524172
448.0, 0.029779965393049924
449.0, 0.03002382875753819
450.0, 0.03219320778926647
451.0, 0.0299290298405556
452.0, 0.026335121426801736
453.0, 0.026639122186430626
454.0, 0.02537288990362323
455.0, 0.023653575083869324
456.0, 0.02237490760027732
457.0, 0.02027135930706575
458.0, 0.01813104436625309
459.0, 0.016242516116171453
460.0, 0.018904393295509084
461.0, 0.0181412718603064
462.0, 0.01610738500603752
463.0, 0.019271300634325163
464.0, 0.016989115383790738
465.0, 0.015657028781571002
466.0, 0.013270163530904894
467.0, 0.011438690929999372
468.0, 0.009288802892764986
469.0, 0.0074999922959459245
470.0, 0.01127542847464099
471.0, 0.006152446642552833
472.0, 0.0038789634507955025
473.0, 0.008566051220206277
474.0, 0.00809331535140059
475.0, 0.002617260652141411
476.0, 0.006700066294135056
477.0, 0.001055665540196483
478.0, 0.006438666213661041
479.0, 0.007601791861636767
480.0, 0.005365098640033979
481.0, 0.005145524765899791
482.0, 0.008880938389650957
483.0, 0.004120308342971597
484.0, 0.0007732146773949333
485.0, 0.0011075701090446307
486.0, 0.0009731938023934297
487.0, 0.0015062553684380394
488.0, 0.003356136732396575
489.0, 0.00325752803682877
490.0, 0.000790216917017938
491.0, 0.005983485871659026
492.0, 0.003300891213498438
493.0, 0.00034051859519863874
494.0, 0.0014984110116499577
495.0, 0.004165397850927471
496.0, 0.00605506305550199
497.0, 0.004159322535493761
498.0, 0.0033330011497275567
499.0, 0.0039312036186520405
500.0, 0.003896747219566752
501.0, 0.0035181553865856457
502.0, 0.008108742628773386
503.0, 0.011324375468633904
504.0, 0.011839740105717606
505.0, 0.011718063706084273
506.0, 0.013037419606299042
507.0, 0.01606042778021151
508.0, 0.01948172970092002
509.0, 0.02287158022255694
510.0, 0.011608486525668552
511.0, 0.014352844594138518
512.0, 0.01819510067571434
513.0, 0.017950901473219497
514.0, 0.016787568156053884
515.0, 0.02125720038564962
516.0, 0.015019187267524155
517.0, 0.015370154929813726
518.0, 0.014445045520308284
519.0, 0.012415104967284306
520.0, 0.00956272610939852
521.0, 0.0062408337776603574
522.0, 0.008031831102148607
523.0, 0.007770206027143475
524.0, 0.011469244146495498
525.0, 0.0068158483628607755
526.0, 0.0012814904994125098
527.0, 0.0035683781762110823
528.0, 0.008687534343817381
529.0, 0.001527302515831764
530.0, 0.003879105016968858
531.0, 0.0023767141824931814
532.0, 0.0013183154833176036
533.0, 0.00308540287944002
534.0, 0.005615875064829107
535.0, 0.005177382491736262
536.0, 0.004156099656088955
537.0, 0.0037147111759220554
538.0, 0.0016154701348099917
539.0, 0.0009636596954430721
540.0, 0.0027217915563688697
541.0, 0.003530773854976756
542.0, 0.0020612404553643883
543.0, 0.0016699426430282118
544.0, 0.003791467635343032
545.0, 0.004296091410452325
546.0, 0.002434227603451018
547.0, 0.0005656165101162728
548.0, 0.0022513246141729285
549.0, 0.00875147505466628
550.0, 0.008953095385022244
551.0, 0.006950028003970825
552.0, 0.0037029745954397317
553.0, 0.0011287432670733322
554.0, 0.0008419574173551523
555.0, 0.0003204940494662113
556.0, 0.0008639315912991484
557.0, 0.0004962277328207655
558.0, 0.0033353472835128124
559.0, 0.005608860794041196
560.0, 0.005291267149247856
561.0, 0.005088535998373356
562.0, 0.005401063844082896
563.0, 0.002338016757941474
564.0, 0.0019393250455969882
565.0, 0.004561556799328337
566.0, 0.005709953670338589
567.0, 0.004711665628341966
568.0, 0.008024342689678506
569.0, 0.003403257506483447
570.0, 0.002522271441502743
571.0, 0.008376786545529095
572.0, 0.013042273171910307
573.0, 0.014251511466761966
574.0, 0.015341584227137103
575.0, 0.020022050789431423
576.0, 0.01890876546436607
577.0, 0.02084192564539233
578.0, 0.024115596234420125
579.0, 0.02785835154288708
580.0, 0.031696886791273776
581.0, 0.0368607835278803
582.0, 0.04781383132323139
583.0, 0.05824663967229821
584.0, 0.06558543518798235
585.0, 0.0731698311200043
586.0, 0.0842161565908378
587.0, 0.09580045439531197
588.0, 0.10124581893842806
589.0, 0.1021801027892669
590.0, 0.1028689088418077
591.0, 0.10045046579468984
592.0, 0.09055730300104439
593.0, 0.07913145423099764
594.0, 0.06839087454943456
595.0, 0.05408353418683027
596.0, 0.044689409462627276
597.0, 0.038795215011132214
598.0, 0.03350406940421353
599.0, 0.028027157010047876
600.0, 0.029061663328026743
601.0, 0.03599301034382684
602.0, 0.0373401777103937
603.0, 0.03996658447589739
604.0, 0.039407559853128236
605.0, 0.044474683229492266
606.0, 0.046566113328861035
607.0, 0.04439148863743079
608.0, 0.0400975165039574
609.0, 0.035038234264070066
610.0, 0.03607478088173434
611.0, 0.026716981870604735
612.0, 0.022642469500618184
613.0, 0.02377376830997042
614.0, 0.022356334937935193
615.0, 0.016654384749130734
616.0, 0.01717688119051302
617.0, 0.021404565329643414
618.0, 0.022479689352134694
619.0, 0.02154819650283568
620.0, 0.02162180504148678
621.0, 0.020926995224980233
622.0, 0.01926240048308995
623.0, 0.021739811572028565
624.0, 0.023734071898455698
625.0, 0.025294767158578126
626.0, 0.02925674330705642
627.0, 0.03408344624278821
628.0, 0.037138761656074416
629.0, 0.03734691290801593
630.0, 0.03712638622498566
631.0, 0.04327610630186687
632.0, 0.04103529515959312
633.0, 0.04278266719517078
634.0, 0.04318594230170109
635.0, 0.04229699034386527
636.0, 0.043674291035407
637.0, 0.047940303285822355
638.0, 0.04048055761814266
639.0, 0.03795593706828865
640.0, 0.04156500352629803
641.0, 0.03920304326124526
642.0, 0.03364579925758903
643.0, 0.030537779066424076
644.0, 0.029145982760946917
645.0, 0.02825444542566615
646.0, 0.026456310645471694
647.0, 0.030763633096798592
648.0, 0.02742627744829197
649.0, 0.02412543351775043
650.0, 0.022632265326279908
651.0, 0.014417508064531022
652.0, 0.016901616188473946
653.0, 0.019055749507561715
654.0, 0.017269031652952318
655.0, 0.014269914009363826
656.0, 0.010362518948794716
657.0, 0.008669996369956792
658.0, 0.012003626495033426
659.0, 0.012355000627250125
660.0, 0.012406381754373703
661.0, 0.013080988348030264
662.0, 0.012846228139969216
663.0, 0.01236397051026615
664.0, 0.011295777768513102
665.0, 0.009675219664934362
666.0, 0.010566360658763445
667.0, 0.008586172297220621
668.0, 0.008143200090019787
669.0, 0.008483668079567122
670.0, 0.009670435252136381
671.0, 0.010648375094310296
672.0, 0.009257830117845617
673.0, 0.004437509239575594
674.0, 0.006702178335913017
675.0, 0.0038643172281971677
676.0, 0.006050057836165418
677.0, 0.005871017048350618
678.0, 0.004687908639154923
679.0, 0.004763488673192672
680.0, 0.003947413364450454
681.0, 0.004718239225110045
682.0, 0.004896126258986914
683.0, 0.002735775075817791
684.0, 0.0018237437045586031
685.0, 0.0018305607530672142
686.0, 0.0016804974578547296
687.0, 0.0014784559080284019
688.0, 0.0025240547280136303
689.0, 0.0027720615080416605
690.0, 0.0037677853244890967
691.0, 0.004318357632437852
692.0, 0.004483296910783982
693.0, 0.004554534529274785
694.0, 0.005622264975414105
695.0, 0.00902016200854925
696.0, 0.007309198363300541
697.0, 0.005556428662177637
698.0, 0.00237687867478489
699.0, 0.004198973855839156
700.0, 0.0077917215079033
701.0, 0.007911362309309241
702.0, 0.004595073813406093
703.0, 0.00369794705328335
704.0, 0.006957705755060648
705.0, 0.007717915996421034
706.0, 0.007981442315783568
707.0, 0.009141781760616351
708.0, 0.010591203832321296
709.0, 0.010776291406343048
710.0, 0.009825910126873477
711.0, 0.013887214489346888
712.0, 0.00752214050334317
713.0, 0.007639872060630836
714.0, 0.009650743102785287
715.0, 0.008837669849491215
716.0, 0.006738863861880468
717.0, 0.008390716737834236
718.0, 0.00796826401495256
719.0, 0.0037344849961684964
720.0, 0.004214522851581086
721.0, 0.005138293256792825
722.0, 0.006839684412260074
723.0, 0.006210471828055452
724.0, 0.0014628263147915424
725.0, 0.0006203675014965007
726.0, 0.006355250545092492
727.0, 0.004842391552154069
728.0, 0.005917733751408526
729.0, 0.008141131869776493
730.0, 0.007288343056077593
731.0, 0.004368726806882615
732.0, 0.004206380571214803
733.0, 0.001349865670626082
734.0, 0.00532591111209197
735.0, 0.005775150418140684
736.0, 0.0035552600534600257
737.0, 0.003660738321019716
738.0, 0.005363044547967355
739.0, 0.00632828570145378
740.0, 0.008491509871217238
741.0, 0.008984252833829883
742.0, 0.0015935775836879561
743.0, 0.007252791563475091
744.0, 0.00731990931991989
745.0, 0.005331787079415486
746.0, 0.006903772121433697
747.0, 0.009466721265091464
748.0, 0.00718184273136472
749.0, 0.0024847955413426727
750.0, 0.0036734049618407
751.0, 0.0044470017529032275
752.0, 0.0037668803879116284
753.0, 0.006307887463906182
754.0, 0.008589097747804746
755.0, 0.0023970021820766364
756.0, 0.003636526696164563
757.0, 0.0015379446206037028
758.0, 0.000628056813500702
759.0, 0.002113664428871375
760.0, 0.004975448083983625
761.0, 0.005668668143666197
762.0, 0.003980366983142741
763.0, 0.005131937695194778
764.0, 0.00884505326866964
765.0, 0.005266735107724805
766.0, 0.003945067313154814
767.0, 0.006658383790758175
768.0, 0.009124369848448588
769.0, 0.010936817605467919
770.0, 0.011873555092146116
771.0, 0.007423266029452895
772.0, 0.007240740226327082
773.0, 0.0037029152069960854
774.0, 0.0009188420467176709
775.0, 0.009965711171887544
776.0, 0.010076723120977519
777.0, 0.0047877208250070745
778.0, 0.009474504061926814
779.0, 0.008317444691077447
780.0, 0.0063732270369195945
781.0, 0.0040209833553470535
782.0, 0.00921737650355586
783.0, 0.006537462938507398
784.0, 0.004724122763094828
785.0, 0.007068258666396994
786.0, 0.0067160595531803695
787.0, 0.0050230245592514985
788.0, 0.010190425943668542
789.0, 0.012266903710352916
790.0, 0.006901343855869641
791.0, 0.003797482709839263
792.0, 0.0044804559544855994
793.0, 0.006507157751753593
794.0, 0.008284789978184767
795.0, 0.009951632033764769
796.0, 0.006049610748017836
797.0, 0.01027486917364278
798.0, 0.00725085972076004
799.0, 0.0069218963975305825
800.0, 0.007995121126622977
801.0, 0.008019014529701857
802.0, 0.00827181310264451
803.0, 0.009755098165816156
804.0, 0.011156889015009892
805.0, 0.01153497073661688
806.0, 0.012762644470285215
807.0, 0.013649331488911292
808.0, 0.013754362891299452
809.0, 0.013620511636872258
810.0, 0.013448089281691803
811.0, 0.012154277668770513
812.0, 0.011455595805882464
813.0, 0.010707446585051244
814.0, 0.010438474269884498
815.0, 0.009081319566288243
816.0, 0.00878134202216451
817.0, 0.00795268032745023
818.0, 0.006912679509821419
819.0, 0.011835843926698945
820.0, 0.008388385555334178
821.0, 0.010494622506773072
822.0, 0.006391814995221185
823.0, 0.006697299828488338
824.0, 0.011470802422762702
825.0, 0.01245577990193869
826.0, 0.0071482690852686
827.0, 0.0049461988196289036
828.0, 0.007840753288385453
829.0, 0.0009805537861668039
830.0, 0.0007383846112042586
831.0, 0.0012387335547732318
832.0, 0.001269765964621653
833.0, 0.002601140365808659
834.0, 0.0058445398021937075
835.0, 0.007335773430978585
836.0, 0.0008594930389737585
837.0, 0.0010735914554391005
838.0, 0.0013274500659196903
839.0, 0.0008947679066109672
840.0, 0.004047322376778751
841.0, 0.007581135395573798
842.0, 0.008781948897701166
843.0, 0.00966692169402923
844.0, 0.01195844112767976
845.0, 0.0023641684061781595
846.0, 0.0033397703451297695
847.0, 0.004899620347212365
848.0, 0.003866831896275418
849.0, 0.010567603270228728
850.0, 0.01684053539070922
851.0, 0.014237185245827703
852.0, 0.013455693591630272
853.0, 0.006382924811149546
854.0, 0.013875488967093579
855.0, 0.005904670514972078
856.0, 0.01008905411459439
857.0, 0.012037983470639016
858.0, 0.01140037958868056
859.0, 0.010956225547161299
860.0, 0.008502577735810101
861.0, 0.009325771556603137
862.0, 0.008285616540369346
863.0, 0.007920809921529616
864.0, 0.012094443817762826
865.0, 0.0078038750996709295
866.0, 0.006683142354237367
867.0, 0.007191520354604528
868.0, 0.003929758597308372
869.0, 0.0065098423697774205
870.0, 0.007469690195532398
871.0, 0.004188250590559633
872.0, 0.0013281922118355768
873.0, 0.0002744285218804998
874.0, 0.0015705436723764995
875.0, 0.0036288323432568776
876.0, 0.0050013282235771995
877.0, 0.00674873716572492
878.0, 0.011161155877452578
879.0, 0.00916943700022392
880.0, 0.0064390642812445515
881.0, 0.002331134306579761
882.0, 0.003255180610253109
883.0, 0.007804775677969091
884.0, 0.010871431527493959
885.0, 0.008051794867106606
886.0, 0.0014913709418060905
887.0, 0.003834792795657608
888.0, 0.001425698797718005
889.0, 0.003946051372973782
890.0, 0.003540790369334824
891.0, 0.003455132868008837
892.0, 0.003575971002321355
893.0, 0.0029255129789432207
894.0, 0.001950308014716472
895.0, 0.0020647257966819126
896.0, 0.0035289287840913532
897.0, 0.012166465162087504
898.0, 0.003642030567248994
899.0, 0.0026721402202717743
900.0, 0.006588570489516283
901.0, 0.008970936042507899
902.0, 0.007555506801151874
903.0, 0.004770930195889639
904.0, 0.0037221905702348687
905.0, 0.0021264725816262224
906.0, 0.004841972651909668
907.0, 0.0016190349597114684
908.0, 0.004137320606064679
909.0, 0.008313202476072963
910.0, 0.006553001474300079
911.0, 0.0015556702244575405
912.0, 0.000966413741097962
913.0, 0.001420429847147485
914.0, 0.0013461539913937179
915.0, 0.002863850635114379
916.0, 0.006337522598624573
917.0, 0.007558861280662766
918.0, 0.0068398596007971475
919.0, 0.007326852286599692
920.0, 0.007973017664673772
921.0, 0.005654779109149519
922.0, 0.0036461063742472943
923.0, 0.003922933446710611
924.0, 0.002687367514946654
925.0, 0.0029039003248763607
926.0, 0.002258810141730498
927.0, 0.0030395162653737524
928.0, 0.0036112218972660028
929.0, 0.002421803380883457
930.0, 0.0017667806142891264
931.0, 0.0043160938459933474
932.0, 0.0022905611620604545
933.0, 0.0033469197831860436
934.0, 0.0031213150085706563
935.0, 0.004511773115373237
936.0, 0.007986999331613535
937.0, 0.011159386100325701
938.0, 0.011685573478232455
939.0, 0.012100768016680136
940.0, 0.017183255589262078
941.0, 0.013485340727263949
942.0, 0.01684882426425189
943.0, 0.01507042593990758
944.0, 0.019871517456469024
945.0, 0.02094101663334183
946.0, 0.02100069368208445
947.0, 0.02836931238868634
948.0, 0.04169053348477757
949.0, 0.049720116156367164
950.0, 0.05425097007767304
951.0, 0.05921102668929316
952.0, 0.06808434195217417
953.0, 0.08111167463745703
954.0, 0.11246899801121334
955.0, 0.1636590912292206
956.0, 0.23013586267335598
957.0, 0.3248860712105812
958.0, 0.458748525687362
959.0, 0.5860387160168345
960.0, 0.7212639394956308
961.0, 0.8646745359333765
962.0, 0.9585736907919972
963.0, 0.9935255199399879
964.0, 0.9703117537751665
965.0, 0.8911359822644532
966.0, 0.7749543252064426
967.0, 0.6395348597825792
968.0, 0.48091216195898134
969.0, 0.3469718121718036
970.0, 0.24994417421173187
971.0, 0.18647615857838815
972.0, 0.1391351868060108
973.0, 0.10579511317970436
974.0, 0.0830587422392377
975.0, 0.06479316176055763
976.0, 0.04571776995297023
977.0, 0.02717882137713616
978.0, 0.019462963831056238
979.0, 0.022394882152765853
980.0, 0.026332128288082117
981.0, 0.019884024088240096
982.0, 0.014787427606072134
983.0, 0.009806804045265152
984.0, 0.01462823504133656
985.0, 0.023520024701786775
986.0, 0.023099577929978816
987.0, 0.022699493364921462
988.0, 0.026131920852376162
989.0, 0.01304719153401673
990.0, 0.004484973151019362
991.0, 0.008957381946248752
992.0, 0.005584734613704795
993.0, 0.0038348608942133473
994.0, 0.005704897590333535
995.0, 0.005495425065830867
996.0, 0.004662243996268268
997.0, 0.008489374639740756
998.0, 0.005555503353034363
999.0, 0.006845789795250476
1000.0, 0.001957527249689262
1001.0, 0.0028008855991859664
1002.0, 0.001864414336176946
1003.0, 0.0037458595279562723
1004.0, 0.005234104344991282
1005.0, 0.003826858654120264
1006.0, 0.005693065177869824
1007.0, 0.008027172224095033
1008.0, 0.011889689763824136
1009.0, 0.008062013337963114
1010.0, 0.007500693161312814
1011.0, 0.00289518878558532
1012.0, 0.005486267716224421
1013.0, 0.004661881527057456
1014.0, 0.0024160249585856624
1015.0, 0.003411750850791927
1016.0, 0.0005991829464850151
1017.0, 0.002304809577586511
1018.0, 0.0035050837082017438
1019.0, 0.005472067334914512
1020.0, 0.001921844135430492
1021.0, 0.004324338984936063
1022.0, 0.009304751454901098
1023.0, 0.008734092741441046
1024.0, 0.007777328988298818
1025.0, 0.01226216089751655
1026.0, 0.014946235065002124
1027.0, 0.010957172341882758
1028.0, 0.011983151290108605
1029.0, 0.015978217735681224
1030.0, 0.016734838401621138
1031.0, 0.014950156993282194
1032.0, 0.016610054293316058
1033.0, 0.02286066454520459
1034.0, 0.023753968139521173
1035.0, 0.02380056345861141
1036.0, 0.03614820215826787
1037.0, 0.04355524618335043
1038.0, 0.0447588433731252
1039.0, 0.0568104391606244
1040.0, 0.05918286907162001
1041.0, 0.06285624704636558
1042.0, 0.06511623453736952
1043.0, 0.077695285586062
1044.0, 0.08785707692695297
1045.0, 0.09276283555307678
1046.0, 0.1108406162713788
1047.0, 0.14164881555917683
1048.0, 0.16065543218896494
1049.0, 0.18209392919828216
1050.0, 0.17697042213507927
1051.0, 0.17862464201700234
1052.0, 0.17092790770403593
1053.0, 0.14761726788565174
1054.0, 0.12211002617882397
1055.0, 0.09942788488234905
1056.0, 0.07466833777437301
1057.0, 0.052839590231955676
1058.0, 0.04594831031656511
1059.0, 0.02896271204021992
1060.0, 0.02671943734340558
1061.0, 0.03021676523064873
1062.0, 0.022529255927956664
1063.0, 0.018769389552805552
1064.0, 0.0177770858766082
1065.0, 0.0193095262482971
1066.0, 0.022560960137655597
1067.0, 0.021723734282731687
1068.0, 0.015639041365003315
1069.0, 0.01552321319186243
1070.0, 0.01865613327842625
1071.0, 0.022788008536123578
1072.0, 0.03618352252502482
1073.0, 0.04148266036497814
1074.0, 0.0534014590007854
1075.0, 0.0665415091845916
1076.0, 0.07389133868895957
1077.0, 0.0826516088607977
1078.0, 0.09302311307401893
1079.0, 0.0855457676129533
1080.0, 0.09381357871420032
1081.0, 0.09174816877817654
1082.0, 0.08455177202804705
1083.0, 0.0836642055911916
1084.0, 0.07883513374373682
1085.0, 0.0716969316687574
1086.0, 0.06457242993366838
1087.0, 0.05634054252321324
1088.0, 0.04456856522592839
1089.0, 0.030963666402008105
1090.0, 0.021925225770239337
1091.0, 0.012048475738225605
1092.0, 0.0160045322181336
1093.0, 0.012578280235979077
1094.0, 0.008740485389152956
1095.0, 0.0045540227787990795
1096.0, 0.0033758976147994814
1097.0, 0.006859019891139719
1098.0, 0.009208582269148826
1099.0, 0.00652130531550568
1100.0, 0.00586330731431687
1101.0, 0.012077176416194045
1102.0, 0.003318706630910745
1103.0, 0.0036289823077874693
1104.0, 0.005913886362504986
1105.0, 0.007022465641095074
1106.0, 0.006441717262761533
1107.0, 0.0027452886700535984
1108.0, 0.003229611053211505
1109.0, 0.005005584162168643
1110.0, 0.0029632253502474446
1111.0, 0.002054555080815229
1112.0, 0.006075932735733198
1113.0, 0.008917714071440026
1114.0, 0.007674976662720759
1115.0, 0.010182122430364106
1116.0, 0.005616560389774088
1117.0, 0.009897762264610439
1118.0, 0.009357701076075293
1119.0, 0.008527548669797253
1120.0, 0.009766336916751167
1121.0, 0.010241807003741882
1122.0, 0.010663383836499495
1123.0, 0.013961197449885667
1124.0, 0.018515563795516256
1125.0, 0.02324905226593091
1126.0, 0.008541306431756435
1127.0, 0.006214865657203624
1128.0, 0.003936196479528828
1129.0, 0.012477296715983913
1130.0, 0.014035938616683804
1131.0, 0.015079111019342426
1132.0, 0.011118405617987943
1133.0, 0.005407601460462684
1134.0, 0.010563902429060336
1135.0, 0.004577016918275388
1136.0, 0.011747240268512905
1137.0, 0.007934576905751806
1138.0, 0.0033779158032530804
1139.0, 0.00198963639744013
1140.0, 0.003989664912761098
1141.0, 0.007543744343739357
1142.0, 0.004772814898623849
1143.0, 0.00611441263509236
1144.0, 0.01287516554719577
1145.0, 0.011764698548195913
1146.0, 0.007142550150455328
1147.0, 0.018804444778597783
1148.0, 0.010141992135325836
1149.0, 0.0034423493203192858
1150.0, 0.015994283128532964
1151.0, 0.00954252512403251
1152.0, 0.00466936560831716
1153.0, 0.00940141805184533
1154.0, 0.00783922775482539
1155.0, 0.004189918207420948
1156.0, 0.003998128686761314
1157.0, 0.008940105580457686
1158.0, 0.0182246411433329
1159.0, 0.008112057583905152
1160.0, 0.0017086684738441636
1161.0, 0.019060612619869428
1162.0, 0.009334355920588035
1163.0, 0.009612708657659098
1164.0, 0.009883770028545041
1165.0, 0.013163825071500584
1166.0, 0.011199031350218916
1167.0, 0.01254853750766425
1168.0, 0.01192843608228289
1169.0, 0.005001013092226272
1170.0, 0.006045398559931029
1171.0, 0.00894610264426929
1172.0, 0.009878918027031187
1173.0, 0.013571739049302357
1174.0, 0.0039894486312587255
1175.0, 0.015689365785518702
1176.0, 0.0065157476940672105
1177.0, 0.015548018561330057
1178.0, 0.012747411719082575
1179.0, 0.006834994963052464
1180.0, 0.004955912495249733
1181.0, 0.00251056338303411
1182.0, 0.0038535734233695823
1183.0, 0.007288377849397476
1184.0, 0.0028064232550558486
1185.0, 0.013481334866259173
1186.0, 0.00931105594953821
1187.0, 0.010889101874011856
1188.0, 0.004972073478265898
1189.0, 0.004082869408563948
1190.0, 0.008249842607066994
1191.0, 0.009482800474980162
1192.0, 0.012076396645711841
1193.0, 0.012951850909203198
1194.0, 0.010199269618358268
1195.0, 0.00958399754286339
1196.0, 0.005204966971650799
1197.0, 0.01075048000106751
1198.0, 0.019578633615616067
1199.0, 0.013895061989778983
1200.0, 0.017485126759894293
1201.0, 0.01678972751456314
1202.0, 0.015471275775075868
1203.0, 0.019464474154605445
1204.0, 0.017207611225378484
1205.0, 0.015589165326366639
1206.0, 0.0137248177621404
1207.0, 0.007802509282500976
1208.0, 0.006382780137410802
1209.0, 0.005492701236863169
1210.0, 0.012326616056040608
1211.0, 0.007916669741886033
1212.0, 0.020334339673142826
1213.0, 0.005073714137331759
1214.0, 0.008055005742817844
1215.0, 0.0069154751884818785
1216.0, 0.013769146386561444
1217.0, 0.013613477465883426
1218.0, 0.00937020582701206
1219.0, 0.011514637088132697
1220.0, 0.013868188550144683
1221.0, 0.009791000215635027
1222.0, 0.009736571131181159
1223.0, 0.013773069680512486
1224.0, 0.013147392269488174
1225.0, 0.010894937683246224
1226.0, 0.022794711357874715
1227.0, 0.007652945180319682
1228.0, 0.011508039205558727
1229.0, 0.009998091663808472
1230.0, 0.013662934000063052
1231.0, 0.014465363192913434
1232.0, 0.01380261691543477
1233.0, 0.018453244897356735
1234.0, 0.020577632150712573
1235.0, 0.016893946917416088
1236.0, 0.02194280140060399
1237.0, 0.025681677262542533
1238.0, 0.008887226809385765
1239.0, 0.021751396030286273
1240.0, 0.014327124063841743
1241.0, 0.010035489110489924
1242.0, 0.01189999498241302
1243.0, 0.00926103710419428
1244.0, 0.007997194291066835
1245.0, 0.008798245169815956
1246.0, 0.010258272933417762
1247.0, 0.01278994243835297
1248.0, 0.013510216097814744
1249.0, 0.013140907937320758
1250.0, 0.018603199141516112
1251.0, 0.006563758425751793
1252.0, 0.013012501688728771
1253.0, 0.014209605209278525
1254.0, 0.010388957425852673
1255.0, 0.006798811423031778
1256.0, 0.013485500571076496
1257.0, 0.009001934170039463
1258.0, 0.0023644393588652573
1259.0, 0.0027965867905495405
1260.0, 0.009923405769996785
1261.0, 0.010021162369215028
1262.0, 0.006533832597740005
1263.0, 0.015383853197500741
1264.0, 0.014589059297408249
1265.0, 0.01575289657468597
1266.0, 0.025353771992646962
1267.0, 0.0016941491743175923
1268.0, 0.006371667595229584
1269.0, 0.004766885212171629
1270.0, 0.0034280238373020303
1271.0, 0.007899023694036675
1272.0, 0.0070417100451000345
1273.0, 0.005384896734984328
1274.0, 0.004087114181417052
1275.0, 0.0021667695078228686
1276.0, 0.0014351113595208235
1277.0, 0.0031826016290858582
1278.0, 0.004972048889041625
1279.0, 0.0020529651740126276
1280.0, 0.003760068084578888
1281.0, 0.0024512249240697228
1282.0, 0.0050805482576316945
1283.0, 0.00951335773298891
1284.0, 0.014683024405179849
1285.0, 0.012094738160077733
1286.0, 0.011344349502344562
1287.0, 0.012990171085180701
1288.0, 0.0194199803895412
1289.0, 0.021511183968834023
1290.0, 0.017302080301515626
1291.0, 0.013764950129142051
1292.0, 0.010537571019349483
1293.0, 0.008356764610984398
1294.0, 0.013408832225920785
1295.0, 0.004211461440624132
1296.0, 0.016287531620645508
1297.0, 0.019706250761499778
1298.0, 0.02520182721364694
1299.0, 0.024676441225688784
1300.0, 0.015502742076643922
1301.0, 0.015457486609669236
1302.0, 0.019051195712843364
1303.0, 0.01827642985239229
1304.0, 0.019647270743011133
1305.0, 0.018000888884433304
1306.0, 0.017022791628551227
1307.0, 0.023925400816882
1308.0, 0.024258367832100173
1309.0, 0.013331356720181294
1310.0, 0.01118316639065655
1311.0, 0.016979935846768688
1312.0, 0.016895027376193292
1313.0, 0.01912673724791968
1314.0, 0.022613467505298038
1315.0, 0.022973824934367434
1316.0, 0.014290207705644958
1317.0, 0.0181769282126567
1318.0, 0.019564558273139045
1319.0, 0.01296691025673228
1320.0, 0.016679079424523825
1321.0, 0.01967695675980932
1322.0, 0.014171119477373944
1323.0, 0.013892213194652477
1324.0, 0.017516986884527585
1325.0, 0.015761098910060282
1326.0, 0.015596744546535235
1327.0, 0.023260399825745445
1328.0, 0.019317431267152702
1329.0, 0.018472612451873417
1330.0, 0.01709876747225384
1331.0, 0.016246872698696645
1332.0, 0.012892887181647708
1333.0, 0.015080631609130965
1334.0, 0.016026447565245128
1335.0, 0.015480644139822282
1336.0, 0.011160282183028938
1337.0, 0.01563369839292548
1338.0, 0.016901471474028738
1339.0, 0.012553678186010154
1340.0, 0.01306121839508567
1341.0, 0.011078420668129925
1342.0, 0.017335986244165956
1343.0, 0.01827256388096175
1344.0, 0.01603075126460524
1345.0, 0.011895222295259906
1346.0, 0.009952845629387093
1347.0, 0.01000268540169042
1348.0, 0.014993131589262998
1349.0, 0.014899805223466341
1350.0, 0.015665548087464686
1351.0, 0.022341856992054366
1352.0, 0.011857620345252617
1353.0, 0.016091573502338936
1354.0, 0.0166431398646335
1355.0, 0.005884162298878332
1356.0, 0.004265560744154162
1357.0, 0.012611487924280929
1358.0, 0.015409800758000719
1359.0, 0.008840294141357688
1360.0, 0.014006018546475062
1361.0, 0.0216241214844948
1362.0, 0.009240105278829921
1363.0, 0.012429602023388909
1364.0, 0.010105262615071844
1365.0, 0.012315358821546989
1366.0, 0.007636425209924472
1367.0, 0.006777714846180416
1368.0, 0.008119547528003368
1369.0, 0.009738484386030739
1370.0, 0.011799240239460657
1371.0, 0.011178031187475217
1372.0, 0.011025993903063417
1373.0, 0.01313656250496957
1374.0, 0.009576644997912451
1375.0, 0.011004633270473706
1376.0, 0.020795836823666144
1377.0, 0.017163727620477735
1378.0, 0.028529361049337485
1379.0, 0.0315263637910951
1380.0, 0.008295410633947509
1381.0, 0.010776763138593567
1382.0, 0.00659029601050952
1383.0, 0.014055194372
1384.0, 0.011199082989368721
1385.0, 0.00376886260641738
1386.0, 0.008850250297850196
1387.0, 0.006838400299251288
1388.0, 0.010174022783885087
1389.0, 0.016522421311837617
1390.0, 0.012766231000835203
1391.0, 0.005657509845616537
1392.0, 0.010620742762457646
1393.0, 0.012143369198594302
1394.0, 0.002840098581206787
1395.0, 0.0013851326114646587
1396.0, 0.0052391283085445675
1397.0, 0.012947370417724376
1398.0, 0.00814883994595156
1399.0, 0.007042923629654781
1400.0, 0.012206843546162381
1401.0, 0.0059444217079597265
1402.0, 0.015564864834950488
1403.0, 0.018240147227463744
1404.0, 0.012989589371285911
1405.0, 0.012214994258551562
1406.0, 0.007695905165411023
1407.0, 0.00875761159672595
1408.0, 0.0038065014695503026
1409.0, 0.004910613360668696
1410.0, 0.0038613279296403017
1411.0, 0.008790579431078782
1412.0, 0.009000685647079556
1413.0, 0.004709745250645194
1414.0, 0.005575165922853505
1415.0, 0.004984292021541407
1416.0, 0.007696343215771869
1417.0, 0.003196982895778813
1418.0, 0.009771609853820388
1419.0, 0.008465259608548263
1420.0, 0.001563949103202347
1421.0, 0.0084424883177046
1422.0, 0.005880529657183435
1423.0, 0.0012342777903755118
1424.0, 0.008034886552449886
1425.0, 0.004787796498657767
1426.0, 0.009696723197825965
1427.0, 0.012004109208462291
1428.0, 0.01932951317904604
1429.0, 0.007858127410361206
1430.0, 0.0019561735001458877
1431.0, 0.005373667076846304
1432.0, 0.009115572144537117
1433.0, 0.010711781680930512
1434.0, 0.008837965329683669
1435.0, 0.0075506970669454694
1436.0, 0.008232997328351874
1437.0, 0.009863929585022383
1438.0, 0.017487708061964827
1439.0, 0.016245796730974302
1440.0, 0.013725027966716163
1441.0, 0.003301902673291582
1442.0, 0.008198249652921617
1443.0, 0.003328996548477966
1444.0, 0.0065099980662276765
1445.0, 0.02085028388018955
1446.0, 0.012269746582547258
1447.0, 0.017761454610155138
1448.0, 0.014841416810023864
1449.0, 0.007925770768961216
1450.0, 0.0080831098636303
1451.0, 0.01324980531451383
1452.0, 0.01583257847514484
1453.0, 0.013962468914031185
1454.0, 0.015047372801812993
1455.0, 0.014937912217397336
1456.0, 0.008959448270824668
1457.0, 0.005635884061209004
1458.0, 0.00551828910418821
1459.0, 0.0052763246436536345
1460.0, 0.007532027854379435
1461.0, 0.006977919574230238
1462.0, 0.013383296911552505
1463.0, 0.012025612004314115
1464.0, 0.012264043859375594
1465.0, 0.004542607585367997
1466.0, 0.005796736952961376
1467.0, 0.0013603205341836812
1468.0, 0.005021287141124801
1469.0, 0.003107662198373653
1470.0, 0.003984079151277858
1471.0, 0.010107604400961734
1472.0, 0.011883162427369644
1473.0, 0.018956296230545445
1474.0, 0.017521208884419152
1475.0, 0.010792436107740269
1476.0, 0.009970388997122253
1477.0, 0.011719721281160412
1478.0, 0.015110559185336903
1479.0, 0.016380141781114594
1480.0, 0.015334368557538858
1481.0, 0.015934900062844422
1482.0, 0.01649119185983514
1483.0, 0.016326479499700303
1484.0, 0.017847471304636882
1485.0, 0.019336161433820935
1486.0, 0.019473527565788403
1487.0, 0.01750205314637284
1488.0, 0.01697041076032738
1489.0, 0.00705272474264286
1490.0, 0.015089678036111463
1491.0, 0.013880402221250535
1492.0, 0.001134907395440152
1493.0, 0.01299468004811437
1494.0, 0.01300987410778437
1495.0, 0.004628500116975346
1496.0, 0.0012103972339666746
1497.0, 0.007441715078676489
1498.0, 0.015117973767667076
1499.0, 0.011622221730680178
1500.0, 0.004142886553696341
1501.0, 0.018840692331885227
1502.0, 0.012821961356923097
1503.0, 0.010418715521751044
1504.0, 0.01120354250458025
1505.0, 0.011987014297207742
1506.0, 0.006122280416584997
1507.0, 0.0057611622160037915
1508.0, 0.006472082164802081
1509.0, 0.006320551484047482
1510.0, 0.012465208861854187
1511.0, 0.015099636767054784
1512.0, 0.013073683936665303
1513.0, 0.006142117896352818
1514.0, 0.005661612423293585
1515.0, 0.004347006244490741
1516.0, 0.008007711222799776
1517.0, 0.007838203429168517
1518.0, 0.0021478237692888324
1519.0, 0.011798600344417143
1520.0, 0.019350917912942408
1521.0, 0.011600402458762846
1522.0, 0.011685000500435389
1523.0, 0.013492818331341427
1524.0, 0.013163314360299033
1525.0, 0.007957715389334902
1526.0, 0.0010945251544549894
1527.0, 0.006618467780630319
1528.0, 0.0035168255639761647
1529.0, 0.014066596947723536
1530.0, 0.008333108258532647
1531.0, 0.00893817098777724
1532.0, 0.016422312218055648
1533.0, 0.011588215283525863
1534.0, 0.005194585816038495
1535.0, 0.01586882166256743
1536.0, 0.01091252702926513
1537.0, 0.0033102248600697885
1538.0, 0.006102228288991224
1539.0, 0.013496567698191268
1540.0, 0.011924977844678287
1541.0, 0.003461781983599736
1542.0, 0.005456054581906151
1543.0, 0.007890303898700945
1544.0, 0.014120456517636638
1545.0, 0.01370923574573232
1546.0, 0.009297949884379823
1547.0, 0.013560127301255604
1548.0, 0.01437381744053059
1549.0, 0.008038319142048337
1550.0, 0.024992586322590545
1551.0, 0.028880862125782985
1552.0, 0.014591348779392804
1553.0, 0.010381761611181149
1554.0, 0.016856395601530596
1555.0, 0.018091489854598544
1556.0, 0.01100233864470013
1557.0, 0.011435258238383341
1558.0, 0.010815217263417378
1559.0, 0.00680762354269242
1560.0, 0.010816273796556967
1561.0, 0.014538500833400159
1562.0, 0.015751008698867596
1563.0, 0.018129143933588235
1564.0, 0.01695301758154785
1565.0, 0.01274002517327214
1566.0, 0.005066380408105807
1567.0, 0.0022373934153917825
1568.0, 0.007380568800522085
1569.0, 0.01103016650201164
1570.0, 0.004403267480020242
1571.0, 3.366498972765675e-05
1572, 0.0
1573, 0.0
1574, 0.0
1575, 0.0
1576, 0.0
1577, 0.0
1578, 0.0
1579, 0.0
1580, 0.0
1581, 0.0
1582, 0.0
1583, 0.0
1584, 0.0
1585, 0.0
1586, 0.0
1587, 0.0
1588, 0.0
1589, 0.0
1590, 0.0
1591, 0.0
1592, 0.0
1593, 0.0
1594, 0.0
1595, 0.0
1596, 0.0
1597, 0.0
1598, 0.0
1599, 0.0
