30, 0.0
31, 0.0
32, 0.0
33, 0.0
34, 0.0
35, 0.0
36, 0.0
37, 0.0
38, 0.0
39, 0.0
40, 0.0
41, 0.0
42, 0.0
43, 0.0
44, 0.0
45, 0.0
46, 0.0
47, 0.0
48, 0.0
49, 0.0
50, 0.0
51, 0.0
52, 0.0
53, 0.0
54, 0.0
55, 0.0
56, 0.0
57, 0.0
58, 0.0
59, 0.0
60, 0.0
61, 0.0
62, 0.0
63, 0.0
64, 0.0
65, 0.0
66, 0.0
67, 0.0
68, 0.0
69, 0.0
70, 0.0
71, 0.0
72, 0.0
73, 0.0
74, 0.0
75, 0.0
76, 0.0
77, 0.0
78, 0.0
79, 0.0
80, 0.0
81, 0.0
82, 0.0
83, 0.0
84, 0.0
85, 0.0
86, 0.0
87, 0.0
88, 0.0
89, 0.0
90, 0.0
91, 0.0
92, 0.0
93, 0.0
94, 0.0
95, 0.0
96, 0.0
97, 0.0
98, 0.0
99, 0.0
100, 0.0
101, 0.0
102, 0.0
103, 0.0
104, 0.0
105, 0.0
106, 0.0
107, 0.0
108, 0.0
109, 0.0
110, 0.0
111.0, 0.00028447446997048923
112.0, 0.001343908087699108
113.0, 0.0002970206279545623
114.0, 0.0017727226908923477
115.0, 0.0022004449476158484
116.0, 0.0019058014075506817
117.0, 0.0027388846689786962
118.0, 0.0022686999798364987
119.0, 0.0031316529002192745
120.0, 0.0028610486096296663
121.0, 0.00271466160671092
122.0, 0.003961808378635173
123.0, 0.005563320221068315
124.0, 0.006269637345071535
125.0, 0.0056078836964068264
126.0, 0.00566875268950248
127.0, 0.006790988605062749
128.0, 0.007163935110587032
129.0, 0.013141231870380042
130.0, 0.015026216768829693
131.0, 0.015380780023684738
132.0, 0.016072221553187716
133.0, 0.01788496667906409
134.0, 0.017376297500370962
135.0, 0.023844459777314222
136.0, 0.025484924541963144
137.0, 0.024705832216303923
138.0, 0.02498736915253448
139.0, 0.024912203655173017
140.0, 0.021424890711516157
141.0, 0.02101016452908233
142.0, 0.020823453659199676
143.0, 0.018960506012061652
144.0, 0.015471290447881267
145.0, 0.01764798099679839
146.0, 0.01693989133228154
147.0, 0.016375155611743755
148.0, 0.016601850662503206
149.0, 0.01712643461244413
150.0, 0.016878964586972366
151.0, 0.017299737436483057
152.0, 0.018668451255904127
153.0, 0.01979489101263998
154.0, 0.019372370781697505
155.0, 0.01637196570984008
156.0, 0.014832091484193868
157.0, 0.016616109509648314
158.0, 0.016065730242284332
159.0, 0.013632016329986616
160.0, 0.013150141297908972
161.0, 0.01320001534503554
162.0, 0.009320120572916549
163.0, 0.009866401498120621
164.0, 0.011073218280931654
165.0, 0.0092748972426883
166.0, 0.007640535490431739
167.0, 0.00418995284712167
168.0, 0.0045195208849864825
169.0, 0.005811389271534835
170.0, 0.006259535061185135
171.0, 0.0054534209173711
172.0, 0.0031644645917090555
173.0, 0.0032659582838327882
174.0, 0.003976131229097811
175.0, 0.003875897121744329
176.0, 0.0029988203256479684
177.0, 0.005324878494613716
178.0, 0.003971121311173819
179.0, 0.002645176223991559
180.0, 0.00151700850028341
181.0, 0.001211091408176326
182.0, 0.002679686227079913
183.0, 0.0008006303987959845
184.0, 0.001436405986830629
185.0, 0.002119280029196356
186.0, 0.0018608890835697422
187.0, 0.0007529213109271623
188.0, 0.0005386238818858368
189.0, 0.001539465336523436
190.0, 0.0008373269499384908
191.0, 0.00043167326371486655
192.0, 0.001148910267400115
193.0, 0.0019605366100107634
194.0, 0.002146759342580028
195.0, 0.0028712234388880587
196.0, 0.003225162073243253
197.0, 0.0030871548120983265
198.0, 0.0027538506514548414
199.0, 0.0028494289785086723
200.0, 0.002932712378051169
201.0, 0.002190821555949599
202.0, 0.0020085759925480874
203.0, 0.0029564277643549146
204.0, 0.004320889445813244
205.0, 0.0028431248457833867
206.0, 0.002013390470022058
207.0, 0.0010003630310632
208.0, 0.0016456001425683318
209.0, 0.004275158512637646
210.0, 0.002488498944582887
211.0, 0.0026497528963950194
212.0, 0.0015320914126917195
213.0, 0.0011200912147270676
214.0, 0.0026782260009624278
215.0, 0.0055957303875923
216.0, 0.0007472630593213219
217.0, 0.002190586527388596
218.0, 0.0017952508157400222
219.0, 0.0006605453841292552
220.0, 0.001156459939337963
221.0, 0.0028518727455669325
222.0, 0.0040720925555296755
223.0, 0.003756101906712467
224.0, 0.0035238889728431864
225.0, 0.004432141684040239
226.0, 0.006341851595083132
227.0, 0.004984622226985282
228.0, 0.005277328367904505
229.0, 0.0050712240808774515
230.0, 0.0048620771414543355
231.0, 0.005144875502709566
232.0, 0.005652064714489509
233.0, 0.005346890909842019
234.0, 0.006410625050504833
235.0, 0.006376993765898159
236.0, 0.0055568353958644545
237.0, 0.00533071344008325
238.0, 0.006142200376267126
239.0, 0.006536102030379381
240.0, 0.006534854851242872
241.0, 0.005072959537066907
242.0, 0.0037493809001652102
243.0, 0.005952577909591103
244.0, 0.007088558309813696
245.0, 0.00456195673585789
246.0, 0.004221535221723102
247.0, 0.00595461985150235
248.0, 0.007363639386339331
249.0, 0.0050212633720912985
250.0, 0.006740074155349361
251.0, 0.006416758470367339
252.0, 0.005693675689603388
253.0, 0.006119731495822708
254.0, 0.008200201312550096
255.0, 0.008908019220615706
256.0, 0.009290223903636787
257.0, 0.012414400723674307
258.0, 0.015162610708345537
259.0, 0.015286510580670298
260.0, 0.012942198562666436
261.0, 0.01419122614358183
262.0, 0.018146508181041143
263.0, 0.01747979859451924
264.0, 0.01774745518787124
265.0, 0.020712306276808135
266.0, 0.014265045451362673
267.0, 0.01564754628843628
268.0, 0.015257716755479319
269.0, 0.015559513233142318
270.0, 0.015733698795781563
271.0, 0.013787978560546366
272.0, 0.009954026091464632
273.0, 0.011727279840099324
274.0, 0.013844543835884189
275.0, 0.012851427927564274
276.0, 0.010050334905809638
277.0, 0.009791379227384897
278.0, 0.00825551092170054
279.0, 0.007977910225178648
280.0, 0.007357773320710447
281.0, 0.006689993220580889
282.0, 0.005815932341919122
283.0, 0.0036466968995911416
284.0, 0.005378134073326828
285.0, 0.005524862451618713
286.0, 0.0052976446093266315
287.0, 0.005728192084241272
288.0, 0.006717906135189056
289.0, 0.005808656482859787
290.0, 0.00776483424274768
291.0, 0.007107873936889515
292.0, 0.0053569592698114125
293.0, 0.005139264663020662
294.0, 0.007575276652907411
295.0, 0.006408703223192542
296.0, 0.0051623712804742825
297.0, 0.005788016478384828
298.0, 0.0067466711256979695
299.0, 0.006939225568265046
300.0, 0.006268484842554768
301.0, 0.0060788819233610165
302.0, 0.006363680482419362
303.0, 0.006501954925879689
304.0, 0.007450574076033614
305.0, 0.008804815128340455
306.0, 0.008432594011573195
307.0, 0.007241590801313481
308.0, 0.008990913387914677
309.0, 0.008136589001510012
310.0, 0.007363709130533633
311.0, 0.007705494902347693
312.0, 0.003830883314948944
313.0, 0.00448359878384189
314.0, 0.0023493880063080582
315.0, 0.003431674569525488
316.0, 0.003986922215856077
317.0, 0.0016888875241089958
318.0, 0.00657580429992847
319.0, 0.0027690004051774426
320.0, 0.005333786040249613
321.0, 0.0049628656021196895
322.0, 0.0029280633763611734
323.0, 0.0036276420323681714
324.0, 0.0019250054492063289
325.0, 0.004183154811032838
326.0, 0.0018937788014725346
327.0, 0.0004909485233809383
328.0, 0.0007819247792241968
329.0, 0.0006314614873963271
330.0, 0.0018407531288122119
331.0, 0.0011636066490974123
332.0, 0.0006433387642842125
333.0, 0.0007959521214443195
334.0, 0.0012885393290089846
335.0, 0.001402058067003035
336.0, 0.0014850063963662838
337.0, 0.0029914449242257318
338.0, 0.002352780616297068
339.0, 0.0020917946972684137
340.0, 0.0030852204240652444
341.0, 0.0037203252238001685
342.0, 0.0023844310150807953
343.0, 0.001015677597024191
344.0, 0.0010658361556451024
345.0, 0.0013382083365854702
346.0, 0.0015888077973008137
347.0, 0.002988389665137764
348.0, 0.005291972910319317
349.0, 0.0022257882575989684
350.0, 0.0025070645333554764
351.0, 0.0025743715685237843
352.0, 0.0007696828576966195
353.0, 0.00048794229712069025
354.0, 0.0007044171359815668
355.0, 0.0003703610464518838
356.0, 0.00019373164389293056
357.0, 0.00033788733581750107
358.0, 0.0008006513097412933
359.0, 0.0014519534135898765
360.0, 0.0011962297082495537
361.0, 0.0018075300066988072
362.0, 0.0021395091865321313
363.0, 0.00223092446773345
364.0, 0.0023008507782965
365.0, 0.002361399641046782
366.0, 0.001937129004475215
367.0, 0.0018527920533823762
368.0, 0.0009610796653041149
369.0, 0.0013367147346904596
370.0, 0.002457128092760403
371.0, 0.00031752689409337296
372.0, 0.004271887715624359
373.0, 0.001459664501010704
374.0, 0.0034379592972338486
375.0, 0.0039934960267608765
376.0, 0.0009237799368096834
377.0, 0.0020447444632276574
378.0, 0.0009122022686310369
379.0, 0.003910380413789237
380.0, 0.0032379460186915017
381.0, 0.0018249537784275083
382.0, 0.0027055538787084843
383.0, 0.00501703394340227
384.0, 0.0016272919049461912
385.0, 0.003242332285139224
386.0, 0.002276478390141955
387.0, 0.003632892995339374
388.0, 0.0060197838702511115
389.0, 0.0010430056515672607
390.0, 0.004868290193156849
391.0, 0.00156539485512846
392.0, 0.0030901933215805697
393.0, 0.005199545274384479
394.0, 0.004802437667405691
395.0, 0.003453435882481971
396.0, 0.0034574425884516076
397.0, 0.0026198266212195073
398.0, 0.003377338117017075
399.0, 0.004817072821036325
400.0, 0.004847979024839325
401.0, 0.0027096342889678976
402.0, 0.006837021970553974
403.0, 0.001912472991428186
404.0, 0.0010066664836712476
405.0, 0.002475782141555501
406.0, 0.003639670352652746
407.0, 0.003918550761559395
408.0, 0.008625696246261489
409.0, 0.0047062016934738965
410.0, 0.0034643190110537894
411.0, 0.005373762324662369
412.0, 0.006936972103782191
413.0, 0.005562418757919145
414.0, 0.0069016610898688805
415.0, 0.006054124823160992
416.0, 0.007614740415235026
417.0, 0.010341675531310912
418.0, 0.012485319399035244
419.0, 0.013752351462309149
420.0, 0.017051598337655724
421.0, 0.017170744762131943
422.0, 0.017958933709389613
423.0, 0.017799996429323412
424.0, 0.01610673938881323
425.0, 0.015608904698038864
426.0, 0.02233215954443624
427.0, 0.023739375475631517
428.0, 0.021150025406687596
429.0, 0.02462762878946652
430.0, 0.02816156534875776
431.0, 0.02739677934764598
432.0, 0.026337857696294716
433.0, 0.035285649979312744
434.0, 0.034543647640930465
435.0, 0.03530263668599544
436.0, 0.0395036972454833
437.0, 0.04312013841698186
438.0, 0.04195861404667955
439.0, 0.04850334871438112
440.0, 0.05103497598020634
441.0, 0.05180183464654888
442.0, 0.05206384937830905
443.0, 0.0539861997449435
444.0, 0.05621942090921921
445.0, 0.046715227700960114
446.0, 0.04800246229926827
447.0, 0.049117633088088294
448.0, 0.04613023433137701
449.0, 0.042274030553930204
450.0, 0.04116119282636422
451.0, 0.04089940153878206
452.0, 0.03181600975863537
453.0, 0.031619361307049364
454.0, 0.030147779802678253
455.0, 0.028117330244542323
456.0, 0.026501140523785018
457.0, 0.023444107624019658
458.0, 0.020107501989236748
459.0, 0.021391268111750378
460.0, 0.01744385353432762
461.0, 0.01600916352166542
462.0, 0.016177265211532323
463.0, 0.012014410025412807
464.0, 0.010477996888446202
465.0, 0.011891263700816742
466.0, 0.010410603568737783
467.0, 0.009873488307086653
468.0, 0.010600028713329098
469.0, 0.011061909442584235
470.0, 0.010298158600422342
471.0, 0.009214860036381894
472.0, 0.008089831160904198
473.0, 0.006847048643498016
474.0, 0.0068003845230368625
475.0, 0.007422379663206861
476.0, 0.006545910356158053
477.0, 0.007951564611434448
478.0, 0.007061188436164552
479.0, 0.007283175859755987
480.0, 0.008650223324113226
481.0, 0.007791424299236079
482.0, 0.0035788760385379653
483.0, 0.00667737536358515
484.0, 0.0054822899670310616
485.0, 0.004387645477311016
486.0, 0.004149257490957223
487.0, 0.00385812179240651
488.0, 0.0039019320740648136
489.0, 0.006854793450110314
490.0, 0.007308277787686552
491.0, 0.00614999614352356
492.0, 0.007179373965213864
493.0, 0.006894036106090735
494.0, 0.004394800464363508
495.0, 0.00206586270323882
496.0, 0.0009862920529941847
497.0, 0.0018397270276243193
498.0, 0.0018919321295678625
499.0, 0.002656291717840166
500.0, 0.003354562996627353
501.0, 0.0031844821395803444
502.0, 0.0032465146346204714
503.0, 0.0011113346286492673
504.0, 0.002713692459394872
505.0, 0.0035700101510165944
506.0, 0.003026788922817778
507.0, 0.0019032780125719515
508.0, 0.0011797950490268576
509.0, 0.00024486024869911334
510.0, 0.006227990265549037
511.0, 0.0072563332301
512.0, 0.004894843649084103
513.0, 0.002665891754914557
514.0, 0.0022024927615532535
515.0, 0.001239852349408646
516.0, 0.003363851747734016
517.0, 0.0027533829620797357
518.0, 0.0024729077492772534
519.0, 0.0025003432148004412
520.0, 0.0023067742837349085
521.0, 0.002238232446774963
522.0, 0.005175602958040548
523.0, 0.0019899653120137514
524.0, 0.0031419792020069295
525.0, 0.004595186348110005
526.0, 0.0038665568263702844
527.0, 0.0017568902157645634
528.0, 0.002019628883387967
529.0, 0.004654826439798444
530.0, 0.0013815457163837413
531.0, 0.0045871460159667456
532.0, 0.005346699892774102
533.0, 0.0040941571925022565
534.0, 0.005604858987753829
535.0, 0.0003946158238397374
536.0, 0.0032975776462264616
537.0, 0.0027994624948179435
538.0, 0.001573573118062093
539.0, 0.0015745262155001656
540.0, 0.003704335300816179
541.0, 0.006509319667272518
542.0, 0.0009781880212120348
543.0, 0.006573692855299105
544.0, 0.00325476897850042
545.0, 0.003936609310854509
546.0, 0.0063675637858794775
547.0, 0.004890690975802056
548.0, 0.00534267065048466
549.0, 0.0034800338386327323
550.0, 0.002765162548892054
551.0, 0.0033780377668396495
552.0, 0.0023973167962919447
553.0, 0.0013466876615109554
554.0, 0.003754417226735326
555.0, 0.007002161485002084
556.0, 0.0028744461198604463
557.0, 0.007831572947662282
558.0, 0.00526595776052502
559.0, 0.0033579246072989195
560.0, 0.0060331755169497625
561.0, 0.004828891094735284
562.0, 0.0032078009377809772
563.0, 0.005712618136750941
564.0, 0.006231234547670493
565.0, 0.00788207037315242
566.0, 0.01203496571154611
567.0, 0.016844442898327275
568.0, 0.018285530814448905
569.0, 0.018893768298549968
570.0, 0.0178064378793478
571.0, 0.022132458784657024
572.0, 0.02572065872274338
573.0, 0.032105095004090395
574.0, 0.044838251929909936
575.0, 0.052388153938232644
576.0, 0.05751112538213951
577.0, 0.06105067282865849
578.0, 0.06735527218259316
579.0, 0.07018689103738746
580.0, 0.06596402737203019
581.0, 0.056587779060813526
582.0, 0.04674715513468551
583.0, 0.04668294213693838
584.0, 0.03703131631927413
585.0, 0.0333376558003219
586.0, 0.032004970660661484
587.0, 0.03069026191781377
588.0, 0.03136560899338295
589.0, 0.02478919063223906
590.0, 0.024492106948064196
591.0, 0.028425050967948336
592.0, 0.022655252641661308
593.0, 0.01835802241212144
594.0, 0.021042288947254534
595.0, 0.02124252637437667
596.0, 0.026290151786395058
597.0, 0.028145364286098557
598.0, 0.026462250431253716
599.0, 0.029580575680048474
600.0, 0.03405488543256025
601.0, 0.03531612499823671
602.0, 0.035427940858627424
603.0, 0.039071451757317785
604.0, 0.04339337315374738
605.0, 0.04839104809635337
606.0, 0.04988573015313667
607.0, 0.04495528464700458
608.0, 0.03804752416665773
609.0, 0.03922545280484336
610.0, 0.035590691456818424
611.0, 0.03723221055080786
612.0, 0.03447759652314094
613.0, 0.0317100423116577
614.0, 0.03241613886719301
615.0, 0.03314044256036938
616.0, 0.02538462209498614
617.0, 0.024694162143739515
618.0, 0.027927517005893875
619.0, 0.021882445641502154
620.0, 0.019370942018001335
621.0, 0.019251521090640024
622.0, 0.016886705446516315
623.0, 0.016149389736706172
624.0, 0.01649474917963717
625.0, 0.012847223781551634
626.0, 0.014082364157502658
627.0, 0.015459320599949474
628.0, 0.013177483442638176
629.0, 0.009363647842010289
630.0, 0.010983876200358933
631.0, 0.012124523530203888
632.0, 0.010570738695709878
633.0, 0.010442423353756962
634.0, 0.01286083832345175
635.0, 0.012166071525067395
636.0, 0.007997292510432127
637.0, 0.00986133815871301
638.0, 0.013735432282645968
639.0, 0.011589107877723846
640.0, 0.013653184155111953
641.0, 0.015310401135249842
642.0, 0.015483407741685428
643.0, 0.015508948826066488
644.0, 0.016052931057872817
645.0, 0.01350115108011551
646.0, 0.015133513172934604
647.0, 0.013973817206885312
648.0, 0.013256155569822231
649.0, 0.013496503209382296
650.0, 0.013590417355630746
651.0, 0.012785969283146452
652.0, 0.012781827471546875
653.0, 0.0128245044815604
654.0, 0.016293498480448334
655.0, 0.018690950126553692
656.0, 0.016894420679222637
657.0, 0.015717455510027248
658.0, 0.019918993428909543
659.0, 0.014303719335664013
660.0, 0.012098281820253813
661.0, 0.013586310622492801
662.0, 0.009925506532221415
663.0, 0.01078192982976978
664.0, 0.013799596895207723
665.0, 0.010992593360769812
666.0, 0.011631440765283229
667.0, 0.015593918376870866
668.0, 0.010167179106063084
669.0, 0.012744262183460017
670.0, 0.01413399904592448
671.0, 0.011630123827124748
672.0, 0.01101742480934538
673.0, 0.01670617885658557
674.0, 0.00840153615187548
675.0, 0.006562441992879989
676.0, 0.012814083616080973
677.0, 0.013754449066378134
678.0, 0.010678930603196432
679.0, 0.009712962702283046
680.0, 0.010808904722011002
681.0, 0.006045121834885776
682.0, 0.012598413016882281
683.0, 0.008168819243049874
684.0, 0.005378244746264707
685.0, 0.009185772658016195
686.0, 0.01319557714786885
687.0, 0.009547918459508075
688.0, 0.007016549311047136
689.0, 0.003969660150155569
690.0, 0.004569526667921253
691.0, 0.008079339262044847
692.0, 0.008836435826745223
693.0, 0.010378128427223158
694.0, 0.014095576131916858
695.0, 0.008358081966522171
696.0, 0.005068051054466287
697.0, 0.005225739803668395
698.0, 0.005018529570477164
699.0, 0.0050379247857885
700.0, 0.007376708964588221
701.0, 0.010032771177490164
702.0, 0.009056176058596791
703.0, 0.01294075019368155
704.0, 0.015564793192654018
705.0, 0.012891131026173175
706.0, 0.01127837399531503
707.0, 0.01255288896096499
708.0, 0.013093746742740784
709.0, 0.011204197146677973
710.0, 0.014317687946436732
711.0, 0.013476588983713669
712.0, 0.01678442626678924
713.0, 0.012339576682981907
714.0, 0.01541121632777703
715.0, 0.017953122970213137
716.0, 0.013506053398567091
717.0, 0.011357793721011512
718.0, 0.0042470957830054775
719.0, 0.014962580024206973
720.0, 0.01830755788755864
721.0, 0.01566452448816227
722.0, 0.012724281172668956
723.0, 0.010326031759194967
724.0, 0.009414195724101593
725.0, 0.017380471491796307
726.0, 0.008131302844781564
727.0, 0.009223516015479383
728.0, 0.014423888523385083
729.0, 0.01541531020230153
730.0, 0.011623452299587066
731.0, 0.010420946351476588
732.0, 0.01672115520135776
733.0, 0.013208450352141474
734.0, 0.013740420516505307
735.0, 0.015007542772497667
736.0, 0.014377967415345354
737.0, 0.01405479799652694
738.0, 0.013163986548556765
739.0, 0.012578602180271485
740.0, 0.017638396903367725
741.0, 0.015028778980431333
742.0, 0.010920581062462202
743.0, 0.014807494577993699
744.0, 0.015737702592048573
745.0, 0.018456746443864046
746.0, 0.02104224878196102
747.0, 0.016287244072251513
748.0, 0.012159431849992903
749.0, 0.014727360081614247
750.0, 0.015747252938827276
751.0, 0.01506881845980552
752.0, 0.013058669139069628
753.0, 0.013477067701687549
754.0, 0.01517836306401367
755.0, 0.01309342437765839
756.0, 0.013888437932792538
757.0, 0.012354914708446
758.0, 0.012682505292407668
759.0, 0.012621364644214107
760.0, 0.013846437981765597
761.0, 0.01687666990278967
762.0, 0.017919934353993684
763.0, 0.013428993340265467
764.0, 0.01959638510849553
765.0, 0.015468239247424664
766.0, 0.02222353548579011
767.0, 0.01841679448899696
768.0, 0.01799198009330542
769.0, 0.017947079364507214
770.0, 0.011043234366680695
771.0, 0.012609528086396374
772.0, 0.011002099298823505
773.0, 0.015673626457461735
774.0, 0.015948315923889147
775.0, 0.01389955139408645
776.0, 0.013426469032295567
777.0, 0.013454211031650355
778.0, 0.012488189892310044
779.0, 0.015089461153977336
780.0, 0.01226886499147768
781.0, 0.008021623245129963
782.0, 0.008982938514692953
783.0, 0.01402513999989542
784.0, 0.015091064314454297
785.0, 0.01179667933988593
786.0, 0.011815692704539128
787.0, 0.01836893380755682
788.0, 0.0166387863348604
789.0, 0.013540662991511021
790.0, 0.016348628455649675
791.0, 0.017649498961785158
792.0, 0.016872138557654015
793.0, 0.015463006979075435
794.0, 0.013928688733101779
795.0, 0.013376240364524799
796.0, 0.01775971047007841
797.0, 0.01627421538729945
798.0, 0.019667420033554345
799.0, 0.0204687159225172
800.0, 0.01795379361417044
801.0, 0.013305573329498008
802.0, 0.010960017829056323
803.0, 0.02011187597688625
804.0, 0.015188191148492208
805.0, 0.015570991998232976
806.0, 0.012344764009852034
807.0, 0.010735274514700943
808.0, 0.01066524443233772
809.0, 0.009854717835523176
810.0, 0.00924242586251098
811.0, 0.013212387446860957
812.0, 0.009469492193360816
813.0, 0.012450600439257095
814.0, 0.012013338213793788
815.0, 0.013249344905283797
816.0, 0.010232951444669491
817.0, 0.00880569165893079
818.0, 0.012804284063682045
819.0, 0.008998662076954855
820.0, 0.021173303279702863
821.0, 0.01580908386956032
822.0, 0.008746462150219776
823.0, 0.008225582111090307
824.0, 0.012094563697008821
825.0, 0.015251962803399972
826.0, 0.01607343272186742
827.0, 0.016796154431385414
828.0, 0.01452978666573771
829.0, 0.014543636283693458
830.0, 0.00870885624472074
831.0, 0.005782807821573725
832.0, 0.004746861577472154
833.0, 0.004703441862035129
834.0, 0.005222447189928779
835.0, 0.005979526557780004
836.0, 0.008953027677269878
837.0, 0.013580564017561615
838.0, 0.005394034711052105
839.0, 0.008068172591436756
840.0, 0.01103458992634284
841.0, 0.00763369994758516
842.0, 0.005003094377571538
843.0, 0.00872521787338425
844.0, 0.005821792111350347
845.0, 0.0162510523719234
846.0, 0.015321525003824363
847.0, 0.007279460259999022
848.0, 0.005125171533937669
849.0, 0.0041083705663224526
850.0, 0.006704221062397252
851.0, 0.010763417836893052
852.0, 0.0026670574274045952
853.0, 0.003927945341143377
854.0, 0.011667829897462572
855.0, 0.0054213447380001695
856.0, 0.0034850135316982053
857.0, 0.0040555846052911446
858.0, 0.006174714464275472
859.0, 0.00831522350998717
860.0, 0.007021081258058127
861.0, 0.002379844819589097
862.0, 0.0010400944227425828
863.0, 0.005582039166980242
864.0, 0.005339790382741704
865.0, 0.005259536336274073
866.0, 0.00934549250382909
867.0, 0.011024073753017184
868.0, 0.005798996043279757
869.0, 0.0022352821621403687
870.0, 0.0018028936393550542
871.0, 0.005229745015253977
872.0, 0.005812565995972855
873.0, 0.008130862306745153
874.0, 0.0100074905526901
875.0, 0.006651207117843318
876.0, 0.0023468810711864373
877.0, 0.003239074043966155
878.0, 0.0004193718650381884
879.0, 0.0027080811794148426
880.0, 0.003912354460224539
881.0, 0.003924984611583486
882.0, 0.004726529248101877
883.0, 0.005038314289035312
884.0, 0.004507703547616739
885.0, 0.003867330986527908
886.0, 0.00330290239076079
887.0, 0.002011111136966295
888.0, 0.0015587803811648582
889.0, 0.00347299503678138
890.0, 0.003948396598689796
891.0, 0.005756109263605434
892.0, 0.003944650555085448
893.0, 0.0034053868131449774
894.0, 0.006743463109230968
895.0, 0.002846281221385753
896.0, 0.003563911849331209
897.0, 0.004152312672542599
898.0, 0.003736082028738792
899.0, 0.001381176822434511
900.0, 0.0011703158890699651
901.0, 0.0021592162248909
902.0, 0.0020134922908555193
903.0, 0.0016745704778789363
904.0, 0.0038808503918320468
905.0, 0.0012225794533196152
906.0, 0.0031709934936363475
907.0, 0.0030944254422062014
908.0, 0.003057650657024107
909.0, 0.004382033799954488
910.0, 0.006098742756962747
911.0, 0.005733233754201027
912.0, 0.0035215797662870767
913.0, 0.00405369818869452
914.0, 0.0015708716579231792
915.0, 0.00022644830250237002
916.0, 0.00021360624457461875
917.0, 0.0009710294056699308
918.0, 0.0021586048280186135
919.0, 0.0028222117216204798
920.0, 0.003859869757558542
921.0, 0.005494719638582695
922.0, 0.003826705861529253
923.0, 0.005028651676844399
924.0, 0.006307309361940641
925.0, 0.0047163417816318345
926.0, 0.0025463665943706235
927.0, 0.004959805794424623
928.0, 0.005817635681102393
929.0, 0.0024750358535895797
930.0, 0.000812332140839532
931.0, 0.0035652559025075798
932.0, 0.008409005528798235
933.0, 0.010594030822356198
934.0, 0.007471466354764084
935.0, 0.015115217326141541
936.0, 0.020476622274722547
937.0, 0.0178409448177864
938.0, 0.01711426666541057
939.0, 0.026363736780100323
940.0, 0.033001885108889156
941.0, 0.021618045359408374
942.0, 0.03402215576106774
943.0, 0.042701170764828565
944.0, 0.04941046798472729
945.0, 0.058069418146148445
946.0, 0.06327101660155396
947.0, 0.07022439603218912
948.0, 0.0854527285524805
949.0, 0.10010821609631129
950.0, 0.1106576535552874
951.0, 0.14513721481287734
952.0, 0.17806520208256993
953.0, 0.2253740866945771
954.0, 0.2883516553035837
955.0, 0.3665140312298217
956.0, 0.45966003361464486
957.0, 0.5676965316311811
958.0, 0.6875509696198983
959.0, 0.8088071584904057
960.0, 0.9164377342893976
961.0, 0.98971016955286
962.0, 0.9700929458516147
963.0, 0.8971311716188836
964.0, 0.7866215588246068
965.0, 0.6649360485861336
966.0, 0.5501998332756369
967.0, 0.4432346260355296
968.0, 0.3492413781915988
969.0, 0.2923594315452219
970.0, 0.2157009896186186
971.0, 0.17809895371849274
972.0, 0.14373647072602458
973.0, 0.10711495914954668
974.0, 0.08248360709258092
975.0, 0.06972641121416628
976.0, 0.05541097211498752
977.0, 0.03792302406705763
978.0, 0.03592236451236384
979.0, 0.024866650211917182
980.0, 0.027855835215411677
981.0, 0.024143520752749927
982.0, 0.020528801938710275
983.0, 0.01856217078007624
984.0, 0.016383189181002993
985.0, 0.013930881355575436
986.0, 0.00991975032616715
987.0, 0.001093428697678782
988.0, 0.0010516471535121355
989.0, 0.008837474192345774
990.0, 0.0015960133808447193
991.0, 0.004619217957911432
992.0, 0.006890436454619608
993.0, 0.005248446889210591
994.0, 0.0020887545006472177
995.0, 0.0027344782720384294
996.0, 0.00842337386603445
997.0, 0.0100632231637095
998.0, 0.009153547219378631
999.0, 0.011269673939214794
1000.0, 0.009850839837608545
1001.0, 0.009223079216125224
1002.0, 0.013444980421777252
1003.0, 0.013931594694442386
1004.0, 0.013181608140846655
1005.0, 0.014056136792544163
1006.0, 0.01302946461781838
1007.0, 0.01946325722221163
1008.0, 0.017878787996071697
1009.0, 0.010720448245090539
1010.0, 0.014631794689777131
1011.0, 0.008504305622283643
1012.0, 0.0041299246450339396
1013.0, 0.0058776029448223445
1014.0, 0.0105516086182896
1015.0, 0.013691126518863776
1016.0, 0.01568372410011928
1017.0, 0.021384438946011254
1018.0, 0.0031885505412670642
1019.0, 0.019656246643780413
1020.0, 0.026348829192868222
1021.0, 0.018040000408117953
1022.0, 0.02309271137664421
1023.0, 0.030992924192573476
1024.0, 0.03160430584716428
1025.0, 0.029250905660572937
1026.0, 0.03097718468414606
1027.0, 0.04209835349706559
1028.0, 0.04454180377352226
1029.0, 0.04204205748345992
1030.0, 0.03929676849305431
1031.0, 0.03736324787306062
1032.0, 0.027135170670123377
1033.0, 0.021432076762248013
1034.0, 0.021876114030257673
1035.0, 0.019176794731150963
1036.0, 0.014310191860500471
1037.0, 0.018169056550004743
1038.0, 0.015593900632432607
1039.0, 0.009091648482680315
1040.0, 0.015159511998346479
1041.0, 0.021015156660664367
1042.0, 0.023752041977489664
1043.0, 0.02398554195570591
1044.0, 0.022683948645818932
1045.0, 0.01885631585877422
1046.0, 0.01519024774421281
1047.0, 0.017238925464857273
1048.0, 0.010180099506039157
1049.0, 0.009141885580262266
1050.0, 0.01358712189622198
1051.0, 0.02370162930781304
1052.0, 0.022735577322032824
1053.0, 0.02385120662896654
1054.0, 0.023343230560926676
1055.0, 0.02926598258667867
1056.0, 0.03782740460958015
1057.0, 0.027814392097681752
1058.0, 0.031059457156567417
1059.0, 0.03250012502005382
1060.0, 0.018807532236872492
1061.0, 0.025354279985837398
1062.0, 0.01642140243249345
1063.0, 0.014631018981996853
1064.0, 0.012867294826478052
1065.0, 0.015968130346678364
1066.0, 0.018062098946727344
1067.0, 0.011802245154622101
1068.0, 0.01694328557854759
1069.0, 0.006443987376949372
1070.0, 0.018004614623377418
1071.0, 0.02470924576934777
1072.0, 0.014245562968684743
1073.0, 0.023640619218088514
1074.0, 0.018363901145170013
1075.0, 0.013064385863441842
1076.0, 0.017675684448103322
1077.0, 0.017559496768125085
1078.0, 0.010154668454376563
1079.0, 0.01512264710121605
1080.0, 0.014011196815162658
1081.0, 0.01520520463623748
1082.0, 0.01695692099901798
1083.0, 0.010177413079097239
1084.0, 0.007074459855504903
1085.0, 0.01344626673256029
1086.0, 0.013337278567179369
1087.0, 0.0066466488986726855
1088.0, 0.007904896011981062
1089.0, 0.015036444337141214
1090.0, 0.011843275054721552
1091.0, 0.01919650996280145
1092.0, 0.022363251077411765
1093.0, 0.014969495725922113
1094.0, 0.0076148911103718735
1095.0, 0.00603486901857604
1096.0, 0.004453438458902353
1097.0, 0.003334115765708936
1098.0, 0.0035396756696445693
1099.0, 0.004362262793638051
1100.0, 0.00567042440370288
1101.0, 0.006509827357055721
1102.0, 0.01145698778982699
1103.0, 0.009174631336957555
1104.0, 0.010268238065314393
1105.0, 0.015790830790124735
1106.0, 0.019308996093832617
1107.0, 0.013530786100396113
1108.0, 0.011784425445927492
1109.0, 0.015829644443873667
1110.0, 0.012634214569142242
1111.0, 0.002859544460469394
1112.0, 0.006193168269116622
1113.0, 0.01408401817220405
1114.0, 0.018926055951288375
1115.0, 0.013452507410262703
1116.0, 0.0066614767454500744
1117.0, 0.010296724890764344
1118.0, 0.019233434938606273
1119.0, 0.011118550319639597
1120.0, 0.00989860400762534
1121.0, 0.014706422110992448
1122.0, 0.007556279842596095
1123.0, 0.01549848609114443
1124.0, 0.021051360901203794
1125.0, 0.012328841410771094
1126.0, 0.012557185576702523
1127.0, 0.011939970372714076
1128.0, 0.011604445208336315
1129.0, 0.017004867153430824
1130.0, 0.009478828731673106
1131.0, 0.00548550178031888
1132.0, 0.010663044906334292
1133.0, 0.01648186969128023
1134.0, 0.02029340907425862
1135.0, 0.013456547408892221
1136.0, 0.005028098013582331
1137.0, 0.020426637423814724
1138.0, 0.00590722941375864
1139.0, 0.02277129307362182
1140.0, 0.01080181713562936
1141.0, 0.01398420182420519
1142.0, 0.015592367551311727
1143.0, 0.012785158651589057
1144.0, 0.013832803414993527
1145.0, 0.01672156341841317
1146.0, 0.01578510276968282
1147.0, 0.0093120312313231
1148.0, 0.01642190176450639
1149.0, 0.00686330590919468
1150.0, 0.021586851166503992
1151.0, 0.024505075408031585
1152.0, 0.01775270018238948
1153.0, 0.013832317035575019
1154.0, 0.009538209626482285
1155.0, 0.0070241056839143185
1156.0, 0.010689773003799698
1157.0, 0.01914260589319216
1158.0, 0.02485026919585402
1159.0, 0.02032128439873432
1160.0, 0.02425685833633079
1161.0, 0.007682005898273463
1162.0, 0.021541504621767245
1163.0, 0.018119968209553357
1164.0, 0.013796979591160028
1165.0, 0.020298688887704756
1166.0, 0.01958016491819619
1167.0, 0.008487913424658072
1168.0, 0.004644652020439473
1169.0, 0.010382268952991311
1170.0, 0.010728777675792769
1171.0, 0.011090586263720826
1172.0, 0.009679926961833594
1173.0, 0.014728298907791945
1174.0, 0.013133363985971841
1175.0, 0.012281999344708713
1176.0, 0.01144385862221033
1177.0, 0.009889237737323368
1178.0, 0.009517914401540747
1179.0, 0.0067304214412732205
1180.0, 0.006350502807669738
1181.0, 0.010626463734587087
1182.0, 0.012743259466195832
1183.0, 0.010017772843914143
1184.0, 0.003748344310672706
1185.0, 0.012954411778132318
1186.0, 0.0025304570786327347
1187.0, 0.007370921119796085
1188.0, 0.0016705888369517676
1189.0, 0.006099575941666189
1190.0, 0.01110562176239641
1191.0, 0.005382249821709834
1192, 0.0
1193, 0.0
1194, 0.0
1195, 0.0
1196, 0.0
1197, 0.0
1198, 0.0
1199, 0.0
1200, 0.0
1201, 0.0
1202, 0.0
1203, 0.0
1204, 0.0
1205, 0.0
1206, 0.0
1207, 0.0
1208, 0.0
1209, 0.0
1210, 0.0
1211, 0.0
1212, 0.0
1213, 0.0
1214, 0.0
1215, 0.0
1216, 0.0
1217, 0.0
1218, 0.0
1219, 0.0
1220, 0.0
1221, 0.0
1222, 0.0
1223, 0.0
1224, 0.0
1225, 0.0
1226, 0.0
1227, 0.0
1228, 0.0
1229, 0.0
1230, 0.0
1231, 0.0
1232, 0.0
1233, 0.0
1234, 0.0
1235, 0.0
1236, 0.0
1237, 0.0
1238, 0.0
1239, 0.0
1240, 0.0
1241, 0.0
1242, 0.0
1243, 0.0
1244, 0.0
1245, 0.0
1246, 0.0
1247, 0.0
1248, 0.0
1249, 0.0
1250, 0.0
1251, 0.0
1252, 0.0
1253, 0.0
1254, 0.0
1255, 0.0
1256, 0.0
1257, 0.0
1258, 0.0
1259, 0.0
1260, 0.0
1261, 0.0
1262, 0.0
1263, 0.0
1264, 0.0
1265, 0.0
1266, 0.0
1267, 0.0
1268, 0.0
1269, 0.0
1270, 0.0
1271, 0.0
1272, 0.0
1273, 0.0
1274, 0.0
1275, 0.0
1276, 0.0
1277, 0.0
1278, 0.0
1279, 0.0
1280, 0.0
1281, 0.0
1282, 0.0
1283, 0.0
1284, 0.0
1285, 0.0
1286, 0.0
1287, 0.0
1288, 0.0
1289, 0.0
1290, 0.0
1291, 0.0
1292, 0.0
1293, 0.0
1294, 0.0
1295, 0.0
1296, 0.0
1297, 0.0
1298, 0.0
1299, 0.0
1300, 0.0
1301, 0.0
1302, 0.0
1303, 0.0
1304, 0.0
1305, 0.0
1306, 0.0
1307, 0.0
1308, 0.0
1309, 0.0
1310, 0.0
1311, 0.0
1312, 0.0
1313, 0.0
1314, 0.0
1315, 0.0
1316, 0.0
1317, 0.0
1318, 0.0
1319, 0.0
1320, 0.0
1321, 0.0
1322, 0.0
1323, 0.0
1324, 0.0
1325, 0.0
1326, 0.0
1327, 0.0
1328, 0.0
1329, 0.0
1330, 0.0
1331, 0.0
1332, 0.0
1333, 0.0
1334, 0.0
1335, 0.0
1336, 0.0
1337, 0.0
1338, 0.0
1339, 0.0
1340, 0.0
1341, 0.0
1342, 0.0
1343, 0.0
1344, 0.0
1345, 0.0
1346, 0.0
1347, 0.0
1348, 0.0
1349, 0.0
1350, 0.0
1351, 0.0
1352, 0.0
1353, 0.0
1354, 0.0
1355, 0.0
1356, 0.0
1357, 0.0
1358, 0.0
1359, 0.0
1360, 0.0
1361, 0.0
1362, 0.0
1363, 0.0
1364, 0.0
1365, 0.0
1366, 0.0
1367, 0.0
1368, 0.0
1369, 0.0
1370, 0.0
1371, 0.0
1372, 0.0
1373, 0.0
1374, 0.0
1375, 0.0
1376, 0.0
1377, 0.0
1378, 0.0
1379, 0.0
1380, 0.0
1381, 0.0
1382, 0.0
1383, 0.0
1384, 0.0
1385, 0.0
1386, 0.0
1387, 0.0
1388, 0.0
1389, 0.0
1390, 0.0
1391, 0.0
1392, 0.0
1393, 0.0
1394, 0.0
1395, 0.0
1396, 0.0
1397, 0.0
1398, 0.0
1399, 0.0
1400, 0.0
1401, 0.0
1402, 0.0
1403, 0.0
1404, 0.0
1405, 0.0
1406, 0.0
1407, 0.0
1408, 0.0
1409, 0.0
1410, 0.0
1411, 0.0
1412, 0.0
1413, 0.0
1414, 0.0
1415, 0.0
1416, 0.0
1417, 0.0
1418, 0.0
1419, 0.0
1420, 0.0
1421, 0.0
1422, 0.0
1423, 0.0
1424, 0.0
1425, 0.0
1426, 0.0
1427, 0.0
1428, 0.0
1429, 0.0
1430, 0.0
1431, 0.0
1432, 0.0
1433, 0.0
1434, 0.0
1435, 0.0
1436, 0.0
1437, 0.0
1438, 0.0
1439, 0.0
1440, 0.0
1441, 0.0
1442, 0.0
1443, 0.0
1444, 0.0
1445, 0.0
1446, 0.0
1447, 0.0
1448, 0.0
1449, 0.0
1450, 0.0
1451, 0.0
1452, 0.0
1453, 0.0
1454, 0.0
1455, 0.0
1456, 0.0
1457, 0.0
1458, 0.0
1459, 0.0
1460, 0.0
1461, 0.0
1462, 0.0
1463, 0.0
1464, 0.0
1465, 0.0
1466, 0.0
1467, 0.0
1468, 0.0
1469, 0.0
1470, 0.0
1471, 0.0
1472, 0.0
1473, 0.0
1474, 0.0
1475, 0.0
1476, 0.0
1477, 0.0
1478, 0.0
1479, 0.0
1480, 0.0
1481, 0.0
1482, 0.0
1483, 0.0
1484, 0.0
1485, 0.0
1486, 0.0
1487, 0.0
1488, 0.0
1489, 0.0
1490, 0.0
1491, 0.0
1492, 0.0
1493, 0.0
1494, 0.0
1495, 0.0
1496, 0.0
1497, 0.0
1498, 0.0
1499, 0.0
1500, 0.0
1501, 0.0
1502, 0.0
1503, 0.0
1504, 0.0
1505, 0.0
1506, 0.0
1507, 0.0
1508, 0.0
1509, 0.0
1510, 0.0
1511, 0.0
1512, 0.0
1513, 0.0
1514, 0.0
1515, 0.0
1516, 0.0
1517, 0.0
1518, 0.0
1519, 0.0
1520, 0.0
1521, 0.0
1522, 0.0
1523, 0.0
1524, 0.0
1525, 0.0
1526, 0.0
1527, 0.0
1528, 0.0
1529, 0.0
1530, 0.0
1531, 0.0
1532, 0.0
1533, 0.0
1534, 0.0
1535, 0.0
1536, 0.0
1537, 0.0
1538, 0.0
1539, 0.0
1540, 0.0
1541, 0.0
1542, 0.0
1543, 0.0
1544, 0.0
1545, 0.0
1546, 0.0
1547, 0.0
1548, 0.0
1549, 0.0
1550, 0.0
1551, 0.0
1552, 0.0
1553, 0.0
1554, 0.0
1555, 0.0
1556, 0.0
1557, 0.0
1558, 0.0
1559, 0.0
1560, 0.0
1561, 0.0
1562, 0.0
1563, 0.0
1564, 0.0
1565, 0.0
1566, 0.0
1567, 0.0
1568, 0.0
1569, 0.0
1570, 0.0
1571, 0.0
1572, 0.0
1573, 0.0
1574, 0.0
1575, 0.0
1576, 0.0
1577, 0.0
1578, 0.0
1579, 0.0
1580, 0.0
1581, 0.0
1582, 0.0
1583, 0.0
1584, 0.0
1585, 0.0
1586, 0.0
1587, 0.0
1588, 0.0
1589, 0.0
1590, 0.0
1591, 0.0
1592, 0.0
1593, 0.0
1594, 0.0
1595, 0.0
1596, 0.0
1597, 0.0
1598, 0.0
1599, 0.0
