30, 0.0
31, 0.0
32, 0.0
33, 0.0
34, 0.0
35, 0.0
36, 0.0
37, 0.0
38, 0.0
39, 0.0
40, 0.0
41, 0.0
42, 0.0
43, 0.0
44, 0.0
45, 0.0
46, 0.0
47, 0.0
48, 0.0
49, 0.0
50, 0.0
51, 0.0
52, 0.0
53, 0.0
54, 0.0
55, 0.0
56, 0.0
57, 0.0
58, 0.0
59, 0.0
60, 0.0
61, 0.0
62, 0.0
63, 0.0
64, 0.0
65, 0.0
66, 0.0
67, 0.0
68, 0.0
69, 0.0
70, 0.0
71, 0.0
72, 0.0
73, 0.0
74, 0.0
75, 0.0
76, 0.0
77, 0.0
78, 0.0
79, 0.0
80, 0.0
81, 0.0
82, 0.0
83, 0.0
84, 0.0
85, 0.0
86, 0.0
87, 0.0
88, 0.0
89, 0.0
90, 0.0
91, 0.0
92, 0.0
93, 0.0
94, 0.0
95, 0.0
96, 0.0
97, 0.0
98, 0.0
99, 0.0
100, 0.0
101, 0.0
102, 0.0
103, 0.0
104, 0.0
105, 0.0
106, 0.0
107, 0.0
108, 0.0
109, 0.0
110, 0.0
111, 0.0
112, 0.0
113, 0.0
114, 0.0
115, 0.0
116, 0.0
117, 0.0
118, 0.0
119, 0.0
120, 0.0
121, 0.0
122, 0.0
123, 0.0
124, 0.0
125, 0.0
126, 0.0
127, 0.0
128, 0.0
129, 0.0
130.0, 0.005742576660925062
131.0, 0.04077953464845749
132.0, 0.08317261970477106
133.0, 0.11230906373110996
134.0, 0.1214958743637576
135.0, 0.11057104757583304
136.0, 0.094591780654203
137.0, 0.0736781625027164
138.0, 0.047658475363597935
139.0, 0.029585706423243874
140.0, 0.015867781282225154
141.0, 0.0031762713624192817
142.0, 0.007044431982510699
143.0, 0.009225991918132347
144.0, 0.0022554152181487115
145.0, 0.011293263039533197
146.0, 0.03361707948019757
147.0, 0.0639218838897395
148.0, 0.09555557197446768
149.0, 0.12506414119262402
150.0, 0.15159832508290896
151.0, 0.17905628362611034
152.0, 0.20008694668490032
153.0, 0.19595400471631946
154.0, 0.18744126311739576
155.0, 0.1852955004858765
156.0, 0.1934210438051969
157.0, 0.21107984695478235
158.0, 0.2356546030079312
159.0, 0.27339938327080027
160.0, 0.3177287706297792
161.0, 0.3547166483278963
162.0, 0.3609157887855555
163.0, 0.33176194477652543
164.0, 0.28100233338651553
165.0, 0.2238496084078434
166.0, 0.1771137992882244
167.0, 0.13637223235762205
168.0, 0.1059277568171986
169.0, 0.08331864743407687
170.0, 0.0683524264855754
171.0, 0.06545492319303879
172.0, 0.06706729656752927
173.0, 0.069024234149763
174.0, 0.07388493491965212
175.0, 0.0851027438130417
176.0, 0.10112962805103667
177.0, 0.11776605114900013
178.0, 0.14063146319798883
179.0, 0.17346946925540427
180.0, 0.216986753457873
181.0, 0.27512228385212356
182.0, 0.3450696878448434
183.0, 0.42270684459375046
184.0, 0.49852950381611744
185.0, 0.5419616776493569
186.0, 0.5416749847134551
187.0, 0.5018498001096625
188.0, 0.4342467857645277
189.0, 0.36036154022876427
190.0, 0.3109503435198927
191.0, 0.2777807051470691
192.0, 0.2582701956542169
193.0, 0.25444428872803015
194.0, 0.2665627018109085
195.0, 0.2774615821935191
196.0, 0.2963741943143624
197.0, 0.3234930216344483
198.0, 0.34511196809990313
199.0, 0.37356298376142083
200.0, 0.4005926993804975
201.0, 0.43123937047003646
202.0, 0.473278704091449
203.0, 0.5258388448869428
204.0, 0.5811447480178664
205.0, 0.655919921987625
206.0, 0.7439678831897619
207.0, 0.8310879910363397
208.0, 0.9192059892014031
209.0, 0.9802762850862592
210.0, 0.9987598590396624
211.0, 0.9699297908944241
212.0, 0.8968643800376499
213.0, 0.8143074545298842
214.0, 0.7266675314114132
215.0, 0.6403533495393973
216.0, 0.5644197314452246
217.0, 0.5192626889873111
218.0, 0.48362812395005167
219.0, 0.45854574021624434
220.0, 0.4428813997880599
221.0, 0.43088876687042066
222.0, 0.42494008017652135
223.0, 0.4179410051903249
224.0, 0.41505841122847326
225.0, 0.4228351594678974
226.0, 0.4348118596261757
227.0, 0.43234884099573306
228.0, 0.4252633857412209
229.0, 0.4063894892430725
230.0, 0.37157737476568115
231.0, 0.33657745948047946
232.0, 0.29736106149856273
233.0, 0.2556943417772276
234.0, 0.21155406973906288
235.0, 0.1659667361863832
236.0, 0.13020654179390367
237.0, 0.11022271381010211
238.0, 0.0893443366879786
239.0, 0.0644128135341231
240.0, 0.04750271658770021
241.0, 0.035622854080195394
242.0, 0.02606947199059365
243.0, 0.018310103459924426
244.0, 0.012049780979682156
245.0, 0.005160405884350253
246.0, 0.0016539480737347034
247.0, 0.007516257983998635
248.0, 0.011880247038630028
249.0, 0.01411615013735384
250.0, 0.013663293732719189
251.0, 0.0109934171586404
252.0, 0.010012518224282535
253.0, 0.011186426942822285
254.0, 0.010258812977004947
255.0, 0.0026758376262520614
256.0, 0.00024083127237644648
257.0, 0.003078989526414031
258.0, 0.009357627978571141
259.0, 0.013670143258415129
260.0, 0.02235552816883647
261.0, 0.032918845766713854
262.0, 0.041807171432438506
263.0, 0.04989589098448018
264.0, 0.06205730850202465
265.0, 0.07578979386864293
266.0, 0.0841567165590952
267.0, 0.08580488190236558
268.0, 0.08260140299005249
269.0, 0.07830998063991579
270.0, 0.06746489772392472
271.0, 0.054648068680714944
272.0, 0.04139067349953281
273.0, 0.02971319804880519
274.0, 0.02724556055403447
275.0, 0.01996228490691534
276.0, 0.014324956040062795
277.0, 0.01348852291149295
278.0, 0.014934742551579522
279.0, 0.019275880823785764
280.0, 0.022840356655487157
281.0, 0.029246698591788106
282.0, 0.038433441301010986
283.0, 0.047295065533430505
284.0, 0.06365496915245303
285.0, 0.07519367340549314
286.0, 0.089510776960636
287.0, 0.10858182069310608
288.0, 0.1230942892229209
289.0, 0.1403219110350735
290.0, 0.15844586901294752
291.0, 0.18194860152000655
292.0, 0.21251345693257734
293.0, 0.24367026428509905
294.0, 0.2703467875552183
295.0, 0.2901868585653166
296.0, 0.3089817279736448
297.0, 0.3242247718013686
298.0, 0.32516509108646663
299.0, 0.31670528840623446
300.0, 0.29096212818559997
301.0, 0.2575516790927441
302.0, 0.22468955876099497
303.0, 0.19310655990914746
304.0, 0.1636415396584141
305.0, 0.1376483322380118
306.0, 0.11513885461238692
307.0, 0.09589558374557021
308.0, 0.07993933416481679
309.0, 0.06598827233644709
310.0, 0.05542478726888887
311.0, 0.04722135902201269
312.0, 0.040569106993627535
313.0, 0.035879052706448866
314.0, 0.02853470531420334
315.0, 0.02536871592888539
316.0, 0.024682464411121444
317.0, 0.023842549494885894
318.0, 0.025937277326502955
319.0, 0.02766629822168879
320.0, 0.029341368268525465
321.0, 0.03186253267243634
322.0, 0.035497753474980374
323.0, 0.040006582764508115
324.0, 0.050279221794530045
325.0, 0.055273245420491626
326.0, 0.05860080832608506
327.0, 0.06624245350885119
328.0, 0.07690902777742892
329.0, 0.08475080713520329
330.0, 0.09563533537802131
331.0, 0.10751309783750138
332.0, 0.11639324990437051
333.0, 0.12452142289676864
334.0, 0.13780271380762896
335.0, 0.14726508890721746
336.0, 0.1496504362419569
337.0, 0.14789399761200087
338.0, 0.14503655304580237
339.0, 0.1412684047693358
340.0, 0.13059466387710966
341.0, 0.11705838421664619
342.0, 0.10239629516902228
343.0, 0.08554319021637288
344.0, 0.07076837092279405
345.0, 0.05652414640163636
346.0, 0.04443359954140613
347.0, 0.03522930194158507
348.0, 0.027884159434488652
349.0, 0.019883094780298826
350.0, 0.012574424570902167
351.0, 0.008614842585980956
352.0, 0.006509183317723905
353.0, 0.003147891083896539
354.0, 0.00045276894143608126
355.0, 0.0029373141137044455
356.0, 0.004892635356856801
357.0, 0.003222175181884108
358.0, 0.0020969410093554346
359.0, 0.006298478875607974
360.0, 0.005679229307646188
361.0, 0.011799075900462452
362.0, 0.019521723297797184
363.0, 0.022649544478402454
364.0, 0.024953701436892056
365.0, 0.03541550049951581
366.0, 0.041208481162777644
367.0, 0.04925072135017684
368.0, 0.06245596840071854
369.0, 0.06955389170341429
370.0, 0.08084567935080174
371.0, 0.09289821410833407
372.0, 0.10364155730387477
373.0, 0.10993265218532043
374.0, 0.10802861363273143
375.0, 0.09862117931904107
376.0, 0.08516282244438693
377.0, 0.06661319540989112
378.0, 0.04808826261464177
379.0, 0.035337421341546105
380.0, 0.02215268583807431
381.0, 0.013874321422074495
382.0, 0.007116803080294288
383.0, 0.001723564343765965
384.0, 0.0014767721050508568
385.0, 0.004808545376291959
386.0, 0.007105529207823579
387.0, 0.009588198719191983
388.0, 0.008197369494780622
389.0, 0.004085149294097463
390.0, 0.0032637140717914396
391.0, 0.004814860364688531
392.0, 0.0029610741965261146
393.0, 0.0009993048455098745
394.0, 0.00018815596443144434
395.0, 0.0019523949031368456
396.0, 0.005675943137753006
397.0, 0.008218949046932137
398.0, 0.010411775275043916
399.0, 0.01270301584910742
400.0, 0.014049492873688714
401.0, 0.013875739837549288
402.0, 0.016534275369225384
403.0, 0.020445762131189846
404.0, 0.019278768844658793
405.0, 0.018840266096495056
406.0, 0.025916297477121205
407.0, 0.028486779793579227
408.0, 0.030171124079952198
409.0, 0.031978701875420464
410.0, 0.0344040363606365
411.0, 0.037554505216837786
412.0, 0.040959920773072964
413.0, 0.047957176454118115
414.0, 0.05230817555745123
415.0, 0.0591892718834632
416.0, 0.0695112955081326
417.0, 0.07909798413629578
418.0, 0.09732813721652221
419.0, 0.1131895044611683
420.0, 0.13202570802292918
421.0, 0.15633313631967888
422.0, 0.1827741461316579
423.0, 0.20681434407265
424.0, 0.2342155454488611
425.0, 0.2755363033933405
426.0, 0.3240403989229153
427.0, 0.38074606860423194
428.0, 0.454296188274007
429.0, 0.525966211327635
430.0, 0.6009719260959459
431.0, 0.674342225323909
432.0, 0.7158695053927316
433.0, 0.693842905551756
434.0, 0.6129966041210206
435.0, 0.5042009656440108
436.0, 0.4066371940363221
437.0, 0.32126887155646994
438.0, 0.2490042387597414
439.0, 0.19770800420504478
440.0, 0.1581436182828137
441.0, 0.13120910489727058
442.0, 0.10741848402687604
443.0, 0.08728240118031849
444.0, 0.07357875805799657
445.0, 0.06145053923353338
446.0, 0.05152328908270583
447.0, 0.04232085732499388
448.0, 0.03567406442742988
449.0, 0.03240132609259885
450.0, 0.031150654064634072
451.0, 0.030055283888337
452.0, 0.030395034157157847
453.0, 0.03136005209056043
454.0, 0.03203773448058459
455.0, 0.03310059568070294
456.0, 0.036269495723917904
457.0, 0.03961695728027311
458.0, 0.04516285950290173
459.0, 0.04986162167171511
460.0, 0.05566946112452793
461.0, 0.06338304998613155
462.0, 0.06244181969872476
463.0, 0.05977057906468925
464.0, 0.05882876038167503
465.0, 0.053509622336783115
466.0, 0.04354492508429981
467.0, 0.035526153850487165
468.0, 0.03210661288210679
469.0, 0.025667717868032614
470.0, 0.020747205605470696
471.0, 0.013351588410211196
472.0, 0.005689257857577375
473.0, 0.010822407975557644
474.0, 0.006120830920868889
475.0, 0.0026361888154198
476.0, 0.0011965302169593618
477.0, 0.0011450932942524375
478.0, 0.0024684569715606886
479.0, 0.005274258771037233
480.0, 0.008708038162908426
481.0, 0.012529411106374188
482.0, 0.0159205490967752
483.0, 0.01962763367673883
484.0, 0.023649132550427023
485.0, 0.024173626751185253
486.0, 0.02156482497991749
487.0, 0.020771583237683713
488.0, 0.01806125532216586
489.0, 0.013459994506989292
490.0, 0.009960161730866397
491.0, 0.0028441973112011136
492.0, 0.0007247164594675668
493.0, 0.0019313458801427138
494.0, 0.0032154646760081
495.0, 0.005508276001445434
496.0, 0.007796558948905792
497.0, 0.0068710921571225585
498.0, 0.0037281105305858463
499.0, 0.003571853508588088
500.0, 0.0033503524122034875
501.0, 0.000672137703869242
502.0, 0.004073105719026875
503.0, 0.006805708825508302
504.0, 0.0072891170906271875
505.0, 0.006308721600657286
506.0, 0.007673373072458588
507.0, 0.011463915730765658
508.0, 0.014097502929155877
509.0, 0.0163307094665183
510.0, 0.021368074406704546
511.0, 0.025364535392831605
512.0, 0.024903656302268144
513.0, 0.0219047577759213
514.0, 0.0231531985395069
515.0, 0.024664805392302536
516.0, 0.02743901456930271
517.0, 0.025492516188031517
518.0, 0.02196761834448094
519.0, 0.02072924094166928
520.0, 0.019631503760470993
521.0, 0.014990078383784706
522.0, 0.019458922671593916
523.0, 0.0232648986565341
524.0, 0.020251499776311396
525.0, 0.01647963133296483
526.0, 0.022732211118213334
527.0, 0.02394945984356747
528.0, 0.026729642192507855
529.0, 0.030343908436742915
530.0, 0.03203888721679711
531.0, 0.03523945850542446
532.0, 0.04256455897214617
533.0, 0.041924832906262643
534.0, 0.045838666591411836
535.0, 0.04754901231521319
536.0, 0.05120060424097793
537.0, 0.05501769423193711
538.0, 0.052665509919285015
539.0, 0.05317328535354946
540.0, 0.04688365906477537
541.0, 0.04676923538327372
542.0, 0.043984710081247276
543.0, 0.03692700932726176
544.0, 0.03222314680607448
545.0, 0.028975586688360314
546.0, 0.026856383682777405
547.0, 0.026957556924400217
548.0, 0.022044009533283716
549.0, 0.01886459871619724
550.0, 0.023004269396147477
551.0, 0.02188964388252215
552.0, 0.01937861866207034
553.0, 0.014881389061872285
554.0, 0.015402663992883174
555.0, 0.017701240719001674
556.0, 0.018811855461914283
557.0, 0.021400657907005502
558.0, 0.022301869004781354
559.0, 0.027775604789101425
560.0, 0.0328945802618353
561.0, 0.03841899856048192
562.0, 0.043964785765884785
563.0, 0.046663614919798195
564.0, 0.05435569728509519
565.0, 0.0656419492027725
566.0, 0.07448395875578033
567.0, 0.08593971276404111
568.0, 0.10081901845658289
569.0, 0.11609098526846823
570.0, 0.13447926102828286
571.0, 0.1542675415928517
572.0, 0.1735773641639786
573.0, 0.1969889576422623
574.0, 0.22328730691266818
575.0, 0.2495404793876488
576.0, 0.278213760726008
577.0, 0.3045197155876721
578.0, 0.3290140599624306
579.0, 0.3572688648838988
580.0, 0.38686017189950034
581.0, 0.4135105573975589
582.0, 0.4357860872183305
583.0, 0.4492347385909998
584.0, 0.44413894291324774
585.0, 0.4354377158286726
586.0, 0.4161827415343424
587.0, 0.3856165358807883
588.0, 0.35118135263455386
589.0, 0.30860851832849445
590.0, 0.27280253278776034
591.0, 0.2438536258282803
592.0, 0.21071048508759188
593.0, 0.17611996807013536
594.0, 0.1481723860258027
595.0, 0.1290410157966079
596.0, 0.10536212891795596
597.0, 0.08637681126025727
598.0, 0.07253226681886042
599.0, 0.06092083743259087
600.0, 0.049143893733129045
601.0, 0.03710461739719605
602.0, 0.0263055891816934
603.0, 0.018925482582336083
604.0, 0.020936510180443835
605.0, 0.016796419139145292
606.0, 0.009948326417846374
607.0, 0.0049569307173318805
608.0, 8.608712387937916e-05
609.0, 0.001683057536257996
610.0, 0.00046220381630250476
611.0, 0.002484432849304993
612.0, 0.0046412892483907835
613.0, 0.0036462242588023706
614.0, 0.0009049539691423465
615.0, 0.0015871750075317538
616.0, 0.002620680310430883
617.0, 0.001874592827196166
618.0, 0.0017296639953576765
619.0, 0.0055454090779754935
620.0, 0.008062361775016472
621.0, 0.009279630669852292
622.0, 0.009861821352398912
623.0, 0.010725638095465536
624.0, 0.014433501753245355
625.0, 0.01668838784053888
626.0, 0.01919996484393283
627.0, 0.02289237784230909
628.0, 0.024528019060315626
629.0, 0.023735467791841967
630.0, 0.023825427272413147
631.0, 0.02581746255651867
632.0, 0.030401318523083212
633.0, 0.03613597059852122
634.0, 0.038379958997973175
635.0, 0.036100638273972814
636.0, 0.04349816361342848
637.0, 0.04950622991568439
638.0, 0.05136508006871965
639.0, 0.05450402396231868
640.0, 0.059305864905951244
641.0, 0.06541889448578217
642.0, 0.07396847509769362
643.0, 0.07495811429410738
644.0, 0.08628781324384742
645.0, 0.09611846904879977
646.0, 0.10656547454131787
647.0, 0.11786788343880397
648.0, 0.1278737587691276
649.0, 0.13899504424239392
650.0, 0.15236303831739004
651.0, 0.1694144538145223
652.0, 0.1861275285942696
653.0, 0.19671351157324737
654.0, 0.20678602474456098
655.0, 0.22307814371099663
656.0, 0.24218252273324353
657.0, 0.2547611546551193
658.0, 0.2665523541037093
659.0, 0.2744917036059904
660.0, 0.2901205037019543
661.0, 0.303688879973922
662.0, 0.30162826898223677
663.0, 0.2938859119635468
664.0, 0.2990168689192346
665.0, 0.2829477974026896
666.0, 0.2682402308867601
667.0, 0.2573233794833783
668.0, 0.2460816408165174
669.0, 0.22950640877506134
670.0, 0.20563809188027418
671.0, 0.18877610033975953
672.0, 0.17006082123782412
673.0, 0.1553816534534595
674.0, 0.13668867401598128
675.0, 0.12017269817131836
676.0, 0.11129779018693407
677.0, 0.10239424544117987
678.0, 0.09152558858175226
679.0, 0.08037094243188685
680.0, 0.0704175806909865
681.0, 0.06094050215288968
682.0, 0.05427900924218672
683.0, 0.048274305433824195
684.0, 0.040403649875789656
685.0, 0.035445611914291034
686.0, 0.03213542856704502
687.0, 0.029107171987166343
688.0, 0.02413907725439436
689.0, 0.02105850830252651
690.0, 0.02053311635981968
691.0, 0.019340223056000003
692.0, 0.015993253771536323
693.0, 0.013596653337944813
694.0, 0.012604490337191389
695.0, 0.009037586248937326
696.0, 0.005740839933696765
697.0, 0.003499111979879305
698.0, 0.0015564838027981233
699.0, 0.0009782533413356697
700.0, 0.0028370950490787627
701.0, 0.005489081683639546
702.0, 0.002817917227805567
703.0, 0.0005670661688821558
704.0, 0.0010884290977647385
705.0, 0.00030095035823078664
706.0, 0.0007608566176685311
707.0, 0.0018331532092367236
708.0, 0.00020188110418754466
709.0, 0.0014392356552405936
710.0, 0.0013722023216949737
711.0, 0.0019559131805202234
712.0, 0.002352685512329552
713.0, 0.0015846732419036577
714.0, 0.002468427547453069
715.0, 0.0019003880640072282
716.0, 0.002055675733120396
717.0, 0.0006902435932363713
718.0, 0.0012709034234566795
719.0, 0.00130940137594602
720.0, 0.001638492931862624
721.0, 0.0004386459539993861
722.0, 0.00047988869754400014
723.0, 0.0038335659408300724
724.0, 0.0037182206093074326
725.0, 0.0037193479771951534
726.0, 0.002489594829817699
727.0, 0.002634872431886738
728.0, 0.002721171051593054
729.0, 0.00035043674343966175
730.0, 0.0011457202639098545
731.0, 0.0005326750467845536
732.0, 0.0008557540081636057
733.0, 0.002233520429840072
734.0, 0.0018152412178736666
735.0, 0.0008126286662460702
736.0, 0.0009764044299232278
737.0, 0.0028127889103828703
738.0, 0.004595927311513704
739.0, 0.0011167712109376757
740.0, 0.0012827507831995413
741.0, 0.0029982229575033353
742.0, 0.003191508475352473
743.0, 0.004078248314576218
744.0, 0.005395791123104111
745.0, 0.003454144437347269
746.0, 0.00025169048792113313
747.0, 0.0031563333302865723
748.0, 0.00601083775083043
749.0, 0.007395905449609986
750.0, 0.010554351103834212
751.0, 0.013075263302213246
752.0, 0.013732547655527295
753.0, 0.016554410631946417
754.0, 0.019296181122129295
755.0, 0.02259107887012499
756.0, 0.024334896913748075
757.0, 0.02666974896042455
758.0, 0.03285777042715065
759.0, 0.04031236206747484
760.0, 0.04361463486624315
761.0, 0.04393106659138784
762.0, 0.04958132319173387
763.0, 0.05183960781297805
764.0, 0.054181824667768434
765.0, 0.054432097323117275
766.0, 0.05468408082050058
767.0, 0.0527451409200302
768.0, 0.049427573892217594
769.0, 0.050891993262063166
770.0, 0.04510958962723775
771.0, 0.03884990760209449
772.0, 0.03197751229176845
773.0, 0.027751395157463676
774.0, 0.027233134710114102
775.0, 0.026143785588758694
776.0, 0.024854351612039062
777.0, 0.025105071892043127
778.0, 0.022444481604773057
779.0, 0.023563305463208777
780.0, 0.023619685863126464
781.0, 0.02554501879343532
782.0, 0.026143304309307554
783.0, 0.027032730758005063
784.0, 0.030801764826063137
785.0, 0.03651767374750757
786.0, 0.042408463486751966
787.0, 0.04863433983824601
788.0, 0.05206851837710986
789.0, 0.05299995295225995
790.0, 0.05972579123535809
791.0, 0.06038678834311105
792.0, 0.05709321015703825
793.0, 0.05536725798814963
794.0, 0.047884219813546805
795.0, 0.04327108291276693
796.0, 0.03989787761242709
797.0, 0.034186994822954404
798.0, 0.02693677716995285
799.0, 0.02004922009421006
800.0, 0.01236023711200871
801.0, 0.008364514187560006
802.0, 0.011278990793684218
803.0, 0.011728195572451455
804.0, 0.005175293286173267
805.0, 0.004236714725923899
806.0, 0.006852477701805601
807.0, 0.005960167803051914
808.0, 0.005963609911313896
809.0, 0.004778960725791834
810.0, 0.0012914397345074437
811.0, 0.002524294310754884
812.0, 0.0036916658869852784
813.0, 0.0032982418850299087
814.0, 0.003035340606534957
815.0, 0.0034976050844677505
816.0, 0.004367386527866574
817.0, 0.0039777705627639555
818.0, 0.0043767439197241595
819.0, 0.007209536276907845
820.0, 0.009919111028115038
821.0, 0.010847516160752704
822.0, 0.011010624381312683
823.0, 0.011084309107759125
824.0, 0.012713453986816654
825.0, 0.011431698732957386
826.0, 0.013358192724999178
827.0, 0.01753155929405792
828.0, 0.01781003254231772
829.0, 0.01812840741736527
830.0, 0.015744750382967538
831.0, 0.020708638187370367
832.0, 0.021014293729162956
833.0, 0.023375930806056856
834.0, 0.026850028801521143
835.0, 0.028380731899109456
836.0, 0.026770196722217407
837.0, 0.024566365988556365
838.0, 0.026089956381100492
839.0, 0.028504011391254937
840.0, 0.02631673732107874
841.0, 0.027878417410250732
842.0, 0.03157216555278693
843.0, 0.034097122460529455
844.0, 0.03468280407763918
845.0, 0.033624495366459714
846.0, 0.03322087548766381
847.0, 0.03419969063942401
848.0, 0.032962419806991744
849.0, 0.03267636968136527
850.0, 0.030538164285937402
851.0, 0.034372603326690634
852.0, 0.03454690426951163
853.0, 0.03449374078861816
854.0, 0.033599146765246744
855.0, 0.028842910686237205
856.0, 0.025748370567079654
857.0, 0.02703292168588997
858.0, 0.024424702067645295
859.0, 0.026272670119776003
860.0, 0.024531060015350627
861.0, 0.017258722914893204
862.0, 0.015300762415838998
863.0, 0.016788501142651922
864.0, 0.0165034186572527
865.0, 0.014910757279960883
866.0, 0.01404230595326749
867.0, 0.010340144274256472
868.0, 0.007975811337147904
869.0, 0.009434425362611349
870.0, 0.007256421750034472
871.0, 0.006376452088683793
872.0, 0.009832238481645406
873.0, 0.012837895073786174
874.0, 0.009889725725475192
875.0, 0.005183519228982937
876.0, 0.0056334959260474935
877.0, 0.0018192962516212293
878.0, 0.0032817043854746503
879.0, 0.0037463947473348755
880.0, 0.0065664247534502375
881.0, 0.008138557542006026
882.0, 0.005000273936132441
883.0, 0.002900634356072332
884.0, 0.004176698741932923
885.0, 0.00402502542148842
886.0, 0.0044096028481635866
887.0, 0.0038629716942416826
888.0, 0.0038536560251813323
889.0, 0.0033571827340265602
890.0, 0.005492009972659587
891.0, 0.00686978781947557
892.0, 0.0032446496246361888
893.0, 0.002060305977441668
894.0, 0.0038853610853218936
895.0, 0.003419581332454592
896.0, 0.002846901659975846
897.0, 0.0005914765719169028
898.0, 0.004935183578336067
899.0, 0.003099886058560898
900.0, 0.005367370917781014
901.0, 0.00456737851847346
902.0, 0.0013085076357324805
903.0, 0.0011300360739259518
904.0, 0.000755990826838193
905.0, 0.0013904465684925766
906.0, 0.00010208840296869062
907.0, 0.0011196813858387982
908.0, 0.004611662519992317
909.0, 0.002911660099819256
910.0, 0.0013977658013164533
911.0, 0.0021690858061720005
912.0, 0.0036333755850928586
913.0, 0.003652943086751154
914.0, 0.00410968335420396
915.0, 0.004401272533328229
916.0, 0.0021639815914955905
917.0, 0.0020428238765008463
918.0, 0.0036649241955652636
919.0, 0.001997624343426128
920.0, 0.0005795574200380637
921.0, 4.916494041023304e-05
922.0, 0.0005541609220204617
923.0, 0.0006802595575489233
924.0, 0.0011943618686650734
925.0, 0.0015835725975394581
926.0, 0.0011584706718292506
927.0, 0.0017361774308118018
928.0, 0.0052424724829755204
929.0, 0.0007832873708309895
930.0, 0.002301721605173561
931.0, 0.005424477335379255
932.0, 0.003259052281709712
933.0, 0.005003525797885042
934.0, 0.0049777721858575335
935.0, 0.0011613255045163624
936.0, 0.002314489487354559
937.0, 0.0017315133728462463
938.0, 0.004328404973121944
939.0, 0.0026601031296113165
940.0, 0.0028792595881458583
941.0, 0.0014964037425919917
942.0, 0.0014536163995848444
943.0, 0.002439548192805093
944.0, 0.0004982964612971957
945.0, 0.002789190054291757
946.0, 0.001411882475081527
947.0, 0.0019050526963270093
948.0, 0.00426286638709483
949.0, 0.0039093403418002035
950.0, 0.0037636612621094654
951.0, 0.002853724260435571
952.0, 0.0037035618014024103
953.0, 0.005780229719097998
954.0, 0.0016730117655553228
955.0, 0.0055637644257691
956.0, 0.004869598198249333
957.0, 0.005927234111519194
958.0, 0.008237069885042643
959.0, 0.006533627062749142
960.0, 0.006510801841160529
961.0, 0.005947400985703734
962.0, 0.007656116003208242
963.0, 0.006857676703955419
964.0, 0.009734323277316907
965.0, 0.006729237346819444
966.0, 0.008282189807182523
967.0, 0.009324077791798236
968.0, 0.012186343313465102
969.0, 0.01610114846445793
970.0, 0.017629731375398708
971.0, 0.01678126197310385
972.0, 0.014470667001967816
973.0, 0.010635146260119207
974.0, 0.006216937710727053
975.0, 0.007495229623482617
976.0, 0.005398404666149352
977.0, 0.005041946613744212
978.0, 0.006811068655302602
979.0, 0.003787127916008822
980.0, 0.0015967478056000137
981.0, 0.0015428487509659941
982.0, 0.0010187521580858
983.0, 0.002728807634995667
984.0, 0.0008791534689358659
985.0, 0.0010706265662632872
986.0, 0.0005976871185830306
987.0, 0.004078314985969225
988.0, 0.004296652988458918
989.0, 0.004756453884057629
990.0, 0.005518895394418583
991.0, 0.007375400009328532
992.0, 0.010014920767978244
993.0, 0.007358252928813179
994.0, 0.008198985302601429
995.0, 0.015541790374142928
996.0, 0.017341262932089766
997.0, 0.016101529472993613
998.0, 0.020784999532592816
999.0, 0.021255327143961646
1000.0, 0.026321041801876405
1001.0, 0.02701026054841751
1002.0, 0.03082551650712955
1003.0, 0.03681302570576441
1004.0, 0.043680187032849226
1005.0, 0.04586324046302768
1006.0, 0.04570718534512854
1007.0, 0.04624968309748341
1008.0, 0.04506533928337474
1009.0, 0.040676215615707424
1010.0, 0.035825507241889064
1011.0, 0.03200008727661708
1012.0, 0.02539175328280605
1013.0, 0.023413036978145597
1014.0, 0.015405946070907268
1015.0, 0.01153386514794663
1016.0, 0.010759844891897838
1017.0, 0.00921159230030103
1018.0, 0.005862559282790912
1019.0, 0.00673357227755441
1020.0, 0.007335743524998688
1021.0, 0.004322518422170734
1022.0, 0.004738907108944026
1023.0, 0.007361656730654982
1024.0, 0.005245279187869534
1025.0, 0.004394474500234062
1026.0, 0.0047529645552009045
1027.0, 0.010684844272582329
1028.0, 0.014690449426231756
1029.0, 0.020254768826281373
1030.0, 0.02068793112736864
1031.0, 0.027854606779555847
1032.0, 0.026399185213942463
1033.0, 0.023904444316412636
1034.0, 0.024280403642072082
1035.0, 0.025737632240525086
1036.0, 0.031570138059220425
1037.0, 0.035132006953017395
1038.0, 0.04069055767862162
1039.0, 0.04858915625463885
1040.0, 0.04771334716990222
1041.0, 0.05527893416683458
1042.0, 0.06346845625318898
1043.0, 0.07131867760541051
1044.0, 0.08055739392334269
1045.0, 0.0975423798996123
1046.0, 0.11585806395371505
1047.0, 0.13347138729610383
1048.0, 0.15703216366003428
1049.0, 0.18709349732811842
1050.0, 0.21856009696137613
1051.0, 0.2560040201765326
1052.0, 0.3076760025891858
1053.0, 0.35491593435170826
1054.0, 0.4174824676021657
1055.0, 0.4826503519084543
1056.0, 0.5489004850925946
1057.0, 0.6065405472891375
1058.0, 0.6665314861273427
1059.0, 0.6919737003930538
1060.0, 0.6869098390890451
1061.0, 0.6572418917254313
1062.0, 0.5913608044092549
1063.0, 0.5079778417557811
1064.0, 0.4283771957227165
1065.0, 0.3566339994877347
1066.0, 0.29433828397974066
1067.0, 0.2381660285689211
1068.0, 0.19421972899204618
1069.0, 0.1546478420901074
1070.0, 0.12868512854890682
1071.0, 0.10001304421489317
1072.0, 0.0847284348789544
1073.0, 0.07271697786678254
1074.0, 0.06032421038972176
1075.0, 0.04953606485239272
1076.0, 0.04062869913334327
1077.0, 0.0348585675868629
1078.0, 0.026111839538078004
1079.0, 0.01714799152756272
1080.0, 0.01387860115015846
1081.0, 0.013366928502890653
1082.0, 0.01271049681513094
1083.0, 0.011256293571388326
1084.0, 0.01245661366758513
1085.0, 0.012983485420796482
1086.0, 0.005666041384437422
1087.0, 0.0022159168903069515
1088.0, 0.002342268891714015
1089.0, 0.0010582989214824997
1090.0, 0.0003257540202752546
1091.0, 0.0018875860718872816
1092.0, 0.00332901490517611
1093.0, 0.0014484554758577863
1094.0, 0.00034810936051787476
1095.0, 0.0009323137785715641
1096.0, 0.0014599781939271931
1097.0, 0.003589506652200874
1098.0, 0.0004673661348263459
1099.0, 0.0010362680502031163
1100.0, 0.001668984457705224
1101.0, 0.005482387446820044
1102.0, 0.008601989268937077
1103.0, 0.009678946610940981
1104.0, 0.012819549439915756
1105.0, 0.015715793290419902
1106.0, 0.01664220092044
1107.0, 0.024553838540464702
1108.0, 0.0323200209861144
1109.0, 0.03993379729178558
1110.0, 0.046099044250728305
1111.0, 0.048752672690765886
1112.0, 0.0512797888905761
1113.0, 0.053826549433754194
1114.0, 0.05675625618538153
1115.0, 0.05813352950232933
1116.0, 0.05284348383017093
1117.0, 0.04621410170043507
1118.0, 0.03901253056810222
1119.0, 0.034956405039614315
1120.0, 0.022299246108721662
1121.0, 0.01633616385637185
1122.0, 0.009483828893858508
1123.0, 0.010951322438249278
1124.0, 0.008329780873544596
1125.0, 0.005938693472466686
1126.0, 0.0017153947682213627
1127.0, 0.003460507428444918
1128.0, 0.0031478278397776213
1129.0, 0.0003390499147800702
1130.0, 0.0004213850382874194
1131.0, 0.0010431075862270406
1132.0, 0.002403043789350452
1133.0, 0.001124297579760413
1134.0, 0.0017332268291567416
1135.0, 0.003987471536873154
1136.0, 0.0024672748994796195
1137.0, 0.0030351045206630884
1138.0, 0.00044518593213699716
1139.0, 0.0008460206879947933
1140.0, 0.00213984938059166
1141.0, 0.00047531310581678914
1142.0, 0.0009567004897360135
1143.0, 0.0013965566560513892
1144.0, 0.0012296292222738776
1145.0, 0.0015471734221783166
1146.0, 0.0014053388596857858
1147.0, 0.0006060650815455249
1148.0, 0.0005251065949422179
1149.0, 0.0013897052229649605
1150.0, 0.002785330822868482
1151.0, 0.0033674984720384687
1152.0, 0.0029716741798334555
1153.0, 0.0035668793269017806
1154.0, 0.005311702192652571
1155.0, 0.0056569721591669155
1156.0, 0.0012629062044673901
1157.0, 0.004274981816046951
1158.0, 0.0012075296566018466
1159.0, 0.002340802120601862
1160.0, 0.0006732010450761593
1161.0, 0.0030581362327176146
1162.0, 0.0018367718014898988
1163.0, 0.00037667007542931943
1164.0, 0.002994838280442521
1165.0, 0.0009267455451086331
1166.0, 0.001747841105073121
1167.0, 0.00154642576637632
1168.0, 0.0002356809180406091
1169.0, 0.002092326792617721
1170.0, 0.005026736387003703
1171.0, 0.005093147050511532
1172.0, 0.006157523554042513
1173.0, 0.00473562695554155
1174.0, 0.0028589412586947248
1175.0, 0.003448774355758226
1176.0, 0.0029532787148936284
1177.0, 0.0018121425044392663
1178.0, 0.0024011858378774984
1179.0, 0.00336868598344647
1180.0, 0.004299541048346993
1181.0, 0.007269895748138516
1182.0, 0.00704801662458933
1183.0, 0.004991829171466376
1184.0, 0.002633376099190255
1185.0, 0.005028350168000683
1186.0, 0.00502146475466028
1187.0, 0.004998093884595821
1188.0, 0.006060813383371323
1189.0, 0.0064852742856663
1190.0, 0.005092417988780409
1191.0, 0.003885073861457383
1192.0, 0.006738608847062915
1193.0, 0.004033837178662932
1194.0, 0.0038428349581624607
1195.0, 0.0036052350755095912
1196.0, 0.0037605435517503965
1197.0, 0.0018543061724659933
1198.0, 0.0025267875395741865
1199.0, 0.0029365106173388587
1200.0, 0.0030654733648486886
1201.0, 0.00470458506392891
1202.0, 0.003719332194585976
1203.0, 0.002706527174107589
1204.0, 0.0008735510847627983
1205.0, 0.003058905822902738
1206.0, 0.0016770429410864155
1207.0, 0.0003899008918646124
1208.0, 0.0030406167737487117
1209.0, 0.0042472260470592434
1210.0, 0.004878104898052099
1211.0, 0.004970585834658771
1212.0, 0.0013024423066655437
1213.0, 0.001273778711568443
1214.0, 0.0036820577870215754
1215.0, 0.0022070108696873817
1216.0, 0.002488842127004799
1217.0, 0.0028013807614666953
1218.0, 0.000500598689894664
1219.0, 0.0018315828307858997
1220.0, 0.00337067476097864
1221.0, 0.004179678748469362
1222.0, 0.0034060819043511895
1223.0, 0.0005297489724108704
1224.0, 0.0011269589211376002
1225.0, 0.004365629795698651
1226.0, 0.004581367098159083
1227.0, 0.0018274831229784724
1228, 0.0
1229, 0.0
1230, 0.0
1231, 0.0
1232, 0.0
1233, 0.0
1234, 0.0
1235, 0.0
1236, 0.0
1237, 0.0
1238, 0.0
1239, 0.0
1240, 0.0
1241, 0.0
1242, 0.0
1243, 0.0
1244, 0.0
1245, 0.0
1246, 0.0
1247, 0.0
1248, 0.0
1249, 0.0
1250, 0.0
1251, 0.0
1252, 0.0
1253, 0.0
1254, 0.0
1255, 0.0
1256, 0.0
1257, 0.0
1258, 0.0
1259, 0.0
1260, 0.0
1261, 0.0
1262, 0.0
1263, 0.0
1264, 0.0
1265, 0.0
1266, 0.0
1267, 0.0
1268, 0.0
1269, 0.0
1270, 0.0
1271, 0.0
1272, 0.0
1273, 0.0
1274, 0.0
1275, 0.0
1276, 0.0
1277, 0.0
1278, 0.0
1279, 0.0
1280, 0.0
1281, 0.0
1282, 0.0
1283, 0.0
1284, 0.0
1285, 0.0
1286, 0.0
1287, 0.0
1288, 0.0
1289, 0.0
1290, 0.0
1291, 0.0
1292, 0.0
1293, 0.0
1294, 0.0
1295, 0.0
1296, 0.0
1297, 0.0
1298, 0.0
1299, 0.0
1300, 0.0
1301, 0.0
1302, 0.0
1303, 0.0
1304, 0.0
1305, 0.0
1306, 0.0
1307, 0.0
1308, 0.0
1309, 0.0
1310, 0.0
1311, 0.0
1312, 0.0
1313, 0.0
1314, 0.0
1315, 0.0
1316, 0.0
1317, 0.0
1318, 0.0
1319, 0.0
1320, 0.0
1321, 0.0
1322, 0.0
1323, 0.0
1324, 0.0
1325, 0.0
1326, 0.0
1327, 0.0
1328, 0.0
1329, 0.0
1330, 0.0
1331, 0.0
1332, 0.0
1333, 0.0
1334, 0.0
1335, 0.0
1336, 0.0
1337, 0.0
1338, 0.0
1339, 0.0
1340, 0.0
1341, 0.0
1342, 0.0
1343, 0.0
1344, 0.0
1345, 0.0
1346, 0.0
1347, 0.0
1348, 0.0
1349, 0.0
1350, 0.0
1351, 0.0
1352, 0.0
1353, 0.0
1354, 0.0
1355, 0.0
1356, 0.0
1357, 0.0
1358, 0.0
1359, 0.0
1360, 0.0
1361, 0.0
1362, 0.0
1363, 0.0
1364, 0.0
1365, 0.0
1366, 0.0
1367, 0.0
1368, 0.0
1369, 0.0
1370, 0.0
1371, 0.0
1372, 0.0
1373, 0.0
1374, 0.0
1375, 0.0
1376, 0.0
1377, 0.0
1378, 0.0
1379, 0.0
1380, 0.0
1381, 0.0
1382, 0.0
1383, 0.0
1384, 0.0
1385, 0.0
1386, 0.0
1387, 0.0
1388, 0.0
1389, 0.0
1390, 0.0
1391, 0.0
1392, 0.0
1393, 0.0
1394, 0.0
1395, 0.0
1396, 0.0
1397, 0.0
1398, 0.0
1399, 0.0
1400, 0.0
1401, 0.0
1402, 0.0
1403, 0.0
1404, 0.0
1405, 0.0
1406, 0.0
1407, 0.0
1408, 0.0
1409, 0.0
1410, 0.0
1411, 0.0
1412, 0.0
1413, 0.0
1414, 0.0
1415, 0.0
1416, 0.0
1417, 0.0
1418, 0.0
1419, 0.0
1420, 0.0
1421, 0.0
1422, 0.0
1423, 0.0
1424, 0.0
1425, 0.0
1426, 0.0
1427, 0.0
1428, 0.0
1429, 0.0
1430, 0.0
1431, 0.0
1432, 0.0
1433, 0.0
1434, 0.0
1435, 0.0
1436, 0.0
1437, 0.0
1438, 0.0
1439, 0.0
1440, 0.0
1441, 0.0
1442, 0.0
1443, 0.0
1444, 0.0
1445, 0.0
1446, 0.0
1447, 0.0
1448, 0.0
1449, 0.0
1450, 0.0
1451, 0.0
1452, 0.0
1453, 0.0
1454, 0.0
1455, 0.0
1456, 0.0
1457, 0.0
1458, 0.0
1459, 0.0
1460, 0.0
1461, 0.0
1462, 0.0
1463, 0.0
1464, 0.0
1465, 0.0
1466, 0.0
1467, 0.0
1468, 0.0
1469, 0.0
1470, 0.0
1471, 0.0
1472, 0.0
1473, 0.0
1474, 0.0
1475, 0.0
1476, 0.0
1477, 0.0
1478, 0.0
1479, 0.0
1480, 0.0
1481, 0.0
1482, 0.0
1483, 0.0
1484, 0.0
1485, 0.0
1486, 0.0
1487, 0.0
1488, 0.0
1489, 0.0
1490, 0.0
1491, 0.0
1492, 0.0
1493, 0.0
1494, 0.0
1495, 0.0
1496, 0.0
1497, 0.0
1498, 0.0
1499, 0.0
1500, 0.0
1501, 0.0
1502, 0.0
1503, 0.0
1504, 0.0
1505, 0.0
1506, 0.0
1507, 0.0
1508, 0.0
1509, 0.0
1510, 0.0
1511, 0.0
1512, 0.0
1513, 0.0
1514, 0.0
1515, 0.0
1516, 0.0
1517, 0.0
1518, 0.0
1519, 0.0
1520, 0.0
1521, 0.0
1522, 0.0
1523, 0.0
1524, 0.0
1525, 0.0
1526, 0.0
1527, 0.0
1528, 0.0
1529, 0.0
1530, 0.0
1531, 0.0
1532, 0.0
1533, 0.0
1534, 0.0
1535, 0.0
1536, 0.0
1537, 0.0
1538, 0.0
1539, 0.0
1540, 0.0
1541, 0.0
1542, 0.0
1543, 0.0
1544, 0.0
1545, 0.0
1546, 0.0
1547, 0.0
1548, 0.0
1549, 0.0
1550, 0.0
1551, 0.0
1552, 0.0
1553, 0.0
1554, 0.0
1555, 0.0
1556, 0.0
1557, 0.0
1558, 0.0
1559, 0.0
1560, 0.0
1561, 0.0
1562, 0.0
1563, 0.0
1564, 0.0
1565, 0.0
1566, 0.0
1567, 0.0
1568, 0.0
1569, 0.0
1570, 0.0
1571, 0.0
1572, 0.0
1573, 0.0
1574, 0.0
1575, 0.0
1576, 0.0
1577, 0.0
1578, 0.0
1579, 0.0
1580, 0.0
1581, 0.0
1582, 0.0
1583, 0.0
1584, 0.0
1585, 0.0
1586, 0.0
1587, 0.0
1588, 0.0
1589, 0.0
1590, 0.0
1591, 0.0
1592, 0.0
1593, 0.0
1594, 0.0
1595, 0.0
1596, 0.0
1597, 0.0
1598, 0.0
1599, 0.0
