30, 0.0
31, 0.0
32, 0.0
33, 0.0
34, 0.0
35, 0.0
36, 0.0
37, 0.0
38, 0.0
39, 0.0
40, 0.0
41, 0.0
42, 0.0
43, 0.0
44, 0.0
45, 0.0
46, 0.0
47, 0.0
48, 0.0
49, 0.0
50, 0.0
51, 0.0
52, 0.0
53, 0.0
54, 0.0
55, 0.0
56, 0.0
57, 0.0
58, 0.0
59, 0.0
60, 0.0
61, 0.0
62, 0.0
63, 0.0
64, 0.0
65, 0.0
66, 0.0
67, 0.0
68, 0.0
69, 0.0
70, 0.0
71, 0.0
72, 0.0
73, 0.0
74, 0.0
75, 0.0
76, 0.0
77, 0.0
78, 0.0
79, 0.0
80, 0.0
81, 0.0
82, 0.0
83, 0.0
84, 0.0
85, 0.0
86, 0.0
87, 0.0
88, 0.0
89, 0.0
90, 0.0
91, 0.0
92, 0.0
93, 0.0
94, 0.0
95, 0.0
96, 0.0
97, 0.0
98, 0.0
99, 0.0
100, 0.0
101, 0.0
102, 0.0
103, 0.0
104, 0.0
105, 0.0
106, 0.0
107, 0.0
108, 0.0
109, 0.0
110, 0.0
111, 0.0
112, 0.0
113, 0.0
114, 0.0
115, 0.0
116, 0.0
117, 0.0
118, 0.0
119, 0.0
120, 0.0
121, 0.0
122, 0.0
123, 0.0
124, 0.0
125, 0.0
126, 0.0
127, 0.0
128, 0.0
129, 0.0
130, 0.0
131, 0.0
132, 0.0
133, 0.0
134, 0.0
135, 0.0
136, 0.0
137, 0.0
138, 0.0
139, 0.0
140, 0.0
141, 0.0
142, 0.0
143, 0.0
144, 0.0
145.0, 5.2633486739599766e-05
146.0, 0.0002489055032670677
147.0, 0.003026260847612092
148.0, 0.007873874064852071
149.0, 0.013840811946239154
150.0, 0.02316967890902286
151.0, 0.031099958110769422
152.0, 0.03519586290699289
153.0, 0.034863492878837686
154.0, 0.0307151245933895
155.0, 0.025278948372357207
156.0, 0.020616774597705115
157.0, 0.014725565131755342
158.0, 0.009715198569487844
159.0, 0.0068800932521030774
160.0, 0.004610036427890578
161.0, 0.0023686148448325696
162.0, 0.0008384012805191532
163.0, 0.00014440290695222758
164.0, 0.00011036802931790036
165.0, 0.0003108396864443019
166.0, 0.0013024606691928022
167.0, 0.0014901252233716596
168.0, 0.00023848523550721896
169.0, 0.0005217898488246565
170.0, 0.000252677680594165
171.0, 0.0006204965478201176
172.0, 0.0006955258716873045
173.0, 0.0004603205737313577
174.0, 0.0007075120921786152
175.0, 0.0014156026799046501
176.0, 0.002443281883569544
177.0, 0.0032632689119925055
178.0, 0.004104465490196421
179.0, 0.005623331628290972
180.0, 0.007761831828573845
181.0, 0.009696084464505395
182.0, 0.011688202243269965
183.0, 0.01417372314215417
184.0, 0.01649751550227532
185.0, 0.018618017702796138
186.0, 0.02089302451009441
187.0, 0.023425350309075093
188.0, 0.025689923013249513
189.0, 0.027665645120056793
190.0, 0.030636278590678013
191.0, 0.03437063780456601
192.0, 0.037296252571997195
193.0, 0.04173395300242333
194.0, 0.046173544969832
195.0, 0.05035329718677346
196.0, 0.054727162507691364
197.0, 0.0580703456927054
198.0, 0.061727662055655656
199.0, 0.06361455826413262
200.0, 0.06222872270926637
201.0, 0.06044374009598775
202.0, 0.05696001857929365
203.0, 0.051646681348761464
204.0, 0.04539772980486664
205.0, 0.03990369651350143
206.0, 0.032977711405881856
207.0, 0.027935968298570577
208.0, 0.02470303905612085
209.0, 0.021080848747929298
210.0, 0.01925657882241516
211.0, 0.016429240872963487
212.0, 0.014193174655438947
213.0, 0.014029154644671207
214.0, 0.013010188673225223
215.0, 0.012829175418139157
216.0, 0.01304806891769395
217.0, 0.013175885226737525
218.0, 0.013337127184056068
219.0, 0.013546251026864749
220.0, 0.01493000001087701
221.0, 0.017514038165828
222.0, 0.02081301529716564
223.0, 0.0236759614772954
224.0, 0.027854870394804405
225.0, 0.032830541120694556
226.0, 0.037897931063697286
227.0, 0.04318298937819164
228.0, 0.048396231829135904
229.0, 0.054523269670723594
230.0, 0.06130517367395484
231.0, 0.0675350395509047
232.0, 0.07398239678929609
233.0, 0.0818882214393798
234.0, 0.09041798663776911
235.0, 0.09885777762424786
236.0, 0.11102482683010377
237.0, 0.12563245950290783
238.0, 0.14041288728593673
239.0, 0.15472284677376297
240.0, 0.1696161899221817
241.0, 0.1843538515064638
242.0, 0.19627570173574024
243.0, 0.20185518511112063
244.0, 0.19861397007128623
245.0, 0.19124897001900512
246.0, 0.17737550242958608
247.0, 0.16109893017230775
248.0, 0.14633043248084543
249.0, 0.13313524050762635
250.0, 0.12597420052012326
251.0, 0.12081336551641736
252.0, 0.11592283849112452
253.0, 0.11226837358602121
254.0, 0.11153920804403455
255.0, 0.10944814437500992
256.0, 0.10703439237713201
257.0, 0.10624532440305193
258.0, 0.10573943186993691
259.0, 0.10593216524165609
260.0, 0.10729228788422016
261.0, 0.10880479581037507
262.0, 0.10852301192764521
263.0, 0.10862404009534797
264.0, 0.1064408991699293
265.0, 0.10358913223452973
266.0, 0.1021494188134475
267.0, 0.10040804268630397
268.0, 0.09776283800410167
269.0, 0.09340028366288851
270.0, 0.08737955896073805
271.0, 0.08041195795229222
272.0, 0.07111225119704168
273.0, 0.06018250296800022
274.0, 0.04920798560327226
275.0, 0.039466754973088256
276.0, 0.03182886728735494
277.0, 0.025669975956083377
278.0, 0.020372025659731525
279.0, 0.016010856072198223
280.0, 0.013403796776693136
281.0, 0.012079999440935834
282.0, 0.011115908724318262
283.0, 0.010478501143344232
284.0, 0.01049855188987494
285.0, 0.011096934080326974
286.0, 0.011386540051709935
287.0, 0.010269469394238053
288.0, 0.007979805041615055
289.0, 0.005703539700611247
290.0, 0.0026812921920596807
291.0, 0.0007295994952907431
292.0, 0.0004086015017299722
293.0, 0.0014536005896837248
294.0, 0.002102864820683941
295.0, 0.0016478058103518713
296.0, 0.0019910747190158345
297.0, 0.002796573071091671
298.0, 0.0023627622394890645
299.0, 0.0025158091536528087
300.0, 0.0027971623907534922
301.0, 0.0022689039828336947
302.0, 0.0011787132081404327
303.0, 0.0014953083750239016
304.0, 0.0008267256627650767
305.0, 0.0001297981567768576
306.0, 0.000375547339010646
307.0, 0.0007982804642997748
308.0, 0.0005852269906033711
309.0, 0.0015347797833109853
310.0, 0.003037928316618297
311.0, 0.004124301151145375
312.0, 0.00469139643477749
313.0, 0.005805063687726218
314.0, 0.0070173630237616485
315.0, 0.008214172037658297
316.0, 0.00943867091596213
317.0, 0.010362790948992649
318.0, 0.01183697441331566
319.0, 0.013956432056196868
320.0, 0.015931839862075105
321.0, 0.016926691522436838
322.0, 0.018719477860262967
323.0, 0.020519941108761944
324.0, 0.022199579508828737
325.0, 0.024554204401484547
326.0, 0.029028617009010334
327.0, 0.03266789690114197
328.0, 0.03486454621423699
329.0, 0.03778177065548626
330.0, 0.043530376158438404
331.0, 0.04817148583863195
332.0, 0.05340540818778377
333.0, 0.05767033108642438
334.0, 0.06052190116187525
335.0, 0.06348149855313238
336.0, 0.06808814202229965
337.0, 0.07294811815298612
338.0, 0.07722670043272267
339.0, 0.0815267637224444
340.0, 0.08780039736227227
341.0, 0.09360738043034639
342.0, 0.10011490386503097
343.0, 0.1092376300976869
344.0, 0.12200645105638115
345.0, 0.13607068410848824
346.0, 0.1480453095928012
347.0, 0.15147649345743686
348.0, 0.14404916194651102
349.0, 0.12893253812988248
350.0, 0.11042943039426663
351.0, 0.09447149530680637
352.0, 0.08152022711849614
353.0, 0.07097444643349977
354.0, 0.06333293688303714
355.0, 0.05646537129519629
356.0, 0.05185931387007313
357.0, 0.049180208958806655
358.0, 0.047241181334859335
359.0, 0.045849815357347286
360.0, 0.045370522564971705
361.0, 0.04468574342081272
362.0, 0.04378551322956909
363.0, 0.043675361956145464
364.0, 0.04599206258860431
365.0, 0.04874825187403851
366.0, 0.052377072408202836
367.0, 0.0570825728905159
368.0, 0.06205431186039509
369.0, 0.06494213287879164
370.0, 0.06959338777612314
371.0, 0.07565158226686483
372.0, 0.08177771768341624
373.0, 0.08736937166058459
374.0, 0.09421012463576554
375.0, 0.10215584387972317
376.0, 0.11142545415082984
377.0, 0.1218439122060711
378.0, 0.1322773992447137
379.0, 0.14733465382849015
380.0, 0.1629562123368719
381.0, 0.1753780004142178
382.0, 0.18308443789604073
383.0, 0.183337475303001
384.0, 0.17326126019541438
385.0, 0.1563580349988007
386.0, 0.13691062155610592
387.0, 0.11888365706475901
388.0, 0.10252225229978833
389.0, 0.0883335917259694
390.0, 0.07674616004884086
391.0, 0.06796518427995185
392.0, 0.06224024894021811
393.0, 0.0616701238814035
394.0, 0.06336722414053779
395.0, 0.0663494050429808
396.0, 0.06959144801511094
397.0, 0.07047647268396039
398.0, 0.07458559815415827
399.0, 0.07940254200146077
400.0, 0.08561329243691376
401.0, 0.09413786898684565
402.0, 0.10268800585495268
403.0, 0.11480224802688334
404.0, 0.1316723405966287
405.0, 0.15371608069677378
406.0, 0.1823721093091939
407.0, 0.22064946191338916
408.0, 0.26635210715695895
409.0, 0.3008304379857398
410.0, 0.3042446030569933
411.0, 0.26680672866546823
412.0, 0.20983404371048503
413.0, 0.15060873395908628
414.0, 0.10143827031652972
415.0, 0.06706225081328597
416.0, 0.045333082417820365
417.0, 0.031199002844607353
418.0, 0.021215200298335637
419.0, 0.014596793851309077
420.0, 0.010288464633537097
421.0, 0.006621733541602393
422.0, 0.002759212844460969
423.0, 0.0006767625265932265
424.0, 0.00022064871056312637
425.0, 0.0010647798485415977
426.0, 0.0026121654910064725
427.0, 0.001989303157753031
428.0, 0.0024338661841907566
429.0, 0.003104254090250755
430.0, 0.0030497494911858594
431.0, 0.0026161589120885067
432.0, 0.0017773969084374024
433.0, 0.0013844685466860925
434.0, 0.0010117001478403775
435.0, 0.00027212773047242055
436.0, 0.0005409835636436706
437.0, 0.000996649954758916
438.0, 0.0009092195560037765
439.0, 0.0009696122319845892
440.0, 0.0010409671194138396
441.0, 0.00018246020243450702
442.0, 0.00015736515798035422
443.0, 0.0005149245788168448
444.0, 0.001221887168477746
445.0, 0.0019237677253727283
446.0, 0.0034215014217020257
447.0, 0.003557908253688812
448.0, 0.0028361803563858646
449.0, 0.0016001543124425437
450.0, 0.00044548643054582727
451.0, 0.000371413697439261
452.0, 0.00016142719608784294
453.0, 0.0006878911125402627
454.0, 0.0015258716983150141
455.0, 0.0022908595914437413
456.0, 0.00547113189342485
457.0, 0.008285839590856927
458.0, 0.010769358858239535
459.0, 0.01526745255055461
460.0, 0.02131229263241854
461.0, 0.026029450620468783
462.0, 0.03173820121686738
463.0, 0.03745817022878707
464.0, 0.041965709242213295
465.0, 0.045833926927443466
466.0, 0.05075904726666109
467.0, 0.05575310166800142
468.0, 0.06118149197490831
469.0, 0.06689742488552866
470.0, 0.07302281923545265
471.0, 0.08074009183521086
472.0, 0.09241179310938459
473.0, 0.10875669695642008
474.0, 0.12905461263091417
475.0, 0.15268053304152343
476.0, 0.17794508092889608
477.0, 0.19563677960934753
478.0, 0.19729936553490646
479.0, 0.18114547330897485
480.0, 0.1529597628004177
481.0, 0.12273000182724629
482.0, 0.095097167544289
483.0, 0.07618587837799883
484.0, 0.06427568564966532
485.0, 0.057822248256593003
486.0, 0.05537440380814101
487.0, 0.05313896069662029
488.0, 0.050421063295813064
489.0, 0.04494646946387773
490.0, 0.037317628145347184
491.0, 0.02967718381527078
492.0, 0.02536501094029715
493.0, 0.022479167085595983
494.0, 0.02105012221655892
495.0, 0.02066835510545093
496.0, 0.02088538017724146
497.0, 0.021883392922537315
498.0, 0.024879414059936673
499.0, 0.02891841515909005
500.0, 0.034418198114905894
501.0, 0.04224956157357178
502.0, 0.0526839254030578
503.0, 0.06565223503660912
504.0, 0.08363891926041024
505.0, 0.10732649224263932
506.0, 0.13507517725078613
507.0, 0.16387021777352828
508.0, 0.1928111992723347
509.0, 0.21937938716006428
510.0, 0.24630917996149276
511.0, 0.2756774862367738
512.0, 0.3079233246744643
513.0, 0.34553968348210606
514.0, 0.39124196958242674
515.0, 0.44676664928930915
516.0, 0.5128468897912918
517.0, 0.5927573703691732
518.0, 0.6955264586737848
519.0, 0.813693173975734
520.0, 0.9233242036631566
521.0, 0.9897256993906586
522.0, 0.9850078694253215
523.0, 0.8978102646860526
524.0, 0.7573418858753623
525.0, 0.6012559519024665
526.0, 0.45962986878201223
527.0, 0.3477045165509489
528.0, 0.26482557045093463
529.0, 0.2047489611329697
530.0, 0.1605513699915382
531.0, 0.1278077118110256
532.0, 0.10303252801343543
533.0, 0.08317256688917997
534.0, 0.06827141418479325
535.0, 0.05640572821676931
536.0, 0.04800270568899027
537.0, 0.04079752840431267
538.0, 0.03369724645353099
539.0, 0.029733937074409328
540.0, 0.02497038935635105
541.0, 0.020996275245283396
542.0, 0.018047487177126325
543.0, 0.015399190498797314
544.0, 0.012720129307740035
545.0, 0.01110417749719462
546.0, 0.009289063728789787
547.0, 0.007398895227565328
548.0, 0.0059585314898562974
549.0, 0.005055433039904742
550.0, 0.004146155824608174
551.0, 0.0038574736468162977
552.0, 0.0031235903096038355
553.0, 0.0022406150908881395
554.0, 0.0016476688508783978
555.0, 0.0006720380146743892
556.0, 0.0004906820702186853
557.0, 0.00035490611879480363
558.0, 1.365907053659606e-05
559.0, 0.000546077691091077
560.0, 0.0016403457225985672
561.0, 0.001931323861942794
562.0, 0.001309732977826439
563.0, 0.0013273100838070825
564.0, 0.0013408542900400923
565.0, 0.0003035808795414932
566.0, 0.0005976034214191635
567.0, 0.001898676118438216
568.0, 0.0019496067712500926
569.0, 0.0031128793660460748
570.0, 0.0061146401169812955
571.0, 0.008676627533259151
572.0, 0.012593394836014177
573.0, 0.015476318392061438
574.0, 0.018250112372806066
575.0, 0.021301779403385415
576.0, 0.024320425695333193
577.0, 0.027653536681816887
578.0, 0.030921802182032727
579.0, 0.036706906208906556
580.0, 0.04374851827982202
581.0, 0.05093544871958274
582.0, 0.05955111415341003
583.0, 0.07052726280772655
584.0, 0.0821371787557716
585.0, 0.0909730009234869
586.0, 0.09393352321127219
587.0, 0.08939229990789914
588.0, 0.07770482322809193
589.0, 0.062380307690069275
590.0, 0.047665255131509994
591.0, 0.03559707249859124
592.0, 0.026141888187229356
593.0, 0.018353912595014142
594.0, 0.01313765765301476
595.0, 0.010449207968491234
596.0, 0.00742118528025213
597.0, 0.004504032123971726
598.0, 0.003371411637990883
599.0, 0.0030152940524242142
600.0, 0.0019850632837310946
601.0, 0.0014115970634507393
602.0, 0.0007366210322657816
603.0, 0.00012523385114904546
604.0, 0.00043047170977156545
605.0, 0.0009810568195589282
606.0, 0.0006119149111430676
607.0, 0.00012044482141022421
608.0, 0.00013719276369645336
609.0, 0.00029326856467032386
610.0, 0.000190205141767086
611.0, 0.0005614855598210865
612.0, 0.0007664593544403813
613.0, 0.0011562408125057185
614.0, 0.001942945381397522
615.0, 0.002934166844147147
616.0, 0.0029541982689205238
617.0, 0.003808225512014455
618.0, 0.004343898851289256
619.0, 0.005087454839377314
620.0, 0.0062907322399054985
621.0, 0.007150809961593404
622.0, 0.008912479013195229
623.0, 0.00972057752119075
624.0, 0.010478808002180215
625.0, 0.011280112074347624
626.0, 0.011759409161435615
627.0, 0.012360429099610243
628.0, 0.013841101914052167
629.0, 0.014324708192750992
630.0, 0.015147462231867765
631.0, 0.017107311747682544
632.0, 0.019131649067197692
633.0, 0.020143437448406895
634.0, 0.02180608569741846
635.0, 0.0228303739980776
636.0, 0.02176453086460086
637.0, 0.01920909327651696
638.0, 0.016712807335028747
639.0, 0.013272377382910377
640.0, 0.01027093063800019
641.0, 0.007571300475686335
642.0, 0.0053947971577612604
643.0, 0.0040251985260232204
644.0, 0.003289278003268627
645.0, 0.002621654528918991
646.0, 0.0017708041232790148
647.0, 0.0011746941917745377
648.0, 0.0011881280578020844
649.0, 0.0014668480071495633
650.0, 0.001058610497826168
651.0, 0.00020837513863850582
652.0, 0.0005632939020801953
653.0, 0.0010332802829305908
654.0, 0.0008566513803666511
655.0, 0.0004981874820202318
656.0, 0.000699229784163973
657.0, 0.000573272686535167
658.0, 0.0006327444792477286
659.0, 0.0009320925087880885
660.0, 0.0007988571478943024
661.0, 0.00017779776891370668
662.0, 0.00032673483187073676
663.0, 0.00017027247416306107
664.0, 8.181195796538305e-05
665.0, 0.0002589853562414469
666.0, 7.763765858003742e-05
667.0, 0.0005372174101764067
668.0, 0.0001321800964432824
669.0, 2.921314755238534e-05
670.0, 1.8644032906300046e-05
671.0, 0.0001740530868637636
672.0, 0.0001913203698141827
673.0, 0.0006704643119643184
674.0, 0.0005450629602076116
675.0, 0.0008981769146273987
676.0, 0.00123422146879829
677.0, 0.0006511266976753066
678.0, 0.00018246852074027846
679.0, 0.0003180288058208295
680.0, 0.00032527769403402476
681.0, 0.0007905436086547383
682.0, 0.0008627956314930709
683.0, 0.0011187993962833306
684.0, 0.0017173026564187158
685.0, 0.001426971025048023
686.0, 0.0006255754439022282
687.0, 0.0005229548936122614
688.0, 0.000789897971862672
689.0, 0.0008278895988335991
690.0, 0.0004687130810958343
691.0, 3.072834354965941e-05
692.0, 0.00038153215108646535
693.0, 0.001170181937437143
694.0, 0.0010268543731802682
695.0, 0.0006161483357347677
696.0, 0.0006977092877006439
697.0, 0.0008106757857921958
698.0, 0.000853547662003806
699.0, 0.0006874687548544177
700.0, 0.0006385819892890539
701.0, 0.0005038861569566298
702.0, 0.00026344959601111266
703.0, 0.0002915530080337565
704.0, 0.0001995145781251016
705.0, 0.0003280817084447143
706.0, 0.0006488179726799611
707.0, 0.0008552842120860948
708.0, 0.0007460190136955992
709.0, 0.00033077164027489473
710.0, 5.9391230562330466e-05
711.0, 9.614525690063073e-05
712.0, 0.0005147190651426557
713.0, 0.0006044343829449882
714.0, 0.0005486273922275452
715.0, 0.0007338781995482035
716.0, 0.00024056872623844544
717.0, 0.0003729873232713384
718.0, 0.0009103566456300649
719.0, 0.0008603422157423068
720.0, 0.00025569782480466065
721.0, 4.7964917572876374e-05
722.0, 3.1048177526506494e-05
723.0, 0.0003044748501355838
724.0, 0.00013146166327838033
725.0, 0.00025466816510603865
726.0, 0.0002223643514887996
727.0, 5.988358803692435e-05
728.0, 6.43368752089483e-05
729.0, 0.000414144973637396
730.0, 9.530539519937761e-05
731.0, 0.00045917897124366283
732.0, 0.0002708470344395783
733.0, 0.0002799387103012902
734.0, 0.00023221292953195952
735.0, 0.0011923920635450065
736.0, 0.00038412370244250737
737.0, 7.417409706812444e-05
738.0, 0.0004377324168571915
739.0, 0.000881553696206543
740.0, 0.0015531724545731968
741.0, 0.0015510954336429054
742.0, 0.002077730857663404
743.0, 0.0024408281008954868
744.0, 0.002657214506563025
745.0, 0.0030470302270755333
746.0, 0.003407284484779854
747.0, 0.0029884251864192
748.0, 0.004806979105566955
749.0, 0.005559466996094467
750.0, 0.005816619318432565
751.0, 0.006910589353757835
752.0, 0.008627285966475308
753.0, 0.00924869649281252
754.0, 0.01008561817498743
755.0, 0.011564761513677543
756.0, 0.012082378791563505
757.0, 0.012281335630624855
758.0, 0.012581993825102543
759.0, 0.011622302561321731
760.0, 0.011896156441480616
761.0, 0.010403365255239088
762.0, 0.010068794125916896
763.0, 0.009570474244520686
764.0, 0.008706629465769382
765.0, 0.008827751483022806
766.0, 0.007132127244278918
767.0, 0.006939995269302636
768.0, 0.006712552967878429
769.0, 0.006193388701080877
770.0, 0.005819048398053685
771.0, 0.005444981922720757
772.0, 0.004502133843193034
773.0, 0.003933485036936444
774.0, 0.0036249835164465154
775.0, 0.003002781430269097
776.0, 0.002590692551366019
777.0, 0.0025269593986871055
778.0, 0.0023375782876274434
779.0, 0.0027094397334978025
780.0, 0.0033666885733562696
781.0, 0.003678830070490884
782.0, 0.0039370274403351885
783.0, 0.003948019371740852
784.0, 0.0039162192478192125
785.0, 0.005171414932487413
786.0, 0.006194688579817623
787.0, 0.00582656531269989
788.0, 0.005307950741151659
789.0, 0.006277636578772844
790.0, 0.007816573213283365
791.0, 0.007813151386872243
792.0, 0.007633018896273982
793.0, 0.007733961245651108
794.0, 0.008526253200853326
795.0, 0.010123259203746095
796.0, 0.01143573090345274
797.0, 0.01221913878845924
798.0, 0.013665205494986333
799.0, 0.013754902915651531
800.0, 0.01270392391374475
801.0, 0.012385850195798291
802.0, 0.011067121123772986
803.0, 0.008893403667331021
804.0, 0.007742483812135402
805.0, 0.006137054524865513
806.0, 0.006091482698942047
807.0, 0.004901804428378803
808.0, 0.0038543281472939624
809.0, 0.003886708653656528
810.0, 0.003885715725434441
811.0, 0.003087310524493907
812.0, 0.00402949499586318
813.0, 0.003393394229219257
814.0, 0.0038376045221054774
815.0, 0.004945743818888814
816.0, 0.0054478969696849615
817.0, 0.0050432726198385725
818.0, 0.004812759398166595
819.0, 0.005334217135514678
820.0, 0.005752552073968159
821.0, 0.005181250450232134
822.0, 0.004307803934713877
823.0, 0.003947880990116712
824.0, 0.003551892592382437
825.0, 0.0020252849862779625
826.0, 0.002176524178618776
827.0, 0.0015525955002278955
828.0, 0.0015023753551398076
829.0, 0.0015288488548283062
830.0, 0.0011183748912380316
831.0, 0.0008810179423344637
832.0, 0.0008872668764761931
833.0, 0.00015660145540502654
834.0, 0.0004285427767175453
835.0, 0.00046117862971758886
836.0, 0.00030603676003771563
837.0, 0.0004310281413339093
838.0, 0.0004291611518339503
839.0, 0.0004684922357042455
840.0, 0.00034918216022999335
841.0, 1.9417185746263796e-05
842.0, 1.879593761300583e-05
843.0, 0.00044465801982216595
844.0, 0.0004798815183424839
845.0, 0.0004602547843708841
846.0, 0.0009510267007460347
847.0, 0.000491404548546827
848.0, 8.36263002753947e-05
849.0, 0.00030707372745120436
850.0, 0.0002433695187537815
851.0, 0.0004042526436867017
852.0, 0.00047217829020334493
853.0, 0.0010167392310528266
854.0, 0.00021584514091656007
855.0, 9.200721671356971e-05
856.0, 0.00033818069263158603
857.0, 0.0002864875554684751
858.0, 0.00012592482944581338
859.0, 0.0004807397798820246
860.0, 0.0007948720114430391
861.0, 0.0010066754764539586
862.0, 0.0005776275461053919
863.0, 0.000592667709457332
864.0, 0.0005836137927757906
865.0, 0.0005015770252694402
866.0, 0.0013098162207928047
867.0, 0.0013113469178649682
868.0, 0.001683223153401313
869.0, 0.0014104189073514206
870.0, 0.001025160651893633
871.0, 0.001315571500812228
872.0, 0.0022117583116539265
873.0, 0.0026574305432793105
874.0, 0.0021074622561956017
875.0, 0.002632879822253703
876.0, 0.002748625793792538
877.0, 0.0025128081361774084
878.0, 0.0021347715144222055
879.0, 0.0022381482778638068
880.0, 0.00323023092193859
881.0, 0.003485077337044316
882.0, 0.0020765186767772973
883.0, 0.0024019264978606624
884.0, 0.0025479462027753748
885.0, 0.00233963896973334
886.0, 0.0022227332205234404
887.0, 0.0019162981543495302
888.0, 0.00139830507070784
889.0, 0.0019781978512457515
890.0, 0.0014527675057311492
891.0, 0.0013115798855636096
892.0, 0.001752854782707143
893.0, 0.001809872625123785
894.0, 0.0015374905689844516
895.0, 0.002023121528438353
896.0, 0.0018609632647369715
897.0, 0.0016590868450621003
898.0, 0.0013195399049638695
899.0, 0.0012782761468486967
900.0, 0.0013196397887011086
901.0, 0.0012849883562552698
902.0, 0.0015195535717621434
903.0, 0.001985842307537674
904.0, 0.0015401967177975362
905.0, 0.0014808739283269127
906.0, 0.0015301936594841264
907.0, 0.0012319490268346855
908.0, 0.0011784480128165643
909.0, 0.0016021693247891134
910.0, 0.0013310040287439753
911.0, 0.0015150333234505132
912.0, 0.0015126720853886838
913.0, 0.0015989563555233776
914.0, 0.0016010277215182335
915.0, 0.0015418866626429046
916.0, 0.0016260063107247675
917.0, 0.001717339353054161
918.0, 0.001438769796077611
919.0, 0.0016129852903797055
920.0, 0.0014146579422857832
921.0, 0.001343602655741194
922.0, 0.0014538778482108385
923.0, 0.0014780988598043084
924.0, 0.001327065585823482
925.0, 0.0010119693709562734
926.0, 0.0015254138230221853
927.0, 0.0017441706755356905
928.0, 0.001527935333704529
929.0, 0.0017427698606465895
930.0, 0.00189506450147154
931.0, 0.001765466617722501
932.0, 0.0021589284368274462
933.0, 0.0020542558440116068
934.0, 0.0018077946522339085
935.0, 0.0019938381997795162
936.0, 0.0022575425622452386
937.0, 0.002112276019297378
938.0, 0.0019071804863630944
939.0, 0.0018176222281554865
940.0, 0.0011404937041104236
941.0, 0.001601151387463765
942.0, 0.00111934226106261
943.0, 0.0015962114743121405
944.0, 0.0016037560825679258
945.0, 0.0015100576412451887
946.0, 0.001293834555975477
947.0, 0.00034294900923324486
948.0, 0.0009471231770724637
949.0, 0.000796254771492026
950.0, 0.0005840230587878147
951.0, 0.0004138059099981088
952.0, 0.0002816739209637694
953.0, 0.000578571916677968
954.0, 0.001129472120344756
955.0, 0.000867307283460881
956.0, 6.844782621304911e-05
957.0, 0.00032374169466142344
958.0, 0.0003867789522344176
959.0, 0.0005470746861591777
960.0, 0.0004719996919340118
961.0, 0.00011466800581544723
962.0, 0.0003686408948925212
963.0, 0.0008548621785494253
964.0, 0.00023104932323928388
965.0, 0.0008056333185948301
966.0, 0.0012277917624072187
967.0, 0.0004816700491695132
968.0, 0.0001153768723366321
969.0, 0.000313024822606407
970.0, 0.0002324078876727092
971.0, 0.0002306106216263375
972.0, 0.00020806852923004477
973.0, 0.0005418034046123266
974.0, 0.00029495739402553593
975.0, 4.238291582570865e-05
976.0, 8.44768272057911e-05
977.0, 3.497363207253172e-05
978.0, 0.0004232872179203023
979.0, 0.0008297012975860723
980.0, 0.00026705652013962554
981.0, 0.00024220493082135474
982.0, 0.00043573038858541
983.0, 0.0002175985884409997
984.0, 2.6795233668130506e-05
985.0, 0.0002504495413874294
986.0, 0.0004207748465671859
987.0, 0.0003251834951171446
988.0, 0.00091318333440635
989.0, 0.0005810981452015107
990.0, 0.000761062973478349
991.0, 0.000808897496249038
992.0, 0.0008347349480764902
993.0, 0.001201314076901822
994.0, 0.0015407070614621215
995.0, 0.0014686966552508183
996.0, 0.0019532461679271575
997.0, 0.0022276049704680672
998.0, 0.0025996968722791676
999.0, 0.003987657414076503
1000.0, 0.004957548823689845
1001.0, 0.005688121989635403
1002.0, 0.00668672132317479
1003.0, 0.007650874444449584
1004.0, 0.008723308374130385
1005.0, 0.008893174096255405
1006.0, 0.011053899431267429
1007.0, 0.013409008178614259
1008.0, 0.014432266205725703
1009.0, 0.01552394545068881
1010.0, 0.017081751288091435
1011.0, 0.01750210078721729
1012.0, 0.01649229577127592
1013.0, 0.01553657574276759
1014.0, 0.013312375923234773
1015.0, 0.011374396236190727
1016.0, 0.009833882064221984
1017.0, 0.008598993229526791
1018.0, 0.0069014280240734275
1019.0, 0.0051309497296271305
1020.0, 0.004333077502252133
1021.0, 0.002823980013041353
1022.0, 0.0018759630170948882
1023.0, 0.0014907907522047183
1024.0, 0.0012073039301573414
1025.0, 0.0008347710369831699
1026.0, 0.0004583830876383196
1027.0, 0.00014775331762267985
1028.0, 0.0005151630098178586
1029.0, 0.00017956663227496598
1030.0, 0.00021486765703203115
1031.0, 0.0002165008066392991
1032.0, 0.0008152889593955743
1033.0, 0.0009549466347306805
1034.0, 0.00170255599655106
1035.0, 0.0025313127003540495
1036.0, 0.0028559657110035345
1037.0, 0.003707661228029848
1038.0, 0.004479472079233761
1039.0, 0.005072965162153128
1040.0, 0.006105916017675492
1041.0, 0.0077216210275167065
1042.0, 0.009432104593104562
1043.0, 0.009972027999751215
1044.0, 0.010976743153364575
1045.0, 0.013405934272359704
1046.0, 0.014908346158951378
1047.0, 0.01587463626529596
1048.0, 0.01682029883407625
1049.0, 0.017888125592209054
1050.0, 0.018542508086750276
1051.0, 0.018646525419413522
1052.0, 0.0182483540775393
1053.0, 0.017962455679244267
1054.0, 0.017704982512369582
1055.0, 0.016747851264639572
1056.0, 0.01647856964818658
1057.0, 0.0160007916951521
1058.0, 0.015333986491430128
1059.0, 0.01451777769066008
1060.0, 0.013928375477530558
1061.0, 0.013809681274265672
1062.0, 0.013674528555355342
1063.0, 0.013291411454966142
1064.0, 0.013022241846304709
1065.0, 0.012355776260620864
1066.0, 0.013439039097122574
1067.0, 0.012242281564504165
1068.0, 0.014147262852968329
1069.0, 0.015360618525260173
1070.0, 0.014030231893448313
1071.0, 0.011942868206199954
1072.0, 0.01059043184282687
1073.0, 0.009595462020824062
1074.0, 0.008510265649127966
1075.0, 0.008149609544258217
1076.0, 0.007691015053015462
1077.0, 0.006129984044389263
1078.0, 0.0048508621207490514
1079.0, 0.0035198670425169755
1080.0, 0.002960312666485166
1081.0, 0.002910722167135078
1082.0, 0.001510506475739567
1083.0, 0.0009205286763569242
1084.0, 0.0012445681610219767
1085.0, 0.0005763750597048148
1086.0, 0.00021692189234650254
1087.0, 2.3053123014010153e-05
1088.0, 4.0532802941282186e-05
1089.0, 0.0001930980729022439
1090.0, 0.00038854406321456943
1091.0, 0.00036571270148103013
1092.0, 0.0011761765467246405
1093.0, 0.00015377026414354703
1094.0, 0.00021439095147273156
1095.0, 0.00015012089656892875
1096.0, 5.472859228743941e-05
1097.0, 0.00018825136431560759
1098.0, 0.0002032723596263832
1099.0, 0.0008067567803312745
1100.0, 0.0019877565515237735
1101.0, 0.0028197224032847066
1102.0, 0.00392698464443207
1103.0, 0.004136731657977803
1104.0, 0.005229926891702327
1105.0, 0.005967267798469976
1106.0, 0.007103183561758874
1107.0, 0.00819786947690934
1108.0, 0.00954710688423974
1109.0, 0.011045428668013198
1110.0, 0.01177553193812745
1111.0, 0.01305022523181173
1112.0, 0.01642267334694947
1113.0, 0.01917821565607729
1114.0, 0.02185139516742552
1115.0, 0.02425718382295085
1116.0, 0.02709105854902995
1117.0, 0.029824210755780917
1118.0, 0.03259266937171069
1119.0, 0.03542659675476436
1120.0, 0.03779086175644426
1121.0, 0.04111644398927138
1122.0, 0.0434955839532863
1123.0, 0.04691555419995857
1124.0, 0.0526118691380943
1125.0, 0.05698447484091658
1126.0, 0.061500465191044636
1127.0, 0.06734206975163969
1128.0, 0.07414376869668954
1129.0, 0.08187738788652976
1130.0, 0.09033782649555108
1131.0, 0.09823955181832929
1132.0, 0.10820511576865588
1133.0, 0.11702477943043746
1134.0, 0.12647774537260198
1135.0, 0.13514167687807466
1136.0, 0.14330322121481745
1137.0, 0.15020999032444743
1138.0, 0.15519815076972898
1139.0, 0.1585987787876887
1140.0, 0.15951801085463604
1141.0, 0.15592481332793384
1142.0, 0.15164278629501615
1143.0, 0.14415248637255781
1144.0, 0.13453947418503215
1145.0, 0.1252096274003991
1146.0, 0.1141887849227987
1147.0, 0.10126218220567668
1148.0, 0.08923557099841967
1149.0, 0.07844278790769767
1150.0, 0.06756769609101917
1151.0, 0.05935814615979974
1152.0, 0.05174279769912676
1153.0, 0.044181468562211786
1154.0, 0.03841952365648175
1155.0, 0.032951169467897314
1156.0, 0.028688289978917793
1157.0, 0.02499061043405459
1158.0, 0.021625694240917464
1159.0, 0.018777692497470116
1160.0, 0.016106365791898915
1161.0, 0.014264144982716706
1162.0, 0.013724028442878932
1163.0, 0.011885663514478163
1164.0, 0.00944642510024899
1165.0, 0.008788098810539598
1166.0, 0.007765231755312957
1167.0, 0.006745828065926587
1168.0, 0.005970999154029349
1169.0, 0.0055090412262176055
1170.0, 0.00528239409816743
1171.0, 0.0046575326660571225
1172.0, 0.004073969051831599
1173.0, 0.003273502488807646
1174.0, 0.0026369813015569223
1175.0, 0.0029399888613151756
1176.0, 0.002007901269960069
1177.0, 0.002175815242985108
1178.0, 0.0024318559433028743
1179.0, 0.0025617938254878527
1180.0, 0.002470063391917029
1181.0, 0.0013145026286727347
1182.0, 0.0003467982839803248
1183.0, 0.0006448254154409418
1184.0, 0.0005954418503898339
1185.0, 0.001273613181026973
1186.0, 0.0010090347963458025
1187.0, 0.00034301348088740615
1188.0, 0.00030614972323103975
1189.0, 0.00036153522290264563
1190.0, 0.0002131954117741453
1191.0, 0.0001534813208637657
1192.0, 0.00010117298067609666
1193.0, 4.3172332277544685e-05
1194.0, 0.00011463571548509611
1195.0, 0.00015904203055904518
1196.0, 0.0003587454087479946
1197.0, 0.000642454997139596
1198.0, 0.00018202534881780894
1199.0, 9.492088481187247e-05
1200.0, 5.3396204001641726e-05
1201.0, 9.139723845873028e-05
1202.0, 6.136479411383676e-05
1203.0, 0.00019746066439877346
1204.0, 5.244422095742094e-05
1205.0, 0.00024836639821713264
1206.0, 0.0007510285080535829
1207.0, 0.0005918837979320458
1208.0, 7.498770867180832e-06
1209.0, 0.00046165554513535076
1210.0, 0.00029350983897074657
1211.0, 0.00019701069000496835
1212.0, 0.00014153499705590926
1213.0, 0.0004479949080320889
1214.0, 0.0003187226456590756
1215.0, 0.0006351240876031171
1216.0, 0.00025677472900847276
1217.0, 0.0004116150196571398
1218.0, 0.00047388498507239284
1219.0, 8.239160532719452e-06
1220.0, 0.00017074828562193572
1221.0, 2.6000919990039047e-05
1222.0, 7.9467189270898e-05
1223.0, 0.0002831044241453413
1224.0, 0.00029212973177807213
1225.0, 0.00032452142206492834
1226.0, 0.0006652976400762258
1227.0, 0.00028228199725096573
1228.0, 0.0006075793035582632
1229.0, 0.00046541835840500174
1230.0, 3.415247983962956e-05
1231.0, 0.000926547727491508
1232.0, 8.7222401818799e-05
1233.0, 0.000845096300142418
1234.0, 0.001104624381458902
1235.0, 0.0011023473757691936
1236.0, 0.0010088229873564752
1237.0, 0.0012550858909597385
1238.0, 0.001890482790288049
1239.0, 0.001375927702165839
1240.0, 0.001262710314532375
1241.0, 0.0007625974849689236
1242.0, 0.0009135028913325303
1243.0, 0.00043574934463918734
1244.0, 0.0015011231686541384
1245.0, 0.0015396638048899365
1246.0, 0.0005420485849732486
1247.0, 0.0012115680003007977
1248.0, 0.0019176870657922754
1249.0, 0.0013834833397973892
1250.0, 0.001306873549325345
1251.0, 0.0015518977486592355
1252.0, 0.0013977479908714942
1253.0, 0.0007860370796032701
1254.0, 0.0014610502390641526
1255.0, 0.001979968203590311
1256.0, 0.001425743065251939
1257.0, 0.0009182279697998846
1258.0, 0.001341387684186885
1259.0, 0.0010837501140560555
1260.0, 0.000680468897538819
1261.0, 0.0007276829125779353
1262.0, 0.0009944779891824967
1263.0, 0.0010642082377758486
1264.0, 0.0006033055663079847
1265.0, 0.0012259504815053742
1266.0, 0.0010206408244555038
1267.0, 0.00028476204066833814
1268.0, 0.00037525698333708133
1269.0, 0.0006530379183802615
1270.0, 0.000622984854415276
1271.0, 0.0004839671989053927
1272.0, 0.0003329541791255082
1273.0, 0.0003388786377877864
1274.0, 0.00022773314345621347
1275.0, 0.00025382304850186574
1276.0, 0.0007295628539217182
1277.0, 0.0006859839097768322
1278.0, 0.00026529389454133136
1279.0, 1.603677553999997e-05
1280.0, 0.00014731599908051875
1281.0, 0.0007070288476000333
1282.0, 0.0003636427143492901
1283, 0.0
1284, 0.0
1285, 0.0
1286, 0.0
1287, 0.0
1288, 0.0
1289, 0.0
1290, 0.0
1291, 0.0
1292, 0.0
1293, 0.0
1294, 0.0
1295, 0.0
1296, 0.0
1297, 0.0
1298, 0.0
1299, 0.0
1300, 0.0
1301, 0.0
1302, 0.0
1303, 0.0
1304, 0.0
1305, 0.0
1306, 0.0
1307, 0.0
1308, 0.0
1309, 0.0
1310, 0.0
1311, 0.0
1312, 0.0
1313, 0.0
1314, 0.0
1315, 0.0
1316, 0.0
1317, 0.0
1318, 0.0
1319, 0.0
1320, 0.0
1321, 0.0
1322, 0.0
1323, 0.0
1324, 0.0
1325, 0.0
1326, 0.0
1327, 0.0
1328, 0.0
1329, 0.0
1330, 0.0
1331, 0.0
1332, 0.0
1333, 0.0
1334, 0.0
1335, 0.0
1336, 0.0
1337, 0.0
1338, 0.0
1339, 0.0
1340, 0.0
1341, 0.0
1342, 0.0
1343, 0.0
1344, 0.0
1345, 0.0
1346, 0.0
1347, 0.0
1348, 0.0
1349, 0.0
1350, 0.0
1351, 0.0
1352, 0.0
1353, 0.0
1354, 0.0
1355, 0.0
1356, 0.0
1357, 0.0
1358, 0.0
1359, 0.0
1360, 0.0
1361, 0.0
1362, 0.0
1363, 0.0
1364, 0.0
1365, 0.0
1366, 0.0
1367, 0.0
1368, 0.0
1369, 0.0
1370, 0.0
1371, 0.0
1372, 0.0
1373, 0.0
1374, 0.0
1375, 0.0
1376, 0.0
1377, 0.0
1378, 0.0
1379, 0.0
1380, 0.0
1381, 0.0
1382, 0.0
1383, 0.0
1384, 0.0
1385, 0.0
1386, 0.0
1387, 0.0
1388, 0.0
1389, 0.0
1390, 0.0
1391, 0.0
1392, 0.0
1393, 0.0
1394, 0.0
1395, 0.0
1396, 0.0
1397, 0.0
1398, 0.0
1399, 0.0
1400, 0.0
1401, 0.0
1402, 0.0
1403, 0.0
1404, 0.0
1405, 0.0
1406, 0.0
1407, 0.0
1408, 0.0
1409, 0.0
1410, 0.0
1411, 0.0
1412, 0.0
1413, 0.0
1414, 0.0
1415, 0.0
1416, 0.0
1417, 0.0
1418, 0.0
1419, 0.0
1420, 0.0
1421, 0.0
1422, 0.0
1423, 0.0
1424, 0.0
1425, 0.0
1426, 0.0
1427, 0.0
1428, 0.0
1429, 0.0
1430, 0.0
1431, 0.0
1432, 0.0
1433, 0.0
1434, 0.0
1435, 0.0
1436, 0.0
1437, 0.0
1438, 0.0
1439, 0.0
1440, 0.0
1441, 0.0
1442, 0.0
1443, 0.0
1444, 0.0
1445, 0.0
1446, 0.0
1447, 0.0
1448, 0.0
1449, 0.0
1450, 0.0
1451, 0.0
1452, 0.0
1453, 0.0
1454, 0.0
1455, 0.0
1456, 0.0
1457, 0.0
1458, 0.0
1459, 0.0
1460, 0.0
1461, 0.0
1462, 0.0
1463, 0.0
1464, 0.0
1465, 0.0
1466, 0.0
1467, 0.0
1468, 0.0
1469, 0.0
1470, 0.0
1471, 0.0
1472, 0.0
1473, 0.0
1474, 0.0
1475, 0.0
1476, 0.0
1477, 0.0
1478, 0.0
1479, 0.0
1480, 0.0
1481, 0.0
1482, 0.0
1483, 0.0
1484, 0.0
1485, 0.0
1486, 0.0
1487, 0.0
1488, 0.0
1489, 0.0
1490, 0.0
1491, 0.0
1492, 0.0
1493, 0.0
1494, 0.0
1495, 0.0
1496, 0.0
1497, 0.0
1498, 0.0
1499, 0.0
1500, 0.0
1501, 0.0
1502, 0.0
1503, 0.0
1504, 0.0
1505, 0.0
1506, 0.0
1507, 0.0
1508, 0.0
1509, 0.0
1510, 0.0
1511, 0.0
1512, 0.0
1513, 0.0
1514, 0.0
1515, 0.0
1516, 0.0
1517, 0.0
1518, 0.0
1519, 0.0
1520, 0.0
1521, 0.0
1522, 0.0
1523, 0.0
1524, 0.0
1525, 0.0
1526, 0.0
1527, 0.0
1528, 0.0
1529, 0.0
1530, 0.0
1531, 0.0
1532, 0.0
1533, 0.0
1534, 0.0
1535, 0.0
1536, 0.0
1537, 0.0
1538, 0.0
1539, 0.0
1540, 0.0
1541, 0.0
1542, 0.0
1543, 0.0
1544, 0.0
1545, 0.0
1546, 0.0
1547, 0.0
1548, 0.0
1549, 0.0
1550, 0.0
1551, 0.0
1552, 0.0
1553, 0.0
1554, 0.0
1555, 0.0
1556, 0.0
1557, 0.0
1558, 0.0
1559, 0.0
1560, 0.0
1561, 0.0
1562, 0.0
1563, 0.0
1564, 0.0
1565, 0.0
1566, 0.0
1567, 0.0
1568, 0.0
1569, 0.0
1570, 0.0
1571, 0.0
1572, 0.0
1573, 0.0
1574, 0.0
1575, 0.0
1576, 0.0
1577, 0.0
1578, 0.0
1579, 0.0
1580, 0.0
1581, 0.0
1582, 0.0
1583, 0.0
1584, 0.0
1585, 0.0
1586, 0.0
1587, 0.0
1588, 0.0
1589, 0.0
1590, 0.0
1591, 0.0
1592, 0.0
1593, 0.0
1594, 0.0
1595, 0.0
1596, 0.0
1597, 0.0
1598, 0.0
1599, 0.0
