30, 0.0
31, 0.0
32, 0.0
33, 0.0
34, 0.0
35, 0.0
36, 0.0
37, 0.0
38, 0.0
39, 0.0
40, 0.0
41, 0.0
42, 0.0
43, 0.0
44, 0.0
45, 0.0
46, 0.0
47, 0.0
48, 0.0
49, 0.0
50, 0.0
51, 0.0
52, 0.0
53, 0.0
54, 0.0
55, 0.0
56, 0.0
57, 0.0
58, 0.0
59, 0.0
60, 0.0
61, 0.0
62, 0.0
63, 0.0
64, 0.0
65, 0.0
66, 0.0
67, 0.0
68, 0.0
69, 0.0
70, 0.0
71, 0.0
72, 0.0
73, 0.0
74, 0.0
75, 0.0
76, 0.0
77, 0.0
78, 0.0
79, 0.0
80, 0.0
81, 0.0
82, 0.0
83, 0.0
84, 0.0
85, 0.0
86, 0.0
87, 0.0
88, 0.0
89, 0.0
90, 0.0
91, 0.0
92, 0.0
93, 0.0
94, 0.0
95, 0.0
96, 0.0
97, 0.0
98, 0.0
99, 0.0
100, 0.0
101, 0.0
102, 0.0
103, 0.0
104, 0.0
105, 0.0
106, 0.0
107, 0.0
108, 0.0
109, 0.0
110, 0.0
111, 0.0
112.0, 0.00010335073481734811
113.0, 0.0015339943377944685
114.0, 0.007804294891877836
115.0, 0.02245961036033748
116.0, 0.040141469965430714
117.0, 0.05596243533688807
118.0, 0.06285461751321324
119.0, 0.060387458655618925
120.0, 0.05232923856381209
121.0, 0.049973742758865104
122.0, 0.050595034438425085
123.0, 0.056846039513077075
124.0, 0.06722531220754953
125.0, 0.07750940139079009
126.0, 0.07922435760756945
127.0, 0.0938490498458964
128.0, 0.11836307513763804
129.0, 0.15230668418479446
130.0, 0.19266595060418729
131.0, 0.2335981324705636
132.0, 0.2657895668148603
133.0, 0.2846024150426857
134.0, 0.2777382266082642
135.0, 0.24670896729097072
136.0, 0.20281526432789884
137.0, 0.16278443426695616
138.0, 0.13726306725027906
139.0, 0.1248070639391757
140.0, 0.12138620034029253
141.0, 0.12410838918366131
142.0, 0.13978668778013667
143.0, 0.14932147565700382
144.0, 0.15670532186621938
145.0, 0.15775263222201286
146.0, 0.14889890991818644
147.0, 0.12928816357371023
148.0, 0.10276202719928164
149.0, 0.08149743660832023
150.0, 0.06441839787759113
151.0, 0.049334650384023654
152.0, 0.034042994809071726
153.0, 0.025538330138176562
154.0, 0.018867052291781657
155.0, 0.014164493538267717
156.0, 0.00944703742013699
157.0, 0.003342084341084267
158.0, 0.0018602157390577288
159.0, 0.0011748469557635978
160.0, 0.002622870529269604
161.0, 0.003475887443481109
162.0, 0.0023941715581087463
163.0, 0.0022322420498722163
164.0, 0.001820888393966809
165.0, 0.001281404646422531
166.0, 0.0016946500652378473
167.0, 0.0025099150618155576
168.0, 0.001954054249104945
169.0, 0.0024135046185078785
170.0, 0.0014900288678592344
171.0, 0.0009412154863086942
172.0, 0.0008645640499858131
173.0, 0.0008108512169733993
174.0, 0.0008360383170810545
175.0, 0.0005315531658641993
176.0, 0.0004150732073195415
177.0, 0.0006223063344389791
178.0, 0.0008703755215966586
179.0, 0.00031048214694076397
180.0, 0.002451789721377614
181.0, 0.0030808503140759584
182.0, 0.0019118009466568239
183.0, 0.0012802907029704164
184.0, 0.0040832885508060735
185.0, 0.0030057644896777326
186.0, 0.00610454505714997
187.0, 0.010247098320838184
188.0, 0.015324279949352777
189.0, 0.021061295895853913
190.0, 0.024657571397896653
191.0, 0.028886699063761213
192.0, 0.03558420139514659
193.0, 0.04415148912798859
194.0, 0.05419507198721022
195.0, 0.0653860359194145
196.0, 0.06971498909709198
197.0, 0.07559275514327075
198.0, 0.07828408141303365
199.0, 0.0750825274880026
200.0, 0.06586189083525527
201.0, 0.05635515788157312
202.0, 0.056886150219420874
203.0, 0.05073455668750785
204.0, 0.04371089580367744
205.0, 0.039041283018866085
206.0, 0.032675727637398844
207.0, 0.02652148296285181
208.0, 0.022797503741865916
209.0, 0.01975811276001022
210.0, 0.017531383295787743
211.0, 0.01643919876321776
212.0, 0.01301216394350156
213.0, 0.0127750203547612
214.0, 0.014628280272150304
215.0, 0.016757789864003357
216.0, 0.017749891818265667
217.0, 0.017165485914268475
218.0, 0.01547565327735299
219.0, 0.015083740736723854
220.0, 0.01588718872202053
221.0, 0.01723330772940562
222.0, 0.018621476069621272
223.0, 0.021947508403641625
224.0, 0.025446535695149698
225.0, 0.0282365957651085
226.0, 0.031296570009764414
227.0, 0.03440345171483925
228.0, 0.03526781214297597
229.0, 0.04510652166552663
230.0, 0.04960250957543129
231.0, 0.05453375573222171
232.0, 0.06280982443546307
233.0, 0.07437091234058442
234.0, 0.08364079076997975
235.0, 0.09231258173244682
236.0, 0.10390572926172414
237.0, 0.11543047579665247
238.0, 0.12644481196059884
239.0, 0.1406649096748571
240.0, 0.14778650681612937
241.0, 0.14950313032554607
242.0, 0.14920969264511497
243.0, 0.1458455028035653
244.0, 0.13685333062926894
245.0, 0.12076753223643133
246.0, 0.10482650165414432
247.0, 0.0910525118579735
248.0, 0.07787182211089466
249.0, 0.06506238505315647
250.0, 0.05431576513845044
251.0, 0.049572200169773616
252.0, 0.04144831182662887
253.0, 0.035871364928967114
254.0, 0.030828183217550043
255.0, 0.02473532901858944
256.0, 0.022839725179396968
257.0, 0.023200490987588144
258.0, 0.02444372554090425
259.0, 0.024264488860984486
260.0, 0.023182316298354336
261.0, 0.0230569082395764
262.0, 0.021235304904452787
263.0, 0.019654735313511314
264.0, 0.017979391774534854
265.0, 0.014722083919698353
266.0, 0.010074739779488452
267.0, 0.006869283361562553
268.0, 0.007492496777706342
269.0, 0.005785460910944813
270.0, 0.0044642273551877285
271.0, 0.0036329568962151903
272.0, 0.002526766817383709
273.0, 0.0012700827465448774
274.0, 0.0037553791558034566
275.0, 0.0018991952683662938
276.0, 0.0018955087062437273
277.0, 0.003928544821765686
278.0, 0.0033570365128068663
279.0, 0.0036067665081003443
280.0, 0.0032691840036301392
281.0, 0.004716000781308902
282.0, 0.005660193126181643
283.0, 0.005549172010083779
284.0, 0.0076942616510692905
285.0, 0.009149516051698043
286.0, 0.007849445096850267
287.0, 0.006429486782056845
288.0, 0.004911309753498906
289.0, 0.0029905038794344825
290.0, 0.0025757755333333035
291.0, 0.0017627307954224537
292.0, 0.0008398292352574848
293.0, 0.000950884880451948
294.0, 0.0020148304035816356
295.0, 0.0027752022222172794
296.0, 0.0006511160834560309
297.0, 0.0018088669191816612
298.0, 0.001922626414402758
299.0, 0.0014629136451263566
300.0, 0.0014049256187409018
301.0, 0.002169316869026394
302.0, 0.0012161544555817823
303.0, 0.0016834517084927823
304.0, 0.0014775201412783718
305.0, 0.0012060207414932612
306.0, 0.0017362957970098233
307.0, 0.002876542746386328
308.0, 0.002631902369265947
309.0, 0.0009125206817858099
310.0, 0.0003152232396837328
311.0, 0.0018238190489564257
312.0, 0.003906806570679652
313.0, 0.00020853422398147727
314.0, 0.0028737964434328044
315.0, 0.0034057119965262184
316.0, 0.0022355557715707758
317.0, 0.0012832770083239455
318.0, 0.00229243700554866
319.0, 0.0032398771002079317
320.0, 0.0016699413779127546
321.0, 0.0014394401160413694
322.0, 0.0017576019269990785
323.0, 0.002448384795943319
324.0, 0.004301163014627212
325.0, 0.006168294600646321
326.0, 0.004768842393095658
327.0, 0.005527613160943374
328.0, 0.006247308682854583
329.0, 0.005324349223313717
330.0, 0.004397074756443086
331.0, 0.0084404989379689
332.0, 0.00831215837604168
333.0, 0.009817777459921292
334.0, 0.01169663091544748
335.0, 0.011444791436416163
336.0, 0.008610438279492996
337.0, 0.013288700012570155
338.0, 0.013878697613322522
339.0, 0.013047412424859526
340.0, 0.012220602953665533
341.0, 0.012656142162684998
342.0, 0.016351160538303114
343.0, 0.02036023536249855
344.0, 0.02222128278930616
345.0, 0.02055672287034646
346.0, 0.016791129010467577
347.0, 0.014023566988336856
348.0, 0.015907695232182762
349.0, 0.015635427919607873
350.0, 0.010210013386433318
351.0, 0.006580432916469021
352.0, 0.006179128533612148
353.0, 0.006503330981015848
354.0, 0.005022311987773393
355.0, 0.004556760040009249
356.0, 0.0025221201727981283
357.0, 0.002076750238921789
358.0, 0.0031979312025220614
359.0, 0.0038206729707242833
360.0, 0.004061369534291088
361.0, 0.0017318109829161442
362.0, 0.0038086770806777326
363.0, 0.00477093089674025
364.0, 0.0052554636262502116
365.0, 0.008639011498475353
366.0, 0.004612646357357529
367.0, 0.008707734377415751
368.0, 0.009027258884178165
369.0, 0.008580209729225132
370.0, 0.009262108384139175
371.0, 0.01045474457213355
372.0, 0.010786472681872163
373.0, 0.018002551226210722
374.0, 0.023818014842775664
375.0, 0.02762179679826261
376.0, 0.03131944483281982
377.0, 0.03747178898333202
378.0, 0.04548030230290762
379.0, 0.05441409360197094
380.0, 0.0565398879832123
381.0, 0.05920743416252065
382.0, 0.06352129404843887
383.0, 0.06530585740030227
384.0, 0.06890075324838243
385.0, 0.06374911381864891
386.0, 0.06122687489282779
387.0, 0.060461800994864374
388.0, 0.05743873695093227
389.0, 0.04996188553923047
390.0, 0.049848888465823214
391.0, 0.04987283160956417
392.0, 0.045428627572529016
393.0, 0.04647227359246871
394.0, 0.04985046509317777
395.0, 0.04717711643551235
396.0, 0.054366921011407346
397.0, 0.061950331719386735
398.0, 0.07049240121802387
399.0, 0.08586289764846068
400.0, 0.10358082241177508
401.0, 0.11760955384299006
402.0, 0.14205721986417588
403.0, 0.16648522535229848
404.0, 0.2054800840688848
405.0, 0.2503848341075777
406.0, 0.29648050682498966
407.0, 0.33931663335769724
408.0, 0.3652362242220211
409.0, 0.35784616799453095
410.0, 0.3182269424411399
411.0, 0.26075165606557976
412.0, 0.19932094063707392
413.0, 0.1452549995392226
414.0, 0.10584149869673645
415.0, 0.07456333615437241
416.0, 0.051307638703731985
417.0, 0.03719859441285698
418.0, 0.028952266257440795
419.0, 0.023951057240405655
420.0, 0.02380033356700838
421.0, 0.01872536802482843
422.0, 0.019362048895683156
423.0, 0.01732205500647944
424.0, 0.013807088721867195
425.0, 0.012388447083959189
426.0, 0.015110442415433026
427.0, 0.022243248878886426
428.0, 0.02133831748683698
429.0, 0.02390981545459739
430.0, 0.029477892874444883
431.0, 0.03543295071487836
432.0, 0.039939367901058925
433.0, 0.041032627501973215
434.0, 0.04310275788121961
435.0, 0.04399358118009105
436.0, 0.042671658874944694
437.0, 0.03894571104269768
438.0, 0.03309696773945547
439.0, 0.024806834875901428
440.0, 0.024565508312763405
441.0, 0.018225945546931823
442.0, 0.01089994708619917
443.0, 0.007346285112297162
444.0, 0.007836984414837423
445.0, 0.00472350089887467
446.0, 0.002829144663735051
447.0, 0.0034156168202498405
448.0, 0.00389308445655642
449.0, 0.004728559642049725
450.0, 0.005416339639823063
451.0, 0.0025759612643609813
452.0, 0.007174297190332522
453.0, 0.003928768051737129
454.0, 0.005296171734217125
455.0, 0.00735078271515425
456.0, 0.008031501932928276
457.0, 0.01121047690872692
458.0, 0.013861756569716843
459.0, 0.01650642588071778
460.0, 0.015051186083385144
461.0, 0.015059406116646246
462.0, 0.01586017216331805
463.0, 0.0137940947863187
464.0, 0.014297104728616937
465.0, 0.012911178342497762
466.0, 0.01679933591525105
467.0, 0.023613144597999947
468.0, 0.028669632831044862
469.0, 0.0313409661499979
470.0, 0.03930437614858416
471.0, 0.047560419162500485
472.0, 0.055104308205094966
473.0, 0.07057974943703375
474.0, 0.08406167372144485
475.0, 0.09205061012467146
476.0, 0.10294542650379164
477.0, 0.11552635722843758
478.0, 0.11623380922781712
479.0, 0.11184123408405128
480.0, 0.1112568254707251
481.0, 0.11480661546167249
482.0, 0.12017871267930298
483.0, 0.13550322246055194
484.0, 0.1479141381534161
485.0, 0.16243749003401853
486.0, 0.1666746559519235
487.0, 0.1626057697584992
488.0, 0.15083597576503274
489.0, 0.1232064512362042
490.0, 0.0935460507249659
491.0, 0.07622246375390763
492.0, 0.061424959668999315
493.0, 0.04816095699194657
494.0, 0.039707248125842635
495.0, 0.03821925721099454
496.0, 0.0342858218532418
497.0, 0.03382440164780863
498.0, 0.0336791435353821
499.0, 0.031786525115539005
500.0, 0.032489345835363635
501.0, 0.03785220808713068
502.0, 0.0416217377195474
503.0, 0.04614497987559168
504.0, 0.05547256683614969
505.0, 0.061685917360462965
506.0, 0.07420300286690731
507.0, 0.0924944589917011
508.0, 0.10893538937845158
509.0, 0.13666887181257908
510.0, 0.18050715479644797
511.0, 0.22820591012224822
512.0, 0.28487316983674704
513.0, 0.3507386984919453
514.0, 0.42516002448114854
515.0, 0.5107145263773595
516.0, 0.61288784140919
517.0, 0.7376743133357284
518.0, 0.8500181964233625
519.0, 0.9429146440759316
520.0, 0.9972978749090946
521.0, 0.9852006352506069
522.0, 0.8944069864813299
523.0, 0.7616493062322698
524.0, 0.6186329967024333
525.0, 0.48659210170073275
526.0, 0.374471808283841
527.0, 0.2851661877601323
528.0, 0.2190666657680626
529.0, 0.16711927424447073
530.0, 0.1380015131852049
531.0, 0.1128167650010863
532.0, 0.09076447026131992
533.0, 0.07545315028409708
534.0, 0.06780479792670853
535.0, 0.059410902034187946
536.0, 0.04852581512015583
537.0, 0.042126077436224416
538.0, 0.03811790266822852
539.0, 0.033113505818005755
540.0, 0.02841478703856841
541.0, 0.02786635609693481
542.0, 0.023312710021443746
543.0, 0.018594989406223398
544.0, 0.014610984816603976
545.0, 0.012668808449450559
546.0, 0.011330285542410756
547.0, 0.0097353746055984
548.0, 0.009648632625742629
549.0, 0.009156032404071255
550.0, 0.010411289950915824
551.0, 0.011335177128815205
552.0, 0.01044629219350962
553.0, 0.008545057029892637
554.0, 0.006676010492580097
555.0, 0.003109305439529326
556.0, 0.004517781610757165
557.0, 0.003959149199660112
558.0, 0.0031647435239457247
559.0, 0.0034416001215573006
560.0, 0.004139615276191018
561.0, 0.003716938527994988
562.0, 0.0036577578334052534
563.0, 0.004904020538013935
564.0, 0.004082069840497297
565.0, 0.003329395265703342
566.0, 0.003622972814320847
567.0, 0.005323028076326973
568.0, 0.007731437303425216
569.0, 0.0049774707648745555
570.0, 0.004621227388088015
571.0, 0.007907193631448851
572.0, 0.010959056429911313
573.0, 0.01215430786571749
574.0, 0.012990012429900362
575.0, 0.016629328995549864
576.0, 0.018998412996755344
577.0, 0.0214828021335513
578.0, 0.027862365702501998
579.0, 0.03863580165651981
580.0, 0.04854650754272445
581.0, 0.05510863251755188
582.0, 0.06687156825570781
583.0, 0.08081002391758839
584.0, 0.08326537948678103
585.0, 0.084514559015703
586.0, 0.08440614764885229
587.0, 0.07920322696101723
588.0, 0.06755804866617338
589.0, 0.05586028431554746
590.0, 0.03919615570570069
591.0, 0.03074467038194308
592.0, 0.027159239539643006
593.0, 0.023188158709344403
594.0, 0.01773646753722981
595.0, 0.014097654062985585
596.0, 0.015888915326155217
597.0, 0.01234003923138792
598.0, 0.00863994709424683
599.0, 0.007977064766656728
600.0, 0.00678975507477472
601.0, 0.0046741639676362995
602.0, 0.004357630407842632
603.0, 0.0038413940234738823
604.0, 0.001424509328177995
605.0, 0.003925771080719706
606.0, 0.003971597779296945
607.0, 0.003769376459803189
608.0, 0.004898566562935224
609.0, 0.005417746241924927
610.0, 0.0035847654217081473
611.0, 0.0033127599243005443
612.0, 0.005953367864684006
613.0, 0.003553586552583698
614.0, 0.0006366682430860805
615.0, 0.0012173721463491429
616.0, 0.004172191173173928
617.0, 0.006440545148871205
618.0, 0.006491230505136014
619.0, 0.00812659404691891
620.0, 0.008696346584828292
621.0, 0.009538066465192304
622.0, 0.011441393897469565
623.0, 0.012817849349903284
624.0, 0.010415758619366135
625.0, 0.01101429502749293
626.0, 0.012030145190893142
627.0, 0.014364399455666994
628.0, 0.017776022988565295
629.0, 0.022912830195007224
630.0, 0.02887693889352361
631.0, 0.028756745079298346
632.0, 0.03230032689797196
633.0, 0.03412101870234263
634.0, 0.03511846203588653
635.0, 0.03508024286651147
636.0, 0.03432251157860663
637.0, 0.03296594744259227
638.0, 0.02953203262815124
639.0, 0.026202423909843148
640.0, 0.024096715459805358
641.0, 0.02163436728887014
642.0, 0.022403216726493584
643.0, 0.02143302746474549
644.0, 0.016599650900217065
645.0, 0.020198630380730914
646.0, 0.011463300889673188
647.0, 0.01327613947907831
648.0, 0.009231341439056675
649.0, 0.007003626342772144
650.0, 0.007207470096261118
651.0, 0.006988537330704102
652.0, 0.007108481357297426
653.0, 0.005844102189294059
654.0, 0.0049465144196305984
655.0, 0.005157238818384384
656.0, 0.0041981430478322925
657.0, 0.0031377668899814815
658.0, 0.0026155760807175126
659.0, 0.0014664975074284016
660.0, 0.001736996927223448
661.0, 0.00031205948907543743
662.0, 0.0003475269065997309
663.0, 0.002007020456335445
664.0, 0.0030793567363176398
665.0, 0.0023220924208731193
666.0, 0.0010934618259237
667.0, 0.002736755621396765
668.0, 0.0022362127082919507
669.0, 0.0025247524155187977
670.0, 0.0026444590601196107
671.0, 0.0014793196204114815
672.0, 0.0012476180035453552
673.0, 0.0027830114745004335
674.0, 0.0009568303328022071
675.0, 0.0015451822693989838
676.0, 0.0062501331772477145
677.0, 0.008822998584644842
678.0, 0.005278886641291342
679.0, 0.003983563239857109
680.0, 0.008125804952397942
681.0, 0.00792642695039999
682.0, 0.0043635023072484
683.0, 0.003789440132060382
684.0, 0.0037616233592679548
685.0, 0.002938697248903507
686.0, 0.0023142156540982696
687.0, 0.0018356698766895923
688.0, 0.0006461900659258976
689.0, 0.0003092240761694044
690.0, 0.004433468601934226
691.0, 0.0038354467183932283
692.0, 0.003911709544476674
693.0, 0.0034420302584487216
694.0, 0.0029339636027993533
695.0, 0.0030145774705504745
696.0, 0.002177445992710528
697.0, 0.0022474400324150527
698.0, 0.0027814690925015415
699.0, 0.0012079733784015195
700.0, 0.0018186364008992999
701.0, 0.002855033989807524
702.0, 0.0021578857650778644
703.0, 0.0008380427632784308
704.0, 0.0024276552668903366
705.0, 0.002415499779356323
706.0, 0.0017276848507274422
707.0, 0.0019517970971876435
708.0, 0.0017873292637450376
709.0, 0.0027618145140473976
710.0, 0.004044804148372482
711.0, 0.00044232509879776996
712.0, 0.001275178257051851
713.0, 0.0018156662396417804
714.0, 0.0052520225180381856
715.0, 0.004284957499783709
716.0, 0.002797370105302795
717.0, 0.00265048290907804
718.0, 0.00176670099097786
719.0, 0.0025230395833073845
720.0, 0.000724623646217385
721.0, 0.0021176783000973285
722.0, 0.002559933434698607
723.0, 0.004407628929229072
724.0, 0.003952396661283428
725.0, 0.0016989631372924807
726.0, 0.004518796285693408
727.0, 0.0029909963346265115
728.0, 0.003601347475006998
729.0, 0.002434268751888735
730.0, 0.0008581124555647087
731.0, 0.00023084903600305233
732.0, 0.0004119294754036598
733.0, 0.0012148770377320701
734.0, 0.003489750674603581
735.0, 0.0023608697160267455
736.0, 0.002916103881412679
737.0, 0.0022976780820491063
738.0, 0.0028457573267348444
739.0, 0.0036812795684222207
740.0, 0.004340944118678178
741.0, 0.005033978633647118
742.0, 0.0037616570997912866
743.0, 0.0015675298180678001
744.0, 0.0008865168968419305
745.0, 0.0019331996555395324
746.0, 0.0016219480334806744
747.0, 0.002170267015277701
748.0, 0.0038681823532765976
749.0, 0.003374923887678004
750.0, 0.00325950177423397
751.0, 0.0030795134341433127
752.0, 0.0023903360506693687
753.0, 0.0016905449033658222
754.0, 0.0021771976945792397
755.0, 0.003804723787897933
756.0, 0.004063671629490098
757.0, 0.0009853830028703665
758.0, 0.0027360600171146623
759.0, 0.008093253698809082
760.0, 0.003975369145613677
761.0, 0.0024125608796621055
762.0, 0.0018149086663534122
763.0, 0.002912606537613034
764.0, 0.005915289732575971
765.0, 0.005727362871977344
766.0, 0.0026501785385079236
767.0, 0.0015799141870120675
768.0, 0.003007696768603306
769.0, 0.005593202407132425
770.0, 0.005949676394479159
771.0, 0.005388245169972376
772.0, 0.0062163262173233124
773.0, 0.00622208657867776
774.0, 0.003276629523263832
775.0, 0.0060352348488607885
776.0, 0.003298225490762671
777.0, 0.0013172349222670926
778.0, 0.0009879997688966413
779.0, 0.0010685386964446799
780.0, 0.002662117259707317
781.0, 0.00798568614648199
782.0, 0.0028024942931956127
783.0, 0.005853047877319424
784.0, 0.00529552711088378
785.0, 0.0030016794117206616
786.0, 0.001657669315199625
787.0, 0.0024804400040450425
788.0, 0.004457075836630417
789.0, 0.0055745954889787515
790.0, 0.006961202616233385
791.0, 0.0029529610181682625
792.0, 0.0042894345972660335
793.0, 0.004034257772473657
794.0, 0.004208989319934736
795.0, 0.003440634463616505
796.0, 0.001466231686907924
797.0, 0.003060901426522942
798.0, 0.003208819868732271
799.0, 0.0051526815607312185
800.0, 0.0055881281549067675
801.0, 0.006663578577461132
802.0, 0.009679395718093047
803.0, 0.008824312195671709
804.0, 0.0036893979935971382
805.0, 0.003555116062983479
806.0, 0.007374798657955509
807.0, 0.00444494101824015
808.0, 0.008459975079864025
809.0, 0.00996218844446103
810.0, 0.012932168939193403
811.0, 0.01494461070797089
812.0, 0.016358146389709
813.0, 0.02166640721566216
814.0, 0.025299002753636987
815.0, 0.02444732575951818
816.0, 0.029990986497513403
817.0, 0.033460378396264374
818.0, 0.03316548334721952
819.0, 0.030453503558987294
820.0, 0.02770791589665655
821.0, 0.026312450628630857
822.0, 0.024942923084552926
823.0, 0.018286859408313417
824.0, 0.017950711528076375
825.0, 0.016265929116528736
826.0, 0.016893615098622618
827.0, 0.015048926739364725
828.0, 0.010316002373238257
829.0, 0.006942087571593476
830.0, 0.007396463064178464
831.0, 0.009613035196210507
832.0, 0.011178580987507354
833.0, 0.01028499738149225
834.0, 0.006679410975974039
835.0, 0.005982406120181366
836.0, 0.005529266950686012
837.0, 0.005496503652965207
838.0, 0.00941512465462165
839.0, 0.008541543140902084
840.0, 0.007904542594462511
841.0, 0.009434653379279156
842.0, 0.009058678024462457
843.0, 0.008972023908495318
844.0, 0.009353814352653133
845.0, 0.009456621196400467
846.0, 0.009069487444234943
847.0, 0.008576075586677953
848.0, 0.0069349942966082136
849.0, 0.007329602193002062
850.0, 0.003362590968787636
851.0, 0.0037147664394549754
852.0, 0.007794980081494358
853.0, 0.01125294724316514
854.0, 0.011182464926246556
855.0, 0.00941406456929652
856.0, 0.011041964628460871
857.0, 0.008035889632641069
858.0, 0.01120852332750035
859.0, 0.010840343452808997
860.0, 0.008356664845726744
861.0, 0.006752473640116578
862.0, 0.005982444951209309
863.0, 0.004957087049125586
864.0, 0.005073884164642007
865.0, 0.008494681171286069
866.0, 0.005116051377532818
867.0, 0.007300787526673142
868.0, 0.00796620281545944
869.0, 0.008262535491719352
870.0, 0.009068045421887813
871.0, 0.009851277442453413
872.0, 0.010163354776215303
873.0, 0.01132526972120616
874.0, 0.01583671483687848
875.0, 0.006488292151786718
876.0, 0.008385423680467418
877.0, 0.010996128153080802
878.0, 0.009240998946855284
879.0, 0.008347066797170753
880.0, 0.009544102180260425
881.0, 0.00908643511638041
882.0, 0.012523571078776946
883.0, 0.010240710311692835
884.0, 0.007898325868498918
885.0, 0.010072816580173368
886.0, 0.004592677361607123
887.0, 0.005864546150558439
888.0, 0.008558432468804215
889.0, 0.00582236726175712
890.0, 0.0060712189949726535
891.0, 0.0067720902250648154
892.0, 0.002198996583009915
893.0, 0.010024304067814018
894.0, 0.0056552854224041806
895.0, 0.005184903785345433
896.0, 0.004971678941481292
897.0, 0.0023570228550703273
898.0, 0.003357170283719038
899.0, 0.00981046586542339
900.0, 0.002662174604618239
901.0, 0.0012741414007619053
902.0, 0.006309012119176933
903.0, 0.0024923585833593115
904.0, 0.004283992465092341
905.0, 0.0033135867882320147
906.0, 0.0014918851706041487
907.0, 0.004231472848611952
908.0, 0.005766373416811119
909.0, 0.0035556837543831185
910.0, 0.004254204297938334
911.0, 0.005304099134481391
912.0, 0.001762510803619997
913.0, 0.003566902017043173
914.0, 0.004755430720363815
915.0, 0.003474161339927876
916.0, 0.0032238216102830723
917.0, 0.004906424375236416
918.0, 0.005175500041368658
919.0, 0.0014972796457696264
920.0, 0.0013525088858339397
921.0, 0.004152356037225943
922.0, 0.0027754642808122958
923.0, 0.00196515549836811
924.0, 0.003975331282047029
925.0, 0.00526550058932158
926.0, 0.0033623764543690513
927.0, 0.0034683219911862996
928.0, 0.005031819691569835
929.0, 0.0008647466653588717
930.0, 0.005812203144416498
931.0, 0.005407710187482318
932.0, 0.002963825538509387
933.0, 0.00400566185261769
934.0, 0.0062038971897906475
935.0, 0.004381706015764276
936.0, 0.0014548208887062968
937.0, 0.002155451879706457
938.0, 0.004796798840299727
939.0, 0.0033110744432171242
940.0, 0.00406679583405309
941.0, 0.002007829115650051
942.0, 0.002783539899571334
943.0, 0.00373691558426328
944.0, 0.0015927234890398662
945.0, 0.0048655139418964325
946.0, 0.011405694711038734
947.0, 0.007392712707708232
948.0, 0.0037259011486464925
949.0, 0.003335696332236816
950.0, 0.0019237358100707956
951.0, 0.0011622017901280698
952.0, 0.0028926584660587595
953.0, 0.004441878483188199
954.0, 0.002715669816846882
955.0, 0.001540454507182576
956.0, 0.00013241749881240058
957.0, 0.003010611585653913
958.0, 0.0030857129790651146
959.0, 0.003424007007808264
960.0, 0.002871825163219564
961.0, 0.0027246036723303996
962.0, 0.002087187590578264
963.0, 0.000616628339065588
964.0, 0.0011335057128246272
965.0, 0.00036417558491843346
966.0, 0.0001211317897524088
967.0, 0.004644017031158953
968.0, 0.0032603407446499346
969.0, 0.0021415532028881286
970.0, 0.002726070456782447
971.0, 0.002197411326803761
972.0, 0.00045513805883192973
973.0, 0.0001359278848153031
974.0, 0.0008236329242516235
975.0, 0.0025311745428416316
976.0, 0.0037558003659286447
977.0, 0.001153124013007358
978.0, 0.0012326438967168207
979.0, 0.006386273646000775
980.0, 0.007319775744425661
981.0, 0.005411490730473886
982.0, 0.004966249342987048
983.0, 0.0033113720784516227
984.0, 0.0012334485636764016
985.0, 0.0034824911092146624
986.0, 0.009098255912852092
987.0, 0.007882028631740642
988.0, 0.008638831773561933
989.0, 0.006251356579457256
990.0, 0.004931114068644052
991.0, 0.005488601627843844
992.0, 0.005232834148341477
993.0, 0.0050418671127542836
994.0, 0.006272484194202384
995.0, 0.005170821859800471
996.0, 0.00586552736280619
997.0, 0.005742857212702744
998.0, 0.006726629655238583
999.0, 0.005529052347887491
1000.0, 0.002536831073261919
1001.0, 0.0011327140989389492
1002.0, 0.002642648937563004
1003.0, 0.004594649751635686
1004.0, 0.005765288047188417
1005.0, 0.010307342850547784
1006.0, 0.006005548159252638
1007.0, 0.006598456014406361
1008.0, 0.00852666608916181
1009.0, 0.006755573447340727
1010.0, 0.0069452539557854085
1011.0, 0.007017672045212361
1012.0, 0.006276889517384879
1013.0, 0.01096697309592504
1014.0, 0.013043407036741627
1015.0, 0.00829141884648635
1016.0, 0.006235059302709734
1017.0, 0.009487409397408166
1018.0, 0.008013482634392216
1019.0, 0.006282079731981139
1020.0, 0.006089188496232915
1021.0, 0.008310844213125486
1022.0, 0.010620541273679618
1023.0, 0.008804700034374254
1024.0, 0.005113431614669999
1025.0, 0.007693566217286238
1026.0, 0.004969007595268422
1027.0, 0.01381899642658225
1028.0, 0.013327792027036807
1029.0, 0.014789276873180919
1030.0, 0.011773769173573142
1031.0, 0.01098721630552606
1032.0, 0.01347434287720662
1033.0, 0.012563774999173211
1034.0, 0.012807770003419485
1035.0, 0.012602836366946443
1036.0, 0.017145049412906947
1037.0, 0.017617696777608056
1038.0, 0.019663370951957266
1039.0, 0.0244021950542047
1040.0, 0.025936535147230256
1041.0, 0.02770794247513356
1042.0, 0.03141799000153888
1043.0, 0.034377541215156994
1044.0, 0.03640048314413213
1045.0, 0.04033206441118798
1046.0, 0.04171392781128476
1047.0, 0.04499414465695799
1048.0, 0.04952260399853584
1049.0, 0.04570854151700589
1050.0, 0.043075622583610855
1051.0, 0.04315206419388261
1052.0, 0.04308389198250772
1053.0, 0.041491010774630646
1054.0, 0.04103772670138952
1055.0, 0.04326851911743105
1056.0, 0.03978791237292463
1057.0, 0.03898220567428028
1058.0, 0.03337050467195092
1059.0, 0.03374167563070298
1060.0, 0.036709357000968515
1061.0, 0.036158531570048225
1062.0, 0.03336484737381727
1063.0, 0.031909410376939104
1064.0, 0.03223008044912359
1065.0, 0.03219825975641681
1066.0, 0.03247038386620021
1067.0, 0.038149490190247964
1068.0, 0.03360183203894039
1069.0, 0.03508362727323536
1070.0, 0.030637968407155786
1071.0, 0.0264316073001648
1072.0, 0.02382867019478424
1073.0, 0.024368647911029197
1074.0, 0.022665676308060042
1075.0, 0.018721488958764652
1076.0, 0.017157318174820854
1077.0, 0.012813231789452267
1078.0, 0.017031452102957322
1079.0, 0.020081493374514897
1080.0, 0.018219253172052082
1081.0, 0.014555472020875924
1082.0, 0.01584807040010575
1083.0, 0.017512289350728672
1084.0, 0.0179169744810562
1085.0, 0.022879060342422933
1086.0, 0.02833038069631212
1087.0, 0.028891430369249002
1088.0, 0.03503861088970099
1089.0, 0.024696237087842965
1090.0, 0.01721910924360904
1091.0, 0.013247093824618245
1092.0, 0.009138857784280823
1093.0, 0.013661259720307368
1094.0, 0.013824922055133285
1095.0, 0.01178680145439515
1096.0, 0.014898510075438565
1097.0, 0.015710630159616466
1098.0, 0.008148423678735407
1099.0, 0.007465184940488718
1100.0, 0.012293896567335785
1101.0, 0.006138681870865234
1102.0, 0.01304616230247627
1103.0, 0.012188632920955246
1104.0, 0.01350225641445928
1105.0, 0.014704298939249802
1106.0, 0.018097309888740188
1107.0, 0.01871376949010524
1108.0, 0.01830519743798645
1109.0, 0.02080545472792555
1110.0, 0.020478713974649433
1111.0, 0.01626779205162841
1112.0, 0.01827923937502729
1113.0, 0.01957782603296478
1114.0, 0.020213757000718324
1115.0, 0.029840617604207753
1116.0, 0.029802657041557632
1117.0, 0.033271354854525925
1118.0, 0.04170603437172285
1119.0, 0.04365206174849546
1120.0, 0.04355704721607441
1121.0, 0.04990736042024962
1122.0, 0.051188493718259884
1123.0, 0.05704151071209852
1124.0, 0.05791491861930866
1125.0, 0.06837554471982117
1126.0, 0.07120584329711134
1127.0, 0.07829369837676883
1128.0, 0.08259177346088066
1129.0, 0.09087178918083871
1130.0, 0.10182034869634794
1131.0, 0.11244167933523358
1132.0, 0.12366149906121572
1133.0, 0.1376212953786215
1134.0, 0.15311621186295318
1135.0, 0.16064017333739683
1136.0, 0.1697356114422517
1137.0, 0.1809667152805537
1138.0, 0.18164450909623917
1139.0, 0.175775517357156
1140.0, 0.1740899009116283
1141.0, 0.1666122483203412
1142.0, 0.1525674036791204
1143.0, 0.1364295798162417
1144.0, 0.12277711792023607
1145.0, 0.11166118732175932
1146.0, 0.0959458070010314
1147.0, 0.08431285709520145
1148.0, 0.07506020699333006
1149.0, 0.06713658372213022
1150.0, 0.056318892047081806
1151.0, 0.0487690003202249
1152.0, 0.04160182838199513
1153.0, 0.037351596536510885
1154.0, 0.034818652117376295
1155.0, 0.03270216783873028
1156.0, 0.028287563013560432
1157.0, 0.022235615006387956
1158.0, 0.021406185029010545
1159.0, 0.019379442253520483
1160.0, 0.027128295650713015
1161.0, 0.016980294460128303
1162.0, 0.023195458943511917
1163.0, 0.016341639599948166
1164.0, 0.011272530011926872
1165.0, 0.013333553334071902
1166.0, 0.013170462319195258
1167.0, 0.011821436849729533
1168.0, 0.011813744794997954
1169.0, 0.010446828904153589
1170.0, 0.008205452270367427
1171.0, 0.006536995442916362
1172.0, 0.009372859534430721
1173.0, 0.012708908222319588
1174.0, 0.00781779374918746
1175.0, 0.011430642509430513
1176.0, 0.01175421342515637
1177.0, 0.0040046935614465075
1178.0, 0.001160632540177635
1179.0, 0.004212714078264552
1180.0, 0.006315709512493765
1181.0, 0.007008651058460438
1182.0, 0.007255316558163147
1183.0, 0.0041616187661250355
1184.0, 0.0058965433018389945
1185.0, 0.001671663961532669
1186.0, 0.007592687380550743
1187.0, 0.004897464254877869
1188.0, 0.007364419962558079
1189.0, 0.002356979386575952
1190.0, 0.001987880833112888
1191.0, 0.002989137245963982
1192.0, 0.002981203362315396
1193.0, 0.0027821850936545333
1194.0, 0.002720916403046597
1195.0, 0.00258097429539424
1196.0, 0.0020846482360880594
1197.0, 0.0018840420651914185
1198.0, 0.001993649420159487
1199.0, 7.278951198101463e-05
1200.0, 0.0019113262447882787
1201.0, 0.002012318612715945
1202.0, 0.00514543927274781
1203.0, 0.0033519838956588568
1204.0, 0.0045810240319700225
1205.0, 0.0036010554671998506
1206.0, 0.002127740061810204
1207.0, 0.0033150449443448034
1208.0, 0.0031763471236345366
1209.0, 0.0036555925164528614
1210.0, 0.004845220651245027
1211.0, 0.005359549451773385
1212.0, 0.0027593191569326584
1213.0, 0.00045813600960466433
1214.0, 0.005654711498209786
1215.0, 0.002189515321237562
1216.0, 0.003588981733230338
1217.0, 0.004210136573399352
1218.0, 0.006876124567541932
1219.0, 0.007702608840536492
1220.0, 0.004415889345160429
1221.0, 0.0023816699743210547
1222.0, 0.002275102115610173
1223.0, 0.0009068438538857619
1224.0, 0.0029179180592153213
1225.0, 0.0009752083871881566
1226.0, 0.0005468615327834728
1227.0, 0.0038959331897451548
1228.0, 0.005925937444212059
1229.0, 0.001942803203728391
1230.0, 0.004691097279035318
1231.0, 0.004491014785314481
1232.0, 0.00599965674306083
1233.0, 0.00762690366100163
1234.0, 0.005525786681518305
1235.0, 0.003454988027673514
1236.0, 0.002932925052178563
1237.0, 0.004984803158009738
1238.0, 0.008017361662007961
1239.0, 0.005672163627570406
1240.0, 0.00145499995378517
1241.0, 0.0037186066207333416
1242.0, 0.00285650901952882
1243.0, 0.006514031105394651
1244.0, 0.007867190809967367
1245.0, 0.008322343052391004
1246.0, 0.008313669594150487
1247.0, 0.005422638015346887
1248.0, 0.003235260672825878
1249.0, 0.004258120153800901
1250.0, 0.0037470744391364494
1251.0, 0.00355635550994013
1252.0, 0.004056748667715366
1253.0, 0.00032537878775496464
1254.0, 0.0038864265942284495
1255.0, 0.007390705525971352
1256.0, 0.0055029944583305035
1257.0, 0.005483054702351102
1258.0, 0.0032613483794612093
1259.0, 0.0021479119509819583
1260.0, 0.001022436781697664
1261.0, 0.0001596447209851664
1262.0, 0.0001322531199460241
1263.0, 0.00029949367657795296
1264.0, 0.00038469820237835664
1265.0, 0.00023246558020477241
1266.0, 0.0004306404676767634
1267.0, 0.00041189996771446067
1268.0, 0.0005784578717268065
1269.0, 0.004039588620343222
1270.0, 0.004794383384924502
1271.0, 0.0062297639271052165
1272.0, 0.005313965893961688
1273.0, 0.005138047371639757
1274.0, 0.0020294111641067742
1275.0, 0.002263533526195497
1276.0, 0.002295802701727647
1277.0, 0.0007688316695594807
1278.0, 0.0026099486792523757
1279.0, 0.0045148186658379545
1280.0, 0.0032068739611869597
1281.0, 0.0063206001685192845
1282.0, 0.00733397910369757
1283.0, 0.005861023582032489
1284.0, 0.003829645025429114
1285.0, 0.0015750071452896646
1286.0, 0.0018002620503041644
1287.0, 0.005315485311870889
1288.0, 0.009705348611108772
1289.0, 0.005741765594645047
1290.0, 0.0064115458507845976
1291.0, 0.005315599475211153
1292.0, 0.0012388168099009792
1293.0, 0.001555733196868334
1294.0, 0.004875142126516823
1295.0, 0.008910943842663522
1296.0, 0.00806628894973079
1297.0, 0.007195159652969668
1298.0, 0.008467166781162518
1299.0, 0.013991625666962678
1300.0, 0.01257274536455577
1301.0, 0.006528551049963648
1302.0, 0.013373899829130967
1303.0, 0.009078821117582205
1304.0, 0.009877174876906909
1305.0, 0.008004932337855175
1306.0, 0.004236974657824907
1307.0, 0.006101659449934524
1308.0, 0.007434670413851321
1309.0, 0.0045641739909981095
1310.0, 0.005684556666562264
1311.0, 0.008854848903970721
1312.0, 0.007841289546005412
1313.0, 0.005012466794635152
1314.0, 0.005852243571636554
1315.0, 0.006305306823597146
1316.0, 0.00938138633212507
1317.0, 0.010988960783560788
1318.0, 0.009722663725533588
1319.0, 0.006602215974469333
1320.0, 0.008054029513279154
1321.0, 0.008971787603438959
1322.0, 0.00619421228762258
1323.0, 0.006564225677541398
1324.0, 0.00937772923780576
1325.0, 0.009274410447121264
1326.0, 0.007031986159998126
1327.0, 0.004537772072496172
1328.0, 0.004121280949815345
1329.0, 0.006618027228173287
1330.0, 0.009438761978414015
1331.0, 0.0017239773266691846
1332.0, 0.009187047336011275
1333.0, 0.0041348238833935555
1334.0, 0.007056960170724037
1335.0, 0.006307587353481389
1336.0, 0.006698270525977876
1337.0, 0.00718845058586062
1338.0, 0.006848522994955295
1339.0, 0.006689408716077899
1340.0, 0.006303820168300299
1341.0, 0.0063417367617245105
1342.0, 0.006886762244149286
1343.0, 0.007621656813057326
1344.0, 0.009060651470356784
1345.0, 0.008583408412361052
1346.0, 0.009465071669576093
1347.0, 0.006510836696785126
1348.0, 0.006311084363467817
1349.0, 0.005025231694597287
1350.0, 0.0068305858708818815
1351.0, 0.00400072066306592
1352.0, 0.004892207673152726
1353.0, 0.005920699316306429
1354.0, 0.006359215926924443
1355.0, 0.006136903778729323
1356.0, 0.006203634639475968
1357.0, 0.006584011358538123
1358.0, 0.006319050911417433
1359.0, 0.005887583693038614
1360.0, 0.004914383914243776
1361.0, 0.004304615658020203
1362.0, 0.006424156734555039
1363.0, 0.005407100777677547
1364.0, 0.009093931681839952
1365.0, 0.010253844201867635
1366.0, 0.00661325653428288
1367.0, 0.0033484567738593825
1368.0, 0.007429998652783814
1369.0, 0.00883290572508661
1370.0, 0.007446948131234846
1371.0, 0.003572726123607623
1372.0, 0.005099171240016308
1373.0, 0.006185396842221643
1374.0, 0.008731452328610731
1375.0, 0.00826622612275106
1376.0, 0.007420582599972769
1377.0, 0.00932938524802068
1378.0, 0.009904342607015068
1379.0, 0.0073443367427803805
1380.0, 0.003285311512020136
1381.0, 0.002077438498306503
1382.0, 0.004674841874233924
1383.0, 0.003413444793363552
1384.0, 0.00899767635670894
1385.0, 0.006018180226380645
1386.0, 0.0004581820313599599
1387.0, 0.0073123633622169375
1388.0, 0.005014441136173178
1389.0, 0.0036854633234549698
1390.0, 0.007941774730055187
1391.0, 0.004441021655722232
1392.0, 0.0022237788192488502
1393.0, 0.004629708804792451
1394.0, 0.0038944703020436463
1395.0, 0.004019037491059575
1396.0, 0.00450587095057159
1397.0, 0.002217273826199999
1398.0, 0.0016926626554727056
1399.0, 0.0022754262827321386
1400.0, 0.003874413416909783
1401.0, 0.00416516881648591
1402.0, 0.00711122426419772
1403.0, 0.0006480146512592606
1404.0, 0.0046997677394771675
1405.0, 0.0017072951394321422
1406.0, 0.009016755599600057
1407.0, 0.006525716063692812
1408.0, 0.0032169372033833197
1409.0, 0.002155368617973482
1410.0, 0.0019538369390723473
1411.0, 0.003119185548631227
1412.0, 0.002404939390518359
1413.0, 0.003155206854320046
1414.0, 0.003549963515970261
1415.0, 0.004304127238888435
1416.0, 0.005074858615942513
1417.0, 0.0029877907546323476
1418.0, 0.0016761588235988196
1419.0, 0.00497817341935994
1420.0, 0.006267060044107251
1421.0, 0.0012396230987397718
1422.0, 0.0039619931418955435
1423.0, 0.0037835843929744776
1424.0, 0.010334410549751191
1425.0, 0.005809163499941508
1426.0, 0.009371120734224593
1427.0, 0.006361410570013951
1428.0, 0.007066317866228976
1429.0, 0.005145253918495287
1430.0, 0.005446042909963622
1431.0, 0.003398410669300557
1432.0, 0.005426273355608325
1433.0, 0.005391440837197773
1434.0, 0.006192701653202323
1435.0, 0.005550633635266144
1436.0, 0.00737409603330487
1437.0, 0.010913465420787175
1438.0, 0.011914604525490277
1439.0, 0.010978385819699435
1440.0, 0.009011939531808722
1441.0, 0.01052723177566264
1442.0, 0.012226364637629189
1443.0, 0.01023838327249329
1444.0, 0.013427077401722878
1445.0, 0.007233885629875442
1446.0, 0.012006363540254764
1447.0, 0.007693865819691568
1448.0, 0.008286405128622831
1449.0, 0.011153918416221346
1450.0, 0.003741187855019356
1451.0, 0.009257908560619936
1452.0, 0.008056158402504846
1453.0, 0.0090639970889608
1454.0, 0.008302700457701916
1455.0, 0.0075951058978911854
1456.0, 0.005288804393236978
1457.0, 0.005556823355260148
1458.0, 0.01232968369907889
1459.0, 0.00928133733109621
1460.0, 0.005822993107721355
1461.0, 0.007519128411780245
1462.0, 0.0031658557450354396
1463.0, 0.006821010044605391
1464.0, 0.010501104208071817
1465.0, 0.008637114672494962
1466.0, 0.01034106800266285
1467.0, 0.0017169544508884873
1468.0, 0.007761577006014627
1469.0, 0.009798785198036307
1470.0, 0.003280102064721531
1471.0, 0.01312470173153104
1472.0, 0.011930623087011646
1473.0, 0.0021424236895240664
1474.0, 0.006472759493648015
1475.0, 0.007949301893848779
1476.0, 0.009368452535135604
1477.0, 0.008826347386930528
1478.0, 0.008574402243594107
1479.0, 0.009732261920503553
1480.0, 0.011865476612076617
1481.0, 0.012964923187463943
1482.0, 0.007630475663944357
1483.0, 0.007752596228952816
1484.0, 0.007424687706516014
1485.0, 0.002620441441862966
1486.0, 0.0066788355535897835
1487.0, 0.012111009895764894
1488.0, 0.008726250154877333
1489.0, 0.004085734348984903
1490.0, 0.008362924083954445
1491.0, 0.00480562914010461
1492.0, 0.004278976756474057
1493.0, 0.009683018147734168
1494.0, 0.012228301650565054
1495.0, 0.008209495750944481
1496.0, 0.002652533127713531
1497.0, 0.0021236713862519104
1498.0, 0.00783735718635176
1499.0, 0.009998448368490608
1500.0, 0.009566932286061841
1501.0, 0.006117639261635136
1502.0, 0.012422152610944582
1503.0, 0.009214057281170071
1504.0, 0.0069493356146855265
1505.0, 0.005676134820028786
1506.0, 0.009742550006140487
1507.0, 0.01189505411244294
1508.0, 0.009711855541590115
1509.0, 0.009802070032838096
1510.0, 0.006697973744778602
1511.0, 0.004251410617146691
1512.0, 0.006480529605067119
1513.0, 0.006205427825719774
1514.0, 0.003982568989215936
1515.0, 0.001065021526128273
1516.0, 0.003900143575975029
1517.0, 0.006120063213787702
1518.0, 0.003026699128267695
1519.0, 0.007467543353437458
1520.0, 0.013507446411361354
1521.0, 0.01113463374172117
1522.0, 0.00982865600593156
1523.0, 0.010370659309817759
1524.0, 0.011788295152807738
1525.0, 0.0056824380694167
1526.0, 0.011871439303417714
1527.0, 0.007868900752408668
1528.0, 0.011554902686095103
1529.0, 0.007812858525684037
1530.0, 0.008369007028966088
1531.0, 0.008582386957509125
1532.0, 0.008788401094631523
1533.0, 0.00355558914215568
1534.0, 0.009764875624564613
1535.0, 0.012977975089352035
1536.0, 0.011616398245416685
1537.0, 0.005318770731156964
1538.0, 0.004308102972887521
1539.0, 0.005769561307812797
1540.0, 0.008950131563136354
1541.0, 0.012621316847271614
1542.0, 0.008496455221574335
1543.0, 0.006544747844180977
1544.0, 0.008658410684535444
1545.0, 0.0059287097538857905
1546.0, 0.006969164568087574
1547.0, 0.007928737065861356
1548.0, 0.009501773849161017
1549.0, 0.004188383862194202
1550.0, 0.00539378032002432
1551.0, 0.012318819497806497
1552.0, 0.009620423161332487
1553.0, 0.01367010809693782
1554.0, 0.01697518050130805
1555.0, 0.011956342819233828
1556.0, 0.008830853510882785
1557.0, 0.00799707877082889
1558.0, 0.0005835894545246291
1559.0, 0.00857949235297395
1560.0, 0.006367542588154372
1561.0, 0.003923628147455169
1562.0, 0.0006279555003134802
1563, 0.0
1564, 0.0
1565, 0.0
1566, 0.0
1567, 0.0
1568, 0.0
1569, 0.0
1570, 0.0
1571, 0.0
1572, 0.0
1573, 0.0
1574, 0.0
1575, 0.0
1576, 0.0
1577, 0.0
1578, 0.0
1579, 0.0
1580, 0.0
1581, 0.0
1582, 0.0
1583, 0.0
1584, 0.0
1585, 0.0
1586, 0.0
1587, 0.0
1588, 0.0
1589, 0.0
1590, 0.0
1591, 0.0
1592, 0.0
1593, 0.0
1594, 0.0
1595, 0.0
1596, 0.0
1597, 0.0
1598, 0.0
1599, 0.0
