30, 0.0
31, 0.0
32, 0.0
33, 0.0
34, 0.0
35, 0.0
36, 0.0
37, 0.0
38, 0.0
39, 0.0
40, 0.0
41, 0.0
42, 0.0
43, 0.0
44, 0.0
45, 0.0
46, 0.0
47, 0.0
48, 0.0
49, 0.0
50, 0.0
51, 0.0
52, 0.0
53, 0.0
54, 0.0
55, 0.0
56, 0.0
57, 0.0
58, 0.0
59, 0.0
60, 0.0
61, 0.0
62, 0.0
63, 0.0
64, 0.0
65, 0.0
66, 0.0
67, 0.0
68, 0.0
69, 0.0
70, 0.0
71, 0.0
72, 0.0
73, 0.0
74, 0.0
75, 0.0
76, 0.0
77, 0.0
78, 0.0
79, 0.0
80, 0.0
81, 0.0
82, 0.0
83, 0.0
84, 0.0
85, 0.0
86, 0.0
87, 0.0
88, 0.0
89, 0.0
90, 0.0
91, 0.0
92, 0.0
93, 0.0
94, 0.0
95, 0.0
96, 0.0
97, 0.0
98, 0.0
99, 0.0
100, 0.0
101, 0.0
102, 0.0
103, 0.0
104, 0.0
105, 0.0
106, 0.0
107, 0.0
108, 0.0
109, 0.0
110, 0.0
111, 0.0
112, 0.0
113, 0.0
114, 0.0
115, 0.0
116, 0.0
117, 0.0
118, 0.0
119, 0.0
120, 0.0
121, 0.0
122.0, 0.0017814735863504105
123.0, 0.012079008767566554
124.0, 0.0031713347229232873
125.0, 0.0004403311305891118
126.0, 0.0012699853600475525
127.0, 0.0052426346076140514
128.0, 0.0165862820937892
129.0, 0.02197264757173924
130.0, 0.028759158982522647
131.0, 0.03512414712506021
132.0, 0.040429364494570304
133.0, 0.0456001894107978
134.0, 0.05738936407072395
135.0, 0.08103325992880706
136.0, 0.0913102531618367
137.0, 0.09556611860189225
138.0, 0.10586675660405384
139.0, 0.12830076216255426
140.0, 0.12981742680527902
141.0, 0.1323932473969535
142.0, 0.13128217246154747
143.0, 0.12857848191405996
144.0, 0.13314196819568466
145.0, 0.13059985488252462
146.0, 0.12931472009276604
147.0, 0.12094770640840594
148.0, 0.10289801835692335
149.0, 0.07798060410340787
150.0, 0.06047173225409326
151.0, 0.05094237802935822
152.0, 0.038930890571618144
153.0, 0.026244686912762286
154.0, 0.015862366713428246
155.0, 0.009683482027853851
156.0, 0.0018242440377892167
157.0, 0.002111511708628264
158.0, 0.001873873431747383
159.0, 9.504041464545435e-05
160.0, 0.0006254673904839956
161.0, 0.004606763048880044
162.0, 0.011623694351172005
163.0, 0.020162440951042356
164.0, 0.026310000058669875
165.0, 0.027684219448312362
166.0, 0.02660392604747806
167.0, 0.030096362066414757
168.0, 0.03346335114072153
169.0, 0.035701214872478425
170.0, 0.04038419611336126
171.0, 0.052673436412480644
172.0, 0.053373262953253876
173.0, 0.06869033793318137
174.0, 0.0770814159728153
175.0, 0.08050603207619465
176.0, 0.08678317399459967
177.0, 0.09854894838930553
178.0, 0.11065499844391115
179.0, 0.12640163118062142
180.0, 0.1411724700896199
181.0, 0.1572839409476944
182.0, 0.18286281158397044
183.0, 0.19419309408105698
184.0, 0.21129969926618578
185.0, 0.23552738563616749
186.0, 0.2648030232767327
187.0, 0.29592759759254267
188.0, 0.32691063005946697
189.0, 0.3537077588685984
190.0, 0.3827236721459081
191.0, 0.4139715752299206
192.0, 0.4459807543546571
193.0, 0.4764467340002003
194.0, 0.503410218096321
195.0, 0.5311210213836962
196.0, 0.5573919026411092
197.0, 0.5821439376201155
198.0, 0.605060562239202
199.0, 0.622106966208597
200.0, 0.6332909437306586
201.0, 0.6469294107004473
202.0, 0.6543661459315011
203.0, 0.6506402407263799
204.0, 0.6365594668324602
205.0, 0.6088929991118429
206.0, 0.5850501544226178
207.0, 0.564240354748515
208.0, 0.542435412514727
209.0, 0.5172289716863528
210.0, 0.4938891657861945
211.0, 0.46594582846086047
212.0, 0.43810805805309355
213.0, 0.41145292852171306
214.0, 0.3843250202378824
215.0, 0.3541646418232407
216.0, 0.33128957093102396
217.0, 0.30496043430021175
218.0, 0.28196325649210724
219.0, 0.26230152236571824
220.0, 0.2429650432331579
221.0, 0.21881591955656782
222.0, 0.20446815299439827
223.0, 0.18946887777977478
224.0, 0.1746141995067843
225.0, 0.15960322867625654
226.0, 0.14342184186568943
227.0, 0.12642201308216955
228.0, 0.11296088595781782
229.0, 0.10107007518424055
230.0, 0.09071603783257667
231.0, 0.08126514491891541
232.0, 0.07087413122083087
233.0, 0.06048997954002926
234.0, 0.05277645308454784
235.0, 0.04642636819454764
236.0, 0.04336234756122948
237.0, 0.0444332352406072
238.0, 0.04172071032747342
239.0, 0.03571440667239549
240.0, 0.029659536882820046
241.0, 0.026448873935946887
242.0, 0.023613254181527897
243.0, 0.014893997427689924
244.0, 0.006771300808391166
245.0, 0.00280774521886448
246.0, 0.0027182041542830075
247.0, 0.005203434826807793
248.0, 0.00798664122518713
249.0, 0.007812301679458073
250.0, 0.008576914003501102
251.0, 0.009545492431756395
252.0, 0.008386433485124939
253.0, 0.006218028235445546
254.0, 0.005171837901991851
255.0, 0.003110424237089361
256.0, 0.00694389649580831
257.0, 0.01967937299618599
258.0, 0.04329214659627414
259.0, 0.06702726469468397
260.0, 0.07013906058711657
261.0, 0.05656236383301711
262.0, 0.05206254600118702
263.0, 0.04644446526057249
264.0, 0.04345365514307202
265.0, 0.04551129002425044
266.0, 0.04526289430900985
267.0, 0.04907409771603588
268.0, 0.056895555788888226
269.0, 0.0665751946252371
270.0, 0.07342315945101573
271.0, 0.07425465368609285
272.0, 0.07524269241902568
273.0, 0.07904080729856162
274.0, 0.08216856547477147
275.0, 0.08551241800204551
276.0, 0.08922493070699165
277.0, 0.09255745105095536
278.0, 0.09559583139508102
279.0, 0.09875847706135853
280.0, 0.10178829103385484
281.0, 0.10467130320973123
282.0, 0.1074907630628629
283.0, 0.11029975420364896
284.0, 0.11080220421916895
285.0, 0.11642752393148734
286.0, 0.12123824387722675
287.0, 0.12521543349237738
288.0, 0.12889476738670186
289.0, 0.1288790560395436
290.0, 0.13442980205230817
291.0, 0.13710784464185066
292.0, 0.1362603885409206
293.0, 0.14185951024824622
294.0, 0.16298347596961865
295.0, 0.18332388860034568
296.0, 0.17067523180721417
297.0, 0.1775426522708048
298.0, 0.1815663526426757
299.0, 0.17647541728395139
300.0, 0.17404990077269197
301.0, 0.16664678218253667
302.0, 0.15597063938131478
303.0, 0.1529484640741684
304.0, 0.14868895831130374
305.0, 0.14180851114260049
306.0, 0.14282234672247504
307.0, 0.1383594444515862
308.0, 0.13609870195282492
309.0, 0.13618007476638097
310.0, 0.1349522239273624
311.0, 0.13096504025580055
312.0, 0.1281689804945822
313.0, 0.12258062058593933
314.0, 0.1228477592927496
315.0, 0.12320488221333573
316.0, 0.12453752745344533
317.0, 0.12786789781428246
318.0, 0.12826073384101722
319.0, 0.1294396276919919
320.0, 0.13094983862261583
321.0, 0.13003390521941713
322.0, 0.12892621036949264
323.0, 0.13123712050680764
324.0, 0.13638549860984506
325.0, 0.13909182988577243
326.0, 0.1458557357076484
327.0, 0.15112847590656336
328.0, 0.15771853056236373
329.0, 0.16977581156210286
330.0, 0.17114006545514546
331.0, 0.1780610082351032
332.0, 0.18224084168908986
333.0, 0.18348109574099955
334.0, 0.1842370195361962
335.0, 0.187300031831263
336.0, 0.189533763251732
337.0, 0.18844996072522413
338.0, 0.1839569514740226
339.0, 0.18079543649314117
340.0, 0.17818172032933755
341.0, 0.17174278696499215
342.0, 0.17455789906675082
343.0, 0.16978586151003255
344.0, 0.1670512720125645
345.0, 0.16545181614629986
346.0, 0.16290819710116272
347.0, 0.15910604821805507
348.0, 0.1622024917964925
349.0, 0.16317879853377246
350.0, 0.1647162108115507
351.0, 0.16589297207957795
352.0, 0.16634995678351563
353.0, 0.16707468605938636
354.0, 0.1663668645813766
355.0, 0.1685859668192284
356.0, 0.16719683996628212
357.0, 0.16520600056365373
358.0, 0.16509100316263783
359.0, 0.16533270068017578
360.0, 0.16124634747588412
361.0, 0.15815738089103457
362.0, 0.15592008719720035
363.0, 0.1532945789982786
364.0, 0.14985705645008437
365.0, 0.14662954753638402
366.0, 0.14395057556283136
367.0, 0.13947611143551042
368.0, 0.1357485575083237
369.0, 0.13225478698340998
370.0, 0.12943493210377793
371.0, 0.12944467531452994
372.0, 0.1274541315664479
373.0, 0.12785082252857155
374.0, 0.12523857760977528
375.0, 0.12265280908785339
376.0, 0.12272184128451359
377.0, 0.12467781337133006
378.0, 0.12985086734620108
379.0, 0.13154154988655417
380.0, 0.13704767133907508
381.0, 0.14279005701220276
382.0, 0.14846351711429745
383.0, 0.15912486475122536
384.0, 0.15993738876303815
385.0, 0.1644435704068336
386.0, 0.17454427363707858
387.0, 0.18318565985385232
388.0, 0.188983508610676
389.0, 0.19780455798484753
390.0, 0.20153822767348614
391.0, 0.2016682189742834
392.0, 0.20091884466333798
393.0, 0.1992274545816326
394.0, 0.19710834336568475
395.0, 0.19502244144375813
396.0, 0.18591201882974984
397.0, 0.1814423054971496
398.0, 0.17384061955095415
399.0, 0.1648278974269637
400.0, 0.1564032916271607
401.0, 0.14902813785406274
402.0, 0.14128342019855705
403.0, 0.13441802682351836
404.0, 0.12673690948565589
405.0, 0.12081891041634593
406.0, 0.11533683909327426
407.0, 0.10771483556533058
408.0, 0.10348826818534981
409.0, 0.10045182461210021
410.0, 0.0980082314410017
411.0, 0.0949749993451944
412.0, 0.09189181523987858
413.0, 0.08949258700827853
414.0, 0.08581461099021602
415.0, 0.08466231253273004
416.0, 0.08271816372738248
417.0, 0.08045009223257578
418.0, 0.07778082671168045
419.0, 0.0738047273041378
420.0, 0.0667802567753403
421.0, 0.06602744664384785
422.0, 0.05953054582405217
423.0, 0.05343722730525868
424.0, 0.04969869444195816
425.0, 0.046960585903507164
426.0, 0.04197034071264657
427.0, 0.04070930219987171
428.0, 0.03347405055339407
429.0, 0.029345558666325527
430.0, 0.02739958589489537
431.0, 0.02548996548077753
432.0, 0.023661981957943126
433.0, 0.02402680787239965
434.0, 0.021805166056016925
435.0, 0.022177491928025806
436.0, 0.023260243217254173
437.0, 0.02476404714503144
438.0, 0.027626545575100126
439.0, 0.026690932183460952
440.0, 0.024285250772575855
441.0, 0.02535635387136805
442.0, 0.024967324321189338
443.0, 0.021515333557822744
444.0, 0.0178661815035674
445.0, 0.02090520804715929
446.0, 0.01615855684695444
447.0, 0.014726610280074916
448.0, 0.011952261981675207
449.0, 0.008785362111729539
450.0, 0.006811532054150393
451.0, 0.0040981157014278995
452.0, 0.0017936039409487618
453.0, 0.002844182803791875
454.0, 0.0036348191672117723
455.0, 0.002362666556727756
456.0, 0.00025690029645562335
457.0, 0.0009672832800328261
458.0, 0.0050645670205823595
459.0, 0.005051306909062598
460.0, 0.004919221382503781
461.0, 0.005694568396705145
462.0, 0.006264843987607578
463.0, 0.0057616291487989834
464.0, 0.008673308243878521
465.0, 0.008769154463576385
466.0, 0.009537087618143366
467.0, 0.010722757650667629
468.0, 0.010295386863573853
469.0, 0.008675828009786711
470.0, 0.011659969516852687
471.0, 0.010193047008364991
472.0, 0.007640019404529358
473.0, 0.008899586944678801
474.0, 0.010539301765884405
475.0, 0.010112522857320345
476.0, 0.009515136660522065
477.0, 0.012258601148230465
478.0, 0.011893087058762361
479.0, 0.011015093705989867
480.0, 0.009510604946333438
481.0, 0.00962419102982266
482.0, 0.011997179540454444
483.0, 0.007814182638619424
484.0, 0.00994732189942847
485.0, 0.007100109309025257
486.0, 0.0054619120946879434
487.0, 0.005335823927666674
488.0, 0.004910584177048525
489.0, 0.0034911600873581018
490.0, 0.0026620338850010623
491.0, 0.001193709484187514
492.0, 0.00034746325350407895
493.0, 0.0006994937314275843
494.0, 0.0019507014211211083
495.0, 0.003266606942241812
496.0, 0.004241336558654173
497.0, 0.005908179090980377
498.0, 0.007235396412963579
499.0, 0.008246039661091525
500.0, 0.009346392536684386
501.0, 0.011409142802947334
502.0, 0.015432164844153265
503.0, 0.01737228380396632
504.0, 0.02087336054115784
505.0, 0.023108177770648178
506.0, 0.026449379023643745
507.0, 0.030428754512960576
508.0, 0.03276929960350839
509.0, 0.039148751584314107
510.0, 0.03985138972415174
511.0, 0.042473461651825604
512.0, 0.04530262324014958
513.0, 0.04896802495550224
514.0, 0.05393821123572599
515.0, 0.05817037285048332
516.0, 0.06323395796234871
517.0, 0.07063507067891958
518.0, 0.07704909758719634
519.0, 0.08517252014409975
520.0, 0.09329960389333167
521.0, 0.09768023576607049
522.0, 0.10517732505573779
523.0, 0.10940623277413156
524.0, 0.11512959721060267
525.0, 0.12124247804269254
526.0, 0.12545886785863497
527.0, 0.12921309375799728
528.0, 0.13828312663457867
529.0, 0.14195172275622436
530.0, 0.14597304881431197
531.0, 0.1534610761823358
532.0, 0.16169356227100914
533.0, 0.16914997489442482
534.0, 0.177819216671711
535.0, 0.19396113497301593
536.0, 0.20549298042577027
537.0, 0.2239756096556925
538.0, 0.23843887781679268
539.0, 0.25162338512674515
540.0, 0.2665837913939109
541.0, 0.28090421386466535
542.0, 0.2918154306515599
543.0, 0.3094837313364941
544.0, 0.32749353636690176
545.0, 0.344933752314872
546.0, 0.365184872896226
547.0, 0.3914713888900104
548.0, 0.42257072260490836
549.0, 0.4553376733103092
550.0, 0.49539928261927263
551.0, 0.5401050215823582
552.0, 0.5839382987813729
553.0, 0.6266310545753688
554.0, 0.6709127146469553
555.0, 0.714066359550862
556.0, 0.7540415439285933
557.0, 0.7847061844672114
558.0, 0.8020492368809027
559.0, 0.8091556784755616
560.0, 0.8133396027417531
561.0, 0.8215295498137255
562.0, 0.831120344639857
563.0, 0.8411019667539925
564.0, 0.8618222649653751
565.0, 0.8729070742469126
566.0, 0.872350723496325
567.0, 0.8611029230632766
568.0, 0.8289262135331302
569.0, 0.7675700585851896
570.0, 0.6946004125860604
571.0, 0.6156410404127243
572.0, 0.5330111247080439
573.0, 0.4531373471023265
574.0, 0.3811136294082587
575.0, 0.31405175947898045
576.0, 0.26473980705448497
577.0, 0.22338758961133628
578.0, 0.18899277396343067
579.0, 0.15940200344072153
580.0, 0.1331176764030488
581.0, 0.11025500192281579
582.0, 0.09269177087976585
583.0, 0.07628665586623729
584.0, 0.06454999711910579
585.0, 0.05308609037309906
586.0, 0.04503092926316915
587.0, 0.04153953989114739
588.0, 0.039847690852321496
589.0, 0.03910210206923439
590.0, 0.039058221875261034
591.0, 0.038579723149603715
592.0, 0.04165148033184635
593.0, 0.04560839251336188
594.0, 0.04884698410370544
595.0, 0.054315790063527325
596.0, 0.06556065179109882
597.0, 0.08110235392325178
598.0, 0.08941527511368093
599.0, 0.10307016805888529
600.0, 0.11859120411159799
601.0, 0.12944421959445002
602.0, 0.13771639785953785
603.0, 0.1560458629173809
604.0, 0.16914525169957367
605.0, 0.18209537353251115
606.0, 0.19133497767890972
607.0, 0.19987094829180296
608.0, 0.20762995749670227
609.0, 0.20698416427554625
610.0, 0.20392980570442598
611.0, 0.20318609750021213
612.0, 0.19567013049390788
613.0, 0.19177016861786425
614.0, 0.18565303425671972
615.0, 0.17196853999580958
616.0, 0.16030988147330075
617.0, 0.1547838407143421
618.0, 0.1466666178509731
619.0, 0.14117587665989034
620.0, 0.13576947852826254
621.0, 0.1327205734475213
622.0, 0.13205226575656862
623.0, 0.12805166262224857
624.0, 0.13287917709258798
625.0, 0.13104788724315677
626.0, 0.130224042543762
627.0, 0.12835278117219037
628.0, 0.12399001255985412
629.0, 0.11789539618683391
630.0, 0.11198409677316651
631.0, 0.1026509855487475
632.0, 0.09030666314900412
633.0, 0.07796875122214254
634.0, 0.06621046438807048
635.0, 0.05809121899102699
636.0, 0.05321938436177715
637.0, 0.045874180781096736
638.0, 0.03880457111453507
639.0, 0.03524665152842378
640.0, 0.027267659738020384
641.0, 0.02216899437267294
642.0, 0.019271847845580663
643.0, 0.015434135348459848
644.0, 0.011013477460971612
645.0, 0.011054309164298278
646.0, 0.008704784540681817
647.0, 0.006680706088843726
648.0, 0.006123398355552454
649.0, 0.00463008596191434
650.0, 0.0037941504714731032
651.0, 0.00862510996044221
652.0, 0.014013457856907822
653.0, 0.011756976128084394
654.0, 0.015489280946976734
655.0, 0.017381896148510132
656.0, 0.021893375309060145
657.0, 0.028871310579901024
658.0, 0.0325982496718385
659.0, 0.03651883211745072
660.0, 0.039586368168404926
661.0, 0.04914421122832092
662.0, 0.055251967605419124
663.0, 0.06304015286087784
664.0, 0.07082693515268722
665.0, 0.07482796369816037
666.0, 0.08448013781496352
667.0, 0.08901058377919048
668.0, 0.09080529924803743
669.0, 0.09610781076145926
670.0, 0.10278040677660037
671.0, 0.11102529979429444
672.0, 0.12086371069057665
673.0, 0.12916230973201004
674.0, 0.1423690812106744
675.0, 0.15042262309055618
676.0, 0.157414247199282
677.0, 0.16920299390129523
678.0, 0.1847641511215617
679.0, 0.1992709538024903
680.0, 0.2107970345144111
681.0, 0.2305631206725941
682.0, 0.2440296705555348
683.0, 0.2596682265686042
684.0, 0.2739066325415155
685.0, 0.2900481172388216
686.0, 0.3070511038452069
687.0, 0.32075453086397965
688.0, 0.33580711177695644
689.0, 0.3501303333464731
690.0, 0.36436184014569933
691.0, 0.3775833242555144
692.0, 0.3940666970321669
693.0, 0.4106883336069549
694.0, 0.4244172393164264
695.0, 0.44199755369674343
696.0, 0.4651153422805258
697.0, 0.4907734265330748
698.0, 0.5145103923813119
699.0, 0.5420504374947754
700.0, 0.5701761286205514
701.0, 0.5955192921960664
702.0, 0.6206525838186873
703.0, 0.6495726063835543
704.0, 0.6700312471473131
705.0, 0.6913026374965866
706.0, 0.7045429278292675
707.0, 0.7097698306854843
708.0, 0.7087072623936137
709.0, 0.7018797987193699
710.0, 0.6888212017806569
711.0, 0.6691820691756174
712.0, 0.6437136947146348
713.0, 0.6129309985198411
714.0, 0.5883081131818036
715.0, 0.5627446195731884
716.0, 0.5362905656549534
717.0, 0.5242389693157835
718.0, 0.5137151290527792
719.0, 0.5195783454776616
720.0, 0.5211033917204874
721.0, 0.5346839053266531
722.0, 0.5548091500163923
723.0, 0.574021977991179
724.0, 0.5931678839467036
725.0, 0.6209532888666005
726.0, 0.6551264993473848
727.0, 0.6826453358433214
728.0, 0.7171045884028604
729.0, 0.752174071131087
730.0, 0.7825878526172346
731.0, 0.8091848176769074
732.0, 0.8369420848837777
733.0, 0.8666073145270354
734.0, 0.8909637660290554
735.0, 0.9155444613646654
736.0, 0.9382237522860726
737.0, 0.9587658152229473
738.0, 0.9755540502990792
739.0, 0.9883357937899322
740.0, 0.9993610983240391
741.0, 0.9999760181276588
742.0, 0.9990123188928887
743.0, 0.9940837789855395
744.0, 0.9823864067228704
745.0, 0.9670617878930065
746.0, 0.9527029544520683
747.0, 0.9379284582168901
748.0, 0.9124679234688733
749.0, 0.9028397154126668
750.0, 0.8939794865801239
751.0, 0.8778631873487267
752.0, 0.8682364602967618
753.0, 0.865737268716877
754.0, 0.8623220659045967
755.0, 0.8533589308630647
756.0, 0.8466655996224739
757.0, 0.8320539374921293
758.0, 0.8166918639112645
759.0, 0.7970907228084743
760.0, 0.7823768804849324
761.0, 0.7640403018881949
762.0, 0.7377785030690672
763.0, 0.718306209811223
764.0, 0.6961653927872765
765.0, 0.661990696107416
766.0, 0.6437849676332927
767.0, 0.6204788481727509
768.0, 0.5967864964689179
769.0, 0.5730227789754456
770.0, 0.5469945745861393
771.0, 0.5254892093759224
772.0, 0.5050951614406385
773.0, 0.479110866964297
774.0, 0.451359927751692
775.0, 0.42622933143249886
776.0, 0.4049722075931961
777.0, 0.38429118333032647
778.0, 0.36291583954627327
779.0, 0.3466463051712704
780.0, 0.3239758414352872
781.0, 0.3061724648646669
782.0, 0.29165639980866515
783.0, 0.27272150296801884
784.0, 0.25702339050201517
785.0, 0.24641212737390694
786.0, 0.23441863923916312
787.0, 0.22029983106732676
788.0, 0.21064533828899779
789.0, 0.19935345466652207
790.0, 0.1883489796858008
791.0, 0.17678464826527315
792.0, 0.1675983738162067
793.0, 0.15976617569642254
794.0, 0.15090918708863216
795.0, 0.14538537969257212
796.0, 0.1353584327812872
797.0, 0.12420334986243965
798.0, 0.11737119087507251
799.0, 0.11380641753088158
800.0, 0.11122578200437369
801.0, 0.10852522915186152
802.0, 0.1066474271552813
803.0, 0.10733638117492281
804.0, 0.10720584716975462
805.0, 0.10722315252796251
806.0, 0.11105028445252477
807.0, 0.11617657665292357
808.0, 0.12214704749880657
809.0, 0.12841654345451378
810.0, 0.13418989824236177
811.0, 0.13985300374652704
812.0, 0.14548502956944193
813.0, 0.15270458471775133
814.0, 0.15563087339526024
815.0, 0.1609683024473267
816.0, 0.16483413890243245
817.0, 0.16759031742701697
818.0, 0.17144702241023863
819.0, 0.1720351830888073
820.0, 0.16962310274556583
821.0, 0.1620325944341035
822.0, 0.15920386757641286
823.0, 0.14944260876139184
824.0, 0.14212927345884538
825.0, 0.13545747900892316
826.0, 0.1258189723477432
827.0, 0.12133181915418664
828.0, 0.12048793288108103
829.0, 0.11447151718881562
830.0, 0.11436882161492037
831.0, 0.11743785251613584
832.0, 0.12133061280815792
833.0, 0.12684626584757036
834.0, 0.13445604555870458
835.0, 0.141224260567586
836.0, 0.14153407580799798
837.0, 0.1265575377579808
838.0, 0.1081283256156021
839.0, 0.08859628131331816
840.0, 0.07601429468913622
841.0, 0.06561914919704065
842.0, 0.053630940132394306
843.0, 0.043826699646802116
844.0, 0.04024004329247306
845.0, 0.03450163985173793
846.0, 0.03094464983409859
847.0, 0.02862557540022746
848.0, 0.030881067483982606
849.0, 0.030629372771213817
850.0, 0.030744216765289774
851.0, 0.03388781856871822
852.0, 0.032043082287380335
853.0, 0.03222904445581175
854.0, 0.021883054897771356
855.0, 0.013101810254993775
856.0, 0.006964705495715714
857.0, 0.0022530211533423905
858.0, 0.0018665111223639418
859.0, 0.004307274452802218
860.0, 0.005504894824262786
861.0, 0.011445547010168977
862.0, 0.017517260564300068
863.0, 0.01014578478117871
864.0, 0.005405069374815286
865.0, 0.014587300895563706
866.0, 0.02252045456472107
867.0, 0.024506020199336814
868.0, 0.025332628931370952
869.0, 0.023872618606149462
870.0, 0.02579934299031529
871.0, 0.02838058549508977
872.0, 0.025841825074291436
873.0, 0.02385972951732057
874.0, 0.0237149270191397
875.0, 0.024737528200291146
876.0, 0.02550549765091902
877.0, 0.024723204033474992
878.0, 0.022375138658335736
879.0, 0.022825638003295626
880.0, 0.01972029554011775
881.0, 0.017476494418587528
882.0, 0.013961487792331409
883.0, 0.009565317426751905
884.0, 0.0065683979189142755
885.0, 0.005180445512784586
886.0, 0.0033327234448495393
887.0, 0.0031594067328256092
888.0, 0.009481713119403084
889.0, 0.012173184871805564
890.0, 0.017070214429813647
891.0, 0.023582495396774553
892.0, 0.026064854052997896
893.0, 0.030886606710026226
894.0, 0.040566050330165374
895.0, 0.041866027910765546
896.0, 0.04953668659791467
897.0, 0.05524440976594248
898.0, 0.061646866728928267
899.0, 0.0705457297011064
900.0, 0.07797483492131634
901.0, 0.08706015231492555
902.0, 0.09901249250838416
903.0, 0.1126353484679139
904.0, 0.13065257766317448
905.0, 0.15223676258554247
906.0, 0.1874997614179839
907.0, 0.2217082207381988
908.0, 0.2745386380539705
909.0, 0.3465160557345717
910.0, 0.4282638046436527
911.0, 0.49924885645857286
912.0, 0.5304528191176427
913.0, 0.4997628465796497
914.0, 0.42477543642901183
915.0, 0.36462600760165625
916.0, 0.32538810111201133
917.0, 0.3151135254546012
918.0, 0.32842301640432914
919.0, 0.3608532727626919
920.0, 0.4091429179495685
921.0, 0.46226616802024406
922.0, 0.4999895088155352
923.0, 0.5295368191589459
924.0, 0.5493184115171235
925.0, 0.5936539494672257
926.0, 0.6571905317180745
927.0, 0.7072657080268943
928.0, 0.7222889084477606
929.0, 0.7013452769648085
930.0, 0.6636229340244898
931.0, 0.6387457720928569
932.0, 0.6309855142281726
933.0, 0.6146401348072842
934.0, 0.6123917915563708
935.0, 0.6275346605805782
936.0, 0.6607434980019343
937.0, 0.6859771062650285
938.0, 0.6789699209302865
939.0, 0.6395253989785575
940.0, 0.5893845375193296
941.0, 0.5575953788045668
942.0, 0.5605238250498595
943.0, 0.584306192795737
944.0, 0.6372424809067898
945.0, 0.7327957754518116
946.0, 0.8471051485222101
947.0, 0.9393276096975406
948.0, 0.965755229278243
949.0, 0.8936017697607825
950.0, 0.7395242308759479
951.0, 0.5868614113717234
952.0, 0.4798356691401196
953.0, 0.39412791021680676
954.0, 0.3336155773102809
955.0, 0.29067180372521484
956.0, 0.25847879373741245
957.0, 0.23589364098672383
958.0, 0.22231787071703896
959.0, 0.21199403778723147
960.0, 0.20069325873389368
961.0, 0.19222210990754351
962.0, 0.18436843338729175
963.0, 0.17943102129676575
964.0, 0.175285999886698
965.0, 0.17233165791140861
966.0, 0.17091298363444365
967.0, 0.17020179793263898
968.0, 0.17041295647101412
969.0, 0.17040694517690397
970.0, 0.17040104123720298
971.0, 0.17013364603687792
972.0, 0.16999769742501736
973.0, 0.170039010744102
974.0, 0.16985895184861136
975.0, 0.17087374796696875
976.0, 0.17289040995572744
977.0, 0.1737093010931623
978.0, 0.1763178249757025
979.0, 0.17978754393815133
980.0, 0.18213799144838536
981.0, 0.18770910035833024
982.0, 0.19240414974577794
983.0, 0.19926260248541358
984.0, 0.20585751697811094
985.0, 0.2104134863221207
986.0, 0.21564704590900033
987.0, 0.2241809203888975
988.0, 0.23527431459038603
989.0, 0.24700064487954437
990.0, 0.2559520835727774
991.0, 0.2656593311028385
992.0, 0.2808995972315323
993.0, 0.29469365325605423
994.0, 0.30579384244485336
995.0, 0.3160267166024874
996.0, 0.32537606441037537
997.0, 0.33639881431395735
998.0, 0.35067941067467345
999.0, 0.35828955238682514
1000.0, 0.36240277410129834
1001.0, 0.36782894768446667
1002.0, 0.36472255818328414
1003.0, 0.3617252820815084
1004.0, 0.35796490384904117
1005.0, 0.35224480433593613
1006.0, 0.35108701071233345
1007.0, 0.34679699299838995
1008.0, 0.34726851391776237
1009.0, 0.3462987783398353
1010.0, 0.3499535032020997
1011.0, 0.35085003063564096
1012.0, 0.3466185038502974
1013.0, 0.3417576785925223
1014.0, 0.3382493574685694
1015.0, 0.3348090165394802
1016.0, 0.33225395238137734
1017.0, 0.3332312487056498
1018.0, 0.3283740037148411
1019.0, 0.3302104162205602
1020.0, 0.3296564244223181
1021.0, 0.32642840688415464
1022.0, 0.3266938398125538
1023.0, 0.3276638727871138
1024.0, 0.32749541984366287
1025.0, 0.3271576260095102
1026.0, 0.3268631439727516
1027.0, 0.32668321564954345
1028.0, 0.32226974392898083
1029.0, 0.3222289503321856
1030.0, 0.3181464470936358
1031.0, 0.3110280380150923
1032.0, 0.3054292412419796
1033.0, 0.29899714130697114
1034.0, 0.29493002493334064
1035.0, 0.2908091519615987
1036.0, 0.2804746506279349
1037.0, 0.27446114009647044
1038.0, 0.26692933334118246
1039.0, 0.25713949395246116
1040.0, 0.2529945688373778
1041.0, 0.24455620859889826
1042.0, 0.24283100927568127
1043.0, 0.2425070364130045
1044.0, 0.2383923729251932
1045.0, 0.23494902806704354
1046.0, 0.2353831061568475
1047.0, 0.2326765775878591
1048.0, 0.2317166440401631
1049.0, 0.23459821285188928
1050.0, 0.2359548429738829
1051.0, 0.2425690717589317
1052.0, 0.24906036074195043
1053.0, 0.2584152062340435
1054.0, 0.26970096937865723
1055.0, 0.281601097984829
1056.0, 0.2948249286813204
1057.0, 0.30921458673677993
1058.0, 0.32356470179359376
1059.0, 0.34572949817928333
1060.0, 0.356884790431038
1061.0, 0.3842575373687167
1062.0, 0.41199153086504064
1063.0, 0.4391500611284122
1064.0, 0.47607445646781504
1065.0, 0.5132165458228997
1066.0, 0.5446560347336976
1067.0, 0.5741331584859231
1068.0, 0.5937793874111613
1069.0, 0.6049186419503138
1070.0, 0.596892602982213
1071.0, 0.5943709002075145
1072.0, 0.5890954984268951
1073.0, 0.5747468254478763
1074.0, 0.5592747685711948
1075.0, 0.5404296499920717
1076.0, 0.5193945359906564
1077.0, 0.4985315253160917
1078.0, 0.4765772716187719
1079.0, 0.45619619207484247
1080.0, 0.43585951505342524
1081.0, 0.4234959133463235
1082.0, 0.40836192174552244
1083.0, 0.3939579411892699
1084.0, 0.38591818758816576
1085.0, 0.37841977755367734
1086.0, 0.372899928766509
1087.0, 0.3672470073902403
1088.0, 0.3611497295797252
1089.0, 0.3565095095198365
1090.0, 0.3436678943896076
1091.0, 0.34143535416862003
1092.0, 0.3425435455616113
1093.0, 0.3367633428648455
1094.0, 0.3249122512884548
1095.0, 0.31613697439273913
1096.0, 0.3048595801718835
1097.0, 0.2935540830491522
1098.0, 0.2826354837069956
1099.0, 0.2686388867579417
1100.0, 0.2508741328940536
1101.0, 0.23006129081542306
1102.0, 0.20970898226489842
1103.0, 0.19141224486499178
1104.0, 0.17511509024949284
1105.0, 0.16130965330560765
1106.0, 0.14566839771881943
1107.0, 0.13208212159618557
1108.0, 0.12157305978811853
1109.0, 0.11089112962404105
1110.0, 0.09968887411101575
1111.0, 0.09173727894667708
1112.0, 0.08739615824229285
1113.0, 0.08356818121998937
1114.0, 0.07986619617492718
1115.0, 0.07629558899941698
1116.0, 0.07303117233392618
1117.0, 0.07012585478451942
1118.0, 0.06725963255735855
1119.0, 0.06637040436401896
1120.0, 0.0657822507856417
1121.0, 0.06479552147490164
1122.0, 0.06355450306355097
1123.0, 0.05985772163317137
1124.0, 0.05691200224281243
1125.0, 0.055332953446092625
1126.0, 0.05505478728700866
1127.0, 0.05282525630784376
1128.0, 0.052021987575299085
1129.0, 0.04861813742735269
1130.0, 0.04740252468178873
1131.0, 0.050186880145543594
1132.0, 0.05100878596064041
1133.0, 0.047392283957822204
1134.0, 0.04618958648907141
1135.0, 0.05015027851433821
1136.0, 0.048746823816830175
1137.0, 0.05120364804699767
1138.0, 0.04757318592428393
1139.0, 0.045682657971518055
1140.0, 0.04309235273007373
1141.0, 0.04494557601348434
1142.0, 0.04706145248251873
1143.0, 0.04605197228176752
1144.0, 0.043537611550000174
1145.0, 0.043232249508102005
1146.0, 0.04443064869246994
1147.0, 0.04116265450657429
1148.0, 0.04128626769657216
1149.0, 0.040845358068115324
1150.0, 0.039546236490422944
1151.0, 0.03885045841718536
1152.0, 0.03716289802131467
1153.0, 0.03631425312996572
1154.0, 0.0346096216682015
1155.0, 0.03270220766057691
1156.0, 0.03229392015710195
1157.0, 0.03402526410346828
1158.0, 0.035446649750060934
1159.0, 0.031332788167499896
1160.0, 0.03161390030307836
1161.0, 0.03328966868099376
1162.0, 0.030695336376101532
1163.0, 0.029682969171894825
1164.0, 0.028328356888408894
1165.0, 0.02808748025703853
1166.0, 0.029525670778975364
1167.0, 0.028599156744407363
1168.0, 0.026649603939344003
1169.0, 0.029664079414594237
1170.0, 0.03287597960410285
1171.0, 0.024687493865102356
1172.0, 0.026573052342125526
1173.0, 0.02823627333366033
1174.0, 0.023621514679190977
1175.0, 0.02549464787072388
1176.0, 0.023155532393655358
1177.0, 0.021525472814946038
1178.0, 0.019257530305549102
1179.0, 0.01770785473023708
1180.0, 0.015664762678343738
1181.0, 0.013611294166069324
1182.0, 0.012229047177432586
1183.0, 0.008094845742257786
1184.0, 0.00844659832126032
1185.0, 0.008127304927014627
1186.0, 0.011117260751855715
1187.0, 0.007546417805576598
1188.0, 0.005288371299343373
1189.0, 0.00687885426309384
1190.0, 0.005354685598289939
1191.0, 0.002068330481247078
1192.0, 0.0010787105595050344
1193.0, 0.0016908872870627894
1194.0, 0.003324105446908496
1195.0, 0.006331061056405224
1196.0, 0.005953755354733138
1197.0, 0.004491733190431935
1198.0, 0.0007195331624819576
1199.0, 0.006385052782723814
1200.0, 0.004565407867792751
1201.0, 0.0038961665398627825
1202.0, 0.006232577686088145
1203.0, 0.007054653904886953
1204.0, 0.007706111967416946
1205.0, 0.008494641137961167
1206.0, 0.008101960554209428
1207.0, 0.006948826475043761
1208.0, 0.007267791392193616
1209.0, 0.009376824865170105
1210.0, 0.008282693447001731
1211.0, 0.006315348446111456
1212.0, 0.00881914981986643
1213.0, 0.005759332145027728
1214.0, 0.008603731377836293
1215.0, 0.009549963108175942
1216.0, 0.009239523088278478
1217.0, 0.008912492281016367
1218.0, 0.009112249868766183
1219.0, 0.008599898071957728
1220.0, 0.006699904145409485
1221.0, 0.005254404715561997
1222.0, 0.005604683419835534
1223.0, 0.00589730878683014
1224.0, 0.0030418667424002865
1225.0, 0.0006835558295140815
1226.0, 0.00309255351475205
1227.0, 0.0017081266922354668
1228.0, 0.0023245373327777535
1229.0, 0.002141143937761827
1230.0, 0.004547065076742481
1231.0, 0.006381561701198321
1232.0, 0.004525393298625038
1233.0, 0.003967548300867172
1234.0, 0.00652188408497867
1235.0, 0.006820459050384559
1236.0, 0.008706875245105097
1237.0, 0.01013824900327626
1238.0, 0.009937991431048334
1239.0, 0.011414948543537091
1240.0, 0.012684620345385766
1241.0, 0.01311231751543027
1242.0, 0.014838459753054572
1243.0, 0.016485311098993156
1244.0, 0.017047281880263665
1245.0, 0.01940339752607491
1246.0, 0.020597531607050874
1247.0, 0.019012650711691042
1248.0, 0.019696376499801948
1249.0, 0.022777997494146877
1250.0, 0.022847576576855426
1251.0, 0.026343260735573124
1252.0, 0.02213141624523226
1253.0, 0.021469667106025624
1254.0, 0.02325166541400258
1255.0, 0.026396189215846407
1256.0, 0.030153978186280968
1257.0, 0.03058989860169753
1258.0, 0.0310430501768061
1259.0, 0.03007678412427463
1260.0, 0.030284584860241423
1261.0, 0.03169356655553859
1262.0, 0.03350742942956603
1263.0, 0.03704306402205527
1264.0, 0.03555541304018279
1265.0, 0.03649608834248188
1266.0, 0.03559233103172229
1267.0, 0.03719311432549241
1268.0, 0.035398869896060774
1269.0, 0.03670491481840896
1270.0, 0.03682669443052186
1271.0, 0.03652847884762052
1272.0, 0.03718020408195445
1273.0, 0.03514978117333848
1274.0, 0.034325598778776376
1275.0, 0.034508884919637904
1276.0, 0.03449315498228421
1277.0, 0.034931968029016526
1278.0, 0.03348679588330073
1279.0, 0.034926425000756635
1280.0, 0.031468129412735434
1281.0, 0.0323890824372971
1282.0, 0.03763716082341848
1283.0, 0.034884200013579746
1284.0, 0.03542954253366614
1285.0, 0.03481971367384874
1286.0, 0.03723084580977518
1287.0, 0.04048894956301422
1288.0, 0.040549963880467735
1289.0, 0.0416275051511238
1290.0, 0.04217080456732905
1291.0, 0.04072689996100678
1292.0, 0.04031296054228875
1293.0, 0.03970395379940227
1294.0, 0.04182775017543624
1295.0, 0.04341133261934559
1296.0, 0.04118146850477853
1297.0, 0.044307345260492945
1298.0, 0.04319792456454366
1299.0, 0.043786742546111077
1300.0, 0.04278793935720744
1301.0, 0.0416799640762079
1302.0, 0.04213462702331465
1303.0, 0.042044607457807436
1304.0, 0.04107435589722907
1305.0, 0.040204371695163096
1306.0, 0.040151443344239424
1307.0, 0.04015767272544431
1308.0, 0.040045297646107196
1309.0, 0.041422222839589615
1310.0, 0.041173725689394786
1311.0, 0.04024463755423172
1312.0, 0.046065661007949905
1313.0, 0.04290554694622266
1314.0, 0.04017605608424551
1315.0, 0.04242078193343243
1316.0, 0.04080589286964638
1317.0, 0.04058741304802351
1318.0, 0.041910460919182387
1319.0, 0.04053434145158366
1320.0, 0.040491397305250344
1321.0, 0.041202497704708255
1322.0, 0.03922638651031836
1323.0, 0.03776829140448135
1324.0, 0.03837365538926269
1325.0, 0.03722762143556675
1326.0, 0.03855166751227673
1327.0, 0.03565975688763823
1328.0, 0.03564910439548629
1329.0, 0.035617900641865534
1330.0, 0.03573679089300286
1331.0, 0.035611262490544256
1332.0, 0.03431366719049204
1333.0, 0.034882777428014766
1334.0, 0.035783200505707866
1335.0, 0.034530304074479386
1336.0, 0.03371388946770787
1337.0, 0.03428243873369107
1338.0, 0.034001007297410055
1339.0, 0.03527555426550286
1340.0, 0.03902866362903559
1341.0, 0.040343906708840596
1342.0, 0.04131174751596964
1343.0, 0.042319108149374215
1344.0, 0.04155357156109859
1345.0, 0.04394882226865448
1346.0, 0.04238122698165016
1347.0, 0.045786200846190714
1348.0, 0.04982513811617195
1349.0, 0.049555125350878956
1350.0, 0.056876589995629244
1351.0, 0.06339744916478968
1352.0, 0.07134459824077578
1353.0, 0.08426926675478356
1354.0, 0.10061191640313145
1355.0, 0.11879650480658897
1356.0, 0.1449835882301284
1357.0, 0.17828562274603177
1358.0, 0.20750493251469326
1359.0, 0.23321940071473096
1360.0, 0.25451499674085554
1361.0, 0.25664213741349956
1362.0, 0.25049731345334336
1363.0, 0.22595482026240862
1364.0, 0.1976538571286639
1365.0, 0.16407801738839184
1366.0, 0.13721753933251696
1367.0, 0.11151104892503007
1368.0, 0.09196093273639191
1369.0, 0.0756813968195487
1370.0, 0.06472246776805554
1371.0, 0.055705670105580606
1372.0, 0.04890903922457148
1373.0, 0.047165077552813316
1374.0, 0.04844509141066136
1375.0, 0.05009447191471268
1376.0, 0.05156412636619628
1377.0, 0.05143510735532921
1378.0, 0.05153415564348471
1379.0, 0.051016587215943696
1380.0, 0.04938945751338198
1381.0, 0.047180653183724004
1382.0, 0.04524445514380119
1383.0, 0.0417925940250166
1384.0, 0.03838227697365416
1385.0, 0.040834868303615206
1386.0, 0.04071544491702265
1387.0, 0.04476754844489028
1388.0, 0.05027034999421988
1389.0, 0.062309943536353406
1390.0, 0.07573828096991293
1391.0, 0.0877898069859357
1392.0, 0.10645675414978295
1393.0, 0.12727391482366893
1394.0, 0.14344133378009566
1395.0, 0.15679298871704764
1396.0, 0.15757211831669107
1397.0, 0.14412785742607304
1398.0, 0.12499332236982891
1399.0, 0.09661304340487764
1400.0, 0.07942882311924032
1401.0, 0.05842035576710678
1402.0, 0.04368153406077803
1403.0, 0.03290819557384098
1404.0, 0.022324626142078738
1405.0, 0.015278076709949795
1406.0, 0.007935609163095884
1407.0, 0.005034752553024361
1408.0, 0.004316279855189431
1409.0, 0.006518345708410487
1410.0, 0.00584178971429569
1411.0, 0.006830252555511452
1412.0, 0.007502113545027385
1413.0, 0.008197821215312543
1414.0, 0.00782408279798883
1415.0, 0.0031195870459183282
1416.0, 0.004251945230073754
1417.0, 0.00411820291353294
1418.0, 0.0031915854240192787
1419.0, 0.0025350452808302107
1420.0, 0.004771668276851826
1421.0, 0.013995591497752745
1422.0, 0.015589683401923644
1423.0, 0.020063701453707998
1424.0, 0.030256554442560604
1425.0, 0.03600660223633694
1426.0, 0.03645828302943945
1427.0, 0.035461950609211715
1428.0, 0.03780116303895705
1429.0, 0.030507794925833543
1430.0, 0.021507568677689416
1431.0, 0.01861382911411587
1432.0, 0.016942483857476712
1433.0, 0.014883625740632291
1434.0, 0.013472582618161838
1435.0, 0.015646364489166325
1436.0, 0.02051539625506865
1437.0, 0.023125815903639445
1438.0, 0.029443789242469775
1439.0, 0.035031645040034615
1440.0, 0.041038668969117426
1441.0, 0.04630550922408253
1442.0, 0.05051541888943739
1443.0, 0.05179456372086807
1444.0, 0.05695803464354028
1445.0, 0.057493821790431734
1446.0, 0.06170016401921733
1447.0, 0.06061541703176415
1448.0, 0.05812863785883087
1449.0, 0.05571306396514005
1450.0, 0.052792842470599996
1451.0, 0.048441838379339436
1452.0, 0.04753448023688635
1453.0, 0.047980363538079544
1454.0, 0.047431124844509134
1455.0, 0.05055502780649734
1456.0, 0.05498047488557247
1457.0, 0.05585213825092332
1458.0, 0.058049887438981394
1459.0, 0.06330727254342358
1460.0, 0.06563399492394092
1461.0, 0.0656404504153608
1462.0, 0.06508934057829596
1463.0, 0.06667559422409663
1464.0, 0.06841667590948701
1465.0, 0.06377575553233177
1466.0, 0.06343746910451548
1467.0, 0.05846506510722257
1468.0, 0.05235632554005825
1469.0, 0.048164109002101656
1470.0, 0.04814134684041429
1471.0, 0.04872091982360867
1472.0, 0.048499444052077526
1473.0, 0.04378347894483577
1474.0, 0.04379303032105363
1475.0, 0.04145395657255337
1476.0, 0.042100311642995276
1477.0, 0.04234735650255203
1478.0, 0.045078578990378475
1479.0, 0.044022617404878034
1480.0, 0.04082705166605655
1481.0, 0.03776346899860909
1482.0, 0.03623288083472721
1483.0, 0.03905494603021664
1484.0, 0.04160532703209832
1485.0, 0.04315352237596082
1486.0, 0.042937548130597136
1487.0, 0.04160332301749219
1488.0, 0.04014267267735113
1489.0, 0.03558702051563725
1490.0, 0.03738914565797878
1491.0, 0.03556817864749205
1492.0, 0.03506749487223155
1493.0, 0.03330893225004354
1494.0, 0.027397334507887162
1495.0, 0.023781680560865
1496.0, 0.018953906159514627
1497.0, 0.0188395946155048
1498.0, 0.0202372536050706
1499.0, 0.01852120229768864
1500.0, 0.02128017724569702
1501.0, 0.020445909603676544
1502.0, 0.018044462810005928
1503.0, 0.019783257754786863
1504.0, 0.019481728517989766
1505.0, 0.01800339489444586
1506.0, 0.01916297909635631
1507.0, 0.018963784992572643
1508.0, 0.016763597401983497
1509.0, 0.015422099903294333
1510.0, 0.015657062033740562
1511.0, 0.01520126485302045
1512.0, 0.014629487593641115
1513.0, 0.017258046277794172
1514.0, 0.01562863219379014
1515.0, 0.016898352132056635
1516.0, 0.01818238094953507
1517.0, 0.014885620314633028
1518.0, 0.011996437437969229
1519.0, 0.01090924856158998
1520.0, 0.01196363613086314
1521.0, 0.009240644876318545
1522.0, 0.010712142402325268
1523.0, 0.00923726286542292
1524.0, 0.006427532586790984
1525.0, 0.008370632555452923
1526.0, 0.00550447302212785
1527.0, 0.006542680959363892
1528.0, 0.007051821851535748
1529.0, 0.008466769579315608
1530.0, 0.005401897938250954
1531.0, 0.0020453193495068916
1532.0, 0.0019531196902962187
1533.0, 0.003591780697222787
1534.0, 0.003786640860579112
1535.0, 0.00477602321894645
1536.0, 0.006494407584491415
1537.0, 0.006177977588246312
1538.0, 0.003404656667081487
1539.0, 0.0010767009847719392
1540.0, 0.002067464777310168
1541.0, 0.003794789096976448
1542.0, 0.004812139259474379
1543.0, 0.004896067256456757
1544.0, 0.002036918712972506
1545.0, 0.0028228868942423617
1546.0, 0.00499127237777669
1547.0, 0.0069144941514673935
1548.0, 0.007477172615439688
1549.0, 0.007771102563204289
1550.0, 0.0076099654578475374
1551.0, 0.0068758714311363146
1552.0, 0.011583819057503875
1553.0, 0.014777023894971913
1554.0, 0.019489868959814097
1555.0, 0.016158568730055587
1556.0, 0.01407259961025942
1557.0, 0.009019898076061513
1558.0, 0.0036968394257501764
1559.0, 0.0006032404446213219
1560.0, 0.004773245409549479
1561.0, 0.003308250597005088
1562.0, 0.005792809064212288
1563.0, 0.00438357199086039
1564.0, 0.0045419526949916095
1565.0, 0.0042217370213308205
1566.0, 0.004258580191637661
1567.0, 0.003098000154681611
1568.0, 0.005191904019128192
1569.0, 0.0022959445049043456
1570.0, 0.003887296270287362
1571.0, 0.002461213204991354
1572, 0.0
1573, 0.0
1574, 0.0
1575, 0.0
1576, 0.0
1577, 0.0
1578, 0.0
1579, 0.0
1580, 0.0
1581, 0.0
1582, 0.0
1583, 0.0
1584, 0.0
1585, 0.0
1586, 0.0
1587, 0.0
1588, 0.0
1589, 0.0
1590, 0.0
1591, 0.0
1592, 0.0
1593, 0.0
1594, 0.0
1595, 0.0
1596, 0.0
1597, 0.0
1598, 0.0
1599, 0.0
