30, 0.0
31, 0.0
32, 0.0
33, 0.0
34, 0.0
35, 0.0
36, 0.0
37, 0.0
38, 0.0
39, 0.0
40, 0.0
41, 0.0
42, 0.0
43, 0.0
44, 0.0
45, 0.0
46, 0.0
47, 0.0
48, 0.0
49, 0.0
50, 0.0
51, 0.0
52, 0.0
53, 0.0
54, 0.0
55, 0.0
56, 0.0
57, 0.0
58, 0.0
59, 0.0
60, 0.0
61, 0.0
62, 0.0
63, 0.0
64, 0.0
65, 0.0
66, 0.0
67, 0.0
68, 0.0
69, 0.0
70, 0.0
71, 0.0
72, 0.0
73, 0.0
74, 0.0
75, 0.0
76, 0.0
77, 0.0
78, 0.0
79, 0.0
80, 0.0
81, 0.0
82, 0.0
83, 0.0
84, 0.0
85, 0.0
86, 0.0
87, 0.0
88, 0.0
89, 0.0
90, 0.0
91, 0.0
92, 0.0
93, 0.0
94, 0.0
95, 0.0
96, 0.0
97, 0.0
98, 0.0
99, 0.0
100, 0.0
101, 0.0
102, 0.0
103, 0.0
104, 0.0
105, 0.0
106, 0.0
107, 0.0
108, 0.0
109, 0.0
110, 0.0
111, 0.0
112, 0.0
113, 0.0
114, 0.0
115, 0.0
116, 0.0
117, 0.0
118, 0.0
119.0, 0.0010074326341355721
120.0, 0.0012973600035776798
121.0, 0.003269291466441989
122.0, 0.00852797308133014
123.0, 0.014096246279716378
124.0, 0.008089363512124907
125.0, 0.0030385755179213694
126.0, 0.0008800100819669572
127.0, 0.0013875117868337315
128.0, 0.00274052738626233
129.0, 0.005435465447320928
130.0, 0.008880899433649463
131.0, 0.014745135931891374
132.0, 0.02139080717441715
133.0, 0.02601958882135603
134.0, 0.02982951228489325
135.0, 0.0413188983914504
136.0, 0.049172139645847
137.0, 0.05080247772455919
138.0, 0.050621894890300674
139.0, 0.06469568843828877
140.0, 0.07371294808555094
141.0, 0.07669872294573667
142.0, 0.07489247835197263
143.0, 0.0715254645389631
144.0, 0.07087174558421626
145.0, 0.06674081251994043
146.0, 0.06793679497768688
147.0, 0.06521088221856022
148.0, 0.06037750472111479
149.0, 0.05711946411748393
150.0, 0.04702831201760731
151.0, 0.047429202096293956
152.0, 0.04240666624909798
153.0, 0.03497153638129246
154.0, 0.028863402678734548
155.0, 0.024533632989019713
156.0, 0.020144499820345604
157.0, 0.016509371465926435
158.0, 0.014989243403599877
159.0, 0.014002268341184431
160.0, 0.011352218379477048
161.0, 0.014318253252315574
162.0, 0.01736486080927602
163.0, 0.020573335774759793
164.0, 0.02299336769531385
165.0, 0.023496540758726217
166.0, 0.02104969073056264
167.0, 0.026822496270044037
168.0, 0.025514666622679767
169.0, 0.024928256912402844
170.0, 0.02700930252707034
171.0, 0.02795770764362381
172.0, 0.029672450287963753
173.0, 0.02768992806494877
174.0, 0.0349408235666452
175.0, 0.045560826401869155
176.0, 0.049823853881791766
177.0, 0.0445864488135018
178.0, 0.061166311674647394
179.0, 0.06620976992764277
180.0, 0.0752329255867806
181.0, 0.08983508665284637
182.0, 0.09495564795781901
183.0, 0.10632815772253842
184.0, 0.12258132820376456
185.0, 0.13753629736814815
186.0, 0.1509697324041654
187.0, 0.16627015911504103
188.0, 0.19145784493929485
189.0, 0.20871358589660807
190.0, 0.22562334287066285
191.0, 0.24294873100504405
192.0, 0.26105219114001826
193.0, 0.28048944812878124
194.0, 0.30265674607962284
195.0, 0.32286736358471874
196.0, 0.3366994662748915
197.0, 0.3548229846207452
198.0, 0.38229387201368015
199.0, 0.38696295810073666
200.0, 0.4063711484100526
201.0, 0.41971022388806223
202.0, 0.4246691253239269
203.0, 0.4263077569983617
204.0, 0.43310607316267824
205.0, 0.4182950740885574
206.0, 0.4098786115563715
207.0, 0.39561499982395526
208.0, 0.38492048109201255
209.0, 0.38257640954470196
210.0, 0.3594038825472966
211.0, 0.3532590531475499
212.0, 0.33480089557762394
213.0, 0.3131503916532788
214.0, 0.29605228738375133
215.0, 0.2860173689450758
216.0, 0.274445005745332
217.0, 0.2589609808303662
218.0, 0.241106058619896
219.0, 0.2218565646454134
220.0, 0.20309743651119966
221.0, 0.18872186699369425
222.0, 0.16917796795999648
223.0, 0.15696975496343227
224.0, 0.14805759963950754
225.0, 0.13687887304562746
226.0, 0.11992239358107075
227.0, 0.10850223275123128
228.0, 0.09251309584387385
229.0, 0.0813542660040585
230.0, 0.0719464182597797
231.0, 0.06355111658254352
232.0, 0.06191168023246951
233.0, 0.05266005146673223
234.0, 0.040735041107439834
235.0, 0.03308544926749024
236.0, 0.027629094937501777
237.0, 0.02028183490671015
238.0, 0.015156014081202577
239.0, 0.011036902484115457
240.0, 0.007267427347399349
241.0, 0.004171676640408488
242.0, 0.0020294697981428334
243.0, 0.0009653907835549555
244.0, 0.0011668802165153093
245.0, 0.0010885336681808026
246.0, 0.002103769400939167
247.0, 0.0025563453225709368
248.0, 0.0016614500836007184
249.0, 0.001907494034920733
250.0, 0.0008122695186134334
251.0, 0.004071792092479848
252.0, 0.004572272552858179
253.0, 0.0020678180009979837
254.0, 0.0010398879052223075
255.0, 0.008309703918481104
256.0, 0.011745647990390448
257.0, 0.01627876284181096
258.0, 0.022048120244792628
259.0, 0.029424387066529986
260.0, 0.03865788439622549
261.0, 0.0391381698667963
262.0, 0.038518874925027605
263.0, 0.03824640160966173
264.0, 0.041598740341764875
265.0, 0.04768037423758269
266.0, 0.04711554302813629
267.0, 0.04690003813501686
268.0, 0.058753935307388004
269.0, 0.06681007756532314
270.0, 0.07137341990226405
271.0, 0.07692328009457024
272.0, 0.069725479444325
273.0, 0.06665088841529619
274.0, 0.07080422181778412
275.0, 0.07594660568484177
276.0, 0.07545600566627443
277.0, 0.06643788582682994
278.0, 0.06702530626424714
279.0, 0.061526098643047956
280.0, 0.06371846517133942
281.0, 0.06619723824416239
282.0, 0.06464115614678025
283.0, 0.06528787186379618
284.0, 0.06191742006682309
285.0, 0.06339267957759828
286.0, 0.06391184439850112
287.0, 0.06361880060016134
288.0, 0.0642549904122144
289.0, 0.0659337863415591
290.0, 0.06757444768662504
291.0, 0.06927851917210337
292.0, 0.07269428689681855
293.0, 0.07799359062821383
294.0, 0.08385596215724926
295.0, 0.08686646945798471
296.0, 0.08748075567489073
297.0, 0.09438424837040997
298.0, 0.0984141062062938
299.0, 0.09993076410092974
300.0, 0.10664444477264108
301.0, 0.10898657511771445
302.0, 0.11113508719724005
303.0, 0.11767639546928277
304.0, 0.11920832221112863
305.0, 0.11541676333622694
306.0, 0.11857998540708653
307.0, 0.11919502061596833
308.0, 0.1233695093564011
309.0, 0.12280048975371122
310.0, 0.12003755923569503
311.0, 0.11953593344833656
312.0, 0.12283160558304815
313.0, 0.10988632948272371
314.0, 0.11831536750378309
315.0, 0.11593299983918084
316.0, 0.10998836643217283
317.0, 0.11217921201952115
318.0, 0.10641992559868957
319.0, 0.11021073321703961
320.0, 0.10426465108348647
321.0, 0.10370782300238542
322.0, 0.10930810748736422
323.0, 0.11378034010563323
324.0, 0.11164435315294323
325.0, 0.11148316076651027
326.0, 0.12045207102706912
327.0, 0.12105919893129181
328.0, 0.11784400785344659
329.0, 0.12451912180124486
330.0, 0.12515270431386377
331.0, 0.13238586540300884
332.0, 0.13946963518382374
333.0, 0.1443816072090162
334.0, 0.1479940635656633
335.0, 0.15192303692976242
336.0, 0.15044005611876535
337.0, 0.15392448970379768
338.0, 0.15728468015564545
339.0, 0.15652949863504867
340.0, 0.15262487696474386
341.0, 0.15039416061165034
342.0, 0.1489477815642671
343.0, 0.14588098283905276
344.0, 0.14332384993569952
345.0, 0.1413515764100639
346.0, 0.13934238225401366
347.0, 0.13657090602756358
348.0, 0.13431328221364103
349.0, 0.13741743762481398
350.0, 0.13518818304531116
351.0, 0.13202963888966227
352.0, 0.13286578888003917
353.0, 0.1383654670761012
354.0, 0.14203183633083194
355.0, 0.13106624682332674
356.0, 0.12746198663926808
357.0, 0.12698525048323747
358.0, 0.12370260845051531
359.0, 0.11797849020616304
360.0, 0.11232382485812242
361.0, 0.1090577086211403
362.0, 0.1062458171715151
363.0, 0.10295383122624832
364.0, 0.0990863658327041
365.0, 0.09553513519984712
366.0, 0.09567666998741962
367.0, 0.08817302290260373
368.0, 0.08228940966231701
369.0, 0.07789302901451953
370.0, 0.07537041527728337
371.0, 0.07810242016654784
372.0, 0.07914836038195522
373.0, 0.07618123515220074
374.0, 0.0699692841828944
375.0, 0.0663248505828482
376.0, 0.06707040381295948
377.0, 0.06685510614078942
378.0, 0.05863752490403743
379.0, 0.06117321329131675
380.0, 0.056764711446178215
381.0, 0.05031235899489421
382.0, 0.0527830362766874
383.0, 0.06997797726288904
384.0, 0.055207897072082
385.0, 0.05977069187091612
386.0, 0.06891101978792667
387.0, 0.07525526200701935
388.0, 0.07741744915687927
389.0, 0.08011473627820387
390.0, 0.09452454152226451
391.0, 0.09418757247752226
392.0, 0.09996379738945316
393.0, 0.11083444492175062
394.0, 0.12281555615180582
395.0, 0.13170294343577676
396.0, 0.12190584059149141
397.0, 0.12496169967278055
398.0, 0.11933955780005304
399.0, 0.11737293736195932
400.0, 0.12270773242650955
401.0, 0.12624115154899673
402.0, 0.11863741411717206
403.0, 0.11204185531466873
404.0, 0.10795278617264821
405.0, 0.09966453867368569
406.0, 0.09074619596801402
407.0, 0.0891215327216566
408.0, 0.08656586859968649
409.0, 0.07906360816183766
410.0, 0.07692709485159946
411.0, 0.07229367234066958
412.0, 0.06150493875811926
413.0, 0.04976237414806092
414.0, 0.05642342343515448
415.0, 0.04405851920654202
416.0, 0.04190306853191758
417.0, 0.038672227859292314
418.0, 0.03609662035748791
419.0, 0.03597300745677438
420.0, 0.025084099905220036
421.0, 0.02574469718070499
422.0, 0.024136561890181853
423.0, 0.02340081436877846
424.0, 0.01964530144738897
425.0, 0.011532697721891135
426.0, 0.005814405657202074
427.0, 0.001691969653535904
428.0, 0.006915864638206038
429.0, 0.007764585057548197
430.0, 0.009709934513152645
431.0, 0.013188892804320401
432.0, 0.008562167611336071
433.0, 0.004514576402023651
434.0, 0.019790567188753265
435.0, 0.016368351840478888
436.0, 0.010013939055594964
437.0, 0.009378800194461781
438.0, 0.011025482789621382
439.0, 0.02692462067127855
440.0, 0.021434769564441857
441.0, 0.03077045151973135
442.0, 0.035200329019983725
443.0, 0.03412667104647422
444.0, 0.03787384823627937
445.0, 0.042575858872128586
446.0, 0.044775144508959655
447.0, 0.04445869639033972
448.0, 0.04850566277361416
449.0, 0.050129711955792126
450.0, 0.04360422453270865
451.0, 0.03647403113636873
452.0, 0.0425615801267559
453.0, 0.039932339745072966
454.0, 0.045261331946771274
455.0, 0.04090542414468852
456.0, 0.02767265430187306
457.0, 0.03161103626028406
458.0, 0.02677160924641722
459.0, 0.018649853214869515
460.0, 0.013255643125747821
461.0, 0.006862260892100504
462.0, 0.001176280066341092
463.0, 0.0011229161159053297
464.0, 0.004562258347675401
465.0, 0.0045321895482607405
466.0, 0.0050331316116751365
467.0, 0.00941741505890249
468.0, 0.012005402744573923
469.0, 0.009971382997820794
470.0, 0.013597882322906015
471.0, 0.013519971760844731
472.0, 0.011281847291326967
473.0, 0.013020815352876204
474.0, 0.012410226677324852
475.0, 0.009086909866255618
476.0, 0.011912336072285154
477.0, 0.018000224544641927
478.0, 0.01695892104755533
479.0, 0.015206570398400135
480.0, 0.015555971073611967
481.0, 0.013930612008252116
482.0, 0.00691401689779348
483.0, 0.0056919698377648235
484.0, 0.002193877130452324
485.0, 0.006005036418877001
486.0, 0.0044593066718983995
487.0, 0.001452468596891521
488.0, 0.0016239246435206718
489.0, 0.0008206691921394749
490.0, 0.007489175811044758
491.0, 0.0069633481508054465
492.0, 0.007933776811340264
493.0, 0.01418866310947919
494.0, 0.02152074560253901
495.0, 0.022800562781989286
496.0, 0.0225034848764644
497.0, 0.019499999757692347
498.0, 0.02673771652000326
499.0, 0.03493584017172892
500.0, 0.03800279641064337
501.0, 0.03843074087309939
502.0, 0.04716493082049012
503.0, 0.04484957719920409
504.0, 0.04997725513444677
505.0, 0.049521052215775366
506.0, 0.05372911757352939
507.0, 0.0627437113976298
508.0, 0.06619756490320962
509.0, 0.07023748300933128
510.0, 0.07333862331138273
511.0, 0.07651043113672328
512.0, 0.07904320611963259
513.0, 0.07782255805893276
514.0, 0.07589605113970302
515.0, 0.0856020953012108
516.0, 0.07757359207807829
517.0, 0.08085638842478367
518.0, 0.08823097312208579
519.0, 0.08763135776598314
520.0, 0.08446358920448649
521.0, 0.09265405586115136
522.0, 0.09747407060314653
523.0, 0.09819211064859916
524.0, 0.10214527626535455
525.0, 0.10346398517951097
526.0, 0.10191225200406033
527.0, 0.10116066704153116
528.0, 0.10530831367367888
529.0, 0.10962953106436087
530.0, 0.11514241348787238
531.0, 0.12483579436301899
532.0, 0.13255131350658148
533.0, 0.13871995566181813
534.0, 0.14988868158883678
535.0, 0.17171853833192127
536.0, 0.1928699714256268
537.0, 0.2172644984322491
538.0, 0.23824291605291292
539.0, 0.25986829065602485
540.0, 0.28558300136897136
541.0, 0.31419302783015407
542.0, 0.3481013371728742
543.0, 0.37406889077979805
544.0, 0.39796985254774153
545.0, 0.42529279724772406
546.0, 0.4629262115899182
547.0, 0.5071253125781351
548.0, 0.5377416707924914
549.0, 0.5773901349597725
550.0, 0.6287417103983333
551.0, 0.6729544440790751
552.0, 0.7189140441694961
553.0, 0.7684823537173977
554.0, 0.814572317454496
555.0, 0.8546921929863464
556.0, 0.8829859147188472
557.0, 0.9137375234543541
558.0, 0.9237726716923979
559.0, 0.9296175317016736
560.0, 0.9449029752904804
561.0, 0.9635788962193147
562.0, 0.9799739865329441
563.0, 0.9923647683251093
564.0, 0.9983376366518942
565.0, 0.9932333839253464
566.0, 0.9721299124785279
567.0, 0.9334644557763553
568.0, 0.8802639782000031
569.0, 0.8089803304364129
570.0, 0.7205656330514327
571.0, 0.6389850456793296
572.0, 0.5561569176571742
573.0, 0.4829318787354396
574.0, 0.4253778569202414
575.0, 0.3518263881236078
576.0, 0.3013811666393255
577.0, 0.2645858791820331
578.0, 0.22544426564857478
579.0, 0.1963815428027387
580.0, 0.1778953902605599
581.0, 0.15894418460015064
582.0, 0.13973233093107626
583.0, 0.13197337818187369
584.0, 0.12516815340590395
585.0, 0.11762859955718688
586.0, 0.10908362885271565
587.0, 0.10525501884908765
588.0, 0.11065968071406022
589.0, 0.10628677493116587
590.0, 0.12316880665199913
591.0, 0.127237704848835
592.0, 0.12891110779930895
593.0, 0.13660545205865535
594.0, 0.14977707933867243
595.0, 0.16001546900016445
596.0, 0.1641953090981101
597.0, 0.1726400586369302
598.0, 0.1817693851861178
599.0, 0.1914827550985315
600.0, 0.19997469307826943
601.0, 0.20674373933074797
602.0, 0.21358814529530765
603.0, 0.2190584418406124
604.0, 0.22309531097088792
605.0, 0.22703263756434522
606.0, 0.22913506024503447
607.0, 0.22969017755287358
608.0, 0.22884000394912482
609.0, 0.22485203993616498
610.0, 0.21572849096239424
611.0, 0.20877229862224442
612.0, 0.19624673886402288
613.0, 0.18339646869992368
614.0, 0.17401714717447825
615.0, 0.16775418735906925
616.0, 0.16053151453844355
617.0, 0.14968837104971025
618.0, 0.13730798195003513
619.0, 0.13235872017743552
620.0, 0.12797602809185066
621.0, 0.11944711752298848
622.0, 0.11208855630274621
623.0, 0.11761788257518711
624.0, 0.10935664732115023
625.0, 0.10961075877838732
626.0, 0.10849470463893858
627.0, 0.10781514374981914
628.0, 0.10715587158904184
629.0, 0.10342322230827183
630.0, 0.09484287215040214
631.0, 0.09607067064621504
632.0, 0.094926087277734
633.0, 0.08703844136979534
634.0, 0.0683800596404426
635.0, 0.05839661287688821
636.0, 0.06060841785233202
637.0, 0.04758141128734243
638.0, 0.04198221411838047
639.0, 0.03785386573227272
640.0, 0.03269294045772368
641.0, 0.028293415674878763
642.0, 0.028980518104735578
643.0, 0.02867106255419162
644.0, 0.015108407332372132
645.0, 0.015324639205060298
646.0, 0.018881838106942637
647.0, 0.014164780898734387
648.0, 0.013398800233234894
649.0, 0.011510951286212353
650.0, 0.010872122330659293
651.0, 0.021053121434533455
652.0, 0.015182124587832895
653.0, 0.021025270933727695
654.0, 0.02366926125497382
655.0, 0.021005286032615273
656.0, 0.02200466726081439
657.0, 0.02956702008218217
658.0, 0.03696495353128481
659.0, 0.03814977049714981
660.0, 0.04162916723784499
661.0, 0.0384414975472797
662.0, 0.042505054357875695
663.0, 0.04666153326926424
664.0, 0.050024302856003566
665.0, 0.05835655009212135
666.0, 0.06977008809007886
667.0, 0.06663116788233402
668.0, 0.07252625455841548
669.0, 0.07113432063001036
670.0, 0.07490385287437823
671.0, 0.08151484206662196
672.0, 0.08408338591252662
673.0, 0.08803571536322956
674.0, 0.08548380668415197
675.0, 0.1022696930492793
676.0, 0.11039958817408645
677.0, 0.12252023144910391
678.0, 0.12974732218896498
679.0, 0.13236638136912698
680.0, 0.14931815418791536
681.0, 0.16120474596530832
682.0, 0.17474379939658008
683.0, 0.19087403145004822
684.0, 0.20893891951695195
685.0, 0.2249995748168869
686.0, 0.2379172918714393
687.0, 0.2509614688933771
688.0, 0.2681755923902341
689.0, 0.27467162626695657
690.0, 0.29739205235974353
691.0, 0.3162100948918042
692.0, 0.33488156354702575
693.0, 0.35749167074778837
694.0, 0.38350734766108596
695.0, 0.4099349486793147
696.0, 0.4336856349606453
697.0, 0.45240979807984427
698.0, 0.4722131402921563
699.0, 0.4967065524500969
700.0, 0.5189194869454693
701.0, 0.5343070886455132
702.0, 0.5474577672719206
703.0, 0.5635699109113607
704.0, 0.572613255421957
705.0, 0.5721421220037647
706.0, 0.5687447911260395
707.0, 0.5611992822521665
708.0, 0.5465373350388479
709.0, 0.5258596986659541
710.0, 0.5057883585261931
711.0, 0.4740331260616612
712.0, 0.4364353846083394
713.0, 0.40266249354155614
714.0, 0.3682303960065954
715.0, 0.32666192139861666
716.0, 0.28715924180102115
717.0, 0.2669609877210436
718.0, 0.23725619289951275
719.0, 0.21614972640181362
720.0, 0.19884793072970375
721.0, 0.17682097735147392
722.0, 0.15803424019533224
723.0, 0.14891013585810667
724.0, 0.1426372873143008
725.0, 0.12242488782389081
726.0, 0.1265010057920736
727.0, 0.13515681956563486
728.0, 0.13135174561063165
729.0, 0.13459932719943812
730.0, 0.1376111214087625
731.0, 0.13751822602261443
732.0, 0.14568917627630634
733.0, 0.14670553302539965
734.0, 0.15958028342471497
735.0, 0.17426902879152434
736.0, 0.1814657992818345
737.0, 0.19255168263428793
738.0, 0.2067378033205545
739.0, 0.22011821390190528
740.0, 0.23879689145355928
741.0, 0.24302477196080943
742.0, 0.24228068032977684
743.0, 0.25779107045712596
744.0, 0.26146001252841916
745.0, 0.2603926660978227
746.0, 0.2613970711807073
747.0, 0.26004967733597356
748.0, 0.25622760604181366
749.0, 0.24398469622718452
750.0, 0.24525086246288658
751.0, 0.23527209512808595
752.0, 0.22692853799477636
753.0, 0.2265768529653842
754.0, 0.22274716261413594
755.0, 0.20499033287636304
756.0, 0.208636459248068
757.0, 0.19261430260248097
758.0, 0.18916175479299982
759.0, 0.1978002340057948
760.0, 0.19372962468036162
761.0, 0.1845686870568134
762.0, 0.186268244156556
763.0, 0.19015402069290901
764.0, 0.17841756481156318
765.0, 0.16605987387501064
766.0, 0.16240047024078794
767.0, 0.16156258260735787
768.0, 0.16000517260434205
769.0, 0.1562783705885652
770.0, 0.1522901042312362
771.0, 0.15197683865450656
772.0, 0.14826685794983524
773.0, 0.15434070287092577
774.0, 0.14934582827966572
775.0, 0.1491947636855137
776.0, 0.15273439323157836
777.0, 0.1526046669749306
778.0, 0.14889195369018682
779.0, 0.1529708009489906
780.0, 0.1558458110599445
781.0, 0.15094967869079678
782.0, 0.14284116942744401
783.0, 0.13475344524989982
784.0, 0.1274055920520928
785.0, 0.11861426796658661
786.0, 0.10874317205654949
787.0, 0.10524077502629774
788.0, 0.10061580828006804
789.0, 0.0912020760284408
790.0, 0.07271508975827305
791.0, 0.06459884267139439
792.0, 0.06056072099311723
793.0, 0.05202372742268481
794.0, 0.04196508519883935
795.0, 0.03771741741740864
796.0, 0.021846672026811474
797.0, 0.024767980529525294
798.0, 0.018219318807225306
799.0, 0.011642006802459115
800.0, 0.00890897196490825
801.0, 0.008521444271193359
802.0, 0.00808076788034276
803.0, 0.007482072891840356
804.0, 0.008664180278732687
805.0, 0.010922841190501574
806.0, 0.012446992984595149
807.0, 0.011871940115343605
808.0, 0.009214452667215559
809.0, 0.006986499082882844
810.0, 0.007152029804000815
811.0, 0.007684056898111224
812.0, 0.009469528892062125
813.0, 0.01795541852640472
814.0, 0.007851698009560745
815.0, 0.00234122682059433
816.0, 0.0034958278269357555
817.0, 0.0035977070237709526
818.0, 0.0037656809461217907
819.0, 0.014552623492657396
820.0, 0.003818883590208576
821.0, 0.006960952376505538
822.0, 0.0021107822569828207
823.0, 0.0009734877125702029
824.0, 0.003698067473940816
825.0, 0.009271343188964443
826.0, 0.011521366020648354
827.0, 0.00307548303162428
828.0, 0.006845573224638092
829.0, 0.0029962946002466346
830.0, 0.0021017096496235873
831.0, 0.0038428679527939967
832.0, 0.006920621455385783
833.0, 0.01247947855940134
834.0, 0.017320628922901832
835.0, 0.014706894746840971
836.0, 0.008163483477798729
837.0, 0.010192445454025712
838.0, 0.012048929468931316
839.0, 0.006883759520871941
840.0, 0.003848741335617405
841.0, 0.005817548535157081
842.0, 0.006511288594195527
843.0, 0.0020315218193993323
844.0, 0.0023381528780786684
845.0, 0.004293343334657546
846.0, 0.004674654024470216
847.0, 0.0031982914255785037
848.0, 0.004199466836919795
849.0, 0.0039338393963375875
850.0, 0.006607064362861663
851.0, 0.010712862903688065
852.0, 0.003707692515735787
853.0, 0.006249520157495979
854.0, 0.0029382567200618723
855.0, 0.004913368838728459
856.0, 0.004418259640301177
857.0, 0.009614338239240806
858.0, 0.01144341205615195
859.0, 0.005341868846268341
860.0, 0.001873477430872206
861.0, 0.007466010629796059
862.0, 0.015161666783764292
863.0, 0.012085747690204693
864.0, 0.015218244824425528
865.0, 0.010594306705952272
866.0, 0.013572178175797528
867.0, 0.02489227696168973
868.0, 0.029276175095683043
869.0, 0.02383146941354391
870.0, 0.03432581030007165
871.0, 0.04300104929031412
872.0, 0.03579845875271566
873.0, 0.04269224349623077
874.0, 0.042636686398267586
875.0, 0.04154035918280862
876.0, 0.04584407746405013
877.0, 0.048698275242495835
878.0, 0.05055852420151429
879.0, 0.04261000120411432
880.0, 0.059534376999341755
881.0, 0.053293230920843516
882.0, 0.04567351609688892
883.0, 0.052521315528132016
884.0, 0.056368716913390036
885.0, 0.04842816392821777
886.0, 0.05194000612988431
887.0, 0.07118425345292109
888.0, 0.0755764564232149
889.0, 0.07745608068953645
890.0, 0.07997503520526038
891.0, 0.0865072327075563
892.0, 0.09334022596951738
893.0, 0.10166686606038942
894.0, 0.11205164538570558
895.0, 0.11862287477738097
896.0, 0.1303538414344294
897.0, 0.1422973940949693
898.0, 0.1500578160858765
899.0, 0.16152650993983605
900.0, 0.16777066678021427
901.0, 0.17386901583832112
902.0, 0.18060407799260134
903.0, 0.1856013505995089
904.0, 0.19728875611272434
905.0, 0.2106272909347541
906.0, 0.2278684539512715
907.0, 0.23760162959680017
908.0, 0.24292079328946353
909.0, 0.25241139576019667
910.0, 0.26524532039244947
911.0, 0.28184994148491155
912.0, 0.2995848125561363
913.0, 0.303612872876522
914.0, 0.3146191578688743
915.0, 0.3095473917544183
916.0, 0.3283353265951347
917.0, 0.3385891752702662
918.0, 0.34105870636731755
919.0, 0.35149159540697805
920.0, 0.36604657318732164
921.0, 0.36468620818893294
922.0, 0.3505472350096928
923.0, 0.3605356376022548
924.0, 0.35834992841584423
925.0, 0.35670250402423226
926.0, 0.3536244293621485
927.0, 0.3423665750942379
928.0, 0.3307807436345761
929.0, 0.31941045096525916
930.0, 0.3045711124405995
931.0, 0.29801210210103657
932.0, 0.2794423087627317
933.0, 0.26770924678563884
934.0, 0.2584734296437773
935.0, 0.2551510501532232
936.0, 0.24601424312812614
937.0, 0.2350809130447779
938.0, 0.23048018120358615
939.0, 0.2280900387819496
940.0, 0.21520820050554787
941.0, 0.20342070498254208
942.0, 0.20746712027011963
943.0, 0.20595992610894082
944.0, 0.2069020248632257
945.0, 0.22703357845312222
946.0, 0.23760683193362622
947.0, 0.23935264447742557
948.0, 0.24404281748402634
949.0, 0.22637498662951686
950.0, 0.18783735607806198
951.0, 0.18049676740459158
952.0, 0.17951816023934977
953.0, 0.17653979619374208
954.0, 0.16780603321481857
955.0, 0.16144085658419843
956.0, 0.1579828733579271
957.0, 0.1515857530427498
958.0, 0.14395935645831529
959.0, 0.14606971136660443
960.0, 0.12679833925012954
961.0, 0.1386656631817376
962.0, 0.13915724274961025
963.0, 0.13373863998741625
964.0, 0.13629494761593963
965.0, 0.13417520723284068
966.0, 0.12664059771753522
967.0, 0.12900069007513526
968.0, 0.13494578503592167
969.0, 0.13106963430526863
970.0, 0.1340761239347263
971.0, 0.12991016853973755
972.0, 0.1325181403553762
973.0, 0.1323961210925464
974.0, 0.12806995723950912
975.0, 0.12817151246749345
976.0, 0.13270015489051573
977.0, 0.13490156568417233
978.0, 0.14936638380337716
979.0, 0.12875480264045258
980.0, 0.14712891525260555
981.0, 0.16019176228694007
982.0, 0.158177184773666
983.0, 0.1635444642521731
984.0, 0.17528719553265934
985.0, 0.17970395872482256
986.0, 0.17497118314269552
987.0, 0.17632749335296974
988.0, 0.1987040130699262
989.0, 0.19867390942663457
990.0, 0.20521743930787892
991.0, 0.2073238945252773
992.0, 0.21434637607997128
993.0, 0.21765965535623077
994.0, 0.21998379858042413
995.0, 0.2242184896390292
996.0, 0.2237006725105987
997.0, 0.22030338550231635
998.0, 0.23008740662840987
999.0, 0.21445915227791437
1000.0, 0.20829398022974271
1001.0, 0.20470994249699878
1002.0, 0.19131793978568482
1003.0, 0.18332848511507485
1004.0, 0.17833883744017032
1005.0, 0.16902937777796426
1006.0, 0.1623906358720328
1007.0, 0.15569804219915295
1008.0, 0.15215438299578968
1009.0, 0.14396152830196496
1010.0, 0.1389064288940835
1011.0, 0.1348419105644257
1012.0, 0.12910015795390137
1013.0, 0.1255294823437454
1014.0, 0.12286753929450682
1015.0, 0.11807326745555702
1016.0, 0.11557277860783549
1017.0, 0.12123778572502615
1018.0, 0.1179243337223705
1019.0, 0.11332485469445944
1020.0, 0.10484737440475228
1021.0, 0.10001441081473474
1022.0, 0.10225156328128746
1023.0, 0.10351305593325387
1024.0, 0.09947375520378637
1025.0, 0.09935106381869764
1026.0, 0.10948011387196628
1027.0, 0.10908862794605904
1028.0, 0.0983452817433103
1029.0, 0.11135419197817316
1030.0, 0.11119026160580357
1031.0, 0.0955815827734421
1032.0, 0.1012977008120117
1033.0, 0.10702260487210925
1034.0, 0.10852197858307946
1035.0, 0.10903060909623608
1036.0, 0.1043566550398307
1037.0, 0.11400905466546596
1038.0, 0.11217673926215052
1039.0, 0.10194790452430512
1040.0, 0.109324907705084
1041.0, 0.11091602369694493
1042.0, 0.105741925586688
1043.0, 0.10852999913749192
1044.0, 0.11023711966059345
1045.0, 0.1104876455953213
1046.0, 0.1153140063848612
1047.0, 0.10779209758445091
1048.0, 0.10541129169876803
1049.0, 0.10935890907650947
1050.0, 0.1098051302906722
1051.0, 0.10818019443114368
1052.0, 0.10834191794611041
1053.0, 0.11045444280009725
1054.0, 0.1121617866257639
1055.0, 0.11678032346420511
1056.0, 0.12892930151534981
1057.0, 0.142132373655128
1058.0, 0.14200042970804885
1059.0, 0.14906153424215657
1060.0, 0.1503090137684121
1061.0, 0.16012389918802225
1062.0, 0.17784173038950854
1063.0, 0.1790135262210964
1064.0, 0.18560424128477535
1065.0, 0.19590844008949596
1066.0, 0.200491410056503
1067.0, 0.20612130440483917
1068.0, 0.21498554991487612
1069.0, 0.21909479272614832
1070.0, 0.22778735027579924
1071.0, 0.23918588644456312
1072.0, 0.24775999344787217
1073.0, 0.25027714903193915
1074.0, 0.25088821941514416
1075.0, 0.2596325728933164
1076.0, 0.2657023736695734
1077.0, 0.2644470840608383
1078.0, 0.27167081412338423
1079.0, 0.28637228059520503
1080.0, 0.2962427748165924
1081.0, 0.3032507113979569
1082.0, 0.3223470398706903
1083.0, 0.3318815556340244
1084.0, 0.3406092541119779
1085.0, 0.3523711311737937
1086.0, 0.3631869941949481
1087.0, 0.37065816057313233
1088.0, 0.3852013252253577
1089.0, 0.4046510203977876
1090.0, 0.391008183080654
1091.0, 0.3881379014883705
1092.0, 0.4005484528249028
1093.0, 0.3835113891222813
1094.0, 0.3843455021719361
1095.0, 0.3823499064002563
1096.0, 0.3782222483287709
1097.0, 0.3669045092478053
1098.0, 0.34886668353907674
1099.0, 0.32760849039555656
1100.0, 0.30406501849704665
1101.0, 0.28505279361243263
1102.0, 0.26096434258216067
1103.0, 0.23489011654311032
1104.0, 0.22076025502089586
1105.0, 0.2039144846742165
1106.0, 0.190923351094729
1107.0, 0.1707368960205019
1108.0, 0.15719189721832372
1109.0, 0.15113613476032187
1110.0, 0.14643143627706756
1111.0, 0.14413860105176712
1112.0, 0.13570787776476637
1113.0, 0.12039162387950979
1114.0, 0.11325903878948645
1115.0, 0.11523260276408849
1116.0, 0.1027435976152062
1117.0, 0.10503458533468586
1118.0, 0.10138053548756919
1119.0, 0.09662363657951924
1120.0, 0.09248767652898124
1121.0, 0.09227164864512784
1122.0, 0.09758457546400481
1123.0, 0.09426621527330771
1124.0, 0.08410098428186244
1125.0, 0.0961131232158557
1126.0, 0.0879323220663945
1127.0, 0.10434967360694011
1128.0, 0.09705613576363217
1129.0, 0.08678178225176511
1130.0, 0.08425080921702507
1131.0, 0.07931462547536125
1132.0, 0.07434176923989548
1133.0, 0.07437070230457699
1134.0, 0.07290042755499983
1135.0, 0.07283950308499319
1136.0, 0.07670204774198519
1137.0, 0.06210042419954934
1138.0, 0.05412106191313937
1139.0, 0.058888049904745096
1140.0, 0.0589481761758965
1141.0, 0.05812955893593805
1142.0, 0.04752116950940688
1143.0, 0.036395315329310014
1144.0, 0.025552741585208264
1145.0, 0.014835068896673177
1146.0, 0.01636286844698443
1147.0, 0.01546293138366655
1148.0, 0.001493961432396729
1149.0, 0.012599395742175466
1150.0, 0.002794361768878601
1151.0, 0.0064862476808861935
1152.0, 0.01223823336529924
1153.0, 0.008385570005740693
1154.0, 0.011261519215383278
1155.0, 0.015700892191532187
1156.0, 0.012024217641454463
1157.0, 0.009915930993326752
1158.0, 0.01518220846742253
1159.0, 0.012479809300142987
1160.0, 0.02807751885104672
1161.0, 0.018303760882268427
1162.0, 0.005345712793526948
1163.0, 0.01394978862543865
1164.0, 0.0202363467028814
1165.0, 0.018036157910268726
1166.0, 0.018532825490629897
1167.0, 0.01838527651399053
1168.0, 0.010746264366519457
1169.0, 0.002773360403893478
1170.0, 0.004817982808725907
1171.0, 0.009104782196554457
1172.0, 0.0036238131463992643
1173.0, 0.014205727257007738
1174.0, 0.007558684663416083
1175.0, 0.011552798433651462
1176.0, 0.013469293993688942
1177.0, 0.014063655241658646
1178.0, 0.011054412865995237
1179.0, 0.005171841806704595
1180.0, 0.003259309758864341
1181.0, 0.006185501747655541
1182.0, 0.008497193756981906
1183.0, 0.010227051804282726
1184.0, 0.010214688962761924
1185.0, 0.006789016648114394
1186.0, 0.0026673700030439857
1187.0, 0.0052975165731022865
1188.0, 0.0023755905126470727
1189.0, 0.009119107544352616
1190.0, 0.008329925408814508
1191.0, 0.005377715903848602
1192.0, 0.004716277982508462
1193.0, 0.003015810558959069
1194.0, 0.002790922901808654
1195.0, 0.006278158352077446
1196.0, 0.00449315250794669
1197.0, 0.00939426685465553
1198.0, 0.006498388308860665
1199.0, 0.012330043500324147
1200.0, 0.007095623155271237
1201.0, 0.006631566514138315
1202.0, 0.008578139203770221
1203.0, 0.00494298460406755
1204.0, 0.0029111562250450874
1205.0, 0.005105708594911027
1206.0, 0.00483712619662003
1207.0, 0.001365767190998953
1208.0, 0.0023020109527340264
1209.0, 0.007845172626024483
1210.0, 0.013606785545572457
1211.0, 0.011338169919493758
1212.0, 0.0015276935589624788
1213.0, 0.007656278000642655
1214.0, 0.004616521421591947
1215.0, 0.004511679803217652
1216.0, 0.006837069038409896
1217.0, 0.006584354427725213
1218.0, 0.007646295486578975
1219.0, 0.012841314914157333
1220.0, 0.017158034060906754
1221.0, 0.016544655201366942
1222.0, 0.01462805487080601
1223.0, 0.014062601029234408
1224.0, 0.012312102265698713
1225.0, 0.01157283526033641
1226.0, 0.013376046928534854
1227.0, 0.010156187365606032
1228.0, 0.012206076515458845
1229.0, 0.012156687929447654
1230.0, 0.013733772952691074
1231.0, 0.01245249105740945
1232.0, 0.011155679338761887
1233.0, 0.011637105186670733
1234.0, 0.01092418198475637
1235.0, 0.012877721697867495
1236.0, 0.01799422883561567
1237.0, 0.014117905178081728
1238.0, 0.0011284212724791995
1239.0, 0.007903935780922576
1240.0, 0.0021121005187138262
1241.0, 0.0008969707665345176
1242.0, 0.008142985310579429
1243.0, 0.004918102316877205
1244.0, 0.007259645692828223
1245.0, 0.0052803100381781775
1246.0, 0.009340585533649384
1247.0, 0.020877813185300433
1248.0, 0.02155126019164084
1249.0, 0.01821493480951434
1250.0, 0.011556623037209699
1251.0, 0.0025091657376905534
1252.0, 0.006343225356588315
1253.0, 0.009213305532962335
1254.0, 0.016106510304643537
1255.0, 0.005531036702029634
1256.0, 0.012844399922943662
1257.0, 0.011172642170426055
1258.0, 0.014268316289677828
1259.0, 0.019084266902985075
1260.0, 0.015163657243359161
1261.0, 0.014777161054717703
1262.0, 0.021019735207992364
1263.0, 0.020379950022124525
1264.0, 0.0278613918644333
1265.0, 0.02740475747120311
1266.0, 0.017040601991483717
1267.0, 0.015116923017866494
1268.0, 0.015504825543996431
1269.0, 0.011123688836699105
1270.0, 0.006406474957500905
1271.0, 0.004825387830447844
1272.0, 0.009693001263359383
1273.0, 0.01713182295844155
1274.0, 0.01533562970541162
1275.0, 0.007793296384095124
1276.0, 0.0036478506557719123
1277.0, 0.002878574413425483
1278.0, 0.004277421209084204
1279.0, 0.004674336216458304
1280.0, 0.00790517775752869
1281.0, 0.003569078164281798
1282.0, 0.0019200237990191506
1283.0, 0.0056018046430846334
1284.0, 0.0019162033199350383
1285.0, 0.0013061819759693407
1286.0, 0.004371827390060077
1287.0, 0.005576434480256664
1288.0, 0.008009173834148085
1289.0, 0.008914541768946013
1290.0, 0.006877668762826561
1291.0, 0.004038253718099174
1292.0, 0.0034113119792861255
1293.0, 0.006276505335117745
1294.0, 0.005369680675560469
1295.0, 0.006367523534913197
1296.0, 0.006454199165357395
1297.0, 0.00030211539748089145
1298.0, 0.007566215997739155
1299.0, 0.009573538233884927
1300.0, 0.007957674235839318
1301.0, 0.018049304705008287
1302.0, 0.01705620640647432
1303.0, 0.01586164772052856
1304.0, 0.012132550527765688
1305.0, 0.008351624151067199
1306.0, 0.0087360067454696
1307.0, 0.013371984725272342
1308.0, 0.015338164425443248
1309.0, 0.005594098522933775
1310.0, 0.014810130771300707
1311.0, 0.015472474623890231
1312.0, 0.010156728412515335
1313.0, 0.018144030753850817
1314.0, 0.019178255517309915
1315.0, 0.023217074812190597
1316.0, 0.019836889470519658
1317.0, 0.014357622651321015
1318.0, 0.014756142042167662
1319.0, 0.016463715081942568
1320.0, 0.018947983361244956
1321.0, 0.020689716082597624
1322.0, 0.02238263257169502
1323.0, 0.02346124887352892
1324.0, 0.022094129073452175
1325.0, 0.021309010054522588
1326.0, 0.015939680526739133
1327.0, 0.02188603366700296
1328.0, 0.015678080737906778
1329.0, 0.01353094051153022
1330.0, 0.0277734016584823
1331.0, 0.015218640705502065
1332.0, 0.013567692139284947
1333.0, 0.025779055875871728
1334.0, 0.012022209932378219
1335.0, 0.007670614183508646
1336.0, 0.01343741442663032
1337.0, 0.009734534700655014
1338.0, 0.006802076503568344
1339.0, 0.013332739303926871
1340.0, 0.020285639808032847
1341.0, 0.022974754062470314
1342.0, 0.016697434736332537
1343.0, 0.01371990684782333
1344.0, 0.014196482301826227
1345.0, 0.005054909381186318
1346.0, 0.023588366576629584
1347.0, 0.009347410496889282
1348.0, 0.02214593324669174
1349.0, 0.01705016312181988
1350.0, 0.02468126671229358
1351.0, 0.01673929324671838
1352.0, 0.019041932321204116
1353.0, 0.018444842868372543
1354.0, 0.010144893241946966
1355.0, 0.014124116067805838
1356.0, 0.015973020817946028
1357.0, 0.009593475695734361
1358.0, 0.012048717244293291
1359.0, 0.0074125643267102265
1360.0, 0.017869245023177077
1361.0, 0.01494682458258543
1362.0, 0.006792808361338531
1363.0, 0.013840747275692004
1364.0, 0.009213454274973455
1365.0, 0.018710931918468277
1366.0, 0.01989318710091529
1367.0, 0.015956984514114696
1368.0, 0.015790514308143825
1369.0, 0.01350518567886603
1370.0, 0.014627001972276598
1371.0, 0.013353454299081241
1372.0, 0.01588772555711959
1373.0, 0.013903466063625181
1374.0, 0.006611696661832985
1375.0, 0.009930277546308458
1376.0, 0.016374107043310417
1377.0, 0.01382543239564864
1378.0, 0.01849509360987776
1379.0, 0.016364092550142068
1380.0, 0.006933884481221969
1381.0, 0.008009834216432036
1382.0, 0.01960642251656317
1383.0, 0.0051737888950100204
1384.0, 0.0202745442706984
1385.0, 0.01609223991286111
1386.0, 0.012098604995506069
1387.0, 0.007888026056327449
1388.0, 0.0063803898866691515
1389.0, 0.00484265718667452
1390.0, 0.01352178322744024
1391.0, 0.022160579524905702
1392.0, 0.013523419948798618
1393.0, 0.007102449743306563
1394.0, 0.008676736088223534
1395.0, 0.006543261560496281
1396.0, 0.016261556957471286
1397.0, 0.013418825430331956
1398.0, 0.010267781928564763
1399.0, 0.011489683795611072
1400.0, 0.015411649260599257
1401.0, 0.011008765063337377
1402.0, 0.012305961309033522
1403.0, 0.005522949983241779
1404.0, 0.0030033383197888416
1405.0, 0.006443741745073154
1406.0, 0.012015979193496864
1407.0, 0.00599786743050733
1408.0, 0.01503404286881952
1409.0, 0.023756078636116555
1410.0, 0.017357617477052303
1411.0, 0.013128953295342785
1412.0, 0.009439949994435759
1413.0, 0.005100891540381978
1414.0, 0.004439428492267696
1415.0, 0.001606245192206967
1416.0, 0.0021473793993075263
1417.0, 0.0025814069852562135
1418.0, 0.008605567348256744
1419.0, 0.00563007660215393
1420.0, 0.011542409192846543
1421.0, 0.005793781795245626
1422.0, 0.01138113060185228
1423.0, 0.007177271644310777
1424.0, 0.0014469476688681337
1425.0, 0.01012889664750849
1426.0, 0.005040263995470552
1427.0, 0.005936610465269904
1428.0, 0.0031472923508641453
1429.0, 0.006277424799876638
1430.0, 0.010396590002102548
1431.0, 0.009869064315932126
1432.0, 0.011108026062987818
1433.0, 0.00728942148243399
1434.0, 0.009506434799708429
1435.0, 0.014816658711532326
1436.0, 0.00997186973570476
1437.0, 0.015582765277173564
1438.0, 0.018312859441034186
1439.0, 0.013031397413494517
1440.0, 0.005602714817898579
1441.0, 0.006655421922159312
1442.0, 0.0012923764358289949
1443.0, 0.013545158695449758
1444.0, 0.028556281552639652
1445.0, 0.022189534039647664
1446.0, 0.019390004432613638
1447.0, 0.015329566808292276
1448.0, 0.019172908451452354
1449.0, 0.020752097311770547
1450.0, 0.017938482407931205
1451.0, 0.017514850771996254
1452.0, 0.014459076724081246
1453.0, 0.012546156660556505
1454.0, 0.012348583505541801
1455.0, 0.011456114652882333
1456.0, 0.01517637950212756
1457.0, 0.016785211924807062
1458.0, 0.014158932805315915
1459.0, 0.01826339569910821
1460.0, 0.025530729983689084
1461.0, 0.02716107020887981
1462.0, 0.016801773497809477
1463.0, 0.030065848741988928
1464.0, 0.017605566612223993
1465.0, 0.01853674711328183
1466.0, 0.011211478219642523
1467.0, 0.015800808833069228
1468.0, 0.004196209108746405
1469.0, 0.01883231168051083
1470.0, 0.01141268163190106
1471.0, 0.007950253861866279
1472.0, 0.021998229322314357
1473.0, 0.021536382739580043
1474.0, 0.019634893159770524
1475.0, 0.014389061278152204
1476.0, 0.01285038492980361
1477.0, 0.020582521786890295
1478.0, 0.016925010380485106
1479.0, 0.010754634410080071
1480.0, 0.012768610167803798
1481.0, 0.009065906046927532
1482.0, 0.008474614885091157
1483.0, 0.01328338892995325
1484.0, 0.010015390188989627
1485.0, 0.012561546220952761
1486.0, 0.011275317173907904
1487.0, 0.012246225109073302
1488.0, 0.019513214654611054
1489.0, 0.02052569491130281
1490.0, 0.026806673589511186
1491.0, 0.023549572041191732
1492.0, 0.022774474702248734
1493.0, 0.02524520771144769
1494.0, 0.013967929001626585
1495.0, 0.015390568839459788
1496.0, 0.010562128990430613
1497.0, 0.004786844601019725
1498.0, 0.015812982570908362
1499.0, 0.00746744918913396
1500.0, 0.011282948945844706
1501.0, 0.0112109626722329
1502.0, 0.013583796015781887
1503.0, 0.021260585852758227
1504.0, 0.018799346350893677
1505.0, 0.018997138187201165
1506.0, 0.019162787940988902
1507.0, 0.010473235085455111
1508.0, 0.011058347914135114
1509.0, 0.016434450702038236
1510.0, 0.013276238182314956
1511.0, 0.01327421840880241
1512.0, 0.01464611592469383
1513.0, 0.014230903748969789
1514.0, 0.01644687711640714
1515.0, 0.019201164468377815
1516.0, 0.013561827846777732
1517.0, 0.009427574485183454
1518.0, 0.007424864112126661
1519.0, 0.015040058319296638
1520.0, 0.008931260395537226
1521.0, 0.011215867206778984
1522.0, 0.023632503824550538
1523.0, 0.012649098005566689
1524.0, 0.007618035836076791
1525.0, 0.015702571229384194
1526.0, 0.006416471876902318
1527.0, 0.015133604808134742
1528.0, 0.013918045025162668
1529.0, 0.017805169627046546
1530.0, 0.016850486268643942
1531.0, 0.015847672385416227
1532.0, 0.016553441464610012
1533.0, 0.016386657837137115
1534.0, 0.016988107767517687
1535.0, 0.016228644218906855
1536.0, 0.01684914013665551
1537.0, 0.01600269679084122
1538.0, 0.018113684085563388
1539.0, 0.015629330949686764
1540.0, 0.01584373725200993
1541.0, 0.028239819852652222
1542.0, 0.02289739636778254
1543.0, 0.011552518627983373
1544.0, 0.019073800530069473
1545.0, 0.015407143009747996
1546.0, 0.018025768232789775
1547.0, 0.013807638560846339
1548.0, 0.014758512376316164
1549.0, 0.011258420803341503
1550.0, 0.01543434798550844
1551.0, 0.015550669344783014
1552.0, 0.03072112654504202
1553.0, 0.0197279096887408
1554.0, 0.025547047162955618
1555.0, 0.01698552514691324
1556.0, 0.017082192226539616
1557.0, 0.013311353218743043
1558.0, 0.009715613592557229
1559.0, 0.010735666244104972
1560.0, 0.014119976329583046
1561.0, 0.011441028905938401
1562.0, 0.011659069469518394
1563.0, 0.011032875359746787
1564.0, 0.009312417119997727
1565.0, 0.007464218737669304
1566.0, 0.005720532820881538
1567.0, 0.0041047600142602725
1568.0, 0.0026533357801572775
1569.0, 0.0014171873775873903
1570.0, 0.00048154597211511464
1571.0, 0.00013595589967588926
1572.0, 4.817791890441482e-05
1573, 0.0
1574, 0.0
1575, 0.0
1576, 0.0
1577, 0.0
1578, 0.0
1579, 0.0
1580, 0.0
1581, 0.0
1582, 0.0
1583, 0.0
1584, 0.0
1585, 0.0
1586, 0.0
1587, 0.0
1588, 0.0
1589, 0.0
1590, 0.0
1591, 0.0
1592, 0.0
1593, 0.0
1594, 0.0
1595, 0.0
1596, 0.0
1597, 0.0
1598, 0.0
1599, 0.0
