30, 0.0
31, 0.0
32, 0.0
33, 0.0
34, 0.0
35, 0.0
36, 0.0
37, 0.0
38, 0.0
39, 0.0
40, 0.0
41, 0.0
42, 0.0
43, 0.0
44, 0.0
45, 0.0
46, 0.0
47, 0.0
48, 0.0
49, 0.0
50, 0.0
51, 0.0
52, 0.0
53, 0.0
54, 0.0
55, 0.0
56, 0.0
57, 0.0
58, 0.0
59, 0.0
60, 0.0
61, 0.0
62, 0.0
63, 0.0
64, 0.0
65, 0.0
66, 0.0
67, 0.0
68, 0.0
69, 0.0
70, 0.0
71, 0.0
72, 0.0
73, 0.0
74, 0.0
75, 0.0
76, 0.0
77, 0.0
78, 0.0
79, 0.0
80, 0.0
81, 0.0
82, 0.0
83, 0.0
84, 0.0
85, 0.0
86, 0.0
87, 0.0
88, 0.0
89, 0.0
90, 0.0
91, 0.0
92, 0.0
93, 0.0
94, 0.0
95, 0.0
96, 0.0
97, 0.0
98, 0.0
99, 0.0
100, 0.0
101, 0.0
102, 0.0
103, 0.0
104, 0.0
105, 0.0
106, 0.0
107, 0.0
108, 0.0
109, 0.0
110, 0.0
111, 0.0
112, 0.0
113, 0.0
114, 0.0
115, 0.0
116, 0.0
117, 0.0
118, 0.0
119, 0.0
120, 0.0
121, 0.0
122, 0.0
123, 0.0
124, 0.0
125, 0.0
126, 0.0
127, 0.0
128, 0.0
129, 0.0
130, 0.0
131, 0.0
132, 0.0
133, 0.0
134, 0.0
135, 0.0
136, 0.0
137, 0.0
138, 0.0
139, 0.0
140, 0.0
141, 0.0
142, 0.0
143, 0.0
144, 0.0
145, 0.0
146, 0.0
147, 0.0
148, 0.0
149, 0.0
150, 0.0
151, 0.0
152, 0.0
153, 0.0
154, 0.0
155, 0.0
156, 0.0
157, 0.0
158, 0.0
159, 0.0
160, 0.0
161, 0.0
162, 0.0
163, 0.0
164, 0.0
165, 0.0
166, 0.0
167, 0.0
168, 0.0
169, 0.0
170, 0.0
171, 0.0
172, 0.0
173, 0.0
174, 0.0
175, 0.0
176, 0.0
177, 0.0
178.0, 0.0017324994210320519
179.0, 0.0015612206674316198
180.0, 0.007390198385007568
181.0, 0.010933137722040933
182.0, 0.008487611887924434
183.0, 0.016405631350545055
184.0, 0.021886402869568493
185.0, 0.025828648053879667
186.0, 0.03464829165420347
187.0, 0.049438950947289624
188.0, 0.05768306251731973
189.0, 0.06054325276206878
190.0, 0.07170822391958828
191.0, 0.09028266614058983
192.0, 0.1010788948748921
193.0, 0.11162070678389592
194.0, 0.1314549470651411
195.0, 0.14952421097636448
196.0, 0.15171746449567305
197.0, 0.15441793744812654
198.0, 0.1723160828234767
199.0, 0.19395662394639587
200.0, 0.20726697371608596
201.0, 0.21326325022401932
202.0, 0.2243285112392425
203.0, 0.23449096009956094
204.0, 0.24521325291234955
205.0, 0.26081880600253493
206.0, 0.2623022959929169
207.0, 0.27344057426880736
208.0, 0.28664902009813814
209.0, 0.2929614033431165
210.0, 0.29734430805934536
211.0, 0.30050961106016755
212.0, 0.3062590505239163
213.0, 0.312933154331386
214.0, 0.3158351904981894
215.0, 0.3101551890264228
216.0, 0.31202818825171863
217.0, 0.3071736668478
218.0, 0.28773196597559547
219.0, 0.276774503273112
220.0, 0.2603852373730639
221.0, 0.24498692056298155
222.0, 0.22743177108928417
223.0, 0.19531708874431677
224.0, 0.18896676486493966
225.0, 0.16891767790485498
226.0, 0.1442088783406601
227.0, 0.13106390697656764
228.0, 0.11434402752799203
229.0, 0.09729236174016354
230.0, 0.08191864878276274
231.0, 0.07072819854653203
232.0, 0.06518266743252807
233.0, 0.05350181603396312
234.0, 0.03379176909864859
235.0, 0.01782571897319043
236.0, 0.015719079575258393
237.0, 0.016806342440599985
238.0, 0.014532463602680817
239.0, 0.006143764426853963
240.0, 0.002175354733781342
241.0, 0.0010975154598947606
242.0, 0.007252931932261793
243.0, 0.008220886828599996
244.0, 0.009226245031763525
245.0, 0.013735159760034294
246.0, 0.009300127889510398
247.0, 0.010427697253124668
248.0, 0.008514186807363164
249.0, 0.005268390185456412
250.0, 0.00898500498998297
251.0, 0.0008471051259729437
252.0, 0.00211893644666496
253.0, 0.004624395913628372
254.0, 0.0014517073943172663
255.0, 0.006885867518838571
256.0, 0.011622808313082406
257.0, 0.015874628703729143
258.0, 0.016292955503806224
259.0, 0.01263983705547651
260.0, 0.020038013244919467
261.0, 0.023979841826309363
262.0, 0.031351991151783304
263.0, 0.0424640761771708
264.0, 0.04529819534767564
265.0, 0.04973978939983724
266.0, 0.05766479851828121
267.0, 0.06573320463917799
268.0, 0.07019593261390791
269.0, 0.0716304787232066
270.0, 0.08152917795208549
271.0, 0.08983483660644194
272.0, 0.0939402161877925
273.0, 0.10031432020087243
274.0, 0.11060332889895905
275.0, 0.11759220447333928
276.0, 0.12339935434478276
277.0, 0.12963073759315474
278.0, 0.13191883623798326
279.0, 0.13197048213003448
280.0, 0.14174518802959013
281.0, 0.15301293637106636
282.0, 0.15137913417323262
283.0, 0.1441144750920991
284.0, 0.13544825979467964
285.0, 0.13335921672568438
286.0, 0.13518761906744692
287.0, 0.13144243652759352
288.0, 0.12709569550269048
289.0, 0.12415771541197747
290.0, 0.12467387212870175
291.0, 0.12634957659558085
292.0, 0.12091754218238175
293.0, 0.12055605753359061
294.0, 0.12299155836875539
295.0, 0.12420602716854033
296.0, 0.12189759233095611
297.0, 0.11760977414289901
298.0, 0.12420707960795081
299.0, 0.1278598312058174
300.0, 0.12195660809922328
301.0, 0.11504099360105241
302.0, 0.1147282175685297
303.0, 0.11948212969539312
304.0, 0.12009716144215823
305.0, 0.11287503385653744
306.0, 0.10661425176896787
307.0, 0.1098776072421621
308.0, 0.10772120989819159
309.0, 0.1025136421127235
310.0, 0.10069512803317704
311.0, 0.1007256854175312
312.0, 0.10422894657836941
313.0, 0.10721552938718096
314.0, 0.10810264205444862
315.0, 0.1078223148510216
316.0, 0.10375069975398944
317.0, 0.09980281488977019
318.0, 0.1032121798773984
319.0, 0.11340285932649054
320.0, 0.12044709941722778
321.0, 0.11896569170097518
322.0, 0.1298659772907737
323.0, 0.1386279408523316
324.0, 0.1365474719486697
325.0, 0.14302496607645404
326.0, 0.15564531147431862
327.0, 0.16365176773698548
328.0, 0.17122392108715329
329.0, 0.18127343067426743
330.0, 0.1853938246513821
331.0, 0.19430854635558012
332.0, 0.2029162490186203
333.0, 0.21079454740758544
334.0, 0.22140952631503905
335.0, 0.23739091394657771
336.0, 0.24396994398981414
337.0, 0.25143545478987456
338.0, 0.26319124141384487
339.0, 0.2729384806124392
340.0, 0.2895678218848707
341.0, 0.2851019560289479
342.0, 0.2848606378375453
343.0, 0.29762552293421785
344.0, 0.29555422710234946
345.0, 0.29726620140994015
346.0, 0.29204055984948996
347.0, 0.2831813531610982
348.0, 0.27640834174970186
349.0, 0.2695246273944977
350.0, 0.25724004776851783
351.0, 0.24323901636010073
352.0, 0.23140380860751267
353.0, 0.22371526910004946
354.0, 0.21988215414442644
355.0, 0.2136706800370382
356.0, 0.19945507878898797
357.0, 0.18256502144872
358.0, 0.16933885021800177
359.0, 0.15545670744689175
360.0, 0.14141584647199443
361.0, 0.12731620877627048
362.0, 0.11134141972172464
363.0, 0.09426875166111608
364.0, 0.0873648522212153
365.0, 0.07575725794733802
366.0, 0.058243604362117125
367.0, 0.04302711102658414
368.0, 0.037049601502388924
369.0, 0.027962202570451473
370.0, 0.012706960239543718
371.0, 0.010346170138873973
372.0, 0.011873775148528342
373.0, 0.008399915309310722
374.0, 0.00520527499467055
375.0, 0.0006111930355948371
376.0, 0.010839951913785707
377.0, 0.024695418117792016
378.0, 0.016349612032976638
379.0, 0.019790431411311725
380.0, 0.020870264904777704
381.0, 0.016276854474320198
382.0, 0.013442576158802342
383.0, 0.018395796353582704
384.0, 0.006318509611709943
385.0, 0.007342199482842122
386.0, 0.006188737002938347
387.0, 0.005912667557650115
388.0, 0.012894985957180088
389.0, 0.017162467315265724
390.0, 0.025086738986847778
391.0, 0.03547885615296226
392.0, 0.04588895744962348
393.0, 0.056140798814346096
394.0, 0.06369248723981474
395.0, 0.07554839357151291
396.0, 0.08986038055814945
397.0, 0.10021331276874539
398.0, 0.09738342461158896
399.0, 0.1105513986540967
400.0, 0.11752969774494124
401.0, 0.12326259846295402
402.0, 0.13391966971127306
403.0, 0.14288111624530758
404.0, 0.14490145757780698
405.0, 0.14663828944244772
406.0, 0.14902022954589364
407.0, 0.15064357351746172
408.0, 0.15141030874396513
409.0, 0.15339524533022775
410.0, 0.15237330663016496
411.0, 0.1523312816270791
412.0, 0.15497694175960325
413.0, 0.15592544127047245
414.0, 0.16023507360547615
415.0, 0.16479666179204072
416.0, 0.1690256024365851
417.0, 0.1687779157005423
418.0, 0.15973288691170562
419.0, 0.156403064447892
420.0, 0.1554468413475281
421.0, 0.1536701854698479
422.0, 0.15174999409018514
423.0, 0.15155492342355253
424.0, 0.14880456535951322
425.0, 0.14237256167420614
426.0, 0.13967844464520116
427.0, 0.1451918319068963
428.0, 0.15606643594395753
429.0, 0.1496411278959011
430.0, 0.1535209955879242
431.0, 0.16036148545610512
432.0, 0.16377962295944787
433.0, 0.16650675272951887
434.0, 0.17343387863760631
435.0, 0.1724718922231158
436.0, 0.18386165307172175
437.0, 0.20210051895128642
438.0, 0.2088798041296814
439.0, 0.21227010939038768
440.0, 0.23326940146636557
441.0, 0.25109114093525564
442.0, 0.2608109954730191
443.0, 0.2730462174468853
444.0, 0.3011582520500923
445.0, 0.31692188843134267
446.0, 0.33876963325726844
447.0, 0.36558574691164286
448.0, 0.38530388031568696
449.0, 0.3945645864599702
450.0, 0.4100718397020532
451.0, 0.42638836256246315
452.0, 0.4403235827615493
453.0, 0.4524556468249527
454.0, 0.4670352761122208
455.0, 0.48207188122757455
456.0, 0.47965572298025083
457.0, 0.4744386414279122
458.0, 0.47558549370283804
459.0, 0.47249945333509497
460.0, 0.4788470894199534
461.0, 0.47733025798013096
462.0, 0.47135062374754116
463.0, 0.4698532452085599
464.0, 0.4723102718751941
465.0, 0.45328374460587406
466.0, 0.4567440097865494
467.0, 0.4555062985020851
468.0, 0.43896878173735154
469.0, 0.4196198161797136
470.0, 0.4234646980867701
471.0, 0.4137099184556401
472.0, 0.40115282668266833
473.0, 0.3920076582590639
474.0, 0.3832961556108688
475.0, 0.3720990516923735
476.0, 0.35679295930171595
477.0, 0.3467362369574297
478.0, 0.3421663579024755
479.0, 0.3358498914401434
480.0, 0.3213906491530747
481.0, 0.31686057854299826
482.0, 0.3187776493849848
483.0, 0.3109837249476919
484.0, 0.29988060017708806
485.0, 0.30159887144396963
486.0, 0.2943455972582742
487.0, 0.2871926427893757
488.0, 0.2878388430211291
489.0, 0.28958560000625705
490.0, 0.2803422925733679
491.0, 0.25428264533203376
492.0, 0.24185043313515933
493.0, 0.22999391961681334
494.0, 0.20980872703626383
495.0, 0.18004131544464963
496.0, 0.14502246023907417
497.0, 0.11147757856997269
498.0, 0.07965867990922369
499.0, 0.05021669319094226
500.0, 0.02456246175157534
501.0, 0.0029978632209652903
502.0, 0.018692768055625364
503.0, 0.02636631550413859
504.0, 0.03669125810470586
505.0, 0.049614028235307
506.0, 0.05483993114430328
507.0, 0.0456764348216758
508.0, 0.03255979298484109
509.0, 0.024416145001415437
510.0, 0.017947489751688448
511.0, 0.009556255130352716
512.0, 0.005958649714664617
513.0, 0.038782124249828784
514.0, 0.07704861397261198
515.0, 0.10722836701128853
516.0, 0.13353883966147184
517.0, 0.16399764129714087
518.0, 0.203965509403669
519.0, 0.24252653564432228
520.0, 0.2763903650714166
521.0, 0.3124296270773138
522.0, 0.35571418443794217
523.0, 0.3993145282447377
524.0, 0.4296615192738833
525.0, 0.47062278758826703
526.0, 0.5030943589858615
527.0, 0.5200577757283984
528.0, 0.5436026496946494
529.0, 0.5881139778385459
530.0, 0.6063259540660993
531.0, 0.6188865522912612
532.0, 0.6348040443455801
533.0, 0.6516177517430171
534.0, 0.673990287707471
535.0, 0.676085759158874
536.0, 0.6711595846013665
537.0, 0.6755181844885325
538.0, 0.6889377428609695
539.0, 0.6952935127027878
540.0, 0.6905707828977811
541.0, 0.6922900348028291
542.0, 0.6992089105625723
543.0, 0.6993557397560831
544.0, 0.6934720567152844
545.0, 0.7027407100633237
546.0, 0.7176439114958563
547.0, 0.7291272075978769
548.0, 0.738650459652435
549.0, 0.755403942881156
550.0, 0.7844000366775538
551.0, 0.8004788335795665
552.0, 0.8325864533268167
553.0, 0.8582713711887489
554.0, 0.8779460894063004
555.0, 0.9031265682113244
556.0, 0.9300914825911548
557.0, 0.9516273520567458
558.0, 0.9692192359815957
559.0, 0.9845299139604361
560.0, 0.9874786980886896
561.0, 0.974794560965492
562.0, 0.9708946218644877
563.0, 0.9812091409001782
564.0, 0.9810492699184213
565.0, 0.9769885824538974
566.0, 0.9818202612749911
567.0, 0.9941176314944148
568.0, 0.9998033555286044
569.0, 0.9937727964517529
570.0, 0.9721685748187154
571.0, 0.9366335015889485
572.0, 0.8870259474837303
573.0, 0.8178340626886058
574.0, 0.7490261240387689
575.0, 0.670164719859216
576.0, 0.5949254185450354
577.0, 0.5236816975010233
578.0, 0.4461502700457545
579.0, 0.3771755006600771
580.0, 0.3256080798816206
581.0, 0.2750003634384494
582.0, 0.23630995277908085
583.0, 0.21046639319723126
584.0, 0.1784030610022527
585.0, 0.15380704604032394
586.0, 0.14113514497438234
587.0, 0.13280261926274994
588.0, 0.12898194672671984
589.0, 0.13275875278499397
590.0, 0.13923960059023896
591.0, 0.13465542531551786
592.0, 0.13535839667453278
593.0, 0.15293000779871516
594.0, 0.1768118614963805
595.0, 0.18835656181235358
596.0, 0.19452031577555687
597.0, 0.2103592639419697
598.0, 0.22087421311158653
599.0, 0.22657147952777862
600.0, 0.2322973654091869
601.0, 0.24088132202878587
602.0, 0.25627397947783587
603.0, 0.26479499877891655
604.0, 0.2665219432482658
605.0, 0.2674797980915993
606.0, 0.2701173153431768
607.0, 0.2676941965802041
608.0, 0.2513364107400189
609.0, 0.23898894478065127
610.0, 0.22724958577250592
611.0, 0.21811475703553265
612.0, 0.2086619523574614
613.0, 0.18486075430930302
614.0, 0.16482935206432514
615.0, 0.1543066839763834
616.0, 0.1402772333477066
617.0, 0.1285428768396716
618.0, 0.12651479990703152
619.0, 0.12126926286948726
620.0, 0.12232555172948023
621.0, 0.12663115784979442
622.0, 0.12791554764967528
623.0, 0.12709511056101322
624.0, 0.12843183718070986
625.0, 0.1332897619963084
626.0, 0.13015845909910365
627.0, 0.13717925906365114
628.0, 0.13577475667530564
629.0, 0.12292380742696964
630.0, 0.1119399183406616
631.0, 0.10334176392334575
632.0, 0.09482642158830887
633.0, 0.09212976282011959
634.0, 0.08241971084988596
635.0, 0.06519193403385856
636.0, 0.05123460434159261
637.0, 0.04014623194847289
638.0, 0.03211426152330207
639.0, 0.019732260269046637
640.0, 0.007778790028118435
641.0, 0.0007573833473110063
642.0, 0.004808743471715529
643.0, 0.013277027133356389
644.0, 0.014617495087229343
645.0, 0.017159759371417123
646.0, 0.027232974637451047
647.0, 0.03190147034395259
648.0, 0.021028011558899457
649.0, 0.023306615084218503
650.0, 0.017126847685031112
651.0, 0.016688798655967726
652.0, 0.016772914258915868
653.0, 0.013650817714607959
654.0, 0.009690773917155088
655.0, 0.002270975959997952
656.0, 0.0037678384957072347
657.0, 0.008237197578652272
658.0, 0.020312719930330653
659.0, 0.03356657606662023
660.0, 0.04132750290823583
661.0, 0.04941531875781716
662.0, 0.061387748442415145
663.0, 0.0813035627876215
664.0, 0.09543146328493897
665.0, 0.10759039831778758
666.0, 0.12799540585689956
667.0, 0.14615412406278147
668.0, 0.16738099711987958
669.0, 0.18237104575269475
670.0, 0.19820543012081682
671.0, 0.21686423239218366
672.0, 0.23554398069910956
673.0, 0.2542557720269055
674.0, 0.26606048468655813
675.0, 0.2859264649187294
676.0, 0.2982099192654406
677.0, 0.3077604240366397
678.0, 0.3243537264980257
679.0, 0.3384594085731874
680.0, 0.3512305440090449
681.0, 0.35965892587967785
682.0, 0.37727079546746645
683.0, 0.39469110587834866
684.0, 0.40532828413429517
685.0, 0.4202690239905754
686.0, 0.4280471571122194
687.0, 0.4439645461260287
688.0, 0.45434486388720147
689.0, 0.46914387652720885
690.0, 0.4882044916906606
691.0, 0.49737793580400114
692.0, 0.5133463493660323
693.0, 0.5198449350552857
694.0, 0.5359012201901202
695.0, 0.555699995455228
696.0, 0.5703893933363631
697.0, 0.580785723723589
698.0, 0.5938401849999491
699.0, 0.6154695074033143
700.0, 0.6279760310157445
701.0, 0.6234930294010234
702.0, 0.6153084077861466
703.0, 0.6103790684784064
704.0, 0.5940596999513607
705.0, 0.5716357169756063
706.0, 0.5454557556705352
707.0, 0.5126132966092175
708.0, 0.4767541965008736
709.0, 0.43510599786653914
710.0, 0.3846288809745785
711.0, 0.34932383812642115
712.0, 0.30149728486529626
713.0, 0.26145989677925435
714.0, 0.21915816405232028
715.0, 0.17088671980883108
716.0, 0.13047142422241048
717.0, 0.09635311813911547
718.0, 0.07165838873362271
719.0, 0.04922567624138104
720.0, 0.03250999138550164
721.0, 0.021173092095152165
722.0, 0.014824433100771785
723.0, 0.01656133866353505
724.0, 0.00499641841103882
725.0, 0.007716972783351542
726.0, 0.013074448722563492
727.0, 0.01949755119682284
728.0, 0.0291535373567925
729.0, 0.03823216926131332
730.0, 0.04692929982097338
731.0, 0.05636592268165848
732.0, 0.06634636496747712
733.0, 0.07363236782554362
734.0, 0.07833529149424463
735.0, 0.08899270527073325
736.0, 0.11168127528432423
737.0, 0.11938016114064508
738.0, 0.1322194433106129
739.0, 0.13766366742265218
740.0, 0.14549758585192596
741.0, 0.15888029065098586
742.0, 0.16354662179891127
743.0, 0.1662179742025969
744.0, 0.16851458466737917
745.0, 0.1778268357700675
746.0, 0.17781933680234185
747.0, 0.17128642949691109
748.0, 0.17118427719640072
749.0, 0.17218976744493358
750.0, 0.1554562503233919
751.0, 0.14439721699461405
752.0, 0.13492791975756438
753.0, 0.12377690405301765
754.0, 0.11123827829774321
755.0, 0.1020799958659441
756.0, 0.10424302099374574
757.0, 0.09473647300537705
758.0, 0.09339992307234989
759.0, 0.08499825397796519
760.0, 0.07574862103947642
761.0, 0.07454449798445036
762.0, 0.07078793210480326
763.0, 0.06666366886822875
764.0, 0.06602120833312537
765.0, 0.060966738854767374
766.0, 0.05502820971240726
767.0, 0.05419337930383564
768.0, 0.05261910342018016
769.0, 0.04037150614371133
770.0, 0.05140206905563274
771.0, 0.0404869307946043
772.0, 0.03837995155009834
773.0, 0.037836857139376845
774.0, 0.03089529517959084
775.0, 0.030569247141462332
776.0, 0.033590184906937985
777.0, 0.03377227056308527
778.0, 0.033425684911229714
779.0, 0.029388002172990098
780.0, 0.02075916174407588
781.0, 0.016039819691862876
782.0, 0.020333371794859046
783.0, 0.020740656029665763
784.0, 0.014650006406233578
785.0, 0.0077709324584833255
786.0, 0.011280151453895297
787.0, 0.01297025432743874
788.0, 0.008868909845006838
789.0, 0.01562581284716323
790.0, 0.0013424313435006995
791.0, 0.006008101666648677
792.0, 0.002912176876649562
793.0, 0.005698968046796111
794.0, 0.005992834935471239
795.0, 0.0005311656024497443
796.0, 0.0008996072516842976
797.0, 0.0047967739321722715
798.0, 0.004745510893255698
799.0, 0.006983705642744365
800.0, 0.0018682364685375695
801.0, 0.002156562804237827
802.0, 0.016879505300557998
803.0, 0.0113921320094428
804.0, 0.003791020758696519
805.0, 0.006408309430310087
806.0, 0.006195377528074911
807.0, 0.007000520342551107
808.0, 0.009986524888792614
809.0, 0.0011653381812726917
810.0, 0.0035999542231863755
811.0, 0.008529967881437051
812.0, 0.013472187211019719
813.0, 0.010058770884064254
814.0, 0.004924698762914676
815.0, 0.00879435584592285
816.0, 0.0208958474198053
817.0, 0.022736896249471648
818.0, 0.019700209601589684
819.0, 0.014442046495515847
820.0, 0.013508012211785004
821.0, 0.01324536967175568
822.0, 0.015269566544327635
823.0, 0.02126805621343477
824.0, 0.020701601233609965
825.0, 0.010314862602844272
826.0, 0.012288715456441428
827.0, 0.004018050503420519
828.0, 0.003938323228953372
829.0, 0.004362216743172948
830.0, 0.0028591538333819556
831.0, 0.003522608811974792
832.0, 0.0020753471570393064
833.0, 0.006572290426832671
834.0, 0.013959364288797637
835.0, 0.015336026359402113
836.0, 0.00982740695756099
837.0, 0.008191626155986134
838.0, 0.01514219048836737
839.0, 0.009060463180603441
840.0, 0.022939763757915024
841.0, 0.01808454534546421
842.0, 0.01903558777638977
843.0, 0.020439961560365566
844.0, 0.013050520020503322
845.0, 0.010979375031080096
846.0, 0.0075353937772134946
847.0, 0.004115891337522134
848.0, 0.00599444644782678
849.0, 0.003043643138399856
850.0, 0.002030568802037939
851.0, 0.006367252220878824
852.0, 0.010237940277505431
853.0, 0.015279293366598347
854.0, 0.019557925834410763
855.0, 0.024506185585780722
856.0, 0.024728444190920035
857.0, 0.022871504126734204
858.0, 0.026455532553093193
859.0, 0.03537247679054651
860.0, 0.03864087358119385
861.0, 0.04493741808670365
862.0, 0.05057743115259106
863.0, 0.05023671999393676
864.0, 0.04989269822548372
865.0, 0.052014276236319594
866.0, 0.057345112778902814
867.0, 0.06800082466636805
868.0, 0.080727387303038
869.0, 0.07931478152115032
870.0, 0.08641556097485148
871.0, 0.08985678710051648
872.0, 0.09541268681137445
873.0, 0.10923236085038195
874.0, 0.12047335729900933
875.0, 0.11828207300487294
876.0, 0.12519361720833047
877.0, 0.1290102779536551
878.0, 0.12972434937284044
879.0, 0.13561846433063332
880.0, 0.13739059836130105
881.0, 0.1288206400275678
882.0, 0.12262715339772057
883.0, 0.1289008559783574
884.0, 0.14243871824792964
885.0, 0.14552758303782212
886.0, 0.14420117324611909
887.0, 0.14532300977257467
888.0, 0.15416970835381974
889.0, 0.16479689793471985
890.0, 0.16414615816335545
891.0, 0.1675011159169439
892.0, 0.17046962758583983
893.0, 0.16961528006824392
894.0, 0.17331564642395436
895.0, 0.17724510034388258
896.0, 0.17931913263389213
897.0, 0.18635769684458758
898.0, 0.19229347939145935
899.0, 0.19043013497641356
900.0, 0.19254727040431127
901.0, 0.1968427532884872
902.0, 0.19709935982877633
903.0, 0.2030741704477649
904.0, 0.2086169149407662
905.0, 0.1967993543808363
906.0, 0.208408282134585
907.0, 0.22517281326231164
908.0, 0.2472069727599312
909.0, 0.24194275455980327
910.0, 0.23581345379060206
911.0, 0.24475811320031593
912.0, 0.25664555172710385
913.0, 0.2646811566190777
914.0, 0.28305733302135766
915.0, 0.28240974189319523
916.0, 0.3019018768286223
917.0, 0.3246980316608324
918.0, 0.34789687511824074
919.0, 0.37156218204716324
920.0, 0.39021216318078
921.0, 0.4085428973378641
922.0, 0.4228044522493964
923.0, 0.4357928828486681
924.0, 0.463599880298096
925.0, 0.4870763946396794
926.0, 0.4975239431594908
927.0, 0.5119724640618323
928.0, 0.5393459766538964
929.0, 0.557003971074474
930.0, 0.570727688479653
931.0, 0.5705660720451042
932.0, 0.5798440693475228
933.0, 0.5890798815588869
934.0, 0.5922690496976365
935.0, 0.6034733479496045
936.0, 0.6233796923355045
937.0, 0.622493407218929
938.0, 0.6176696038330596
939.0, 0.6345473327525212
940.0, 0.6568840125168525
941.0, 0.672654588365674
942.0, 0.6796576651662847
943.0, 0.684182604951118
944.0, 0.6928685018036732
945.0, 0.7008912322255622
946.0, 0.7028567945202181
947.0, 0.7194211397625512
948.0, 0.7208798257706744
949.0, 0.7164029913146448
950.0, 0.7138802267017558
951.0, 0.7093935341196718
952.0, 0.700977765841879
953.0, 0.6960997801577667
954.0, 0.7004635068320769
955.0, 0.6934188830364312
956.0, 0.6788733779203004
957.0, 0.6599834579961219
958.0, 0.6464615220087545
959.0, 0.6357409883637684
960.0, 0.6240085451618402
961.0, 0.6099280419799644
962.0, 0.5783293951172018
963.0, 0.5668757533469267
964.0, 0.5512881362481377
965.0, 0.5277411087025223
966.0, 0.49660549311367386
967.0, 0.4695421948936338
968.0, 0.4523197278877226
969.0, 0.44124135175866386
970.0, 0.43188693481767193
971.0, 0.42515984027895637
972.0, 0.4093611140899959
973.0, 0.3963109996471086
974.0, 0.3759591113683761
975.0, 0.36268610787271477
976.0, 0.3583736384039613
977.0, 0.3476923476187535
978.0, 0.3339210444090599
979.0, 0.34035006172574017
980.0, 0.33810550894566715
981.0, 0.3334631656605025
982.0, 0.33600760165145616
983.0, 0.3305134264520112
984.0, 0.3192332970703749
985.0, 0.3150659427103616
986.0, 0.30984763256816444
987.0, 0.29111401505567275
988.0, 0.2978464617810374
989.0, 0.2936623322298775
990.0, 0.2851171643960182
991.0, 0.27121525658406265
992.0, 0.26306710062838756
993.0, 0.2613926148526924
994.0, 0.2555081039092029
995.0, 0.24559335105396152
996.0, 0.24279923762631053
997.0, 0.23681080541555127
998.0, 0.23327943695778522
999.0, 0.21759295871024337
1000.0, 0.2079957958509688
1001.0, 0.19843524898932793
1002.0, 0.18004853098556445
1003.0, 0.1701580768856495
1004.0, 0.1798545174732988
1005.0, 0.15222323022637393
1006.0, 0.14000715676142025
1007.0, 0.12702366020606431
1008.0, 0.11686265870542609
1009.0, 0.10924079861767914
1010.0, 0.10236417766358608
1011.0, 0.09321409451181585
1012.0, 0.08374110714636286
1013.0, 0.07635329550089193
1014.0, 0.05072295312053658
1015.0, 0.04647700376638263
1016.0, 0.04243545639041506
1017.0, 0.03689006214803276
1018.0, 0.02350923277988017
1019.0, 0.014876069290966
1020.0, 0.014906799911566113
1021.0, 0.009077571726244288
1022.0, 0.0007397404851200675
1023.0, 0.001895892766571826
1024.0, 0.01122569901466649
1025.0, 0.005887931418434399
1026.0, 0.014556346900060758
1027.0, 0.01999007802597603
1028.0, 0.019978576607260753
1029.0, 0.019307138082287505
1030.0, 0.014910754451806459
1031.0, 0.020093301501331273
1032.0, 0.024658365600276403
1033.0, 0.026375484398068794
1034.0, 0.025422620882354387
1035.0, 0.025956420191264134
1036.0, 0.02299041323165642
1037.0, 0.01605557617055099
1038.0, 0.012600653013729295
1039.0, 0.014747533593581816
1040.0, 0.015203033966334628
1041.0, 0.012671437835276146
1042.0, 0.0017721374931789322
1043.0, 0.011369514824523044
1044.0, 0.014637603177774511
1045.0, 0.020432813860065447
1046.0, 0.026990771109644953
1047.0, 0.04025735228585206
1048.0, 0.04750925415916809
1049.0, 0.059361910796760724
1050.0, 0.066295863475631
1051.0, 0.06899502800139738
1052.0, 0.08225490355896545
1053.0, 0.10718760473541902
1054.0, 0.13468398573850482
1055.0, 0.15513474118484258
1056.0, 0.18237099070216323
1057.0, 0.213743753670931
1058.0, 0.23764604824812227
1059.0, 0.2685313322672984
1060.0, 0.29568551673953153
1061.0, 0.3174577246943209
1062.0, 0.36097682049028296
1063.0, 0.3914477081206118
1064.0, 0.4285465050754647
1065.0, 0.4708527234295464
1066.0, 0.4990222875368924
1067.0, 0.5153754090562316
1068.0, 0.527961235789689
1069.0, 0.5341634831602163
1070.0, 0.5366815396159766
1071.0, 0.5368734406484585
1072.0, 0.5304789467427415
1073.0, 0.5302665960668527
1074.0, 0.5297621954852333
1075.0, 0.5375637487177847
1076.0, 0.5520640098838067
1077.0, 0.5605556105480709
1078.0, 0.5750449877244183
1079.0, 0.592485986684985
1080.0, 0.5975212423833473
1081.0, 0.6142509173581122
1082.0, 0.6224656617291134
1083.0, 0.6443548798035607
1084.0, 0.6757805458460158
1085.0, 0.7180523618148927
1086.0, 0.7813562644946563
1087.0, 0.8268001218514749
1088.0, 0.7705078306999957
1089.0, 0.6505809269449262
1090.0, 0.5589048463764325
1091.0, 0.5047411380112673
1092.0, 0.46247815002920395
1093.0, 0.4229282174831077
1094.0, 0.3901955539570276
1095.0, 0.36341143280711347
1096.0, 0.3312668332125841
1097.0, 0.28982329638850146
1098.0, 0.2528605827366953
1099.0, 0.22363075732429633
1100.0, 0.1988690103643954
1101.0, 0.16793830247158906
1102.0, 0.1376256694775898
1103.0, 0.11596152835719534
1104.0, 0.09375798736170884
1105.0, 0.0733119018396024
1106.0, 0.05972364369103549
1107.0, 0.05124778028251529
1108.0, 0.047509840335921594
1109.0, 0.038584676240851254
1110.0, 0.027317235087460572
1111.0, 0.03102504855896634
1112.0, 0.026135068949437536
1113.0, 0.01719710118990146
1114.0, 0.017715535687370134
1115.0, 0.01539100307885282
1116.0, 0.009133640370334978
1117.0, 0.008875106640190457
1118.0, 0.008571603805616532
1119.0, 0.016098745516833834
1120.0, 0.013979116751013673
1121.0, 0.013352406142893652
1122.0, 0.010876396136528186
1123.0, 0.011213056527451956
1124.0, 0.012581387161074343
1125.0, 0.014957478163744624
1126.0, 0.010938020719369012
1127.0, 0.005093628603402753
1128.0, 0.007712565240923034
1129.0, 0.008883804188350483
1130.0, 0.014159600154741183
1131.0, 0.012387205746271154
1132.0, 0.008655415001912768
1133.0, 0.011201282901025076
1134.0, 0.008764204512810873
1135.0, 0.00989667375067653
1136.0, 0.013008658221962649
1137.0, 0.013578942008307447
1138.0, 0.012547558473964566
1139.0, 0.010576919938003025
1140.0, 0.011655131607242962
1141.0, 0.007533035751850738
1142.0, 0.007727737407224115
1143.0, 0.009578892426051318
1144.0, 0.007613816300471303
1145.0, 0.008102227082188995
1146.0, 0.006635343183611192
1147.0, 0.0016805865716219158
1148.0, 0.0005676831717550656
1149.0, 0.006633342459316812
1150.0, 0.011595788958549135
1151.0, 0.0037380130780000596
1152.0, 0.0037970108063665586
1153.0, 0.0004997349777376269
1154.0, 0.0073403509199812785
1155.0, 0.003038579175287998
1156.0, 0.003863448071799197
1157.0, 0.0037990426829285434
1158.0, 0.001764912403363481
1159.0, 0.001663322920248134
1160.0, 0.004568189393423708
1161.0, 0.009081662334350624
1162.0, 0.007571180428691276
1163.0, 0.010007862882580897
1164.0, 0.010564423576185526
1165.0, 0.01267586918234095
1166.0, 0.014093898607225716
1167.0, 0.013375544524701228
1168.0, 0.011368171735094601
1169.0, 0.01271262837369072
1170.0, 0.010705279599139108
1171.0, 0.007972699020725161
1172.0, 0.01482862942651068
1173.0, 0.017135507128011287
1174.0, 0.013766999839116199
1175.0, 0.013062907689366464
1176.0, 0.008900230512601463
1177.0, 0.010309814699621339
1178.0, 0.009898202744119768
1179.0, 0.007656833064113167
1180.0, 0.008401380320749136
1181.0, 0.011960600740006804
1182.0, 0.012185151109980715
1183.0, 0.01196095600578453
1184.0, 0.014871354880337332
1185.0, 0.008855664209875526
1186.0, 0.010607159107174753
1187.0, 0.014035569969719159
1188.0, 0.008066654790796815
1189.0, 0.007387049295054309
1190.0, 0.009848463513335806
1191.0, 0.00634943933731179
1192.0, 0.00898761353945304
1193.0, 0.011978105150493098
1194.0, 0.010109944419136336
1195.0, 0.0100485949428276
1196.0, 0.010796845420502158
1197.0, 0.012058428974634125
1198.0, 0.012511668477126939
1199.0, 0.005725658775379805
1200.0, 0.004611304258651568
1201.0, 0.007190308752161322
1202.0, 0.011595691445644232
1203.0, 0.011248906124029774
1204.0, 0.007000501217677682
1205.0, 0.008383293731655406
1206.0, 0.012908544035411624
1207.0, 0.011506454620085337
1208.0, 0.008251538946071377
1209.0, 0.009997826447697533
1210.0, 0.007694095215803608
1211.0, 0.012337537533307148
1212.0, 0.0075625418009199075
1213.0, 0.0073877867535716455
1214.0, 0.014551168647468013
1215.0, 0.011494126599227134
1216.0, 0.006706001561075626
1217.0, 0.007425235111582953
1218.0, 0.010511177067578379
1219.0, 0.010612285765352962
1220.0, 0.008048018856014425
1221.0, 0.006955337444668696
1222.0, 0.0044331962177048805
1223.0, 0.010789778064450719
1224.0, 0.010187547645019763
1225.0, 0.009482283429911406
1226.0, 0.006976154211867384
1227.0, 0.009792838382172226
1228.0, 0.006149179306215408
1229.0, 0.006333277067689274
1230.0, 0.009895319982072109
1231.0, 0.007339444518491788
1232.0, 0.0043727021092557945
1233.0, 0.0072305604458583455
1234.0, 0.00830115255672605
1235.0, 0.005006718077678543
1236.0, 0.0010087959366979157
1237.0, 0.009256813991885783
1238.0, 0.002033639665719004
1239.0, 0.0007395573431015116
1240.0, 0.0006792036852533093
1241.0, 0.00040351394011686075
1242.0, 0.0024064442924341266
1243.0, 0.0037357165843170375
1244.0, 0.00039655352096875014
1245.0, 0.0003523845303773918
1246.0, 0.00499369398010543
1247.0, 0.006018440472859361
1248.0, 0.005123784236825195
1249.0, 0.00013793207451932892
1250.0, 0.003325810195082048
1251.0, 0.006691612027638192
1252.0, 0.001650391735420164
1253.0, 0.006741437444334426
1254.0, 0.007599307470445545
1255.0, 0.003670511775467699
1256.0, 0.003496958102546324
1257.0, 0.000832830060504477
1258.0, 0.001910421028047467
1259.0, 0.005915681312574245
1260.0, 0.011402805659454892
1261.0, 0.004067161808168185
1262.0, 0.007038359932880093
1263.0, 0.005826083508664213
1264.0, 0.0063552519557822955
1265.0, 0.003685259480045966
1266.0, 0.004412451185779671
1267.0, 0.004606780776474457
1268.0, 0.002448967890111434
1269.0, 0.0017653880715994435
1270.0, 0.0040398486804931015
1271.0, 0.0076082906848189726
1272.0, 0.005106004994639394
1273.0, 0.0028726533776304163
1274.0, 0.00963417143936766
1275.0, 0.0008755343428409084
1276.0, 0.005235213257542125
1277.0, 0.0074636987240674565
1278.0, 0.008028910255823439
1279.0, 0.00503947862484411
1280.0, 0.009186344334993166
1281.0, 0.008074102042780315
1282.0, 0.007827583681423377
1283.0, 0.0017723804051399924
1284.0, 0.004087623420830241
1285.0, 0.007092186768252471
1286.0, 0.003802926584878051
1287.0, 0.002365173748013404
1288.0, 0.003679154905244575
1289, 0.0
1290, 0.0
1291, 0.0
1292, 0.0
1293, 0.0
1294, 0.0
1295, 0.0
1296, 0.0
1297, 0.0
1298, 0.0
1299, 0.0
1300, 0.0
1301, 0.0
1302, 0.0
1303, 0.0
1304, 0.0
1305, 0.0
1306, 0.0
1307, 0.0
1308, 0.0
1309, 0.0
1310, 0.0
1311, 0.0
1312, 0.0
1313, 0.0
1314, 0.0
1315, 0.0
1316, 0.0
1317, 0.0
1318, 0.0
1319, 0.0
1320, 0.0
1321, 0.0
1322, 0.0
1323, 0.0
1324, 0.0
1325, 0.0
1326, 0.0
1327, 0.0
1328, 0.0
1329, 0.0
1330, 0.0
1331, 0.0
1332, 0.0
1333, 0.0
1334, 0.0
1335, 0.0
1336, 0.0
1337, 0.0
1338, 0.0
1339, 0.0
1340, 0.0
1341, 0.0
1342, 0.0
1343, 0.0
1344, 0.0
1345, 0.0
1346, 0.0
1347, 0.0
1348, 0.0
1349, 0.0
1350, 0.0
1351, 0.0
1352, 0.0
1353, 0.0
1354, 0.0
1355, 0.0
1356, 0.0
1357, 0.0
1358, 0.0
1359, 0.0
1360, 0.0
1361, 0.0
1362, 0.0
1363, 0.0
1364, 0.0
1365, 0.0
1366, 0.0
1367, 0.0
1368, 0.0
1369, 0.0
1370, 0.0
1371, 0.0
1372, 0.0
1373, 0.0
1374, 0.0
1375, 0.0
1376, 0.0
1377, 0.0
1378, 0.0
1379, 0.0
1380, 0.0
1381, 0.0
1382, 0.0
1383, 0.0
1384, 0.0
1385, 0.0
1386, 0.0
1387, 0.0
1388, 0.0
1389, 0.0
1390, 0.0
1391, 0.0
1392, 0.0
1393, 0.0
1394, 0.0
1395, 0.0
1396, 0.0
1397, 0.0
1398, 0.0
1399, 0.0
1400, 0.0
1401, 0.0
1402, 0.0
1403, 0.0
1404, 0.0
1405, 0.0
1406, 0.0
1407, 0.0
1408, 0.0
1409, 0.0
1410, 0.0
1411, 0.0
1412, 0.0
1413, 0.0
1414, 0.0
1415, 0.0
1416, 0.0
1417, 0.0
1418, 0.0
1419, 0.0
1420, 0.0
1421, 0.0
1422, 0.0
1423, 0.0
1424, 0.0
1425, 0.0
1426, 0.0
1427, 0.0
1428, 0.0
1429, 0.0
1430, 0.0
1431, 0.0
1432, 0.0
1433, 0.0
1434, 0.0
1435, 0.0
1436, 0.0
1437, 0.0
1438, 0.0
1439, 0.0
1440, 0.0
1441, 0.0
1442, 0.0
1443, 0.0
1444, 0.0
1445, 0.0
1446, 0.0
1447, 0.0
1448, 0.0
1449, 0.0
1450, 0.0
1451, 0.0
1452, 0.0
1453, 0.0
1454, 0.0
1455, 0.0
1456, 0.0
1457, 0.0
1458, 0.0
1459, 0.0
1460, 0.0
1461, 0.0
1462, 0.0
1463, 0.0
1464, 0.0
1465, 0.0
1466, 0.0
1467, 0.0
1468, 0.0
1469, 0.0
1470, 0.0
1471, 0.0
1472, 0.0
1473, 0.0
1474, 0.0
1475, 0.0
1476, 0.0
1477, 0.0
1478, 0.0
1479, 0.0
1480, 0.0
1481, 0.0
1482, 0.0
1483, 0.0
1484, 0.0
1485, 0.0
1486, 0.0
1487, 0.0
1488, 0.0
1489, 0.0
1490, 0.0
1491, 0.0
1492, 0.0
1493, 0.0
1494, 0.0
1495, 0.0
1496, 0.0
1497, 0.0
1498, 0.0
1499, 0.0
1500, 0.0
1501, 0.0
1502, 0.0
1503, 0.0
1504, 0.0
1505, 0.0
1506, 0.0
1507, 0.0
1508, 0.0
1509, 0.0
1510, 0.0
1511, 0.0
1512, 0.0
1513, 0.0
1514, 0.0
1515, 0.0
1516, 0.0
1517, 0.0
1518, 0.0
1519, 0.0
1520, 0.0
1521, 0.0
1522, 0.0
1523, 0.0
1524, 0.0
1525, 0.0
1526, 0.0
1527, 0.0
1528, 0.0
1529, 0.0
1530, 0.0
1531, 0.0
1532, 0.0
1533, 0.0
1534, 0.0
1535, 0.0
1536, 0.0
1537, 0.0
1538, 0.0
1539, 0.0
1540, 0.0
1541, 0.0
1542, 0.0
1543, 0.0
1544, 0.0
1545, 0.0
1546, 0.0
1547, 0.0
1548, 0.0
1549, 0.0
1550, 0.0
1551, 0.0
1552, 0.0
1553, 0.0
1554, 0.0
1555, 0.0
1556, 0.0
1557, 0.0
1558, 0.0
1559, 0.0
1560, 0.0
1561, 0.0
1562, 0.0
1563, 0.0
1564, 0.0
1565, 0.0
1566, 0.0
1567, 0.0
1568, 0.0
1569, 0.0
1570, 0.0
1571, 0.0
1572, 0.0
1573, 0.0
1574, 0.0
1575, 0.0
1576, 0.0
1577, 0.0
1578, 0.0
1579, 0.0
1580, 0.0
1581, 0.0
1582, 0.0
1583, 0.0
1584, 0.0
1585, 0.0
1586, 0.0
1587, 0.0
1588, 0.0
1589, 0.0
1590, 0.0
1591, 0.0
1592, 0.0
1593, 0.0
1594, 0.0
1595, 0.0
1596, 0.0
1597, 0.0
1598, 0.0
1599, 0.0
