30, 0.0
31, 0.0
32, 0.0
33, 0.0
34, 0.0
35, 0.0
36, 0.0
37, 0.0
38, 0.0
39, 0.0
40, 0.0
41, 0.0
42, 0.0
43, 0.0
44, 0.0
45, 0.0
46, 0.0
47, 0.0
48, 0.0
49, 0.0
50, 0.0
51, 0.0
52, 0.0
53, 0.0
54, 0.0
55, 0.0
56, 0.0
57, 0.0
58, 0.0
59, 0.0
60, 0.0
61, 0.0
62, 0.0
63, 0.0
64, 0.0
65, 0.0
66, 0.0
67, 0.0
68, 0.0
69, 0.0
70, 0.0
71, 0.0
72, 0.0
73, 0.0
74, 0.0
75, 0.0
76, 0.0
77, 0.0
78, 0.0
79, 0.0
80, 0.0
81, 0.0
82, 0.0
83, 0.0
84, 0.0
85, 0.0
86, 0.0
87, 0.0
88, 0.0
89, 0.0
90, 0.0
91, 0.0
92, 0.0
93, 0.0
94, 0.0
95, 0.0
96, 0.0
97, 0.0
98, 0.0
99, 0.0
100, 0.0
101, 0.0
102, 0.0
103, 0.0
104, 0.0
105, 0.0
106, 0.0
107, 0.0
108, 0.0
109, 0.0
110, 0.0
111, 0.0
112, 0.0
113, 0.0
114, 0.0
115, 0.0
116, 0.0
117, 0.0
118, 0.0
119.0, 0.0025541022662074146
120.0, 0.004780033318949831
121.0, 0.00920888354389345
122.0, 0.016434662612110292
123.0, 0.018563011216997754
124.0, 0.011070524104088346
125.0, 0.005772862153507515
126.0, 0.0030363083147516797
127.0, 0.003696613082961822
128.0, 0.009743111418830316
129.0, 0.009543137450631855
130.0, 0.016630069599712513
131.0, 0.02003445947623783
132.0, 0.020759994973919615
133.0, 0.025350660582711924
134.0, 0.03368755598095792
135.0, 0.042417116327540444
136.0, 0.047659118697584164
137.0, 0.05008236029136567
138.0, 0.051700767975829065
139.0, 0.0550978902877785
140.0, 0.05896868343977058
141.0, 0.05583920783378194
142.0, 0.053696081943033706
143.0, 0.05470876384170237
144.0, 0.05484285016675819
145.0, 0.06151803181052233
146.0, 0.05802180500391115
147.0, 0.05617790303593284
148.0, 0.05948579130522765
149.0, 0.06476651111052681
150.0, 0.05536467138137422
151.0, 0.06891884381581681
152.0, 0.0674495980448243
153.0, 0.05839115355275293
154.0, 0.05348336212985597
155.0, 0.06019230731870229
156.0, 0.06334677535615901
157.0, 0.06759075264919179
158.0, 0.06909088101099048
159.0, 0.06797188390641082
160.0, 0.06761358971390494
161.0, 0.07595267067772936
162.0, 0.08159832657157486
163.0, 0.08252805737885442
164.0, 0.08346052535174754
165.0, 0.08595981086192186
166.0, 0.08060155664984273
167.0, 0.0847867844439568
168.0, 0.0835153577568088
169.0, 0.07908417440323799
170.0, 0.07497806476580597
171.0, 0.07435016897861653
172.0, 0.07524419965181771
173.0, 0.07200168691482962
174.0, 0.06772075710628338
175.0, 0.06426144934054867
176.0, 0.06396578080758387
177.0, 0.07190462245336213
178.0, 0.07828510844050877
179.0, 0.0823283479232668
180.0, 0.08797788179070909
181.0, 0.09472458690706106
182.0, 0.09848275456227895
183.0, 0.11977670041620814
184.0, 0.13087779356050064
185.0, 0.14567648381723836
186.0, 0.1603890158344982
187.0, 0.17010259886157209
188.0, 0.18832389031827867
189.0, 0.2084434457603227
190.0, 0.22374698608349128
191.0, 0.2454917494363588
192.0, 0.27292082268721385
193.0, 0.29177866552471937
194.0, 0.3160182398754809
195.0, 0.33467459147019885
196.0, 0.35713232708977366
197.0, 0.38145960200669865
198.0, 0.4040309588180559
199.0, 0.4301685333427271
200.0, 0.45362505808485215
201.0, 0.4759315327057262
202.0, 0.4914507566053626
203.0, 0.505072052932698
204.0, 0.5300644400412142
205.0, 0.5349669378469378
206.0, 0.5462839276886615
207.0, 0.5559607770139255
208.0, 0.5647583120042304
209.0, 0.5741263275163052
210.0, 0.5787435984096206
211.0, 0.5867141887694145
212.0, 0.5840716820808116
213.0, 0.5773191701680775
214.0, 0.5689281861448968
215.0, 0.5565376020260647
216.0, 0.5395864022354142
217.0, 0.5220699149958395
218.0, 0.5028479676331444
219.0, 0.47810776449631487
220.0, 0.44946721026989034
221.0, 0.4313016261247883
222.0, 0.40063395071537466
223.0, 0.3785759271902563
224.0, 0.35602676234028396
225.0, 0.3282865059472311
226.0, 0.29579017927822615
227.0, 0.2654941794588607
228.0, 0.24327521076328212
229.0, 0.21889827083590838
230.0, 0.19449058066872227
231.0, 0.1725228333534582
232.0, 0.15257034753968324
233.0, 0.1395081472685346
234.0, 0.11913044124995464
235.0, 0.10469721553971076
236.0, 0.09389790479783693
237.0, 0.07943285846367994
238.0, 0.06273562325832077
239.0, 0.06596255448657481
240.0, 0.06808925674401056
241.0, 0.06220539055524107
242.0, 0.05287574809784318
243.0, 0.052921630006916895
244.0, 0.06065394466452879
245.0, 0.05882321941875497
246.0, 0.06550004046406345
247.0, 0.07072265385194035
248.0, 0.06732941954757093
249.0, 0.06844367927391083
250.0, 0.0746468859212059
251.0, 0.08036853746330952
252.0, 0.08562353638455371
253.0, 0.08578500512608729
254.0, 0.0795093811388046
255.0, 0.09005058206231942
256.0, 0.09763242149435408
257.0, 0.12038382395745427
258.0, 0.13905213276410824
259.0, 0.14347320354525744
260.0, 0.1374988197671378
261.0, 0.10856483203369309
262.0, 0.11167312410566489
263.0, 0.11479160686351857
264.0, 0.1137854820645713
265.0, 0.11291994494529103
266.0, 0.11732154804827427
267.0, 0.12590875478217375
268.0, 0.12535426706254854
269.0, 0.12851892505818582
270.0, 0.135538537492459
271.0, 0.1408143056255447
272.0, 0.14407567835779989
273.0, 0.14594315066775493
274.0, 0.15381759232840841
275.0, 0.15800327247635157
276.0, 0.15969725578149227
277.0, 0.16823419108984058
278.0, 0.16930622788516653
279.0, 0.1773404752571756
280.0, 0.18516161726586333
281.0, 0.19040966026477718
282.0, 0.19238413717348044
283.0, 0.19195379280529848
284.0, 0.2033183552047293
285.0, 0.20140142615598797
286.0, 0.20937699156175646
287.0, 0.2191892857882789
288.0, 0.21831769711978058
289.0, 0.21162558736139503
290.0, 0.2261741670547115
291.0, 0.22481448538589008
292.0, 0.22676536330262542
293.0, 0.2349231864797371
294.0, 0.24181377056587378
295.0, 0.24277449412601082
296.0, 0.2447839386678762
297.0, 0.25137818975762216
298.0, 0.25578285633807274
299.0, 0.25556358618999475
300.0, 0.2545525805680812
301.0, 0.2658457551161985
302.0, 0.2795859396615157
303.0, 0.28273382439649647
304.0, 0.28362774753732584
305.0, 0.2866383415066423
306.0, 0.28716446682016356
307.0, 0.2952129844683392
308.0, 0.2992043028649089
309.0, 0.31155101755718567
310.0, 0.3193590568755141
311.0, 0.3187564444840379
312.0, 0.33204123802708
313.0, 0.34009214774429125
314.0, 0.3470070162681055
315.0, 0.3549416224393942
316.0, 0.3638214550188127
317.0, 0.37170779773771523
318.0, 0.3747324831517443
319.0, 0.3909472637016841
320.0, 0.39555937302733646
321.0, 0.4017514860522417
322.0, 0.404457186469088
323.0, 0.39902232113031033
324.0, 0.41434261333713734
325.0, 0.41685081638136595
326.0, 0.4137660955279358
327.0, 0.4193672930690026
328.0, 0.42875086565832327
329.0, 0.430455701544434
330.0, 0.4425034753926579
331.0, 0.440096326001279
332.0, 0.45202068656583205
333.0, 0.467527077959966
334.0, 0.47807994093761524
335.0, 0.48267480711447686
336.0, 0.4900169601130443
337.0, 0.4988148992803758
338.0, 0.5048942241909684
339.0, 0.5039329602715632
340.0, 0.4997733157098798
341.0, 0.5000553688657683
342.0, 0.4845023756022131
343.0, 0.4646937676120329
344.0, 0.4511388240668738
345.0, 0.4369969260838346
346.0, 0.4189607017899296
347.0, 0.4007675993614787
348.0, 0.3819993894683694
349.0, 0.3626631291773768
350.0, 0.346915751545072
351.0, 0.332855220971817
352.0, 0.3223881490705455
353.0, 0.3204998660097068
354.0, 0.3010596265437902
355.0, 0.292642541618211
356.0, 0.2886148069122008
357.0, 0.2825418609287192
358.0, 0.2745476040535715
359.0, 0.27197140555709737
360.0, 0.2666930005640461
361.0, 0.2582445602778249
362.0, 0.2476519780167264
363.0, 0.24078826086982472
364.0, 0.23521166152130593
365.0, 0.21865738077260044
366.0, 0.21307302394265237
367.0, 0.2080331178016727
368.0, 0.19804146899243333
369.0, 0.18636082924731173
370.0, 0.17712343359011834
371.0, 0.17147146475507763
372.0, 0.16105808363201898
373.0, 0.15828446116885536
374.0, 0.15472831335551432
375.0, 0.1530330960069273
376.0, 0.14874291402134224
377.0, 0.12886987270754297
378.0, 0.12585530162431255
379.0, 0.12738927967161515
380.0, 0.12479812294086327
381.0, 0.12163225327358622
382.0, 0.12107275190231429
383.0, 0.12205389631065716
384.0, 0.12462988217319593
385.0, 0.11729366937854374
386.0, 0.12041298683787993
387.0, 0.11990183631120829
388.0, 0.11576432794601899
389.0, 0.12714748831457376
390.0, 0.12759374932752032
391.0, 0.12795079764724435
392.0, 0.13232969910853792
393.0, 0.13343520464243033
394.0, 0.1305065692187458
395.0, 0.13078339417332974
396.0, 0.13488228214318534
397.0, 0.13738738079540327
398.0, 0.13949355601107635
399.0, 0.1394730883270799
400.0, 0.13813071682190337
401.0, 0.13850615957569123
402.0, 0.1417204125113101
403.0, 0.13653050367013905
404.0, 0.13601638278170192
405.0, 0.13732033814329916
406.0, 0.13483807202251516
407.0, 0.12732236130831875
408.0, 0.1320167760091581
409.0, 0.13163760502232388
410.0, 0.12810961563263898
411.0, 0.12308889223497019
412.0, 0.1193621726794066
413.0, 0.11812955344624348
414.0, 0.11444755124087179
415.0, 0.12033302262807462
416.0, 0.11412400529129137
417.0, 0.11020847961175355
418.0, 0.11008971913330091
419.0, 0.10770698064476093
420.0, 0.09741965014956826
421.0, 0.0937598144492815
422.0, 0.0935794360131432
423.0, 0.09139671478286819
424.0, 0.08488077666321894
425.0, 0.07796783199488047
426.0, 0.08026357438278298
427.0, 0.06811593941289217
428.0, 0.06793500058534391
429.0, 0.06213246817893879
430.0, 0.057568962850705244
431.0, 0.05733600936550312
432.0, 0.05364208895268878
433.0, 0.05404925259638447
434.0, 0.05278766569643906
435.0, 0.04627192963554826
436.0, 0.042646379169939436
437.0, 0.04424395400389425
438.0, 0.045664701846886306
439.0, 0.03979299378552995
440.0, 0.03415421762637659
441.0, 0.03418110384956068
442.0, 0.03213813820708215
443.0, 0.028408339854823654
444.0, 0.026732156356736248
445.0, 0.02301872603837234
446.0, 0.022982782831842415
447.0, 0.0191901692395345
448.0, 0.015941360365450883
449.0, 0.01108330771940723
450.0, 0.003739595711133129
451.0, 0.00019983974626832068
452.0, 0.000652076174780169
453.0, 0.0002212056790927953
454.0, 0.002817240101970166
455.0, 0.004565840266159424
456.0, 0.005407015338570971
457.0, 0.01042843111159381
458.0, 0.011682887262107321
459.0, 0.016455335183426827
460.0, 0.019162392096779262
461.0, 0.018450108669329637
462.0, 0.01745827754244962
463.0, 0.01917265852791948
464.0, 0.01612408794195171
465.0, 0.01789974883844416
466.0, 0.021198388915360494
467.0, 0.02130699896106662
468.0, 0.020028596746715463
469.0, 0.0212249209120343
470.0, 0.025617448259771563
471.0, 0.02498988019111863
472.0, 0.02049642907275448
473.0, 0.017861056547484242
474.0, 0.0198425442185917
475.0, 0.02386238144823821
476.0, 0.023221930416950178
477.0, 0.01681039313037819
478.0, 0.02036113739546008
479.0, 0.01943475975105823
480.0, 0.02102536961722845
481.0, 0.02021166634060778
482.0, 0.011330131478204707
483.0, 0.015485893719280674
484.0, 0.012175152054605362
485.0, 0.013151474823210316
486.0, 0.009183714755430438
487.0, 0.004511205098647032
488.0, 0.004286230888092368
489.0, 0.005725860092350454
490.0, 0.0031142517097742604
491.0, 0.0014559349517259267
492.0, 0.0017953939912196903
493.0, 0.0040683837673157345
494.0, 0.00700933940501189
495.0, 0.009839144693080053
496.0, 0.01644996196196201
497.0, 0.01800323854849316
498.0, 0.02305792156869886
499.0, 0.026781277334449266
500.0, 0.03164378419485127
501.0, 0.03900523457867384
502.0, 0.042301392670220664
503.0, 0.04682215512253701
504.0, 0.04948164411209964
505.0, 0.052060176498533305
506.0, 0.05873563809188796
507.0, 0.06572759866334321
508.0, 0.06572638277303824
509.0, 0.06880396014555434
510.0, 0.0815107666369497
511.0, 0.08571152919229903
512.0, 0.09067661291840051
513.0, 0.0957579905331023
514.0, 0.09794860925222834
515.0, 0.1004732715306884
516.0, 0.10666960630176373
517.0, 0.10923187638606889
518.0, 0.11152047815645057
519.0, 0.11929418612882953
520.0, 0.12813554144543665
521.0, 0.12930195152177876
522.0, 0.13230120227608705
523.0, 0.13684256940242592
524.0, 0.1377943210160282
525.0, 0.1446360051029704
526.0, 0.1506504562945939
527.0, 0.15271567674446154
528.0, 0.16207320580083764
529.0, 0.16547051615943292
530.0, 0.17506642279719914
531.0, 0.18616302196582973
532.0, 0.1994405076330813
533.0, 0.21187519783850858
534.0, 0.22087024047805912
535.0, 0.23361006261752154
536.0, 0.24866828859638943
537.0, 0.26880194112289574
538.0, 0.2881959789635876
539.0, 0.3088678521926265
540.0, 0.3318968245087795
541.0, 0.3555421483166521
542.0, 0.38634637387034954
543.0, 0.414640341471189
544.0, 0.44217809439993333
545.0, 0.4698908585807826
546.0, 0.498958172937036
547.0, 0.5306902384918435
548.0, 0.5655403681759446
549.0, 0.5934866291175962
550.0, 0.626649907427727
551.0, 0.6658219130519598
552.0, 0.6971380111997004
553.0, 0.724336708914816
554.0, 0.7592383150058108
555.0, 0.788655395368462
556.0, 0.8291368310938251
557.0, 0.8593644506672775
558.0, 0.8873410031978446
559.0, 0.9123275702178498
560.0, 0.9327037177355805
561.0, 0.9489152779355159
562.0, 0.9586494017939462
563.0, 0.971635855308981
564.0, 0.9775950155398021
565.0, 0.9803226257482409
566.0, 0.9841111932573335
567.0, 0.9897749820992238
568.0, 0.9938653747972295
569.0, 0.9984629580374461
570.0, 0.9997482295495727
571.0, 0.9704801261909267
572.0, 0.938834604242611
573.0, 0.9068126367766988
574.0, 0.8601439573192525
575.0, 0.7996625937751024
576.0, 0.7302983357595193
577.0, 0.66575743084393
578.0, 0.6043312581501484
579.0, 0.546209265171811
580.0, 0.48871708270639697
581.0, 0.430918159361607
582.0, 0.38342831745099754
583.0, 0.34663760137986827
584.0, 0.3128405774353728
585.0, 0.2898980471224647
586.0, 0.26940011968635
587.0, 0.2507153517860443
588.0, 0.24171900580230918
589.0, 0.23389517072787527
590.0, 0.21630047872233954
591.0, 0.21378503104189556
592.0, 0.21958398790960787
593.0, 0.22289524004950384
594.0, 0.22605942640075916
595.0, 0.2413797467144564
596.0, 0.24975074202738748
597.0, 0.2554491087952107
598.0, 0.26119277301718596
599.0, 0.27331629725209083
600.0, 0.28873657180876383
601.0, 0.30173935055439594
602.0, 0.3104304913654518
603.0, 0.319685133131586
604.0, 0.3192371537355397
605.0, 0.3239361943639602
606.0, 0.32520237796435414
607.0, 0.3238111350059737
608.0, 0.32226549984516384
609.0, 0.3174566941948577
610.0, 0.30753371421089676
611.0, 0.2904622388176955
612.0, 0.2855228362771927
613.0, 0.2746602211420443
614.0, 0.25869742159485437
615.0, 0.2471259901474606
616.0, 0.24113705091530382
617.0, 0.22393153769276367
618.0, 0.22281903049922244
619.0, 0.21134291891205656
620.0, 0.20638904695565932
621.0, 0.20415840527284074
622.0, 0.1995335092946096
623.0, 0.20363354655092208
624.0, 0.20304033097048801
625.0, 0.2037114224574821
626.0, 0.20438464767783332
627.0, 0.20264685939123428
628.0, 0.20177391761502608
629.0, 0.2040912854903262
630.0, 0.20572912677096306
631.0, 0.20308749125478806
632.0, 0.1965249474466854
633.0, 0.19276423950241253
634.0, 0.18924153603970836
635.0, 0.18633942680248142
636.0, 0.18180019456366284
637.0, 0.17125927571469038
638.0, 0.1755162399175586
639.0, 0.1724238306174481
640.0, 0.1630104956090108
641.0, 0.1640574541542987
642.0, 0.16542473388252454
643.0, 0.160708738113127
644.0, 0.1691776330443579
645.0, 0.22695913373623994
646.0, 0.2067998901534875
647.0, 0.20189778191160954
648.0, 0.21469261924060368
649.0, 0.20509031902209834
650.0, 0.1785118184483966
651.0, 0.18669611075874898
652.0, 0.19400702647850787
653.0, 0.1969333235615273
654.0, 0.20325570093996054
655.0, 0.21113329646697362
656.0, 0.21914760153568694
657.0, 0.22954833727361904
658.0, 0.24312030795995032
659.0, 0.24761796447465836
660.0, 0.25927052370500037
661.0, 0.2707121512559214
662.0, 0.2782674326688669
663.0, 0.2920899589835734
664.0, 0.3089774004366994
665.0, 0.3193348708535156
666.0, 0.3298186457051048
667.0, 0.3432453173155364
668.0, 0.3647838860956616
669.0, 0.3768803393400073
670.0, 0.3824439893544268
671.0, 0.39341531149837283
672.0, 0.4104536529760854
673.0, 0.4158637531413496
674.0, 0.43962348617805774
675.0, 0.45256616070995986
676.0, 0.46333443484732756
677.0, 0.47843324020728145
678.0, 0.4942408429794154
679.0, 0.5078517835100689
680.0, 0.5226877215248593
681.0, 0.5378293537357115
682.0, 0.5420426173747429
683.0, 0.5540577433592709
684.0, 0.5681547977706379
685.0, 0.5800880423752067
686.0, 0.5923219852768816
687.0, 0.6075547044197244
688.0, 0.6150454423286029
689.0, 0.6241774516345882
690.0, 0.6408002225505965
691.0, 0.652710237926331
692.0, 0.6689246550992399
693.0, 0.6876931184241368
694.0, 0.701683647563179
695.0, 0.7131766182263896
696.0, 0.7304955815982701
697.0, 0.7418542750720358
698.0, 0.7532873510188391
699.0, 0.7679416661085688
700.0, 0.775735699235054
701.0, 0.773178331907083
702.0, 0.7714679501621434
703.0, 0.7789973083966883
704.0, 0.7605828854906918
705.0, 0.7616649294791232
706.0, 0.7462564595261368
707.0, 0.7231797308618515
708.0, 0.6975234778507043
709.0, 0.6703921159780084
710.0, 0.6585282606652043
711.0, 0.6394822744430566
712.0, 0.582503795970173
713.0, 0.5580519731897152
714.0, 0.5322430063629894
715.0, 0.5040225050229978
716.0, 0.4822627237244508
717.0, 0.46081188202610995
718.0, 0.44492264808131293
719.0, 0.4291670347055784
720.0, 0.42444447478449554
721.0, 0.42567369780770314
722.0, 0.4182766328760567
723.0, 0.4132708424441568
724.0, 0.4236678268949953
725.0, 0.4246432158502587
726.0, 0.4299143561662022
727.0, 0.43968673171379274
728.0, 0.45685165471923483
729.0, 0.473345076330811
730.0, 0.483400755708765
731.0, 0.49122252090800445
732.0, 0.5057871659883311
733.0, 0.5205930170948944
734.0, 0.5500102294924055
735.0, 0.551364071302602
736.0, 0.5703461195967979
737.0, 0.5836918209608392
738.0, 0.5917845310061814
739.0, 0.6070152876421998
740.0, 0.6175108126640695
741.0, 0.6211589416091353
742.0, 0.6280142311983795
743.0, 0.62648997228903
744.0, 0.6293500170172976
745.0, 0.6331810940522569
746.0, 0.6309469071126212
747.0, 0.6230078763206903
748.0, 0.6187685688349855
749.0, 0.6062389264156774
750.0, 0.5923115231259226
751.0, 0.5809274392672246
752.0, 0.5739045517631827
753.0, 0.5638431300814267
754.0, 0.55071280656401
755.0, 0.5420957935883502
756.0, 0.5261784941241118
757.0, 0.5206288914698671
758.0, 0.5124533929456041
759.0, 0.5069820235219611
760.0, 0.49654815281056025
761.0, 0.48504833557803395
762.0, 0.4764272378101311
763.0, 0.465416660781489
764.0, 0.4627554355604304
765.0, 0.4548679053246793
766.0, 0.44206249387785296
767.0, 0.4303073716693668
768.0, 0.41866089123462696
769.0, 0.4100346493022325
770.0, 0.40426385132641474
771.0, 0.3911547296690366
772.0, 0.3755848872375164
773.0, 0.3685198459960453
774.0, 0.35069335845421434
775.0, 0.33856063524857444
776.0, 0.33223295174594253
777.0, 0.32352080720811005
778.0, 0.3110640529985966
779.0, 0.3063966317968623
780.0, 0.2932711441173246
781.0, 0.2874107679307986
782.0, 0.27426529032258007
783.0, 0.26298830729127476
784.0, 0.25450299227176626
785.0, 0.2447992956529728
786.0, 0.2324963519061582
787.0, 0.22315017490036834
788.0, 0.21547748438896822
789.0, 0.20892591140085995
790.0, 0.2001456935609196
791.0, 0.1925520722239472
792.0, 0.18011282556227698
793.0, 0.16606436514363063
794.0, 0.1592156830575391
795.0, 0.15337845245330067
796.0, 0.13855733257237668
797.0, 0.13288442383878715
798.0, 0.12481025398439492
799.0, 0.11413541016933539
800.0, 0.10357598146997331
801.0, 0.09548175985035355
802.0, 0.09106127985575127
803.0, 0.08999901805924311
804.0, 0.08103995945824378
805.0, 0.08347015601188254
806.0, 0.07654140151222398
807.0, 0.07090233597098268
808.0, 0.0674730541885642
809.0, 0.06403589521473928
810.0, 0.059645810434788005
811.0, 0.053853858181894726
812.0, 0.04690791506843597
813.0, 0.04299083292460551
814.0, 0.04492501768639037
815.0, 0.0460033055062986
816.0, 0.04345137009449903
817.0, 0.03970065263325578
818.0, 0.03603361723786711
819.0, 0.029446051167732912
820.0, 0.030733690139225847
821.0, 0.024831964393088435
822.0, 0.028885938587056126
823.0, 0.022488709065258145
824.0, 0.01994821505376344
825.0, 0.019322027433317814
826.0, 0.015521711424324732
827.0, 0.01756938055025382
828.0, 0.009201971395875854
829.0, 0.005551467986973186
830.0, 0.01219124991063068
831.0, 0.009469630469519588
832.0, 0.004871971481513066
833.0, 0.003407461955448785
834.0, 0.004283562161213574
835.0, 0.004636615839835077
836.0, 0.001626850059505811
837.0, 0.005282730580989827
838.0, 0.0037548564476094894
839.0, 0.0016142659020311253
840.0, 0.001397444349538089
841.0, 0.00644794624228071
842.0, 0.012316702784929417
843.0, 0.013823516664142431
844.0, 0.018297884385885206
845.0, 0.01911723249364769
846.0, 0.020092883992021048
847.0, 0.01824299018964448
848.0, 0.01859084248653935
849.0, 0.018122835341238694
850.0, 0.0150377779244342
851.0, 0.014009582231485178
852.0, 0.020195662099274213
853.0, 0.019925015261105176
854.0, 0.01620559910489098
855.0, 0.01516124321725153
856.0, 0.01652839371316476
857.0, 0.019818399327404045
858.0, 0.02262928976798388
859.0, 0.022359830786410892
860.0, 0.01988833667566409
861.0, 0.02061477968240726
862.0, 0.01476984574126247
863.0, 0.018173253827765124
864.0, 0.018246551719090915
865.0, 0.014981824537406435
866.0, 0.016597033549610327
867.0, 0.017269596805011996
868.0, 0.01173659488886145
869.0, 0.01119290418835569
870.0, 0.012193343502581312
871.0, 0.006617657158537813
872.0, 0.011298433407172945
873.0, 0.015177067119233587
874.0, 0.017116346936518166
875.0, 0.013565875945732534
876.0, 0.00924513907633998
877.0, 0.011086056226661102
878.0, 0.01038342898757396
879.0, 0.013910484796127817
880.0, 0.004180958968080194
881.0, 0.00993295126060743
882.0, 0.01103770524735404
883.0, 0.005270559788540671
884.0, 0.0027543700591030054
885.0, 0.004745123672619035
886.0, 0.001687525695858599
887.0, 0.0022579562138601004
888.0, 0.0018131021915758288
889.0, 0.00446578225766287
890.0, 0.008274911548160761
891.0, 0.012538585665410608
892.0, 0.01584257463440754
893.0, 0.018035147349958
894.0, 0.022086131730747565
895.0, 0.03033828861265756
896.0, 0.03238079066386021
897.0, 0.039743777754496536
898.0, 0.04594939698518031
899.0, 0.052665831532745414
900.0, 0.062321755931046614
901.0, 0.07039924173636018
902.0, 0.07571355522268118
903.0, 0.08184555648762434
904.0, 0.09033351171155707
905.0, 0.10286458570612275
906.0, 0.10518481714917538
907.0, 0.11664618865906548
908.0, 0.12701488110980694
909.0, 0.12953506269380125
910.0, 0.13223450022600386
911.0, 0.14057126034577555
912.0, 0.1501793451109967
913.0, 0.1569064264787332
914.0, 0.16055966660936985
915.0, 0.1751117702270009
916.0, 0.17963828179385483
917.0, 0.19383817668392414
918.0, 0.21208929720430117
919.0, 0.22267429925925927
920.0, 0.23266184105137405
921.0, 0.24973090986326826
922.0, 0.2512067580453832
923.0, 0.26177968201975343
924.0, 0.27484507684906384
925.0, 0.2786258451255755
926.0, 0.2813835845525241
927.0, 0.28714146483160946
928.0, 0.29177283563991036
929.0, 0.2926546479465419
930.0, 0.29164280020578504
931.0, 0.28862200730038023
932.0, 0.2809611383401901
933.0, 0.27817614210102454
934.0, 0.27112561654809664
935.0, 0.26696551050001543
936.0, 0.2624927633833592
937.0, 0.25502644344652015
938.0, 0.24595584461098458
939.0, 0.23874150857936302
940.0, 0.23438407789469626
941.0, 0.22877021120758506
942.0, 0.22634453764718657
943.0, 0.22345378671756835
944.0, 0.22341881090474636
945.0, 0.22176262271376154
946.0, 0.2189086971629913
947.0, 0.21781188830164228
948.0, 0.2184545439608985
949.0, 0.21710568119222776
950.0, 0.2139777069465777
951.0, 0.21826550349889035
952.0, 0.21029124736511748
953.0, 0.20795357330602496
954.0, 0.2094694783410137
955.0, 0.2067444090800481
956.0, 0.20115129498410753
957.0, 0.19649552602833228
958.0, 0.19093916550769094
959.0, 0.18481095458374575
960.0, 0.18161960883746908
961.0, 0.17193377705602103
962.0, 0.16602723706842704
963.0, 0.15900184741667484
964.0, 0.15445814896599735
965.0, 0.14981543621802884
966.0, 0.14128482455656624
967.0, 0.1330624128852726
968.0, 0.133805890583757
969.0, 0.13235323805310303
970.0, 0.12462433146748265
971.0, 0.13323011012582198
972.0, 0.12869640577198882
973.0, 0.1240197584714989
974.0, 0.12171504007684007
975.0, 0.12269520756335518
976.0, 0.12434061079718343
977.0, 0.12234981512392903
978.0, 0.12865322333132068
979.0, 0.1280280172488363
980.0, 0.13327885592425606
981.0, 0.13798948555879634
982.0, 0.13636279307819796
983.0, 0.13829193062131984
984.0, 0.14001948347700233
985.0, 0.14238505445992772
986.0, 0.14966659455385542
987.0, 0.154758638202849
988.0, 0.1657178742701621
989.0, 0.15977099801447636
990.0, 0.16512740976474785
991.0, 0.16914643604048832
992.0, 0.17208984416906428
993.0, 0.17105522949578403
994.0, 0.17329709598341286
995.0, 0.17740578718986555
996.0, 0.17679654148377832
997.0, 0.18524541314303242
998.0, 0.18490452568697746
999.0, 0.17431432258064566
1000.0, 0.17448418009384045
1001.0, 0.17459200632043806
1002.0, 0.17844827320436968
1003.0, 0.17610051856360334
1004.0, 0.16811498996222568
1005.0, 0.16036668093488388
1006.0, 0.15149790601927102
1007.0, 0.1436855584607582
1008.0, 0.15118755046715315
1009.0, 0.15053155913118965
1010.0, 0.14343622069226347
1011.0, 0.13341829026241375
1012.0, 0.1360920018909606
1013.0, 0.13781683665140687
1014.0, 0.1345172413155294
1015.0, 0.1341122622197702
1016.0, 0.1345294470264234
1017.0, 0.12754737254370593
1018.0, 0.1292173701155063
1019.0, 0.12450863257508553
1020.0, 0.12725176893022044
1021.0, 0.12585157402621988
1022.0, 0.1311662024863571
1023.0, 0.12920969523502038
1024.0, 0.12987964570161487
1025.0, 0.1383864131699693
1026.0, 0.13703261523889473
1027.0, 0.14232752657576345
1028.0, 0.13577707624701962
1029.0, 0.14304511347474205
1030.0, 0.14201984999886896
1031.0, 0.14026590640927447
1032.0, 0.1396016807676521
1033.0, 0.14032219863790668
1034.0, 0.1422012487295755
1035.0, 0.1446213433053409
1036.0, 0.14844502164771045
1037.0, 0.15584018977869232
1038.0, 0.1589976665403941
1039.0, 0.1701756444133608
1040.0, 0.17095939457146678
1041.0, 0.174498039339103
1042.0, 0.18411448803315977
1043.0, 0.19096050483563398
1044.0, 0.18783112532283344
1045.0, 0.18805670339907823
1046.0, 0.20234157151352528
1047.0, 0.20961681496604842
1048.0, 0.20802683290756274
1049.0, 0.2279476625579147
1050.0, 0.23790079803655906
1051.0, 0.24977585021853155
1052.0, 0.25900450907518185
1053.0, 0.27242751495589285
1054.0, 0.28265233237861964
1055.0, 0.29434986569185845
1056.0, 0.316420248571442
1057.0, 0.34175631002773094
1058.0, 0.3677437872167854
1059.0, 0.4106040413485042
1060.0, 0.43905347254688243
1061.0, 0.46553658126145525
1062.0, 0.48256326355340856
1063.0, 0.5230416040725142
1064.0, 0.5566821505376329
1065.0, 0.5772234806849861
1066.0, 0.5925595073715549
1067.0, 0.6004635440583175
1068.0, 0.6049793645872936
1069.0, 0.6060689044649606
1070.0, 0.5923435914000146
1071.0, 0.5871314535030452
1072.0, 0.5754365100069219
1073.0, 0.5678936127060883
1074.0, 0.5688031075886226
1075.0, 0.5747953474837756
1076.0, 0.5807370438455551
1077.0, 0.5869670761751747
1078.0, 0.5958093788419881
1079.0, 0.6041381662536014
1080.0, 0.6192523105203602
1081.0, 0.6427671124219634
1082.0, 0.6534294408125128
1083.0, 0.6798520596785588
1084.0, 0.7026896770938128
1085.0, 0.7238559330336172
1086.0, 0.7503450647550785
1087.0, 0.7650007682382801
1088.0, 0.7575191231019878
1089.0, 0.7382993120406444
1090.0, 0.7010563718909535
1091.0, 0.6837304047789723
1092.0, 0.6738742518518529
1093.0, 0.656183750145403
1094.0, 0.6407658604105568
1095.0, 0.6214399516449745
1096.0, 0.6063648114695347
1097.0, 0.5857428946701843
1098.0, 0.5605623971395725
1099.0, 0.540440063966046
1100.0, 0.5224646775172854
1101.0, 0.5003552572502643
1102.0, 0.4795898858138932
1103.0, 0.46427837123215066
1104.0, 0.43861230546252367
1105.0, 0.41964022815459046
1106.0, 0.4039124986670671
1107.0, 0.38573887085992054
1108.0, 0.37155241539629946
1109.0, 0.36003833166374133
1110.0, 0.3466715101139305
1111.0, 0.3331513323204715
1112.0, 0.3208004730006573
1113.0, 0.3148508092168392
1114.0, 0.3087315636148988
1115.0, 0.3009170527692755
1116.0, 0.29106113119630095
1117.0, 0.29504307730947305
1118.0, 0.28954405867322514
1119.0, 0.2796242466228889
1120.0, 0.2752707540018439
1121.0, 0.2790853631234241
1122.0, 0.28036234419294964
1123.0, 0.27061942046120274
1124.0, 0.28105339416376107
1125.0, 0.2752478005139033
1126.0, 0.27647310288211324
1127.0, 0.27024461110183673
1128.0, 0.26360184062453973
1129.0, 0.25883912764093947
1130.0, 0.24859116092774916
1131.0, 0.24233506499883142
1132.0, 0.2321241200334607
1133.0, 0.21077962015468335
1134.0, 0.19387462699201283
1135.0, 0.18457312667553255
1136.0, 0.16594914874169261
1137.0, 0.14188289023338513
1138.0, 0.11048811869166594
1139.0, 0.0916726719856231
1140.0, 0.08225213731347845
1141.0, 0.06287908523814081
1142.0, 0.04538423312466349
1143.0, 0.03097557334803792
1144.0, 0.019115642774429894
1145.0, 0.012547065845663475
1146.0, 0.00886850610894482
1147.0, 0.008863959574535486
1148.0, 0.007344245691703726
1149.0, 0.011095529055890757
1150.0, 0.021738967940803856
1151.0, 0.0245026926921364
1152.0, 0.03260337983829909
1153.0, 0.042566302903193375
1154.0, 0.06141726793018173
1155.0, 0.08140737071892841
1156.0, 0.09680613897164378
1157.0, 0.1136237671663547
1158.0, 0.13368646996521116
1159.0, 0.151729810116954
1160.0, 0.17173717341751168
1161.0, 0.19251288396084734
1162.0, 0.21401812107388746
1163.0, 0.23634563311082463
1164.0, 0.259408572757003
1165.0, 0.28240881841111243
1166.0, 0.30160060781158043
1167.0, 0.323758448626045
1168.0, 0.34924145952190316
1169.0, 0.3651087268957762
1170.0, 0.37020600428701933
1171.0, 0.38427595755147953
1172.0, 0.39261282591889857
1173.0, 0.4030636769976801
1174.0, 0.3950624119755437
1175.0, 0.40582566308243634
1176.0, 0.3893078770172983
1177.0, 0.38140243180676614
1178.0, 0.37419178694663485
1179.0, 0.36691421030336824
1180.0, 0.35892322962699197
1181.0, 0.350511156401337
1182.0, 0.34289838322567495
1183.0, 0.3314426932282489
1184.0, 0.3247531858540658
1185.0, 0.31076889661621493
1186.0, 0.30452331639570457
1187.0, 0.3045962715037261
1188.0, 0.2886596642430467
1189.0, 0.2855773001183732
1190.0, 0.2801778586770689
1191.0, 0.27126346013907426
1192.0, 0.2637029934735091
1193.0, 0.25459420643926906
1194.0, 0.2439151933490802
1195.0, 0.23549345289582
1196.0, 0.22324350438311
1197.0, 0.21279638166532167
1198.0, 0.2000416679848522
1199.0, 0.18949336465235708
1200.0, 0.17708043000162121
1201.0, 0.15291664576086597
1202.0, 0.1493294667742375
1203.0, 0.13632627223595625
1204.0, 0.12153797269631313
1205.0, 0.11287029384061954
1206.0, 0.10570197407749417
1207.0, 0.09713217579728659
1208.0, 0.08551019856123387
1209.0, 0.07011446944792261
1210.0, 0.06802951663033854
1211.0, 0.056714581934865296
1212.0, 0.05454862085124895
1213.0, 0.046848787249596076
1214.0, 0.04115109374427204
1215.0, 0.03896708863535125
1216.0, 0.03767961157784561
1217.0, 0.03555863148247514
1218.0, 0.03589288219832741
1219.0, 0.04124445946129339
1220.0, 0.04639932597477666
1221.0, 0.049192030797822264
1222.0, 0.05855036056927686
1223.0, 0.06685899397318427
1224.0, 0.061525719261913206
1225.0, 0.07553490550909323
1226.0, 0.07834613237753897
1227.0, 0.07986486316481796
1228.0, 0.08954456136997148
1229.0, 0.10154630872649677
1230.0, 0.09649611384574461
1231.0, 0.09420617639014832
1232.0, 0.10513113090971024
1233.0, 0.11459952099547897
1234.0, 0.11816733878331076
1235.0, 0.12063604027991073
1236.0, 0.11122950904702121
1237.0, 0.12064762450930165
1238.0, 0.11746735976841013
1239.0, 0.11428695798893061
1240.0, 0.11024889552093269
1241.0, 0.10755221920263948
1242.0, 0.10687254980349913
1243.0, 0.10556673057710428
1244.0, 0.10139896281653227
1245.0, 0.09797191343270674
1246.0, 0.09209580255788219
1247.0, 0.0836013702682179
1248.0, 0.0776659959332145
1249.0, 0.0746750252850282
1250.0, 0.07672863469729495
1251.0, 0.0744139025817998
1252.0, 0.07585663388007227
1253.0, 0.0721977174987672
1254.0, 0.06532778026506596
1255.0, 0.07109636430338495
1256.0, 0.07220725433802895
1257.0, 0.07617111420966319
1258.0, 0.08081362929176754
1259.0, 0.08472506361257012
1260.0, 0.08466121682251714
1261.0, 0.08914696645716945
1262.0, 0.09924685941855835
1263.0, 0.09963336890419577
1264.0, 0.09821597015144527
1265.0, 0.09531277663198108
1266.0, 0.09977201794452978
1267.0, 0.09805087522227451
1268.0, 0.10219698700466537
1269.0, 0.09969216091285922
1270.0, 0.0961469509554047
1271.0, 0.08912551980679283
1272.0, 0.08739304879072621
1273.0, 0.08566974531372308
1274.0, 0.0834713554806612
1275.0, 0.08053463299987511
1276.0, 0.07690971294067299
1277.0, 0.07293566226216568
1278.0, 0.06499512188163148
1279.0, 0.058404434101891875
1280.0, 0.055822941807866136
1281.0, 0.055063227019026606
1282.0, 0.049010836641167455
1283.0, 0.04848551405078161
1284.0, 0.04597032640917757
1285.0, 0.035498120377008134
1286.0, 0.029792687964805362
1287.0, 0.028083693946746306
1288.0, 0.0286740655880481
1289.0, 0.029825655993479125
1290.0, 0.027840753977154603
1291.0, 0.025494488136759
1292.0, 0.02450054916379198
1293.0, 0.01861176607711866
1294.0, 0.01471103123170203
1295.0, 0.01664579358102175
1296.0, 0.015572552535950714
1297.0, 0.009537925325984329
1298.0, 0.003816856222712019
1299.0, 0.0027849689372155973
1300.0, 0.0020166824862727453
1301.0, 0.004648881414361162
1302.0, 0.0030507416267298903
1303.0, 0.0036323096946023286
1304.0, 0.005126124015231895
1305.0, 0.0033313593449045536
1306.0, 0.004113678060131594
1307.0, 0.006271000473641754
1308.0, 0.0020578333804734173
1309.0, 0.0026869213825884706
1310.0, 0.009039291422147013
1311.0, 0.004847686832631863
1312.0, 0.005100978310368433
1313.0, 0.001218552869736969
1314.0, 0.0005928921878579415
1315.0, 0.001856989513069336
1316.0, 0.0013044016151672047
1317.0, 0.0032970743689715062
1318.0, 0.005558274437652404
1319.0, 0.0034203232572399046
1320.0, 0.0019885386058043015
1321.0, 0.006110994611876949
1322.0, 0.006449700727638034
1323.0, 0.00205534441112614
1324.0, 0.0027609272219025617
1325.0, 0.002633912941134302
1326.0, 0.0038000492986780383
1327.0, 0.0009219173944895135
1328.0, 0.005767899137664527
1329.0, 5.0029725209080046e-06
1330.0, 0.0017027258100806326
1331.0, 0.007962115801331634
1332.0, 0.006060509596720847
1333.0, 0.0017155737440379317
1334.0, 0.0023270747830073974
1335.0, 0.003155898427007709
1336.0, 0.0019116513283228558
1337.0, 0.0006180120297573176
1338.0, 0.00039267220851079766
1339.0, 0.0028061379731177108
1340.0, 0.005868408221452746
1341.0, 0.0058816723811838155
1342.0, 0.005703019956755633
1343.0, 0.0010262811780032154
1344.0, 0.002779590096041219
1345.0, 0.0021159645931235257
1346.0, 0.004630746693126691
1347.0, 0.005602811358279863
1348.0, 0.0024590916952403146
1349.0, 0.007455850236640615
1350.0, 0.003537658448500716
1351.0, 0.00501665318149617
1352.0, 0.008684289439823419
1353.0, 0.008811371473140898
1354.0, 0.008188436664763616
1355.0, 0.008287440528392058
1356.0, 0.008019127680923466
1357.0, 0.005530170957732736
1358.0, 0.0032209098021060575
1359.0, 0.0061060874660175115
1360.0, 0.0046985278777233845
1361.0, 0.0024591465206349893
1362.0, 0.0064887962336823025
1363.0, 0.007342629596655793
1364.0, 0.010266251407380496
1365.0, 0.010587790020341119
1366.0, 0.005584694589777948
1367.0, 0.003599246172282255
1368.0, 0.001222246397860901
1369.0, 0.0011348376769133714
1370.0, 0.0014193424455420664
1371.0, 0.004057274516976335
1372.0, 0.003836468295582986
1373.0, 0.0031670940771711354
1374.0, 0.004466256738430423
1375.0, 0.005093399719907976
1376.0, 0.004776389754534433
1377.0, 0.0033591050471963556
1378.0, 0.004829038108685432
1379.0, 0.005890408797653957
1380.0, 0.005838484240252037
1381.0, 0.005143332515115211
1382.0, 0.006197264598674493
1383.0, 0.0011787200130333238
1384.0, 0.006255993029941041
1385.0, 0.011679547864806909
1386.0, 0.012434777805183251
1387.0, 0.008525148101264101
1388.0, 0.006301285931361727
1389.0, 0.0036780562470119333
1390.0, 0.0036289733796721307
1391.0, 0.006304423339958278
1392.0, 0.005118380452461064
1393.0, 0.002670615688904265
1394.0, 0.002075923642284353
1395.0, 0.0006176518144097507
1396.0, 0.0022109926393848772
1397.0, 0.0026846299215871512
1398.0, 0.0010507013516695275
1399.0, 0.0026121790026107346
1400.0, 0.0014553753809391221
1401.0, 0.0030008195338231238
1402.0, 0.006659649957525697
1403.0, 0.0057018204200094975
1404.0, 0.009219044194593545
1405.0, 0.011088457905519869
1406.0, 0.009021895678482265
1407.0, 0.010719736825799043
1408.0, 0.015673178149374585
1409.0, 0.01992382735007815
1410.0, 0.018838678091639364
1411.0, 0.01965136773238655
1412.0, 0.02370014955955942
1413.0, 0.0241296007875528
1414.0, 0.024507943611761642
1415.0, 0.028417611387686774
1416.0, 0.03189975437901877
1417.0, 0.03915724813108042
1418.0, 0.03949200559822498
1419.0, 0.03985078245434364
1420.0, 0.04446396176821987
1421.0, 0.046772005052057114
1422.0, 0.053578440701902805
1423.0, 0.05131580449947799
1424.0, 0.062017921684530006
1425.0, 0.06185193689842869
1426.0, 0.0770139621714023
1427.0, 0.07559034888093921
1428.0, 0.07268966253574832
1429.0, 0.08120340295676139
1430.0, 0.09213711419373088
1431.0, 0.09683909053599278
1432.0, 0.10120405997428114
1433.0, 0.1077838460514196
1434.0, 0.11046139330761444
1435.0, 0.11512672479485668
1436.0, 0.12530090811422095
1437.0, 0.13004351888481497
1438.0, 0.13547198150487375
1439.0, 0.1432254217945817
1440.0, 0.1490085386226118
1441.0, 0.15915825027469963
1442.0, 0.16016921075519866
1443.0, 0.16155106090905563
1444.0, 0.15855867541136354
1445.0, 0.16833365707902345
1446.0, 0.18228161562166714
1447.0, 0.1881902323746807
1448.0, 0.19615672544437338
1449.0, 0.19669956471106093
1450.0, 0.2044850713999074
1451.0, 0.211783895283337
1452.0, 0.21880814510698324
1453.0, 0.22713587937214166
1454.0, 0.23234675218512227
1455.0, 0.2324512503604828
1456.0, 0.2375619662633841
1457.0, 0.24458717071094074
1458.0, 0.247799017875371
1459.0, 0.25556258170715507
1460.0, 0.26169157823620187
1461.0, 0.25992663665618404
1462.0, 0.26066899666090476
1463.0, 0.26143824353744766
1464.0, 0.2619845992822371
1465.0, 0.27087901089027844
1466.0, 0.2629693349874172
1467.0, 0.2593905908176767
1468.0, 0.2688735766206434
1469.0, 0.25932368190021543
1470.0, 0.26791239682900053
1471.0, 0.2665845641755926
1472.0, 0.2631484569559963
1473.0, 0.2672197584484178
1474.0, 0.2552855596023021
1475.0, 0.2544978718895974
1476.0, 0.25080935586015213
1477.0, 0.2548407631651505
1478.0, 0.24867194006314464
1479.0, 0.246458878043238
1480.0, 0.2439553682198334
1481.0, 0.24318566999356653
1482.0, 0.24367982707471722
1483.0, 0.240195100597372
1484.0, 0.2421595682749739
1485.0, 0.23858754719350386
1486.0, 0.24186318220751862
1487.0, 0.23411709163415345
1488.0, 0.23203492787730148
1489.0, 0.23034079545744632
1490.0, 0.23067701827105233
1491.0, 0.23352497890743676
1492.0, 0.23311457462310342
1493.0, 0.2338028013618692
1494.0, 0.23080528983455467
1495.0, 0.23048633524169954
1496.0, 0.2271965465431871
1497.0, 0.23795772868971798
1498.0, 0.2425395784042981
1499.0, 0.24048694146219032
1500.0, 0.24299612503211546
1501.0, 0.2466984363174262
1502.0, 0.23869455525715774
1503.0, 0.23948504229068068
1504.0, 0.24630185687992087
1505.0, 0.256728281092152
1506.0, 0.2568902956488073
1507.0, 0.25321493630035563
1508.0, 0.25613437850753956
1509.0, 0.25530794826242803
1510.0, 0.25011296723451554
1511.0, 0.25483689014019434
1512.0, 0.2630082333800843
1513.0, 0.25964154148875385
1514.0, 0.26025340928898355
1515.0, 0.2585462073773948
1516.0, 0.2544701762609734
1517.0, 0.25264035251623995
1518.0, 0.24898726524915132
1519.0, 0.24823661966727445
1520.0, 0.24132976032574652
1521.0, 0.24057744585641358
1522.0, 0.2396944813322849
1523.0, 0.22252234232571277
1524.0, 0.21425262158995667
1525.0, 0.22338497519722494
1526.0, 0.22381829722849658
1527.0, 0.21174536764663396
1528.0, 0.20253790314137607
1529.0, 0.1931306509590367
1530.0, 0.19108015221466979
1531.0, 0.18047988797199224
1532.0, 0.17314069339557125
1533.0, 0.16966278443685004
1534.0, 0.1635359105761997
1535.0, 0.15475404214016508
1536.0, 0.14351202075677977
1537.0, 0.1401969461254202
1538.0, 0.13816114129836446
1539.0, 0.12639925676084418
1540.0, 0.11321977395924043
1541.0, 0.09950159256594081
1542.0, 0.08519272593984539
1543.0, 0.07828717475348997
1544.0, 0.06966125666562188
1545.0, 0.059381464731878573
1546.0, 0.05961355368623023
1547.0, 0.05789510461541881
1548.0, 0.03827843765217309
1549.0, 0.03823992245258692
1550.0, 0.0386811077723334
1551.0, 0.02402310110174104
1552.0, 0.027074885041537305
1553.0, 0.02371637283509374
1554.0, 0.02804406908125697
1555.0, 0.02078928846208022
1556.0, 0.004881587187339175
1557.0, 0.010863362592917368
1558.0, 0.0037875261170841525
1559.0, 0.0026069384117942893
1560.0, 0.0013625916159713857
1561.0, 0.001972513368489261
1562.0, 0.0017797669014313754
1563.0, 0.001829039005210561
1564.0, 0.005896364952680904
1565.0, 0.009302490750172948
1566.0, 0.004994297075543259
1567.0, 0.009509655437944003
1568.0, 0.011700823748748031
1569.0, 0.003999701267005328
1570.0, 0.0042341831987536245
1571.0, 0.0027261810534212074
1572.0, 1.91220116400126e-05
1573, 0.0
1574, 0.0
1575, 0.0
1576, 0.0
1577, 0.0
1578, 0.0
1579, 0.0
1580, 0.0
1581, 0.0
1582, 0.0
1583, 0.0
1584, 0.0
1585, 0.0
1586, 0.0
1587, 0.0
1588, 0.0
1589, 0.0
1590, 0.0
1591, 0.0
1592, 0.0
1593, 0.0
1594, 0.0
1595, 0.0
1596, 0.0
1597, 0.0
1598, 0.0
1599, 0.0
