30, 0.0
31, 0.0
32, 0.0
33, 0.0
34, 0.0
35, 0.0
36, 0.0
37, 0.0
38, 0.0
39, 0.0
40, 0.0
41, 0.0
42, 0.0
43, 0.0
44, 0.0
45, 0.0
46, 0.0
47, 0.0
48, 0.0
49, 0.0
50, 0.0
51, 0.0
52, 0.0
53, 0.0
54, 0.0
55, 0.0
56, 0.0
57, 0.0
58, 0.0
59, 0.0
60, 0.0
61, 0.0
62, 0.0
63, 0.0
64, 0.0
65, 0.0
66, 0.0
67, 0.0
68, 0.0
69, 0.0
70, 0.0
71, 0.0
72, 0.0
73, 0.0
74, 0.0
75, 0.0
76, 0.0
77, 0.0
78, 0.0
79, 0.0
80, 0.0
81, 0.0
82, 0.0
83, 0.0
84, 0.0
85, 0.0
86, 0.0
87, 0.0
88, 0.0
89, 0.0
90, 0.0
91, 0.0
92, 0.0
93, 0.0
94, 0.0
95, 0.0
96, 0.0
97, 0.0
98, 0.0
99, 0.0
100, 0.0
101, 0.0
102, 0.0
103, 0.0
104, 0.0
105, 0.0
106, 0.0
107.0, 0.0010860162387132792
108.0, 0.007721300954777683
109.0, 0.018263925155210067
110.0, 0.033126997989705094
111.0, 0.05120234602792497
112.0, 0.07101526700765383
113.0, 0.08794933501211266
114.0, 0.10565204775726882
115.0, 0.12586813532786048
116.0, 0.14904221353824643
117.0, 0.17516155430449504
118.0, 0.19446700276680817
119.0, 0.2113173053143055
120.0, 0.22895395950793743
121.0, 0.2415954078839901
122.0, 0.2492894015342959
123.0, 0.25585152961989405
124.0, 0.2626671534781945
125.0, 0.2673310232112986
126.0, 0.27381756654766587
127.0, 0.28003346131069073
128.0, 0.28508043121610027
129.0, 0.29059257092647334
130.0, 0.3015515710342386
131.0, 0.3169435846177644
132.0, 0.33754680272517745
133.0, 0.36548946096937135
134.0, 0.4016301909666622
135.0, 0.4412559517396274
136.0, 0.485205788561562
137.0, 0.5358508427749172
138.0, 0.5919871349903181
139.0, 0.6507303541645021
140.0, 0.7081938919625856
141.0, 0.7601520851503712
142.0, 0.8004892642984129
143.0, 0.8206073242160342
144.0, 0.8168678003911082
145.0, 0.7899025164210545
146.0, 0.7419243181944499
147.0, 0.688583111386705
148.0, 0.6340578751899889
149.0, 0.5812404305340586
150.0, 0.5331514324545179
151.0, 0.4888726084664324
152.0, 0.4518156641298135
153.0, 0.42019870312603236
154.0, 0.3913681124002595
155.0, 0.3670603278645378
156.0, 0.3474935147357681
157.0, 0.328530697626
158.0, 0.3093901595043424
159.0, 0.29824323993850704
160.0, 0.2884345158504514
161.0, 0.2788886861610424
162.0, 0.2703598502212891
163.0, 0.26379936901853257
164.0, 0.2590936589606732
165.0, 0.2532186416772831
166.0, 0.24676143778136841
167.0, 0.24154166812727942
168.0, 0.23663991743987695
169.0, 0.23326082092434394
170.0, 0.2319495774666809
171.0, 0.23232775211239934
172.0, 0.2327039229409116
173.0, 0.23179353359191662
174.0, 0.23383181858354482
175.0, 0.2410459475825649
176.0, 0.25089912894822436
177.0, 0.26345694165922706
178.0, 0.28311485413928517
179.0, 0.3088151653492349
180.0, 0.33509773240467045
181.0, 0.36314236866059335
182.0, 0.392993974427195
183.0, 0.42811007245009286
184.0, 0.4718764843607368
185.0, 0.5202932084783638
186.0, 0.5674174786725538
187.0, 0.5885960642512233
188.0, 0.5724321008428335
189.0, 0.538923871272792
190.0, 0.49422600887046375
191.0, 0.4224511050227563
192.0, 0.3357282300026117
193.0, 0.28092896002162443
194.0, 0.2499611683801323
195.0, 0.2297878861291354
196.0, 0.2155213681196343
197.0, 0.20603574005707734
198.0, 0.19737927286816617
199.0, 0.19260641395008848
200.0, 0.18942760484034413
201.0, 0.18528327575400239
202.0, 0.18074779358215634
203.0, 0.17907103671656807
204.0, 0.17811117071351443
205.0, 0.1776218686559443
206.0, 0.17884591528321797
207.0, 0.17619675668697735
208.0, 0.17428785916216702
209.0, 0.17306096635590942
210.0, 0.17101792221676568
211.0, 0.17073983366521162
212.0, 0.16966804091085014
213.0, 0.16931250434444156
214.0, 0.16980721600051243
215.0, 0.16826415468885478
216.0, 0.1701678369192523
217.0, 0.1715157020214757
218.0, 0.17221468186073316
219.0, 0.1746129905174044
220.0, 0.17635797488479227
221.0, 0.17619632273456443
222.0, 0.1770459590062727
223.0, 0.18003666863326165
224.0, 0.18019016419264666
225.0, 0.18044480882374772
226.0, 0.18310992031658804
227.0, 0.18853687917174025
228.0, 0.1956232659750719
229.0, 0.19790215886510892
230.0, 0.20184240934563405
231.0, 0.2079089743704271
232.0, 0.2145231335414828
233.0, 0.22291477655908448
234.0, 0.2328124674049915
235.0, 0.24481879598634954
236.0, 0.26174464272758907
237.0, 0.2878748898807977
238.0, 0.31198131472016516
239.0, 0.34888555982613256
240.0, 0.3994725584666744
241.0, 0.4577980197396362
242.0, 0.5245580643085707
243.0, 0.6032437574135168
244.0, 0.674231174312765
245.0, 0.7236954586000095
246.0, 0.7508005326499873
247.0, 0.8024500107562628
248.0, 0.8806992447369418
249.0, 0.9600420814020317
250.0, 0.9988860437217176
251.0, 0.9663827783791786
252.0, 0.8744278580811455
253.0, 0.7446156421030645
254.0, 0.614625608846198
255.0, 0.5313978666197334
256.0, 0.4819610265008807
257.0, 0.43411804540474547
258.0, 0.3854463476196984
259.0, 0.34715550019573654
260.0, 0.32398338758049083
261.0, 0.3042937351765769
262.0, 0.28964186386382096
263.0, 0.28064831525848816
264.0, 0.2720269072039945
265.0, 0.2688108916031556
266.0, 0.26651636070774354
267.0, 0.26266223332452066
268.0, 0.25780021416330556
269.0, 0.2547037232297064
270.0, 0.25324542864146365
271.0, 0.25225842639333984
272.0, 0.25080481737644345
273.0, 0.24863475978631394
274.0, 0.24931847227299292
275.0, 0.24998488786991743
276.0, 0.2497187207214936
277.0, 0.24891197096719997
278.0, 0.24729017734165382
279.0, 0.24166962738089262
280.0, 0.2387554277240686
281.0, 0.23854663391308598
282.0, 0.23436875321205278
283.0, 0.23516681425932154
284.0, 0.23370511628955234
285.0, 0.22983156690886117
286.0, 0.22624143613041403
287.0, 0.22355873979505775
288.0, 0.22158367342863622
289.0, 0.2230088217846476
290.0, 0.22556386368387507
291.0, 0.22452234159256823
292.0, 0.2237088226322139
293.0, 0.22035495579907394
294.0, 0.21706033940591807
295.0, 0.21544637824213222
296.0, 0.21295818168827757
297.0, 0.21212496170521924
298.0, 0.20819389925736234
299.0, 0.20161163228873102
300.0, 0.1954942753788818
301.0, 0.19034905090081916
302.0, 0.18090460593831034
303.0, 0.17247118169296394
304.0, 0.16523558343028627
305.0, 0.15390383053143558
306.0, 0.14569955556480077
307.0, 0.13551880317615375
308.0, 0.12430346914343865
309.0, 0.11448679670066013
310.0, 0.10549651884772464
311.0, 0.09712963888697314
312.0, 0.0882259322159005
313.0, 0.08013077417968649
314.0, 0.07454049811115784
315.0, 0.06866591061173641
316.0, 0.06291189301694541
317.0, 0.05665590459414064
318.0, 0.050607112860280065
319.0, 0.04664492220775823
320.0, 0.04381925606855332
321.0, 0.041238375789792114
322.0, 0.0384464651734736
323.0, 0.035311639576717395
324.0, 0.03182214120782929
325.0, 0.029385419816514276
326.0, 0.026614510951184972
327.0, 0.024544457898702236
328.0, 0.0247864818021896
329.0, 0.023441849167727655
330.0, 0.022084204771277597
331.0, 0.02107907276389407
332.0, 0.019481177333817903
333.0, 0.01619531577391269
334.0, 0.015705395744485266
335.0, 0.015987908404849777
336.0, 0.015698444313547288
337.0, 0.014967247466381946
338.0, 0.015197671942377106
339.0, 0.01382895841595692
340.0, 0.013144357223404703
341.0, 0.013025430869053852
342.0, 0.013185509201262843
343.0, 0.016373450069678417
344.0, 0.015531397240137319
345.0, 0.014099724747848954
346.0, 0.014595963443989751
347.0, 0.015849134035836702
348.0, 0.015682936080126282
349.0, 0.017059346067240085
350.0, 0.017461996554039894
351.0, 0.015808913325350296
352.0, 0.01465025509739461
353.0, 0.015365866930244521
354.0, 0.014963296997047253
355.0, 0.013308218733580207
356.0, 0.012572965874208192
357.0, 0.014914188208191953
358.0, 0.014172429188958753
359.0, 0.013597032431612735
360.0, 0.014932071181313109
361.0, 0.01781680510914317
362.0, 0.021641999186110237
363.0, 0.025008824149197636
364.0, 0.028450549107708306
365.0, 0.033097711481158476
366.0, 0.03975544975724889
367.0, 0.04812844615152055
368.0, 0.051174355445969544
369.0, 0.05285412870884674
370.0, 0.05494460261541429
371.0, 0.05528565334601227
372.0, 0.050683496474479145
373.0, 0.044108324050493995
374.0, 0.03642075707283077
375.0, 0.029240993645022095
376.0, 0.02484712516060856
377.0, 0.01805363999646114
378.0, 0.013075050130508978
379.0, 0.008775093035363562
380.0, 0.004161574287495627
381.0, 0.0018323858086239926
382.0, 0.0006346195813869903
383.0, 0.0015487720802541028
384.0, 0.0036033518677515025
385.0, 0.0038913748640189852
386.0, 0.003358253165424539
387.0, 0.004965614639881701
388.0, 0.004786578049625059
389.0, 0.0035511492248509594
390.0, 0.0035565941832083284
391.0, 0.004180380571013918
392.0, 0.006831450138406687
393.0, 0.007120763094478506
394.0, 0.00553518540469867
395.0, 0.004826457816110431
396.0, 0.005983231571949876
397.0, 0.006603716740532978
398.0, 0.005675339934916544
399.0, 0.005661983556726599
400.0, 0.008068981509082397
401.0, 0.0057842263101325845
402.0, 0.006841175118797574
403.0, 0.007856227589237787
404.0, 0.007393530974342092
405.0, 0.006758020822213667
406.0, 0.006313638961787388
407.0, 0.0071833595793837565
408.0, 0.006608121743973999
409.0, 0.004726508597192245
410.0, 0.004375293723235206
411.0, 0.004931333701896637
412.0, 0.004379031688756712
413.0, 0.00308075931191408
414.0, 0.0024066246160693765
415.0, 0.002773788044496668
416.0, 0.002017131179267184
417.0, 0.0001527901548415532
418.0, 0.00016078384139512348
419.0, 0.0008909442638043664
420.0, 0.0008938883019789575
421.0, 0.0003002019745141278
422.0, 0.0006356088053085862
423.0, 0.0006347738235326618
424.0, 0.001538653529253794
425.0, 0.0024595332023689457
426.0, 0.0038386912868652906
427.0, 0.005372945555795941
428.0, 0.0069232157460310355
429.0, 0.00837314558983804
430.0, 0.009844116090113736
431.0, 0.012960278259409137
432.0, 0.01710846767247925
433.0, 0.021939122938244817
434.0, 0.02728589186855949
435.0, 0.033386604701649975
436.0, 0.041461904356390335
437.0, 0.049570325340036164
438.0, 0.058709217608804785
439.0, 0.06935696840957538
440.0, 0.08150419987178185
441.0, 0.09755274958750744
442.0, 0.10920581728353179
443.0, 0.12361222072611876
444.0, 0.14117682173260493
445.0, 0.15606635296387672
446.0, 0.16924310964805092
447.0, 0.17821862834260352
448.0, 0.18102135515616846
449.0, 0.17889140230193468
450.0, 0.17151420277103402
451.0, 0.1470867935705409
452.0, 0.1300581019311242
453.0, 0.11456292768977068
454.0, 0.09725757510410638
455.0, 0.08216556349661414
456.0, 0.07110555074216432
457.0, 0.06039826435062502
458.0, 0.051057177178619115
459.0, 0.04382528145040629
460.0, 0.038011167025472345
461.0, 0.03201197623970877
462.0, 0.02834192561687324
463.0, 0.025516962016766037
464.0, 0.022372706878103863
465.0, 0.01934736824803661
466.0, 0.01827113482687786
467.0, 0.01660013301960596
468.0, 0.014713142058710705
469.0, 0.013501390952436926
470.0, 0.012991498951430551
471.0, 0.012192666549055526
472.0, 0.011411419597094678
473.0, 0.010907976874054285
474.0, 0.009936285602615507
475.0, 0.00844578941482129
476.0, 0.0076539062431922175
477.0, 0.007657293672652156
478.0, 0.007196694345635997
479.0, 0.005802204549572974
480.0, 0.0048160380950144355
481.0, 0.005572854837448697
482.0, 0.006050486727496147
483.0, 0.005933062348250753
484.0, 0.005155695783655995
485.0, 0.00519957811801681
486.0, 0.007030268601816874
487.0, 0.006266648003129197
488.0, 0.006064151756111116
489.0, 0.006892149981186884
490.0, 0.006838778610735091
491.0, 0.004708982720793549
492.0, 0.0037548763787134316
493.0, 0.007851429015187273
494.0, 0.009140182575943305
495.0, 0.006174500288117053
496.0, 0.0028937829643511616
497.0, 0.002439500267293063
498.0, 0.0015812180645577354
499.0, 0.0026061179332320314
500.0, 0.0028975703433053164
501.0, 0.002655591287272366
502.0, 0.005169392683500796
503.0, 0.004619896380698675
504.0, 0.0045721156755439
505.0, 0.004751370588067107
506.0, 0.00325223807856702
507.0, 0.00046050140795256636
508.0, 0.0023934063925704217
509.0, 0.0017623845259250807
510.0, 0.002091701867596218
511.0, 0.0030858601850139735
512.0, 0.0027636530802472204
513.0, 0.002578538203561155
514.0, 0.0030707605168428477
515.0, 0.00339690827773187
516.0, 0.0036115407764432156
517.0, 0.003974935323387624
518.0, 0.004526429317846954
519.0, 0.004793040353979303
520.0, 0.003131708468897257
521.0, 0.002572577154625691
522.0, 0.0029605642198939123
523.0, 0.0021920674098819346
524.0, 0.0024166770798600837
525.0, 0.0048016812783423755
526.0, 0.0024530191398322984
527.0, 0.00013493271344139146
528.0, 0.0016037115673200014
529.0, 0.0012164195032847256
530.0, 0.0022059162842560168
531.0, 0.0023986799955781303
532.0, 0.0011584214202642407
533.0, 0.00027710670925247457
534.0, 0.0014118678663767013
535.0, 0.0006979150322579018
536.0, 0.0009253027398145439
537.0, 0.0009965303358703366
538.0, 0.0011283120528433812
539.0, 0.001839915851769166
540.0, 0.0011178212945103106
541.0, 0.0012724726597009468
542.0, 0.0023172548217668043
543.0, 0.002740304973059922
544.0, 0.0023288631573667243
545.0, 0.0024174395577840216
546.0, 0.0009447446242355104
547.0, 0.00043135295376947315
548.0, 0.00014893486498347336
549.0, 0.00016205608531144895
550.0, 0.00039456061497786796
551.0, 0.001247484747073376
552.0, 0.001531880331670377
553.0, 0.0008640032489632871
554.0, 5.9652694852314946e-05
555.0, 0.0007072365720105289
556.0, 0.00045660847372038557
557.0, 0.0007082824172995513
558.0, 0.0002442081315855273
559.0, 0.0018994427985537924
560.0, 0.0038500551886281424
561.0, 0.0015487032140816292
562.0, 0.007786514962132006
563.0, 0.0029917192589184773
564.0, 0.0008677782601304307
565.0, 0.0011761699610590723
566.0, 0.0001232056640233828
567.0, 0.001161397342074877
568.0, 0.0006556023138493883
569.0, 8.94981476478494e-05
570.0, 0.00011423829837155236
571.0, 0.0009592533285942874
572.0, 0.0008378042876761401
573.0, 0.0012323034468693836
574.0, 0.00034112689154783434
575.0, 0.0005876387833116679
576.0, 0.0007804003235690347
577.0, 0.0014080868269314916
578.0, 0.001510763684700688
579.0, 0.0012464692966901866
580.0, 0.00010367763175497417
581.0, 0.0003988626231093621
582.0, 0.001336941818177001
583.0, 0.001412671855057759
584.0, 0.0011189855062469641
585.0, 0.00024355944442183862
586.0, 0.0008114404698496655
587.0, 0.0006825821349213277
588.0, 0.0003969566888273507
589.0, 0.0005979388446706763
590.0, 0.0014344538867014653
591.0, 0.0019012145610371668
592.0, 0.001053369851922272
593.0, 0.0004326205950286332
594.0, 0.0005474929311361988
595.0, 0.0005072221993190243
596.0, 0.0015394217387885384
597.0, 0.001851175167007324
598.0, 0.00226887672644815
599.0, 0.002266293159450822
600.0, 0.0009579895952516372
601.0, 0.00015508557561423223
602.0, 0.0002862871866156503
603.0, 0.0009840809298042254
604.0, 0.0002662278513929598
605.0, 0.0008728294085667681
606.0, 0.00014267698808170793
607.0, 0.001077542312647251
608.0, 0.0009900685525716486
609.0, 0.0013261240106569503
610.0, 0.0007120548593286012
611.0, 0.0012396700430939264
612.0, 0.0006192903014128603
613.0, 0.000829582494411303
614.0, 0.0003458981463225189
615.0, 0.0007618715889624123
616.0, 0.000709753878113062
617.0, 0.0014464892273072837
618.0, 0.000567021721074675
619.0, 0.00025658502409053467
620.0, 0.00042187721160666137
621.0, 0.00019054618583381287
622.0, 0.0009433207407542149
623.0, 0.0016159752170901206
624.0, 0.003109906550300959
625.0, 0.0018681872826545184
626.0, 0.0006634931787786211
627.0, 0.0016913092517689295
628.0, 0.0029608419424908125
629.0, 0.001585222606618759
630.0, 0.001291296974113942
631.0, 0.000661677647630867
632.0, 0.0005003512137450631
633.0, 0.0005547607004954759
634.0, 3.958719380588691e-05
635.0, 0.0009340543016348897
636.0, 0.0018231226662866423
637.0, 0.000457042815037151
638.0, 0.00045249782134388483
639.0, 0.002026249998392739
640.0, 0.0006265119573577631
641.0, 0.0005582505567426494
642.0, 0.0019697378788981717
643.0, 0.0023637956227895314
644.0, 0.001996739931672625
645.0, 0.0007171599008726926
646.0, 0.0015182503842245743
647.0, 0.0022786286280413242
648.0, 0.0007246567609794784
649.0, 0.001308628702849288
650.0, 0.0018189233929368773
651.0, 0.0007418749923854011
652.0, 0.0009415344011221342
653.0, 0.0003594022194822193
654.0, 0.0012518770714965513
655.0, 0.0022156867484074147
656.0, 0.002033084510079788
657.0, 0.0015078376105357202
658.0, 0.0017954976047847388
659.0, 0.00280417068270809
660.0, 0.00044794753025297605
661.0, 0.0004445473823992709
662.0, 0.0021633718397960086
663.0, 0.0016883469655032007
664.0, 0.0005443067634197902
665.0, 0.0036108819885695294
666.0, 0.0024868170593419395
667.0, 0.0013978344515028474
668.0, 0.001795510283802622
669.0, 0.005803393858817571
670.0, 0.009918168154506385
671.0, 0.0052579183678466025
672.0, 0.005459562587668731
673.0, 0.003250938045022401
674.0, 0.0015736901714408864
675.0, 0.0022590291243229426
676.0, 0.0032299071841460562
677.0, 0.001929099281877506
678.0, 0.004235409853316013
679.0, 0.004895606313763459
680.0, 0.0038769320929624308
681.0, 0.003927600728608121
682.0, 0.005699169379285071
683.0, 0.006339727083164254
684.0, 0.006607844899512146
685.0, 0.005606145509401085
686.0, 0.005158254600515675
687.0, 0.006103407384915515
688.0, 0.007655323134137109
689.0, 0.008516257659286321
690.0, 0.009215325556928207
691.0, 0.008875004738283575
692.0, 0.010335828182333471
693.0, 0.012855910142235789
694.0, 0.014209086748053563
695.0, 0.01411102357646473
696.0, 0.013693363093568073
697.0, 0.014969009849865815
698.0, 0.016639688602709722
699.0, 0.01697277057057695
700.0, 0.016570312838003566
701.0, 0.017502446671898614
702.0, 0.019500501257416147
703.0, 0.01879930658479066
704.0, 0.018561675563460854
705.0, 0.019924212334744475
706.0, 0.02061937352092815
707.0, 0.019019986801340396
708.0, 0.018905428053818597
709.0, 0.016454197697617023
710.0, 0.016483523136994742
711.0, 0.013791055013092381
712.0, 0.011991276937138116
713.0, 0.0140838737276739
714.0, 0.011059023577096204
715.0, 0.009559422117620243
716.0, 0.008390393917325005
717.0, 0.007118688593698573
718.0, 0.006339652832751388
719.0, 0.005504275853488727
720.0, 0.0034908422579395656
721.0, 0.003722694426083852
722.0, 0.004294419826173423
723.0, 0.004629173861232796
724.0, 0.004449085954604103
725.0, 0.003287776844598702
726.0, 0.0019258052556666405
727.0, 0.0032902949322846033
728.0, 0.0016680443829325694
729.0, 0.0016434133064996293
730.0, 0.0016409410717003056
731.0, 0.000984372547215227
732.0, 0.0011729816222779352
733.0, 0.002598201536581884
734.0, 0.002106239357845647
735.0, 0.0006626888427273079
736.0, 0.0017664400747914614
737.0, 0.0011875050030340365
738.0, 0.00027156997320273014
739.0, 0.0011761435609122278
740.0, 0.00089933437436673
741.0, 0.002827337615939271
742.0, 0.0029458812224607074
743.0, 0.0025973589897916984
744.0, 0.002618063825972024
745.0, 0.002364555200566544
746.0, 0.0029579197447776127
747.0, 0.0029897754612682463
748.0, 0.001834650411964761
749.0, 0.004224992998025331
750.0, 0.004717029391394572
751.0, 0.0005581494719700663
752.0, 0.0013465316715006977
753.0, 0.0027298433501453997
754.0, 0.002256924667884339
755.0, 0.0007419643151115912
756.0, 0.0006581452385154213
757.0, 0.0011575932893437644
758.0, 0.0011312518481371716
759.0, 0.0030362801014328315
760.0, 0.0019328410684729981
761.0, 0.0009750304557955325
762.0, 0.0009180249835576428
763.0, 0.00034217901269714565
764.0, 0.0006703803170740438
765.0, 0.00043075261095763595
766.0, 0.00048541863071347054
767.0, 0.0005283617694956005
768.0, 0.0018379495618883112
769.0, 0.0020763657270575758
770.0, 0.0008678783389315377
771.0, 0.0002843542194765489
772.0, 0.001487879099557873
773.0, 0.001848147139643882
774.0, 0.0008087429653767311
775.0, 0.0006592291095308216
776.0, 0.0007872858986978524
777.0, 0.0002414255213762124
778.0, 0.000296231270856375
779.0, 0.0003441927092815418
780.0, 0.0010094478234865143
781.0, 0.0006980490603977343
782.0, 0.0014054602728530363
783.0, 0.0002507008308456121
784.0, 0.000869928518752395
785.0, 2.0930279539172335e-05
786.0, 0.00042463029533598874
787.0, 0.000736550808694392
788.0, 0.0006332463918619816
789.0, 0.0009592079967632084
790.0, 0.0014979880978734086
791.0, 0.0006586214832688536
792.0, 0.0007873845518780301
793.0, 0.0007467539443755459
794.0, 0.0016385849454413357
795.0, 0.001844906868995017
796.0, 0.0018175663038119119
797.0, 0.001183859698554027
798.0, 0.0008320091368518332
799.0, 0.0006230024746856773
800.0, 0.00020617675672814708
801.0, 0.0007067533798500908
802.0, 0.0011549306955913237
803.0, 0.001749881885352508
804.0, 0.0002090458150481183
805.0, 0.00044958268934510055
806.0, 0.0006532120584532834
807.0, 0.0019015872894254898
808.0, 0.0019773237526577777
809.0, 0.0013054291613742092
810.0, 0.0006664620663395323
811.0, 0.00041421092161036174
812.0, 0.0003893816703912467
813.0, 0.00024349689078860634
814.0, 0.0013427220608439355
815.0, 0.0006649979871460351
816.0, 0.0003416008783938958
817.0, 0.0002799914413111384
818.0, 0.0004353199231959429
819.0, 0.0003020563242987763
820.0, 0.0014353532285442637
821.0, 0.0002575329109401181
822.0, 0.0013110333741149878
823.0, 0.0001827458108813723
824.0, 0.0011851078002309261
825.0, 0.00027471125085264613
826.0, 0.00035820405229353814
827.0, 0.00029059831321892143
828.0, 0.00012388199409984915
829.0, 0.0003807914620997003
830.0, 0.00031255064317797733
831.0, 6.263104825533075e-05
832.0, 7.677805323449829e-05
833.0, 0.0001597664062183062
834.0, 0.00022332266282184187
835.0, 0.0005472990116368927
836.0, 0.00037673435006675183
837.0, 0.0009718672903973623
838.0, 0.001558230453899241
839.0, 0.0004794739081845901
840.0, 0.0005334971191029926
841.0, 0.0003442980354964896
842.0, 0.0004982616073890524
843.0, 0.0010130448434875394
844.0, 0.0019810131731725165
845.0, 0.0004999018901938982
846.0, 0.00054577616482332
847.0, 0.0014145862130708884
848.0, 0.0009864350586836757
849.0, 0.00043130249822579216
850.0, 0.0003589334431913841
851.0, 0.0003607255268403258
852.0, 0.0007995839381328328
853.0, 0.00036585175797591764
854.0, 0.0016960188756353811
855.0, 0.0008251421460368376
856.0, 0.0013675597357941027
857.0, 0.0017505270389397717
858.0, 0.001245326882443142
859.0, 0.00035456126624862475
860.0, 0.0009080824624835153
861.0, 0.00041198045657647573
862.0, 0.0002987887737499477
863.0, 0.0008338111205557978
864.0, 0.00041705527689989304
865.0, 0.0004490039703377221
866.0, 6.611270246280543e-05
867.0, 0.0012470774553349508
868.0, 0.002339003766384526
869.0, 0.00030592533528580685
870.0, 0.0009976499105166876
871.0, 0.000949535469295694
872.0, 0.002447062433026121
873.0, 0.001203386080813408
874.0, 0.001232051082308205
875.0, 0.0032748556200543036
876.0, 0.0014506302292803504
877.0, 0.0013848053711608345
878.0, 0.002495704269284958
879.0, 0.00187433181217875
880.0, 0.000848174710949856
881.0, 0.0006356552660932217
882.0, 0.000989920051745914
883.0, 0.0012653006777164533
884.0, 0.0013451807481994857
885.0, 0.001311719083190979
886.0, 0.003782799831348146
887.0, 0.0024877603435344777
888.0, 0.0011235935476591316
889.0, 0.0010551348406837536
890.0, 0.0007425251445458197
891.0, 0.0011676135737302838
892.0, 0.0033852374154684354
893.0, 0.003624520790722887
894.0, 0.0032102921532245663
895.0, 0.0029743363637171256
896.0, 0.0018080774484182886
897.0, 0.0015664349942568806
898.0, 0.002565744814003408
899.0, 0.00040352103322264366
900.0, 0.0005399336312085813
901.0, 0.0022873578713164438
902.0, 0.001796767330265979
903.0, 0.0024291211885282965
904.0, 0.003449033283358603
905.0, 0.003021687333448704
906.0, 0.002406171558287016
907.0, 0.002261704570778424
908.0, 0.0006217691186286112
909.0, 0.002353001054741632
910.0, 0.0023137407364375137
911.0, 0.0017378597448200047
912.0, 0.0026695094620317224
913.0, 0.0028843313644278507
914.0, 0.0006406443727820725
915.0, 0.00039564024203367153
916.0, 0.0010269004047409494
917.0, 0.0014208697085360536
918.0, 0.0005162929944933941
919.0, 0.0007386961679919563
920.0, 0.0015852619236566168
921.0, 0.0013760051774911993
922.0, 0.0019321894016915313
923.0, 0.002273973691631577
924.0, 0.002033071697651547
925.0, 0.002999477341530604
926.0, 0.002379244016453081
927.0, 0.0035593153807845033
928.0, 0.004343943983127692
929.0, 0.0008433686684366844
930.0, 0.0018957733518343138
931.0, 0.001443262330417008
932.0, 0.0019861486964650576
933.0, 0.0008772303304061663
934.0, 0.0014044636673114655
935.0, 0.003046895826250283
936.0, 0.0032194866990869816
937.0, 0.0015504411613556797
938.0, 0.00038916786393924
939.0, 0.0012687029966347522
940.0, 0.003078146826334977
941.0, 0.001702779594496289
942.0, 0.001861815120906808
943.0, 0.002957085305812854
944.0, 0.001685463964003511
945.0, 0.0004704155893954454
946.0, 0.0014289597035198782
947.0, 0.0005156252618331146
948.0, 0.0010900172504342903
949.0, 0.0011969849798069128
950.0, 0.00037147333923438487
951.0, 0.0010836384886498249
952.0, 0.0021790560454278854
953.0, 0.0006624298781293742
954.0, 0.0011572030187526417
955.0, 0.0007437157564292847
956.0, 0.00048612153462192215
957.0, 0.0013945827176323703
958.0, 0.0005230863427935952
959.0, 0.0015057154382094025
960.0, 0.003414996546731398
961.0, 0.0019256313099626013
962.0, 0.002063727264677041
963.0, 0.0007983817761851615
964.0, 0.0005706548046629393
965.0, 0.00035461198232011876
966.0, 9.13974380223844e-05
967.0, 0.0007820505932715608
968.0, 0.0006385155135763705
969.0, 0.00029488790286034933
970.0, 0.00037033518027412306
971.0, 0.0021718574027689893
972.0, 0.002806728306605933
973.0, 0.0006736487247215139
974.0, 0.0006414037243728826
975.0, 0.0008512785518926601
976.0, 0.0016445817735231385
977.0, 0.0005692781759556583
978.0, 0.0012735704471062343
979.0, 0.0010958593250239741
980.0, 0.0012769143107142415
981.0, 0.0014891136537909667
982.0, 0.0031201253176479106
983.0, 0.001059715874051164
984.0, 0.0005064363607389079
985.0, 0.0002507494626949232
986.0, 0.0006969419824537421
987.0, 0.0018948114833280405
988.0, 0.0021406765714953964
989.0, 0.0021795382823199282
990.0, 0.0005688540367551674
991.0, 0.0005436041200390636
992.0, 0.001152342439094088
993.0, 0.0006552552908671073
994.0, 0.001625415701162117
995.0, 0.0009781171508111389
996.0, 0.0006958988379152641
997.0, 0.001876911836429913
998.0, 0.0029316741224105786
999.0, 0.0037010178957786826
1000.0, 0.001912777217435652
1001.0, 0.0005799719722598273
1002.0, 0.0008292056844213027
1003.0, 0.000356803791794205
1004.0, 0.0012366822238487672
1005.0, 0.0017119873404320733
1006.0, 0.00038729362720189777
1007.0, 0.0002978249191914365
1008.0, 0.0007935819863383711
1009.0, 0.0005356501205483075
1010.0, 0.0008049006150642528
1011.0, 0.0013714812865469534
1012.0, 0.0008414996422546556
1013.0, 0.0007935772968386308
1014.0, 0.000346736749056773
1015.0, 0.00041076162085182833
1016.0, 0.00019400417085117471
1017.0, 5.805592018409197e-05
1018.0, 0.00015483321357023653
1019.0, 0.0003845966437844717
1020.0, 0.0013331407180938895
1021.0, 0.0016534912151686969
1022.0, 0.0015773695182154002
1023.0, 0.0019857464415967596
1024.0, 0.0016653289818743945
1025.0, 0.0021914559512188005
1026.0, 0.002064589351049574
1027.0, 0.0022346315676095027
1028.0, 0.0027037448885672485
1029.0, 0.0019557513590218005
1030.0, 0.0007426462031137576
1031.0, 0.0016428714087495986
1032.0, 0.0013136523728882908
1033.0, 0.0008079384556401268
1034.0, 0.0010383709211534025
1035.0, 0.001628169913845122
1036.0, 0.0015509344606988856
1037.0, 0.0022177830633984194
1038.0, 0.003585721780246978
1039.0, 0.003233744080995673
1040.0, 0.004228143274940713
1041.0, 0.002647936721025539
1042.0, 0.0021723660398076123
1043.0, 0.0021341298561454915
1044.0, 0.00117666444275584
1045.0, 0.00230838801983184
1046.0, 0.0032712988108686137
1047.0, 0.0020372298541822607
1048.0, 0.0021986009251584344
1049.0, 0.0019845695673836906
1050.0, 0.00036327331469128426
1051.0, 0.0014531346826800683
1052.0, 0.0019481053901912071
1053.0, 0.003498288836187853
1054.0, 0.0026566036981646806
1055.0, 0.0013420559781927841
1056.0, 0.0015772208437045236
1057.0, 0.0014944517993609485
1058.0, 0.00265431253016185
1059.0, 0.0006156179888880336
1060.0, 0.0011894157136584308
1061.0, 0.00468794258538081
1062.0, 0.003461536705514907
1063.0, 0.0027220790148671046
1064.0, 0.0050645202714181495
1065.0, 0.002704132646657029
1066.0, 0.0015435174089304458
1067.0, 0.0008151840801395735
1068.0, 0.0032796688731994267
1069.0, 0.003005777537203207
1070.0, 0.003927298863771718
1071.0, 0.002640610593446926
1072.0, 0.001981996926011004
1073.0, 0.0008238608704914014
1074.0, 0.0006313276393982251
1075.0, 0.001378452748995515
1076.0, 0.0012217581513909565
1077.0, 0.0007888180624805007
1078.0, 0.002682736528371712
1079.0, 0.0007090113739846575
1080.0, 0.000947316988538954
1081.0, 0.0009755729614437344
1082.0, 0.0014504597740010664
1083.0, 0.0014461501938431334
1084.0, 0.0009402494781879545
1085.0, 0.002728871147371155
1086.0, 0.0012651042725056382
1087.0, 0.001453917221241677
1088.0, 0.0007168042804742623
1089.0, 0.0028719543850801266
1090.0, 0.0005885952675775928
1091.0, 0.0002547226847877365
1092.0, 0.0002952305837131163
1093.0, 0.0005689288082235422
1094.0, 0.00090751876724379
1095.0, 0.003680641944885628
1096.0, 0.002609039317897306
1097.0, 0.0020195061503677503
1098.0, 0.0027302554182261733
1099.0, 0.0015083374764730862
1100.0, 0.001585474623809502
1101.0, 0.003332205078480801
1102.0, 0.0014762071083405984
1103.0, 0.0014475702438442525
1104.0, 0.0032625365674099783
1105.0, 0.002594995655597912
1106.0, 0.0026660410559037695
1107.0, 0.002122804801067987
1108.0, 0.004197155519552934
1109.0, 0.0021845627339421555
1110.0, 0.0031065697975365693
1111.0, 0.0026902006211337584
1112.0, 0.0019769753401941204
1113.0, 0.0013137310522731427
1114.0, 0.0013766707390866348
1115.0, 0.0016804109071877316
1116.0, 0.0006391995726431735
1117.0, 0.001841012673657314
1118.0, 0.002813309237935551
1119.0, 0.0022815441942530745
1120.0, 0.0003473719157462964
1121.0, 0.0012701169676549598
1122.0, 0.0015299228964972213
1123.0, 0.0014087512595733142
1124.0, 0.0005322000382064058
1125.0, 0.0012246141435872404
1126.0, 0.0006685638306578107
1127.0, 0.00032983501033907194
1128.0, 0.0011080211084381376
1129.0, 0.00046595095404384915
1130.0, 0.0020938496584863393
1131.0, 0.0010527359010289775
1132.0, 0.0005717518870789889
1133.0, 0.0021081561064574747
1134.0, 0.0033644591973013343
1135.0, 0.0016993598202177278
1136.0, 0.0017350485633992438
1137.0, 0.002344005291563332
1138.0, 0.0002868579161049295
1139.0, 0.000646555400386819
1140.0, 0.0012259968219686158
1141.0, 0.0005844702446405596
1142.0, 0.0020718601598994114
1143.0, 0.0014560926280746448
1144.0, 0.001810316175904028
1145.0, 0.0017665211857688377
1146.0, 0.0010533696782371147
1147.0, 0.001200391053633213
1148.0, 0.00010306978919557335
1149.0, 0.0015310508080320332
1150.0, 0.0031769670047645812
1151.0, 0.0017401065362604455
1152.0, 0.0018115158070106771
1153.0, 0.001369371272182768
1154.0, 0.000737522837783466
1155.0, 0.0013345001519686184
1156.0, 0.0014115418593008346
1157.0, 0.0009017696595326779
1158.0, 0.0021741912104825197
1159.0, 0.003098132779570659
1160.0, 0.0006979212281079748
1161.0, 0.0007140465072451999
1162.0, 0.0013613200958359343
1163.0, 0.00027115139192786296
1164.0, 0.0012066999939769495
1165.0, 0.001624209023399844
1166.0, 0.0009729440626153778
1167.0, 0.0006447937116437395
1168.0, 0.0012434984117497536
1169.0, 0.0011706738673405556
1170.0, 0.000578629906902639
1171.0, 0.0003372134171555967
1172.0, 0.00024051645316346053
1173.0, 0.0009260259648886062
1174.0, 0.0013579479981382394
1175.0, 0.0008204747911368362
1176.0, 0.0009654874974693922
1177.0, 0.0010140394838334377
1178.0, 0.002781490113639615
1179.0, 0.004891953975033882
1180.0, 0.002736530142590068
1181.0, 0.00043917668937806873
1182.0, 0.0017288706685211093
1183.0, 0.0016996771430347877
1184.0, 0.0012956737860775433
1185.0, 0.0005320587453156297
1186.0, 0.001233542117764584
1187.0, 0.0011953844047416383
1188.0, 0.0021298111742370793
1189.0, 0.0013630260316376322
1190.0, 6.225484616348066e-06
1191.0, 6.708720198082081e-05
1192.0, 0.0013161477078160826
1193.0, 0.0024922681685999987
1194.0, 0.0003562765810496852
1195.0, 0.002238860627967054
1196.0, 0.0025717619632508715
1197.0, 0.0006146442229470833
1198.0, 0.001189814673902327
1199.0, 0.0005265218355806978
1200.0, 0.0015286992844301185
1201.0, 0.002590746100389631
1202.0, 0.0009168182196719383
1203.0, 0.0005550139334825927
1204.0, 0.0005077731286982313
1205.0, 0.000134489816241754
1206.0, 0.00011993549471203884
1207.0, 0.0004872537882861616
1208.0, 0.00013612836219488274
1209.0, 0.0007680727576541514
1210.0, 0.0017168598175251026
1211.0, 0.0006610683600324325
1212.0, 0.0007301441704391292
1213.0, 0.0009470344027569357
1214.0, 0.0017778704699282972
1215.0, 0.0007615549608859819
1216.0, 0.00039280543942883683
1217.0, 0.00022206448740473464
1218.0, 0.00047061127469405983
1219.0, 0.0008665061391961206
1220.0, 0.00037585819519490274
1221.0, 0.000346047045221712
1222.0, 0.002767841932486434
1223.0, 0.0019999924471265098
1224.0, 0.000701509737535259
1225.0, 0.00030276634929944255
1226.0, 0.001165212423814697
1227.0, 0.00035298490929781644
1228.0, 0.0007064908547061231
1229.0, 0.001913149164240777
1230.0, 0.002163345439649183
1231.0, 0.001550329279694094
1232.0, 0.0013947071630611482
1233.0, 0.0013194542393596303
1234.0, 0.0010773662827210596
1235.0, 0.0026523672002701326
1236.0, 0.0026183238326808983
1237.0, 0.0015206977820438048
1238.0, 0.00018526459330808287
1239.0, 0.0008226037371853861
1240.0, 0.0007955727658288773
1241.0, 0.0004211827314290854
1242.0, 0.001733144800181858
1243.0, 0.0016798367379769175
1244.0, 0.002602768935662935
1245.0, 0.001530303440718392
1246.0, 0.004304572766838676
1247.0, 0.0038032985900667135
1248.0, 0.002608406286851973
1249.0, 0.0034785727897161086
1250.0, 0.0030658861292127792
1251.0, 0.0023697036634047286
1252.0, 0.002252729197988262
1253.0, 0.0021706292748872947
1254.0, 0.000804914249350339
1255.0, 0.00039393239569497196
1256.0, 0.0028188427608095553
1257.0, 0.0012576045138697218
1258.0, 0.0013920757457979644
1259.0, 0.003428866176484009
1260.0, 0.0020550503006399263
1261.0, 0.0011544693877630129
1262.0, 0.00021742396686473008
1263.0, 0.00048100928514300823
1264.0, 0.0008330580216314487
1265.0, 0.000615011740780135
1266.0, 0.00016827279882639844
1267.0, 0.0009604097244981179
1268.0, 0.0008743645454943255
1269.0, 0.0012518379923318404
1270.0, 0.0019042352936232193
1271.0, 0.0024898093075590693
1272.0, 0.00255692855445484
1273.0, 0.003541725501398417
1274.0, 0.002536855932316168
1275.0, 0.0006281058662205935
1276.0, 0.0010762161394836484
1277.0, 0.002525284451955647
1278.0, 0.0014561332704057625
1279.0, 0.0024179493237762137
1280.0, 0.0020056811577054585
1281.0, 0.0005770212204159334
1282.0, 0.0011856876481918738
1283.0, 0.001343698258377311
1284.0, 0.0004856633531269318
1285.0, 0.0014632356046347355
1286.0, 0.0004674774730582116
1287.0, 0.001315919311809212
1288.0, 0.0005358576743339181
1289.0, 0.00017968513070495886
1290.0, 0.0023879257568325575
1291.0, 0.0017062796113261744
1292.0, 0.00023993634467474922
1293.0, 0.00014929091959485155
1294.0, 0.0001785530507258054
1295.0, 0.0008095420908729146
1296.0, 0.0010466850568573256
1297.0, 0.00122721426083999
1298.0, 0.0020497162551908247
1299.0, 0.00044072821905795183
1300.0, 0.00028820475780449626
1301, 0.0
1302, 0.0
1303, 0.0
1304, 0.0
1305, 0.0
1306, 0.0
1307, 0.0
1308, 0.0
1309, 0.0
1310, 0.0
1311, 0.0
1312, 0.0
1313, 0.0
1314, 0.0
1315, 0.0
1316, 0.0
1317, 0.0
1318, 0.0
1319, 0.0
1320, 0.0
1321, 0.0
1322, 0.0
1323, 0.0
1324, 0.0
1325, 0.0
1326, 0.0
1327, 0.0
1328, 0.0
1329, 0.0
1330, 0.0
1331, 0.0
1332, 0.0
1333, 0.0
1334, 0.0
1335, 0.0
1336, 0.0
1337, 0.0
1338, 0.0
1339, 0.0
1340, 0.0
1341, 0.0
1342, 0.0
1343, 0.0
1344, 0.0
1345, 0.0
1346, 0.0
1347, 0.0
1348, 0.0
1349, 0.0
1350, 0.0
1351, 0.0
1352, 0.0
1353, 0.0
1354, 0.0
1355, 0.0
1356, 0.0
1357, 0.0
1358, 0.0
1359, 0.0
1360, 0.0
1361, 0.0
1362, 0.0
1363, 0.0
1364, 0.0
1365, 0.0
1366, 0.0
1367, 0.0
1368, 0.0
1369, 0.0
1370, 0.0
1371, 0.0
1372, 0.0
1373, 0.0
1374, 0.0
1375, 0.0
1376, 0.0
1377, 0.0
1378, 0.0
1379, 0.0
1380, 0.0
1381, 0.0
1382, 0.0
1383, 0.0
1384, 0.0
1385, 0.0
1386, 0.0
1387, 0.0
1388, 0.0
1389, 0.0
1390, 0.0
1391, 0.0
1392, 0.0
1393, 0.0
1394, 0.0
1395, 0.0
1396, 0.0
1397, 0.0
1398, 0.0
1399, 0.0
1400, 0.0
1401, 0.0
1402, 0.0
1403, 0.0
1404, 0.0
1405, 0.0
1406, 0.0
1407, 0.0
1408, 0.0
1409, 0.0
1410, 0.0
1411, 0.0
1412, 0.0
1413, 0.0
1414, 0.0
1415, 0.0
1416, 0.0
1417, 0.0
1418, 0.0
1419, 0.0
1420, 0.0
1421, 0.0
1422, 0.0
1423, 0.0
1424, 0.0
1425, 0.0
1426, 0.0
1427, 0.0
1428, 0.0
1429, 0.0
1430, 0.0
1431, 0.0
1432, 0.0
1433, 0.0
1434, 0.0
1435, 0.0
1436, 0.0
1437, 0.0
1438, 0.0
1439, 0.0
1440, 0.0
1441, 0.0
1442, 0.0
1443, 0.0
1444, 0.0
1445, 0.0
1446, 0.0
1447, 0.0
1448, 0.0
1449, 0.0
1450, 0.0
1451, 0.0
1452, 0.0
1453, 0.0
1454, 0.0
1455, 0.0
1456, 0.0
1457, 0.0
1458, 0.0
1459, 0.0
1460, 0.0
1461, 0.0
1462, 0.0
1463, 0.0
1464, 0.0
1465, 0.0
1466, 0.0
1467, 0.0
1468, 0.0
1469, 0.0
1470, 0.0
1471, 0.0
1472, 0.0
1473, 0.0
1474, 0.0
1475, 0.0
1476, 0.0
1477, 0.0
1478, 0.0
1479, 0.0
1480, 0.0
1481, 0.0
1482, 0.0
1483, 0.0
1484, 0.0
1485, 0.0
1486, 0.0
1487, 0.0
1488, 0.0
1489, 0.0
1490, 0.0
1491, 0.0
1492, 0.0
1493, 0.0
1494, 0.0
1495, 0.0
1496, 0.0
1497, 0.0
1498, 0.0
1499, 0.0
1500, 0.0
1501, 0.0
1502, 0.0
1503, 0.0
1504, 0.0
1505, 0.0
1506, 0.0
1507, 0.0
1508, 0.0
1509, 0.0
1510, 0.0
1511, 0.0
1512, 0.0
1513, 0.0
1514, 0.0
1515, 0.0
1516, 0.0
1517, 0.0
1518, 0.0
1519, 0.0
1520, 0.0
1521, 0.0
1522, 0.0
1523, 0.0
1524, 0.0
1525, 0.0
1526, 0.0
1527, 0.0
1528, 0.0
1529, 0.0
1530, 0.0
1531, 0.0
1532, 0.0
1533, 0.0
1534, 0.0
1535, 0.0
1536, 0.0
1537, 0.0
1538, 0.0
1539, 0.0
1540, 0.0
1541, 0.0
1542, 0.0
1543, 0.0
1544, 0.0
1545, 0.0
1546, 0.0
1547, 0.0
1548, 0.0
1549, 0.0
1550, 0.0
1551, 0.0
1552, 0.0
1553, 0.0
1554, 0.0
1555, 0.0
1556, 0.0
1557, 0.0
1558, 0.0
1559, 0.0
1560, 0.0
1561, 0.0
1562, 0.0
1563, 0.0
1564, 0.0
1565, 0.0
1566, 0.0
1567, 0.0
1568, 0.0
1569, 0.0
1570, 0.0
1571, 0.0
1572, 0.0
1573, 0.0
1574, 0.0
1575, 0.0
1576, 0.0
1577, 0.0
1578, 0.0
1579, 0.0
1580, 0.0
1581, 0.0
1582, 0.0
1583, 0.0
1584, 0.0
1585, 0.0
1586, 0.0
1587, 0.0
1588, 0.0
1589, 0.0
1590, 0.0
1591, 0.0
1592, 0.0
1593, 0.0
1594, 0.0
1595, 0.0
1596, 0.0
1597, 0.0
1598, 0.0
1599, 0.0
