30, 0.0
31, 0.0
32, 0.0
33, 0.0
34, 0.0
35, 0.0
36, 0.0
37, 0.0
38, 0.0
39, 0.0
40, 0.0
41, 0.0
42, 0.0
43, 0.0
44, 0.0
45, 0.0
46, 0.0
47, 0.0
48, 0.0
49, 0.0
50, 0.0
51, 0.0
52, 0.0
53, 0.0
54, 0.0
55, 0.0
56, 0.0
57, 0.0
58, 0.0
59, 0.0
60, 0.0
61, 0.0
62, 0.0
63, 0.0
64, 0.0
65, 0.0
66, 0.0
67, 0.0
68, 0.0
69, 0.0
70, 0.0
71, 0.0
72, 0.0
73, 0.0
74, 0.0
75, 0.0
76, 0.0
77, 0.0
78, 0.0
79, 0.0
80, 0.0
81, 0.0
82, 0.0
83, 0.0
84, 0.0
85, 0.0
86, 0.0
87, 0.0
88, 0.0
89, 0.0
90, 0.0
91, 0.0
92, 0.0
93, 0.0
94, 0.0
95, 0.0
96, 0.0
97, 0.0
98, 0.0
99, 0.0
100, 0.0
101, 0.0
102, 0.0
103, 0.0
104, 0.0
105, 0.0
106, 0.0
107, 0.0
108, 0.0
109, 0.0
110, 0.0
111, 0.0
112, 0.0
113, 0.0
114, 0.0
115, 0.0
116, 0.0
117, 0.0
118, 0.0
119, 0.0
120, 0.0
121, 0.0
122, 0.0
123, 0.0
124, 0.0
125, 0.0
126, 0.0
127, 0.0
128, 0.0
129, 0.0
130, 0.0
131, 0.0
132, 0.0
133, 0.0
134, 0.0
135, 0.0
136, 0.0
137, 0.0
138, 0.0
139, 0.0
140, 0.0
141, 0.0
142, 0.0
143, 0.0
144, 0.0
145.0, 0.011317200864687007
146.0, 0.005684894314772943
147.0, 0.023843673246363127
148.0, 0.008083137120677014
149.0, 0.0063424907182296755
150.0, 0.013386158026615903
151.0, 0.01895282149360424
152.0, 0.02394771564581678
153.0, 0.03533046527227849
154.0, 0.050793182310188104
155.0, 0.056338085977638355
156.0, 0.04413057164667776
157.0, 0.038576841992181164
158.0, 0.05690422115944858
159.0, 0.09994025618785769
160.0, 0.11112220626153715
161.0, 0.1203230471823742
162.0, 0.13447814039609032
163.0, 0.14199740632249166
164.0, 0.1562211971972916
165.0, 0.173758361500943
166.0, 0.18883361023324965
167.0, 0.1990508977636576
168.0, 0.20833910689164264
169.0, 0.22270529488022664
170.0, 0.23809854555018276
171.0, 0.2555607253752703
172.0, 0.28432225026547614
173.0, 0.2991553028785215
174.0, 0.28285081928257233
175.0, 0.2599821671510367
176.0, 0.26488296242457016
177.0, 0.24282323390912378
178.0, 0.24806641197852428
179.0, 0.2753113351123684
180.0, 0.29339499690428356
181.0, 0.3034522281411339
182.0, 0.2902350853352251
183.0, 0.2788934256554376
184.0, 0.2887460144025417
185.0, 0.3138267948910914
186.0, 0.3146045333080933
187.0, 0.3296511353806469
188.0, 0.36318051046391275
189.0, 0.37829304758765114
190.0, 0.3571602733789055
191.0, 0.3401863866054373
192.0, 0.3521626493713006
193.0, 0.3816206887961983
194.0, 0.3362598194477141
195.0, 0.3403115541567946
196.0, 0.35624998891866094
197.0, 0.3481293315650969
198.0, 0.3463026170187615
199.0, 0.3391081910910494
200.0, 0.33466752470883915
201.0, 0.32780713118581783
202.0, 0.3073415444343879
203.0, 0.2979959010472444
204.0, 0.31202948283089593
205.0, 0.3173710138671901
206.0, 0.29037641103169526
207.0, 0.25444740253095915
208.0, 0.2377124310032204
209.0, 0.22070489315013778
210.0, 0.2064648139100898
211.0, 0.21894435137100918
212.0, 0.1668695467778048
213.0, 0.12984937089776075
214.0, 0.1396238314878822
215.0, 0.1660616910883276
216.0, 0.12248286741842306
217.0, 0.12597838891323607
218.0, 0.11724120060326272
219.0, 0.0692951002239487
220.0, 0.06651977625225407
221.0, 0.10506584433116868
222.0, 0.10939958818204033
223.0, 0.08821447320522872
224.0, 0.0931338219632668
225.0, 0.11423745406174918
226.0, 0.11703804340060854
227.0, 0.10389920828328797
228.0, 0.09224716346093577
229.0, 0.10108635020156005
230.0, 0.10916442296194201
231.0, 0.10990272098317218
232.0, 0.11307100317165117
233.0, 0.13259102086652286
234.0, 0.1423229734777919
235.0, 0.14082198451299935
236.0, 0.11572771425350245
237.0, 0.07780854890948494
238.0, 0.12520201386340982
239.0, 0.12730433372249633
240.0, 0.11022084824201726
241.0, 0.10663322747092649
242.0, 0.11572664395319247
243.0, 0.07421351366145126
244.0, 0.06719360984091917
245.0, 0.07892155041139243
246.0, 0.07635244930896969
247.0, 0.10036866750370443
248.0, 0.07932089461395275
249.0, 0.05203021508542628
250.0, 0.05259373803902593
251.0, 0.08892284137128774
252.0, 0.08926853081457407
253.0, 0.11548049265329749
254.0, 0.1399062783157342
255.0, 0.12800957284870507
256.0, 0.1219476160009083
257.0, 0.14602012263719238
258.0, 0.16746706903373665
259.0, 0.18342837834401057
260.0, 0.21783358920851434
261.0, 0.2216093877525717
262.0, 0.257177847964227
263.0, 0.30457745903898364
264.0, 0.32937441252049693
265.0, 0.3353716192561471
266.0, 0.39486294354362583
267.0, 0.4622120929510471
268.0, 0.5064044383547436
269.0, 0.5378254035229406
270.0, 0.5982630362264498
271.0, 0.6581440007619718
272.0, 0.7057107645107085
273.0, 0.7538680200601058
274.0, 0.8275249357934272
275.0, 0.8650502988834615
276.0, 0.9220899021953408
277.0, 0.9833870028808671
278.0, 0.9979369373464743
279.0, 0.9895030720595305
280.0, 0.99608888635484
281.0, 0.9889802890487515
282.0, 0.9639627533953901
283.0, 0.96035099679557
284.0, 0.9397318151039419
285.0, 0.9225643848582631
286.0, 0.9000430867428554
287.0, 0.8593410894031626
288.0, 0.8352224386107342
289.0, 0.7933186066935302
290.0, 0.7808052236840941
291.0, 0.802043657950957
292.0, 0.8133361142953922
293.0, 0.8129956465446208
294.0, 0.834657493441424
295.0, 0.859823793876221
296.0, 0.8677193906036273
297.0, 0.872972287836321
298.0, 0.894870670759849
299.0, 0.8943089765984896
300.0, 0.8872494839491721
301.0, 0.8997468804817131
302.0, 0.8735582156891212
303.0, 0.8941090043253195
304.0, 0.8877155607265718
305.0, 0.8442944599414631
306.0, 0.8315381708711164
307.0, 0.7838161584314193
308.0, 0.740583270682844
309.0, 0.7075016241850345
310.0, 0.6634523988924407
311.0, 0.584421011074705
312.0, 0.4884924336973012
313.0, 0.41882827231497555
314.0, 0.3516256261099757
315.0, 0.2569490106372639
316.0, 0.208770921395221
317.0, 0.15643534456511454
318.0, 0.11285334376731912
319.0, 0.08299751380510702
320.0, 0.0534290173057965
321.0, 0.028694827612857684
322.0, 0.036136906370080914
323.0, 0.03587703832839132
324.0, 0.00895080217117205
325.0, 0.004956243908788684
326.0, 0.007559136549946551
327.0, 0.009625494159625686
328.0, 0.026568831517526367
329.0, 0.0247626970644549
330.0, 0.019541474040432882
331.0, 0.028737370011079604
332.0, 0.02334741401178205
333.0, 0.004987091352754177
334.0, 0.003219896990091088
335.0, 0.015808429066583914
336.0, 0.02492521077826405
337.0, 0.021966270736397217
338.0, 0.013280365661757559
339.0, 0.013118971261108253
340.0, 0.012204457065028887
341.0, 0.0231379912082663
342.0, 0.012299367536879716
343.0, 0.006312114119423888
344.0, 0.009661289500567345
345.0, 0.0017617113837425562
346.0, 0.0033180189175825246
347.0, 0.004355643762602216
348.0, 0.002195635405434173
349.0, 0.009175237401556133
350.0, 0.0035181243204739925
351.0, 0.0017736415929497035
352.0, 0.008981045241978205
353.0, 0.017053849856283353
354.0, 0.037142780906974066
355.0, 0.02036451452535354
356.0, 0.005148887617533097
357.0, 0.011248325273590579
358.0, 0.015249748989202333
359.0, 0.012295829688528825
360.0, 0.017384851760170857
361.0, 0.025615409311023046
362.0, 0.03176947736001411
363.0, 0.03802271020788533
364.0, 0.01964669312784903
365.0, 0.02563409040960815
366.0, 0.03056434516545188
367.0, 0.01393274841315767
368.0, 0.030536935787189325
369.0, 0.017702854849321176
370.0, 0.029168671822856942
371.0, 0.04610586513010619
372.0, 0.03173515403659207
373.0, 0.04134893822651525
374.0, 0.04397439485988037
375.0, 0.04925995994126352
376.0, 0.047654342018385955
377.0, 0.030458010975572096
378.0, 0.052140045669373816
379.0, 0.06572459141631086
380.0, 0.05015218139185225
381.0, 0.03421217289368077
382.0, 0.05318538838107454
383.0, 0.06087669963956795
384.0, 0.04738292848256673
385.0, 0.046396975236865895
386.0, 0.056512645760713354
387.0, 0.042962098675778236
388.0, 0.06336525646260145
389.0, 0.04745308207588426
390.0, 0.0482785616364516
391.0, 0.050099393042383464
392.0, 0.05693176506882464
393.0, 0.059943778302242706
394.0, 0.05711712100876694
395.0, 0.05570978651875307
396.0, 0.052732992073279236
397.0, 0.05573687398515875
398.0, 0.07776275732118225
399.0, 0.05076341971940639
400.0, 0.0366933685186834
401.0, 0.06613957419056281
402.0, 0.05246494375228327
403.0, 0.028946210106342726
404.0, 0.025619480298751583
405.0, 0.03271572502853722
406.0, 0.035289014419348314
407.0, 0.03877322597468775
408.0, 0.06257049876907447
409.0, 0.05357394029904913
410.0, 0.0269872723047052
411.0, 0.013210691138424914
412.0, 0.01038763979860489
413.0, 0.022941008575384912
414.0, 0.03037911006346523
415.0, 0.030621062053832596
416.0, 0.02930477667470929
417.0, 0.02887290584973898
418.0, 0.02826467028799155
419.0, 0.019371345962380864
420.0, 0.02489723690592677
421.0, 0.0482244755958908
422.0, 0.048054967293383016
423.0, 0.03802498324578227
424.0, 0.026572280826580575
425.0, 0.017130073495424704
426.0, 0.017244975629435434
427.0, 0.035041646627413776
428.0, 0.042929870391010296
429.0, 0.053017606711063085
430.0, 0.04941931890879387
431.0, 0.028491387300006325
432.0, 0.021359102275508475
433.0, 0.011059714689520002
434.0, 0.012061490170017666
435.0, 0.02196837133775176
436.0, 0.03431524157645671
437.0, 0.04477201586890269
438.0, 0.029642865561507595
439.0, 0.003001011796709142
440.0, 0.012974965090449535
441.0, 0.047952779962749194
442.0, 0.010052775953350804
443.0, 0.023620252899299084
444.0, 0.018530723452228552
445.0, 0.011270236818810151
446.0, 0.020076920883254804
447.0, 0.017698632355837938
448.0, 0.02769645306286649
449.0, 0.025517408618905186
450.0, 0.008489033477378852
451.0, 0.004252092778864513
452.0, 0.014208997873556591
453.0, 0.03302430738550947
454.0, 0.030586084879939794
455.0, 0.017055259975123117
456.0, 0.00866102621163224
457.0, 0.010369836618150075
458.0, 0.009658856067434092
459.0, 0.028621926616681392
460.0, 0.02168740034406999
461.0, 0.0032747553297425977
462.0, 0.016426135751417513
463.0, 0.018205652739294986
464.0, 0.02195848422958768
465.0, 0.02918655705362439
466.0, 0.03035292178984305
467.0, 0.019473511217221354
468.0, 0.027471579142870173
469.0, 0.03222013105101154
470.0, 0.038419729370445785
471.0, 0.04668622608351958
472.0, 0.04877980665922574
473.0, 0.03763632080260512
474.0, 0.03445721438632894
475.0, 0.0242058709170291
476.0, 0.025296611087791042
477.0, 0.04129956084876287
478.0, 0.03258214165194177
479.0, 0.02466959361881273
480.0, 0.036450089501010585
481.0, 0.02714129994247033
482.0, 0.00433080369643731
483.0, 0.02751554296182444
484.0, 0.026762184476208612
485.0, 0.026496324964015626
486.0, 0.01918935942624484
487.0, 0.012391913944931844
488.0, 0.022680509958150866
489.0, 0.017816876913223388
490.0, 0.011878652502964663
491.0, 0.008937651619952715
492.0, 0.007379722117250615
493.0, 0.006997652790569562
494.0, 0.01238086273701408
495.0, 0.0021021714793368674
496.0, 0.012478858843397379
497.0, 0.029080176917637077
498.0, 0.022255515241122268
499.0, 0.011981402419016953
500.0, 0.03389473595220923
501.0, 0.032830317932974654
502.0, 0.012798040515684938
503.0, 0.0010116980651534587
504.0, 0.016351553041425923
505.0, 0.018585001234978138
506.0, 0.02704012524330105
507.0, 0.02754875874270177
508.0, 0.019990231032335812
509.0, 0.018110897860724028
510.0, 0.016819242719766838
511.0, 0.02688768216583051
512.0, 0.01872035651581831
513.0, 0.01120771318877168
514.0, 0.024501014189638827
515.0, 0.027517790457557704
516.0, 0.01913573499867344
517.0, 0.021235928189469455
518.0, 0.021762696328720268
519.0, 0.019530717039091615
520.0, 0.02884374503512975
521.0, 0.024385153428490198
522.0, 0.012607972273075082
523.0, 0.010812240670483598
524.0, 0.014131057825080269
525.0, 0.008536330336555355
526.0, 0.00979970715975882
527.0, 0.004529723603285048
528.0, 0.009543716626532132
529.0, 0.014714119209417873
530.0, 0.006261851064926402
531.0, 0.008547841247343913
532.0, 0.014804857873882773
533.0, 0.009487346582419476
534.0, 0.00871274757106693
535.0, 0.014800699927710104
536.0, 0.004920019752990622
537.0, 0.006527686545909884
538.0, 0.006007611867009376
539.0, 0.0008908493747225971
540.0, 0.003391164728232075
541.0, 0.008005468030319561
542.0, 0.0014638939771673184
543.0, 0.01476762448899556
544.0, 0.019000260282485346
545.0, 0.006051590210522942
546.0, 0.004063477642673163
547.0, 0.02482660899144345
548.0, 0.016030581002782197
549.0, 0.016560529810257844
550.0, 0.021424561391037714
551.0, 0.023272687515309295
552.0, 0.02013532542046966
553.0, 0.00943898301908925
554.0, 0.01113241473400735
555.0, 0.031659924699858406
556.0, 0.027056174354834008
557.0, 0.006732926006081183
558.0, 0.027820162186921057
559.0, 0.018945230943065775
560.0, 0.014069333078706838
561.0, 0.01485219459485987
562.0, 0.018636578375149985
563.0, 0.02359481209424344
564.0, 0.028083238147358136
565.0, 0.019631655448062123
566.0, 0.03273320011725477
567.0, 0.026069893087855428
568.0, 0.0021682455164856265
569.0, 0.01331526110247917
570.0, 0.001772120535439479
571.0, 0.008003925916184738
572.0, 0.018608542223036678
573.0, 0.0086129216966851
574.0, 0.020557122228451654
575.0, 0.007207349404237173
576.0, 0.00744775812453987
577.0, 0.015157749249233991
578.0, 0.01249409840540951
579.0, 0.00837517117982078
580.0, 0.015402168439991487
581.0, 0.022520367335497705
582.0, 0.014194919238803729
583.0, 0.023464860386622814
584.0, 0.03331091556661641
585.0, 0.02961813826977343
586.0, 0.032733732718011825
587.0, 0.012759414224062555
588.0, 0.0273652584096051
589.0, 0.033363115237336656
590.0, 0.01849257193363553
591.0, 0.01248477310831995
592.0, 0.03847897674437614
593.0, 0.022556618450704956
594.0, 0.009615705654024469
595.0, 0.017693105815583705
596.0, 0.03175977813934244
597.0, 0.03503240988291505
598.0, 0.02082110349059003
599.0, 0.015428909156745664
600.0, 0.01917397781762871
601.0, 0.02493277567625287
602.0, 0.03292109080699272
603.0, 0.043214812280127586
604.0, 0.027788874369358455
605.0, 0.022899458788358282
606.0, 0.013447659702014926
607.0, 0.011134707601138655
608.0, 0.02054999809507402
609.0, 0.003531441807212431
610.0, 0.026882864469653572
611.0, 0.023442383375752225
612.0, 0.02092059487883073
613.0, 0.025842034528620918
614.0, 0.012653181362947928
615.0, 0.02746641038759407
616.0, 0.03809722449107668
617.0, 0.03715409306284895
618.0, 0.01716718962115074
619.0, 0.0033436207780025364
620.0, 0.0013281767851710622
621.0, 0.004036687946816724
622.0, 0.016631212757998243
623.0, 0.009042507589216195
624.0, 0.0007916927359903111
625.0, 0.0011190717076286136
626.0, 0.0032656804679426204
627.0, 0.014057236113034187
628.0, 0.02580880397788265
629.0, 0.02436428941892484
630.0, 0.01694546899532687
631.0, 0.016005543887872765
632.0, 0.024107583453331024
633.0, 0.027932940488956514
634.0, 0.010106896513461834
635.0, 0.0005167680316203874
636.0, 0.01106064926198896
637.0, 0.0262606316841271
638.0, 0.022389386458692873
639.0, 0.010005176193647242
640.0, 0.011672415377545674
641.0, 0.008431013384903308
642.0, 0.005096264292954365
643.0, 0.013805199680593115
644.0, 0.011600634056332305
645.0, 0.02537037848697588
646.0, 0.022571014723402272
647.0, 0.014594434896896723
648.0, 0.0160392190676203
649.0, 0.0269904322045343
650.0, 0.03703175479997261
651.0, 0.02560200190720662
652.0, 0.018419905745932254
653.0, 0.019323320636748447
654.0, 0.024981590951195703
655.0, 0.029958114613160832
656.0, 0.011157060234681658
657.0, 0.002478875694391654
658.0, 0.008362180070087578
659.0, 0.01736182500581545
660.0, 0.01561272893684326
661.0, 0.018970428802625096
662.0, 0.01750719027054057
663.0, 0.002263559247165115
664.0, 0.011158775291825003
665.0, 0.015219528547516865
666.0, 0.008597175206484904
667.0, 0.016555906128076985
668.0, 0.00923097149091977
669.0, 0.013324399458820918
670.0, 0.020487393684604248
671.0, 0.023149032466523712
672.0, 0.02311646413732281
673.0, 0.021248046060643414
674.0, 0.009586449057397937
675.0, 0.028488516699845767
676.0, 0.02159910101796697
677.0, 0.021877289363132133
678.0, 0.03691102156460096
679.0, 0.03627653803984177
680.0, 0.02460310561111118
681.0, 0.0319648258138956
682.0, 0.03797709094924227
683.0, 0.036794146974838376
684.0, 0.02595641798763382
685.0, 0.013683551115700306
686.0, 0.02581903122916528
687.0, 0.024656117028515112
688.0, 0.019517378824153598
689.0, 0.0262132772842579
690.0, 0.026236744399790134
691.0, 0.01018516322254612
692.0, 0.013326217664657629
693.0, 0.01629628460352516
694.0, 0.030207713496188726
695.0, 0.028757980268100017
696.0, 0.015385255547387048
697.0, 0.012119259158985174
698.0, 0.025167740664842186
699.0, 0.004116571392487323
700.0, 0.009504258890239628
701.0, 0.03276830664353817
702.0, 0.033894220364960655
703.0, 0.019503801130955935
704.0, 0.028145509496678787
705.0, 0.016047934239479675
706.0, 0.009627245297227412
707.0, 0.009818519929372695
708.0, 0.004501824804862924
709.0, 0.011725875343109463
710.0, 0.008365274199314541
711.0, 0.009764235817939705
712.0, 0.0016214233303208892
713.0, 0.009861861836292287
714.0, 0.012835706506672689
715.0, 0.007893761272630374
716.0, 0.01713625081659557
717.0, 0.031126901873095993
718.0, 0.032496979790966905
719.0, 0.0363470283393959
720.0, 0.0314395818702773
721.0, 0.025369060390684227
722.0, 0.02894905815173345
723.0, 0.031214062194806463
724.0, 0.02226763380549044
725.0, 0.009784390361065768
726.0, 0.023228181704001205
727.0, 0.038077499353404445
728.0, 0.03463206941333329
729.0, 0.031091471966438796
730.0, 0.024901519858179913
731.0, 0.013015804619232086
732.0, 0.014283117510831705
733.0, 0.019689946421393056
734.0, 0.02299807899522844
735.0, 0.025757319798745
736.0, 0.024671612308276258
737.0, 0.02327378804919979
738.0, 0.020122575676054657
739.0, 0.01941471131979705
740.0, 0.017166197514535065
741.0, 0.009602131306145073
742.0, 0.006045342172471801
743.0, 0.02011554295182564
744.0, 0.014949769860482406
745.0, 0.018755379223621388
746.0, 0.018431857380957397
747.0, 0.005572198797644253
748.0, 0.002616480406229564
749.0, 0.015922559411560625
750.0, 0.022831565257303447
751.0, 0.006461423359631841
752.0, 0.002158975974114396
753.0, 0.012512250431102741
754.0, 0.011371805378444335
755.0, 0.005982798477095238
756.0, 0.012244954888638204
757.0, 0.02607260285798413
758.0, 0.017046446419722156
759.0, 0.019640906523068317
760.0, 0.02719436907117092
761.0, 0.015748322007295576
762.0, 0.03138946056332977
763.0, 0.031825940079558156
764.0, 0.04182647293963543
765.0, 0.05044441114422686
766.0, 0.044457516963939035
767.0, 0.02522773120585861
768.0, 0.014556986309537329
769.0, 0.02408894520107559
770.0, 0.01920718838715767
771.0, 0.020371572997717177
772.0, 0.021059129021425628
773.0, 0.020902496606897313
774.0, 0.02520153800646738
775.0, 0.020582850639317873
776.0, 0.022018363346861042
777.0, 0.01655085446578957
778.0, 0.015882456367032952
779.0, 0.01860954217836235
780.0, 0.018002390947554313
781.0, 0.014611368110655228
782.0, 0.012906781536038296
783.0, 0.019685848279011507
784.0, 0.016073185783280947
785.0, 0.007106813927163401
786.0, 0.011133496562005038
787.0, 0.020802844303452618
788.0, 0.011087440122158296
789.0, 0.008642168736881391
790.0, 0.009455366229681825
791.0, 0.002445592105225223
792.0, 0.002937878836484562
793.0, 0.006498280876089314
794.0, 0.02254681532880994
795.0, 0.02952871817404371
796.0, 0.007892221025864338
797.0, 0.01282100865885764
798.0, 0.03203673392910613
799.0, 0.024638162219335923
800.0, 0.013184497503182409
801.0, 0.02387655482395598
802.0, 0.002752042066960235
803.0, 0.00718275522056497
804.0, 0.01947364399938849
805.0, 0.020020724251201282
806.0, 0.023552447431861596
807.0, 0.02884181136501949
808.0, 0.019835555231622743
809.0, 0.015430383465295093
810.0, 0.020339060638205987
811.0, 0.03496230960619324
812.0, 0.022685019532678697
813.0, 0.012328215580821306
814.0, 0.018678475526023915
815.0, 0.015531787632975804
816.0, 0.023925029491456678
817.0, 0.015380832218093162
818.0, 0.015883863418710634
819.0, 0.024230105756136332
820.0, 0.019072375502982533
821.0, 0.004956789127312928
822.0, 0.005417339767500413
823.0, 0.0015507386654602868
824.0, 0.018753760147019023
825.0, 0.0213721789432497
826.0, 0.007427876431320516
827.0, 0.004855140557278793
828.0, 0.008957945300191722
829.0, 0.004128005957586318
830.0, 0.015305311656017846
831.0, 0.015321774237347898
832.0, 0.010032558314219531
833.0, 0.013414071707757462
834.0, 0.017645619831740688
835.0, 0.01554554722202742
836.0, 0.015616440514985975
837.0, 0.021290305406927692
838.0, 0.007752470824998312
839.0, 0.03368919074782934
840.0, 0.02065606368223062
841.0, 0.00210397658674013
842.0, 0.004347042196644035
843.0, 0.004082629702977636
844.0, 0.019939672055096457
845.0, 0.021728725163003487
846.0, 0.01836148528286561
847.0, 0.024815297411161768
848.0, 0.027010811171331247
849.0, 0.022301971943651307
850.0, 0.02263053055016309
851.0, 0.021889989057716264
852.0, 0.03169077657126079
853.0, 0.035137137969649984
854.0, 0.021300399765369175
855.0, 0.025179859920295804
856.0, 0.03486167670664045
857.0, 0.020211979872808997
858.0, 0.010013700622068251
859.0, 0.012576197788159254
860.0, 0.00797846092075955
861.0, 0.006599186783654655
862.0, 0.01994792830993
863.0, 0.017755540229837035
864.0, 0.017878105653407368
865.0, 0.015370340238998728
866.0, 0.005253089678504502
867.0, 0.002063611482121637
868.0, 0.013137136718868653
869.0, 0.0021649055152754126
870.0, 0.005372730717406927
871.0, 0.023923020381946918
872.0, 0.01785307734867018
873.0, 0.01349876284650532
874.0, 0.005749377432174395
875.0, 0.010112071396491677
876.0, 0.011026804224007931
877.0, 0.01817028317627256
878.0, 0.020131561065410503
879.0, 0.016666402316446352
880.0, 0.045822694111180534
881.0, 0.023800669153059843
882.0, 0.01965651084158257
883.0, 0.023317397786575076
884.0, 0.024551458581518196
885.0, 0.029305660422836884
886.0, 0.03459732603061619
887.0, 0.026910248936530913
888.0, 0.02658559650309774
889.0, 0.042314065798358065
890.0, 0.03677907404532686
891.0, 0.03962415307694489
892.0, 0.04161287095460049
893.0, 0.02993984479125857
894.0, 0.01777265105441979
895.0, 0.011791899237306341
896.0, 0.006882575871679543
897.0, 0.016277340509258137
898.0, 0.017028656259594457
899.0, 0.019365962866237638
900.0, 0.02638614038609687
901.0, 0.027198238111577937
902.0, 0.0212967693605818
903.0, 0.02267624986172205
904.0, 0.022823087023505533
905.0, 0.0032867316562704206
906.0, 0.011578115642277873
907.0, 0.020701094300236044
908.0, 0.01199478545692537
909.0, 0.0056492858556475446
910.0, 0.01671614255893554
911.0, 0.03268820006463601
912.0, 0.021781513436691487
913.0, 0.011848637033815862
914.0, 0.012298872064301525
915.0, 0.006839390562181459
916.0, 0.0010339389019051238
917.0, 0.008447688675037276
918.0, 0.015017469529539999
919.0, 0.01247899446172782
920.0, 0.010261043007527983
921.0, 0.023074063060178826
922.0, 0.015059569698779723
923.0, 0.004008080879387555
924.0, 0.009314725838083616
925.0, 0.010278626480656125
926.0, 0.018121367848852318
927.0, 0.028031165096733177
928.0, 0.01725909814166439
929.0, 0.017590190924577476
930.0, 0.014399345131119479
931.0, 0.010200383351312627
932.0, 0.017331817305759504
933.0, 0.02003458208117446
934.0, 0.013992159957061757
935.0, 0.02456618013610516
936.0, 0.008504246487462582
937.0, 0.009273761480928578
938.0, 0.01446107656599006
939.0, 0.012474978984406485
940.0, 0.011768209958887166
941.0, 0.012644672339694477
942.0, 0.00830210925772561
943.0, 0.008333602541655598
944.0, 0.005271419265818137
945.0, 0.006353876298515974
946.0, 0.008899443152385765
947.0, 0.018257336842477358
948.0, 0.012547156654201329
949.0, 0.01125720984830198
950.0, 0.034288980500442344
951.0, 0.0033171965830127493
952.0, 0.020159357107608925
953.0, 0.019636605726947746
954.0, 0.040247404227298354
955.0, 0.04183108658323159
956.0, 0.012955116903913664
957.0, 0.046145252972596994
958.0, 0.03508194192413953
959.0, 0.020576720839888093
960.0, 0.01266167786129774
961.0, 0.021383370050032754
962.0, 0.019761988129468867
963.0, 0.014352098192515685
964.0, 0.011971558521395465
965.0, 0.0012508279005360484
966.0, 0.0038632831007587463
967.0, 0.02384776273901274
968.0, 0.019853772333544437
969.0, 0.01751175767689976
970.0, 0.005537645653888207
971.0, 0.003398787256630582
972.0, 0.00017364092561786347
973.0, 0.0039997121934795465
974.0, 0.013860851007390453
975.0, 0.007548238703418918
976.0, 0.02115577321540133
977.0, 0.027364999439841352
978.0, 0.03466365112653592
979.0, 0.02661233503042834
980.0, 0.012617008903857179
981.0, 0.01809445739826788
982.0, 0.019337393720445045
983.0, 0.002846872576792277
984.0, 0.010933133934201774
985.0, 0.013997532768421526
986.0, 0.008676038961774631
987.0, 0.004066880540420908
988.0, 0.005624624407657227
989.0, 0.008492512432082244
990.0, 0.005746427855042542
991.0, 0.013739410288949724
992.0, 0.019010034372255576
993.0, 0.003597798689772273
994.0, 0.0021756131585369378
995.0, 0.0069933561402750095
996.0, 0.00732635314053751
997.0, 0.012879803518963106
998.0, 0.01730929480337535
999.0, 0.002935771159893743
1000.0, 0.009054369362859785
1001.0, 0.009710947938461625
1002.0, 0.017059337369816772
1003.0, 0.02117615387876969
1004.0, 0.03243039382433076
1005.0, 0.027554020506045388
1006.0, 0.016402619959574313
1007.0, 0.030241206391646576
1008.0, 0.020583879435647007
1009.0, 0.03456723213598166
1010.0, 0.03891321294152745
1011.0, 0.014762374253251446
1012.0, 0.005192955848583484
1013.0, 0.020183990634537352
1014.0, 0.02611334198745183
1015.0, 0.016533190853237737
1016.0, 0.015892823774116896
1017.0, 0.014319063164813555
1018.0, 0.005465642431696497
1019.0, 0.020693038454820567
1020.0, 0.012521268291041752
1021.0, 0.0018770182692566457
1022.0, 0.0025390548498090216
1023.0, 0.002876912611155297
1024.0, 0.01042781812311119
1025.0, 0.02417180164967988
1026.0, 0.02188509125865569
1027.0, 0.02714536354189775
1028.0, 0.012169854702576149
1029.0, 0.0132865299000204
1030.0, 0.010680762651527191
1031.0, 0.010293101590657836
1032.0, 0.016742990401055705
1033.0, 0.01458516008424853
1034.0, 0.0053150757995796384
1035.0, 0.014038573245659538
1036.0, 0.009356426563175407
1037.0, 0.024411086601377478
1038.0, 0.018574547427336226
1039.0, 0.015221363505308533
1040.0, 0.020864381741574536
1041.0, 0.022918040582125404
1042.0, 0.019729257262893145
1043.0, 0.017629362799018836
1044.0, 0.031657503605465265
1045.0, 0.02243824008054693
1046.0, 0.01305811800270608
1047.0, 0.03500948710153998
1048.0, 0.02443027629461107
1049.0, 0.017328530207084508
1050.0, 0.025678619643969263
1051.0, 0.02387831015681167
1052.0, 0.024830292294130647
1053.0, 0.003997551770584097
1054.0, 0.008344343089205331
1055.0, 0.03211465715557632
1056.0, 0.015146290011306053
1057.0, 0.02651014086436869
1058.0, 0.022340265198066537
1059.0, 0.01071874257574838
1060.0, 0.017721101839880436
1061.0, 0.011354075227474524
1062.0, 0.008003819979625917
1063.0, 0.001675858872392875
1064.0, 0.015210020619321227
1065.0, 0.004064736672458966
1066.0, 0.0015572950046283153
1067.0, 0.010733596758121598
1068.0, 0.015597947285438523
1069.0, 0.0018225705453191613
1070.0, 0.011866916112073508
1071.0, 0.008147969681506596
1072.0, 0.011932258744279077
1073.0, 0.017809725860366603
1074.0, 0.024361108478523553
1075.0, 0.011833354593238964
1076.0, 0.015606686883864854
1077.0, 0.016711725840513492
1078.0, 0.008325895959194194
1079.0, 0.007796102688016458
1080.0, 0.01510161443857581
1081.0, 0.021598360708313988
1082.0, 0.0038281090292764533
1083.0, 0.01773988177915499
1084.0, 0.016100823187524507
1085.0, 0.02910493780199227
1086.0, 0.024437155042002355
1087.0, 0.023685563073628842
1088.0, 0.02791616709569871
1089.0, 0.020845989286024175
1090.0, 0.025922909203815295
1091.0, 0.02610679932216603
1092.0, 0.023033644536915723
1093.0, 0.027558685512147407
1094.0, 0.02833409742634839
1095.0, 0.025459762186571054
1096.0, 0.00882345038310585
1097.0, 0.004344909405050853
1098.0, 0.01731380220665301
1099.0, 0.016272231992503196
1100.0, 0.0026907457849613243
1101.0, 0.010994534106589453
1102.0, 0.01837029368115158
1103.0, 0.01066059728269217
1104.0, 0.01745673295151487
1105.0, 0.012182424928558444
1106.0, 0.010144499488747401
1107.0, 0.015574499814682693
1108.0, 0.012125048825839594
1109.0, 0.008436372116331628
1110.0, 0.01649924399752576
1111.0, 0.007030822997340417
1112.0, 0.01870851106542075
1113.0, 0.030464164105059467
1114.0, 0.012341880265622534
1115.0, 0.02041089013170933
1116.0, 0.02179673738144786
1117.0, 0.021471328418302307
1118.0, 0.017534851790558012
1119.0, 0.002975356001064437
1120.0, 0.01360290350280938
1121.0, 0.02722679793297301
1122.0, 0.016895277732626255
1123.0, 0.022045505120994003
1124.0, 0.025639115582055262
1125.0, 0.0438504488679095
1126.0, 0.03635757237322435
1127.0, 0.023894432266192655
1128.0, 0.027647916373140995
1129.0, 0.03449879691999818
1130.0, 0.02064827340320202
1131.0, 0.002922796730136455
1132.0, 0.020894532391567407
1133.0, 0.019746737107527553
1134.0, 0.014262641315793913
1135.0, 0.0016181922163698093
1136.0, 0.008160143426389141
1137.0, 0.02998597600719618
1138.0, 0.03531411340813298
1139.0, 0.017186703830261486
1140.0, 0.0043677687208459335
1141.0, 0.01079529228973251
1142.0, 0.0029937015157332414
1143.0, 0.01691878427397281
1144.0, 0.020011034654900436
1145.0, 0.005542410024219908
1146.0, 0.015868022728182062
1147.0, 0.01580261354143256
1148.0, 0.013652777814726956
1149.0, 0.02221687651828294
1150.0, 0.023832528893641663
1151.0, 0.013505569348331824
1152.0, 0.006502006212308085
1153.0, 0.0014884168768752146
1154.0, 0.011946116492496772
1155.0, 0.0028522781363277743
1156.0, 0.010282827585057773
1157.0, 0.013512263116750679
1158.0, 0.023034807470028416
1159.0, 0.02072004285440176
1160.0, 0.004286066726407777
1161.0, 0.015056813740554845
1162.0, 0.0388199590075519
1163.0, 0.02862075288961643
1164.0, 0.041991684630856875
1165.0, 0.007823136319749421
1166.0, 0.01289537762132498
1167.0, 0.021726918881523824
1168.0, 0.01672562058883049
1169.0, 0.017102222958891352
1170.0, 0.024944186045435777
1171.0, 0.03092774719102781
1172.0, 0.02568590183184159
1173.0, 0.02034252966976614
1174.0, 0.02852166211190145
1175.0, 0.02579751585954145
1176.0, 0.03237519277227595
1177.0, 0.020288747148127402
1178.0, 0.006791967221982306
1179.0, 0.011579838459868626
1180.0, 0.036503966825617525
1181.0, 0.021707892770389113
1182.0, 0.013698551270389547
1183.0, 0.02370061416993722
1184.0, 0.023151177322936832
1185.0, 0.021175563334123643
1186.0, 0.011279978762141341
1187.0, 0.003991781943424667
1188.0, 0.011784942567954329
1189.0, 0.012069482897661953
1190.0, 0.009429932343659466
1191.0, 0.01122620023188213
1192.0, 0.019729103320920493
1193.0, 0.01596869462485605
1194.0, 0.027645788630095265
1195.0, 0.04017729227475351
1196.0, 0.022183800144361457
1197.0, 0.018014560315140104
1198.0, 0.024269061641341336
1199.0, 0.025538789106251472
1200.0, 0.021630027179930157
1201.0, 0.01842180994438994
1202.0, 0.032174214551653584
1203.0, 0.030031451690995203
1204.0, 0.025961181943515387
1205.0, 0.01572341294632552
1206.0, 0.016719238700372334
1207.0, 0.03416677436821484
1208.0, 0.03853238771575536
1209.0, 0.023667179805700236
1210.0, 0.019489617358754867
1211.0, 0.02243319228575341
1212.0, 0.024886058799026386
1213.0, 0.03314439094248193
1214.0, 0.02312150442057145
1215.0, 0.008774669915305441
1216.0, 0.010792226436500093
1217.0, 0.023601463613472137
1218.0, 0.022718270904131654
1219.0, 0.010791833861687401
1220.0, 0.006721775435030022
1221.0, 0.004791461667009798
1222.0, 0.005625824942943586
1223.0, 0.016785177301423367
1224.0, 0.0010101731844741177
1225.0, 0.017121261659957164
1226.0, 0.0080286619843215
1227.0, 0.023351253658106703
1228.0, 0.01628839930831544
1229.0, 0.01668908490579252
1230.0, 0.01602652812583131
1231.0, 0.0077270883319563825
1232.0, 0.017737886886419654
1233.0, 0.03556108061018944
1234.0, 0.03254129583676993
1235.0, 0.027770935926922286
1236.0, 0.03191221579396494
1237.0, 0.0289184347992093
1238.0, 0.026347345309058273
1239.0, 0.02369366697760351
1240.0, 0.030692040460787044
1241.0, 0.024069532082408387
1242.0, 0.013522116796271789
1243.0, 0.018668122533792665
1244.0, 0.0321676753037961
1245.0, 0.029257171148636355
1246.0, 0.01329943253841238
1247.0, 0.013775650515507597
1248.0, 0.011848755143435056
1249.0, 0.024629673884830255
1250.0, 0.009642166541436849
1251.0, 0.009436607745341543
1252.0, 0.02414788206129106
1253.0, 0.028402074750836122
1254.0, 0.023656460390977605
1255.0, 0.01828308455458772
1256.0, 0.0176270137643859
1257.0, 0.0098157185423682
1258.0, 0.0012978087178593624
1259.0, 0.011715507351296563
1260.0, 0.025460572905567885
1261.0, 0.016280118057369928
1262.0, 0.013133027329497832
1263.0, 0.0005605121599576828
1264.0, 0.0017985501515767558
1265.0, 0.01002606002411334
1266.0, 0.009449687694895193
1267.0, 0.01251651233580866
1268.0, 0.012028945462575543
1269.0, 0.012480753682619077
1270.0, 0.022434620910777366
1271.0, 0.02212760691065896
1272.0, 0.013660863492421805
1273.0, 0.02509768147440956
1274.0, 0.029671706584919126
1275.0, 0.021548111697358242
1276.0, 0.01903428755397477
1277.0, 0.037056060635009685
1278.0, 0.020515934546053674
1279.0, 0.023997296225859333
1280.0, 0.0212229824520838
1281.0, 0.03119126039874511
1282.0, 0.03343103671432986
1283.0, 0.017767208639324763
1284.0, 0.023270262571867404
1285.0, 0.02374280332230238
1286.0, 0.012605031577084177
1287.0, 0.01446540610167634
1288.0, 0.009985735919759226
1289.0, 0.01247628775746312
1290.0, 0.030099770889688647
1291.0, 0.006488397949582888
1292.0, 0.013606196917292986
1293.0, 0.009638502147653152
1294.0, 0.0039938232430767745
1295.0, 0.0015875130772361938
1296.0, 0.013773522570920236
1297.0, 0.014552138768719313
1298.0, 0.0027919945543949244
1299.0, 0.00454648494259261
1300, 0.0
1301, 0.0
1302, 0.0
1303, 0.0
1304, 0.0
1305, 0.0
1306, 0.0
1307, 0.0
1308, 0.0
1309, 0.0
1310, 0.0
1311, 0.0
1312, 0.0
1313, 0.0
1314, 0.0
1315, 0.0
1316, 0.0
1317, 0.0
1318, 0.0
1319, 0.0
1320, 0.0
1321, 0.0
1322, 0.0
1323, 0.0
1324, 0.0
1325, 0.0
1326, 0.0
1327, 0.0
1328, 0.0
1329, 0.0
1330, 0.0
1331, 0.0
1332, 0.0
1333, 0.0
1334, 0.0
1335, 0.0
1336, 0.0
1337, 0.0
1338, 0.0
1339, 0.0
1340, 0.0
1341, 0.0
1342, 0.0
1343, 0.0
1344, 0.0
1345, 0.0
1346, 0.0
1347, 0.0
1348, 0.0
1349, 0.0
1350, 0.0
1351, 0.0
1352, 0.0
1353, 0.0
1354, 0.0
1355, 0.0
1356, 0.0
1357, 0.0
1358, 0.0
1359, 0.0
1360, 0.0
1361, 0.0
1362, 0.0
1363, 0.0
1364, 0.0
1365, 0.0
1366, 0.0
1367, 0.0
1368, 0.0
1369, 0.0
1370, 0.0
1371, 0.0
1372, 0.0
1373, 0.0
1374, 0.0
1375, 0.0
1376, 0.0
1377, 0.0
1378, 0.0
1379, 0.0
1380, 0.0
1381, 0.0
1382, 0.0
1383, 0.0
1384, 0.0
1385, 0.0
1386, 0.0
1387, 0.0
1388, 0.0
1389, 0.0
1390, 0.0
1391, 0.0
1392, 0.0
1393, 0.0
1394, 0.0
1395, 0.0
1396, 0.0
1397, 0.0
1398, 0.0
1399, 0.0
1400, 0.0
1401, 0.0
1402, 0.0
1403, 0.0
1404, 0.0
1405, 0.0
1406, 0.0
1407, 0.0
1408, 0.0
1409, 0.0
1410, 0.0
1411, 0.0
1412, 0.0
1413, 0.0
1414, 0.0
1415, 0.0
1416, 0.0
1417, 0.0
1418, 0.0
1419, 0.0
1420, 0.0
1421, 0.0
1422, 0.0
1423, 0.0
1424, 0.0
1425, 0.0
1426, 0.0
1427, 0.0
1428, 0.0
1429, 0.0
1430, 0.0
1431, 0.0
1432, 0.0
1433, 0.0
1434, 0.0
1435, 0.0
1436, 0.0
1437, 0.0
1438, 0.0
1439, 0.0
1440, 0.0
1441, 0.0
1442, 0.0
1443, 0.0
1444, 0.0
1445, 0.0
1446, 0.0
1447, 0.0
1448, 0.0
1449, 0.0
1450, 0.0
1451, 0.0
1452, 0.0
1453, 0.0
1454, 0.0
1455, 0.0
1456, 0.0
1457, 0.0
1458, 0.0
1459, 0.0
1460, 0.0
1461, 0.0
1462, 0.0
1463, 0.0
1464, 0.0
1465, 0.0
1466, 0.0
1467, 0.0
1468, 0.0
1469, 0.0
1470, 0.0
1471, 0.0
1472, 0.0
1473, 0.0
1474, 0.0
1475, 0.0
1476, 0.0
1477, 0.0
1478, 0.0
1479, 0.0
1480, 0.0
1481, 0.0
1482, 0.0
1483, 0.0
1484, 0.0
1485, 0.0
1486, 0.0
1487, 0.0
1488, 0.0
1489, 0.0
1490, 0.0
1491, 0.0
1492, 0.0
1493, 0.0
1494, 0.0
1495, 0.0
1496, 0.0
1497, 0.0
1498, 0.0
1499, 0.0
1500, 0.0
1501, 0.0
1502, 0.0
1503, 0.0
1504, 0.0
1505, 0.0
1506, 0.0
1507, 0.0
1508, 0.0
1509, 0.0
1510, 0.0
1511, 0.0
1512, 0.0
1513, 0.0
1514, 0.0
1515, 0.0
1516, 0.0
1517, 0.0
1518, 0.0
1519, 0.0
1520, 0.0
1521, 0.0
1522, 0.0
1523, 0.0
1524, 0.0
1525, 0.0
1526, 0.0
1527, 0.0
1528, 0.0
1529, 0.0
1530, 0.0
1531, 0.0
1532, 0.0
1533, 0.0
1534, 0.0
1535, 0.0
1536, 0.0
1537, 0.0
1538, 0.0
1539, 0.0
1540, 0.0
1541, 0.0
1542, 0.0
1543, 0.0
1544, 0.0
1545, 0.0
1546, 0.0
1547, 0.0
1548, 0.0
1549, 0.0
1550, 0.0
1551, 0.0
1552, 0.0
1553, 0.0
1554, 0.0
1555, 0.0
1556, 0.0
1557, 0.0
1558, 0.0
1559, 0.0
1560, 0.0
1561, 0.0
1562, 0.0
1563, 0.0
1564, 0.0
1565, 0.0
1566, 0.0
1567, 0.0
1568, 0.0
1569, 0.0
1570, 0.0
1571, 0.0
1572, 0.0
1573, 0.0
1574, 0.0
1575, 0.0
1576, 0.0
1577, 0.0
1578, 0.0
1579, 0.0
1580, 0.0
1581, 0.0
1582, 0.0
1583, 0.0
1584, 0.0
1585, 0.0
1586, 0.0
1587, 0.0
1588, 0.0
1589, 0.0
1590, 0.0
1591, 0.0
1592, 0.0
1593, 0.0
1594, 0.0
1595, 0.0
1596, 0.0
1597, 0.0
1598, 0.0
1599, 0.0
