30, 0.0
31, 0.0
32, 0.0
33, 0.0
34, 0.0
35, 0.0
36, 0.0
37, 0.0
38, 0.0
39, 0.0
40, 0.0
41, 0.0
42, 0.0
43, 0.0
44, 0.0
45, 0.0
46, 0.0
47, 0.0
48, 0.0
49, 0.0
50, 0.0
51, 0.0
52, 0.0
53, 0.0
54, 0.0
55, 0.0
56, 0.0
57, 0.0
58, 0.0
59, 0.0
60, 0.0
61, 0.0
62, 0.0
63, 0.0
64, 0.0
65, 0.0
66, 0.0
67, 0.0
68, 0.0
69, 0.0
70, 0.0
71, 0.0
72, 0.0
73, 0.0
74, 0.0
75, 0.0
76, 0.0
77, 0.0
78, 0.0
79, 0.0
80, 0.0
81, 0.0
82, 0.0
83, 0.0
84, 0.0
85, 0.0
86, 0.0
87, 0.0
88, 0.0
89, 0.0
90, 0.0
91, 0.0
92, 0.0
93, 0.0
94, 0.0
95, 0.0
96, 0.0
97, 0.0
98, 0.0
99, 0.0
100, 0.0
101, 0.0
102, 0.0
103, 0.0
104, 0.0
105, 0.0
106, 0.0
107, 0.0
108, 0.0
109, 0.0
110, 0.0
111, 0.0
112, 0.0
113, 0.0
114, 0.0
115, 0.0
116, 0.0
117, 0.0
118, 0.0
119, 0.0
120, 0.0
121, 0.0
122, 0.0
123, 0.0
124, 0.0
125, 0.0
126, 0.0
127, 0.0
128, 0.0
129, 0.0
130, 0.0
131, 0.0
132, 0.0
133, 0.0
134, 0.0
135.0, 0.0001335173393168741
136.0, 0.005400047445858248
137.0, 0.016226584195960903
138.0, 0.025901438555469274
139.0, 0.03673874134418372
140.0, 0.050710882628028836
141.0, 0.06584452399393462
142.0, 0.07501594340619441
143.0, 0.08052787078575432
144.0, 0.07991441851496899
145.0, 0.07428937144294605
146.0, 0.06839677324141583
147.0, 0.0634248123333787
148.0, 0.056445498714028895
149.0, 0.05023818144116044
150.0, 0.04833014242088612
151.0, 0.0446505408275045
152.0, 0.03842764296782987
153.0, 0.0343354908801785
154.0, 0.03342507743693449
155.0, 0.028015834645462655
156.0, 0.01973210241052909
157.0, 0.014874286956130668
158.0, 0.012977795458943443
159.0, 0.006459706325984928
160.0, 0.0011499539333487603
161.0, 0.0019225216839765138
162.0, 0.002607734548131743
163.0, 0.0013883279213775792
164.0, 0.0012108784663765228
165.0, 0.0022799162347118714
166.0, 0.0026499867227748803
167.0, 0.00014491055846298033
168.0, 0.0077177596767171765
169.0, 0.01303542749134945
170.0, 0.017162062152295925
171.0, 0.022669122308907882
172.0, 0.03369283974253399
173.0, 0.04527123751050238
174.0, 0.055379320936196956
175.0, 0.06291433119903087
176.0, 0.0688545541070115
177.0, 0.08220559286698904
178.0, 0.0940458241999347
179.0, 0.1074337190975852
180.0, 0.12826659988976183
181.0, 0.15158466665921277
182.0, 0.1785968257614069
183.0, 0.21176651936674684
184.0, 0.2505225717445771
185.0, 0.2897200728696003
186.0, 0.33024808437420244
187.0, 0.36004797761071167
188.0, 0.36086204461359095
189.0, 0.3173379512998144
190.0, 0.23725990566487976
191.0, 0.15891697222553197
192.0, 0.10119288334682691
193.0, 0.06500915136163646
194.0, 0.04419209829364253
195.0, 0.03230233622331748
196.0, 0.022123604061003933
197.0, 0.012457623585986522
198.0, 0.01019480868463738
199.0, 0.00599563835270249
200.0, 0.0026292823837123246
201.0, 0.0012582780887587675
202.0, 0.00025932296470358517
203.0, 0.0010008206924597876
204.0, 0.004095030971216339
205.0, 0.005088606207573252
206.0, 0.0017989490461110676
207.0, 0.0012151371283883495
208.0, 0.0004850628314425919
209.0, 0.0009863446715491753
210.0, 0.00031055969491260475
211.0, 0.0011203703760479424
212.0, 0.001161989960798039
213.0, 0.0011085805079334241
214.0, 0.0009264728721319799
215.0, 0.0037291231088420525
216.0, 0.0015738543968837446
217.0, 0.0045021423288952745
218.0, 0.009932632121845184
219.0, 0.013035186676901383
220.0, 0.01247538614766225
221.0, 0.014019379914146235
222.0, 0.018864715235290305
223.0, 0.023998313993087758
224.0, 0.026042498772937236
225.0, 0.03241659038739242
226.0, 0.036955478163163955
227.0, 0.04224610359841158
228.0, 0.0501077127495385
229.0, 0.05538833641685794
230.0, 0.06543444389809641
231.0, 0.07873042493919291
232.0, 0.09535236117969471
233.0, 0.11696391198010951
234.0, 0.13549039540489974
235.0, 0.1605989651923229
236.0, 0.19214629589054494
237.0, 0.22617216070410825
238.0, 0.25781352250839873
239.0, 0.2953863943470476
240.0, 0.3340412389926975
241.0, 0.37712779483458647
242.0, 0.4365042413397148
243.0, 0.502356608529765
244.0, 0.5803216707311203
245.0, 0.6648789058973639
246.0, 0.7460984073610635
247.0, 0.8184492056922535
248.0, 0.9018931723030811
249.0, 0.9737487560370511
250.0, 0.9976891687008036
251.0, 0.9362511826022104
252.0, 0.8079999682872999
253.0, 0.6562362282839813
254.0, 0.5126195152918515
255.0, 0.4001260926276965
256.0, 0.33014191309655333
257.0, 0.27891586657959416
258.0, 0.24248110632118938
259.0, 0.2197184210966876
260.0, 0.2083548106573242
261.0, 0.19791085265467953
262.0, 0.18972314063891244
263.0, 0.1855548109605189
264.0, 0.1846271513749804
265.0, 0.17853434220199588
266.0, 0.1790765701923864
267.0, 0.17966530719912696
268.0, 0.18029093606220392
269.0, 0.18670313501480376
270.0, 0.18883809735530738
271.0, 0.19141993507830674
272.0, 0.19778653739649607
273.0, 0.2042706743959876
274.0, 0.20200639012300511
275.0, 0.20534122782527978
276.0, 0.20752522321809377
277.0, 0.2073268555821992
278.0, 0.20861642905796549
279.0, 0.21233939827093556
280.0, 0.21426673750498368
281.0, 0.21061145687069302
282.0, 0.20470065900753345
283.0, 0.20391337645384153
284.0, 0.20451391924055376
285.0, 0.20571211576581275
286.0, 0.20438589543186625
287.0, 0.19944448416944985
288.0, 0.1981406146900351
289.0, 0.19513507602449717
290.0, 0.19392828979732457
291.0, 0.19510174052917698
292.0, 0.19589043234481354
293.0, 0.19880844624821645
294.0, 0.20064368345748254
295.0, 0.19699239414196687
296.0, 0.19042542131786233
297.0, 0.1906182847525347
298.0, 0.18868813175724833
299.0, 0.18418427413609323
300.0, 0.1786053395518382
301.0, 0.17180685907703266
302.0, 0.16014848885808744
303.0, 0.15008946203119694
304.0, 0.14194662160073576
305.0, 0.13251144636610487
306.0, 0.11856197172175427
307.0, 0.10745732719595157
308.0, 0.09477197620496285
309.0, 0.08334027588880445
310.0, 0.07487722197680902
311.0, 0.0635620301877171
312.0, 0.04938152227665054
313.0, 0.0394380117688959
314.0, 0.034977513193867306
315.0, 0.03242408259320266
316.0, 0.027628743503426433
317.0, 0.018561648472452067
318.0, 0.01218538968613286
319.0, 0.01068984077982971
320.0, 0.010474984574977742
321.0, 0.0059998312507548055
322.0, 0.003457842176011208
323.0, 0.002315148284418841
324.0, 0.0009950493447235653
325.0, 0.000872877320655008
326.0, 0.002683823382711133
327.0, 0.004168673210900791
328.0, 0.00402129180885667
329.0, 0.004330337911801293
330.0, 0.0002977795189579754
331.0, 0.0007146840031700995
332.0, 0.003435729036239239
333.0, 0.004759857336811198
334.0, 0.002289697542375365
335.0, 0.0003982078468883658
336.0, 0.002720409994365049
337.0, 0.001918546949884717
338.0, 0.001450931363895822
339.0, 0.0039019486346639166
340.0, 0.003469012274575696
341.0, 0.0064720469803679495
342.0, 0.00454953991377809
343.0, 0.003280029373806845
344.0, 0.0065359013556016525
345.0, 0.007936260157934494
346.0, 0.005676237259305983
347.0, 0.0049078061858545356
348.0, 0.009387179235302398
349.0, 0.009992463134629289
350.0, 0.008221876149436902
351.0, 0.009103317605355253
352.0, 0.010886647832295315
353.0, 0.00979889864432455
354.0, 0.013152232057523128
355.0, 0.014007884353465179
356.0, 0.01377060618101535
357.0, 0.01414586129241017
358.0, 0.014629975015781761
359.0, 0.01860196226270835
360.0, 0.022956684634747808
361.0, 0.026098337222317965
362.0, 0.02941822953519539
363.0, 0.03608665175647968
364.0, 0.040047854600126505
365.0, 0.04529365894707399
366.0, 0.050395257751882486
367.0, 0.053435516483160535
368.0, 0.05691246484549516
369.0, 0.061182003496248694
370.0, 0.057342313998783895
371.0, 0.05246210221916481
372.0, 0.05493373150836103
373.0, 0.04447930509764444
374.0, 0.03615270718054381
375.0, 0.03251219629846523
376.0, 0.029504138206888936
377.0, 0.022694759341239556
378.0, 0.017006479727785188
379.0, 0.013787607347449068
380.0, 0.011884333323093786
381.0, 0.0121704718938891
382.0, 0.015277718574999464
383.0, 0.013040195804260829
384.0, 0.008375366362643235
385.0, 0.006994718556328739
386.0, 0.008108389747862536
387.0, 0.005899724821306994
388.0, 0.004151236231179101
389.0, 0.004459205297872068
390.0, 0.005828472235589638
391.0, 0.005527864107736155
392.0, 0.002056054032252218
393.0, 0.0026740553438525418
394.0, 0.0022105336593271742
395.0, 0.0010810470059845936
396.0, 0.0007699260894307313
397.0, 0.0003554337456866198
398.0, 0.0005124269505314184
399.0, 0.0006816260366108408
400.0, 0.00023549804530581398
401.0, 0.0006017814640185092
402.0, 0.003556099136298428
403.0, 0.0042338138724378645
404.0, 0.0013666730777034417
405.0, 0.0010294319262949426
406.0, 0.003896881142410614
407.0, 0.001766937296088858
408.0, 0.00019170851180409478
409.0, 0.0005145669392497287
410.0, 0.0026430393637680637
411.0, 0.0038806101585485745
412.0, 0.0009067432906311844
413.0, 0.0002552906664108923
414.0, 0.003231063421694367
415.0, 0.006413724237934794
416.0, 0.006486489170961559
417.0, 0.004210426158673379
418.0, 0.003802226985492856
419.0, 0.0043458112400350316
420.0, 0.005666347681185616
421.0, 0.007566748705038259
422.0, 0.008651021024559122
423.0, 0.01297476408123556
424.0, 0.014331056917429441
425.0, 0.015036575941929827
426.0, 0.017466120286187443
427.0, 0.018096818537625785
428.0, 0.02058508564853248
429.0, 0.021827117389580913
430.0, 0.023702905054367736
431.0, 0.02875676005602142
432.0, 0.035276942696969175
433.0, 0.04043605565916378
434.0, 0.046230175178329704
435.0, 0.0540040261701046
436.0, 0.06395108729851928
437.0, 0.07568746880137954
438.0, 0.08780904567304448
439.0, 0.10014181236542975
440.0, 0.11246891254530449
441.0, 0.12571266764855824
442.0, 0.14105698427818317
443.0, 0.14775294220758967
444.0, 0.1594147691366533
445.0, 0.1700241522760626
446.0, 0.1766344278762875
447.0, 0.18664294318326702
448.0, 0.18090468311390104
449.0, 0.17247471730604053
450.0, 0.15977564894101387
451.0, 0.14157952711682353
452.0, 0.12275188499916045
453.0, 0.10565703327156102
454.0, 0.09108113689647931
455.0, 0.07708713913659793
456.0, 0.06498039649358614
457.0, 0.05773931883471872
458.0, 0.05126068294539901
459.0, 0.044642650420960106
460.0, 0.039159386632854634
461.0, 0.03432979541297809
462.0, 0.029286050008992277
463.0, 0.026315143631767006
464.0, 0.027268653370999697
465.0, 0.024145708885776496
466.0, 0.019449719789460994
467.0, 0.019293627697220216
468.0, 0.018324108382453796
469.0, 0.016406450443618995
470.0, 0.01493790996781985
471.0, 0.012429917444316048
472.0, 0.00891437044042811
473.0, 0.009831531906539952
474.0, 0.013894046793552007
475.0, 0.01296276967883659
476.0, 0.009892896224177205
477.0, 0.009273290141054142
478.0, 0.009445278730934389
479.0, 0.00738278959428316
480.0, 0.007386423581338955
481.0, 0.006972164328464957
482.0, 0.007404016419016344
483.0, 0.013417810769609795
484.0, 0.007981532129795852
485.0, 0.00731589263959459
486.0, 0.008150800700038917
487.0, 0.007228691699194593
488.0, 0.006547434246521594
489.0, 0.006608732410321079
490.0, 0.0021298597560206302
491.0, 0.0018675790160885817
492.0, 0.006382687932094703
493.0, 0.008576934105557448
494.0, 0.003234335535242398
495.0, 0.0036576855954208007
496.0, 0.0044970300470449
497.0, 0.004252851980183872
498.0, 0.0028099261767011783
499.0, 0.0021462228768028553
500.0, 0.001148321935082993
501.0, 0.00455679457183961
502.0, 0.004294176392431919
503.0, 0.0007890777947221647
504.0, 0.0007955113370851284
505.0, 0.002544114395148302
506.0, 0.0029270310938394363
507.0, 0.003701196662243387
508.0, 0.004592678014415995
509.0, 0.0026619752110506947
510.0, 0.0028234459827146115
511.0, 0.004103263844549521
512.0, 0.004473236426711979
513.0, 0.003273446218173182
514.0, 0.001801496776111022
515.0, 0.00236814389073203
516.0, 0.0035960406700967823
517.0, 0.0014130195793718961
518.0, 0.0009882093948067666
519.0, 0.00026715724738486223
520.0, 0.005288389009704407
521.0, 0.005023442147165225
522.0, 0.0032109657360797073
523.0, 0.004309408831869686
524.0, 0.0059415852394077125
525.0, 0.00332902461394258
526.0, 0.0009814514024157287
527.0, 0.0015408292251537594
528.0, 0.0036270300618484754
529.0, 0.003929773301987786
530.0, 0.0029626604123441694
531.0, 0.005592573960736583
532.0, 0.003812092918546123
533.0, 0.0018731994327540178
534.0, 0.0005133624817173655
535.0, 0.000897160889281326
536.0, 0.0033881396145295814
537.0, 0.0007905121296963146
538.0, 0.0015491226433293958
539.0, 0.0007709786780121415
540.0, 0.0016207959916046749
541.0, 0.00036689787160770044
542.0, 0.0008243638817809621
543.0, 0.0009437900028580635
544.0, 0.0001947816272651214
545.0, 0.0004438731965232624
546.0, 0.0015943903174810712
547.0, 0.003031579323854858
548.0, 0.0036011100539990078
549.0, 0.0014273525909208802
550.0, 0.0005255662247385404
551.0, 0.0004657877324180891
552.0, 0.0009483545567310019
553.0, 0.0001314175587763772
554.0, 0.002199261664939746
555.0, 0.0021302923911049433
556.0, 0.0012846574980403703
557.0, 0.002935054170327115
558.0, 0.005935373426473901
559.0, 0.002423020533581625
560.0, 0.004389489292566026
561.0, 0.002978792321074436
562.0, 0.0003653139438139501
563.0, 0.0005821430094578078
564.0, 0.001987523633527242
565.0, 0.0039658497347321384
566.0, 0.003152384455795989
567.0, 0.0010962764805850333
568.0, 0.0007134833364343916
569.0, 0.0023901464731003724
570.0, 0.0028328248989522016
571.0, 0.000774594413137373
572.0, 0.0014485026508841464
573.0, 0.0027836917334250295
574.0, 0.0021671866837668385
575.0, 0.0038135279068300908
576.0, 0.00043816051886393656
577.0, 0.000931868221329128
578.0, 0.002364176119537318
579.0, 0.0005469508518550623
580.0, 0.000567844884631791
581.0, 0.004154652782719835
582.0, 0.0034225955894269426
583.0, 0.002938324986842583
584.0, 0.0024482723107022374
585.0, 0.000888681282404803
586.0, 0.0009672722039474424
587.0, 0.0019072550818307172
588.0, 0.002976537063301509
589.0, 0.0012901047538914732
590.0, 0.000763222165903399
591.0, 0.0023887268390747184
592.0, 0.002104416273347134
593.0, 0.0007642161664752972
594.0, 0.00387979880079452
595.0, 0.002509464122003317
596.0, 0.0009320839790254263
597.0, 0.0036492976092629414
598.0, 0.004241599860885253
599.0, 0.0012249729541196472
600.0, 0.002705962800857439
601.0, 0.004718887504645546
602.0, 0.0035931297726220263
603.0, 0.0038788416554939283
604.0, 0.0061681712052478735
605.0, 0.001938068505794928
606.0, 0.0012341074249114638
607.0, 0.0028655028895634015
608.0, 0.0010148162489106707
609.0, 0.0008484741720707575
610.0, 0.0026852949381753624
611.0, 0.004692396873210053
612.0, 0.004623831367391615
613.0, 0.0037251626234927997
614.0, 0.002872554718225267
615.0, 0.003644719938694129
616.0, 0.004272993633366573
617.0, 0.0019513008190247842
618.0, 0.0026305460616827723
619.0, 0.0059024371702943714
620.0, 0.00397071235563024
621.0, 0.0005042130540876099
622.0, 0.0004704100048578035
623.0, 0.0015926228992227788
624.0, 0.0035886859550443937
625.0, 0.002569264548059438
626.0, 0.001420328236685841
627.0, 0.00012846560389353086
628.0, 0.002247696548392186
629.0, 0.004263884066521502
630.0, 0.005572040474096487
631.0, 0.004819305639065972
632.0, 0.0021381664033791855
633.0, 0.005285499193051441
634.0, 0.0049730516598378615
635.0, 0.004391284868352344
636.0, 0.0043894901919052124
637.0, 0.003276589727894442
638.0, 0.0029495100198587815
639.0, 0.004974894077184853
640.0, 0.006573605124289291
641.0, 0.006445622604058842
642.0, 0.005084744678514848
643.0, 0.003353960740856805
644.0, 0.0012765761023349215
645.0, 0.0011199517729677364
646.0, 0.0009453523978750733
647.0, 0.003975278559415707
648.0, 0.00731983435392133
649.0, 0.005339947866957475
650.0, 0.0018976223215563732
651.0, 0.005025799647453962
652.0, 0.00572068961130956
653.0, 0.005009819618062291
654.0, 0.0038143876201581217
655.0, 0.002162393232727096
656.0, 0.005939914799915041
657.0, 0.0038562193970837853
658.0, 0.003467759729793552
659.0, 0.0054701259820154014
660.0, 0.0055969960559433376
661.0, 0.002545129447340681
662.0, 0.002165374251451966
663.0, 0.003190959890633842
664.0, 0.005258703348256445
665.0, 0.004501841863223565
666.0, 0.0031427728071956734
667.0, 0.005474728117005722
668.0, 0.001599650565983075
669.0, 0.0024676226051977713
670.0, 0.005507435172407837
671.0, 0.0043576683704957125
672.0, 0.0013914525939518738
673.0, 0.0024032864429553765
674.0, 0.0024973133039858917
675.0, 0.004933954751366792
676.0, 0.004968054321167527
677.0, 0.00518877173303734
678.0, 0.0065105338587880925
679.0, 0.007077086544547164
680.0, 0.007065263123883559
681.0, 0.004926648899001305
682.0, 0.007566711831701897
683.0, 0.010284682385753597
684.0, 0.01006333461823679
685.0, 0.009192908766549343
686.0, 0.010361130539070977
687.0, 0.00631821386304431
688.0, 0.006339431130870477
689.0, 0.00976991642706885
690.0, 0.013440796538134146
691.0, 0.015238703843502087
692.0, 0.013328182376833893
693.0, 0.010878254719689263
694.0, 0.014880112881853227
695.0, 0.017192107679277098
696.0, 0.01765439063667151
697.0, 0.018669110452123057
698.0, 0.018509073223738914
699.0, 0.021897060129797478
700.0, 0.021354119013901704
701.0, 0.018869848983293663
702.0, 0.018828782478037147
703.0, 0.020570038319401057
704.0, 0.020201703041096662
705.0, 0.020056347692487656
706.0, 0.01865339838120835
707.0, 0.01791212334036094
708.0, 0.01790889316048659
709.0, 0.018315079510641107
710.0, 0.017738674244040586
711.0, 0.012492366538720602
712.0, 0.010392502037649895
713.0, 0.010251139886918099
714.0, 0.012115747044550703
715.0, 0.012527178315842725
716.0, 0.008347008656348005
717.0, 0.005266200411838013
718.0, 0.006969594197757757
719.0, 0.0067793117137317175
720.0, 0.00602934011566751
721.0, 0.006265119938987903
722.0, 0.005819459670362912
723.0, 0.0012783568842380001
724.0, 0.002998694696064042
725.0, 0.0046481506733177065
726.0, 0.004606102050589284
727.0, 0.0032974657169973207
728.0, 0.0013591221959077418
729.0, 7.653606833197582e-05
730.0, 0.0013599258072489722
731.0, 0.0023928185103322627
732.0, 0.0024423521812238437
733.0, 0.00329959174935698
734.0, 0.005508662255050465
735.0, 0.006424727913329073
736.0, 0.0017271243555270546
737.0, 0.0019739210285068384
738.0, 0.0019254029179100018
739.0, 0.0031209501333468847
740.0, 0.0019363037768426355
741.0, 0.0017024648806086163
742.0, 0.0006110736553400494
743.0, 0.0011570102688126074
744.0, 0.0013127375957581071
745.0, 0.004240646306937138
746.0, 0.0034356887262009875
747.0, 0.0014441798374805943
748.0, 0.0029845062251456153
749.0, 0.004068215049617433
750.0, 0.0013125206379210593
751.0, 0.004939542714227213
752.0, 0.004783630028433096
753.0, 0.0007964615318142429
754.0, 0.0013175480761209184
755.0, 0.0048554545398180205
756.0, 0.001862522388310397
757.0, 0.0056913995800456875
758.0, 0.0035927494970799763
759.0, 0.0020573183160991705
760.0, 0.00440286835486216
761.0, 0.0044087351314922
762.0, 0.002566169282156697
763.0, 0.005278595201588959
764.0, 0.004585113997196315
765.0, 0.0033395518800970916
766.0, 0.0025289885013426465
767.0, 0.0009853632342691544
768.0, 0.00042097602207439466
769.0, 0.0005901697867804776
770.0, 0.0033669311135181706
771.0, 0.004374025767278046
772.0, 0.0019184497850817722
773.0, 0.0016464337231746288
774.0, 0.006277544321308113
775.0, 0.0062702353903382425
776.0, 0.001549276925950428
777.0, 0.0010368327672688263
778.0, 0.0017083764761472873
779.0, 0.003594358064230482
780.0, 0.0024727114079388765
781.0, 0.0018000629914978878
782.0, 0.00015275213844391644
783.0, 0.003444634094669101
784.0, 0.0017815770547489982
785.0, 0.0004267453478442654
786.0, 0.00231145977758361
787.0, 0.004109746306247679
788.0, 0.003348622175298394
789.0, 0.003790207714568492
790.0, 0.0003382296474279431
791.0, 0.0017519463465763187
792.0, 0.0026626293159956226
793.0, 0.003369147746249026
794.0, 0.006908422812909572
795.0, 0.006550935545797758
796.0, 0.003461885378824517
797.0, 0.004359081154271455
798.0, 0.001957657124258145
799.0, 0.001313077924449538
800.0, 0.003769550455506509
801.0, 0.004158888452751295
802.0, 0.003998351370146929
803.0, 0.00034189086328110916
804.0, 0.003871137161179671
805.0, 0.0032314271911438306
806.0, 0.0009140705494371339
807.0, 0.0029653347320537683
808.0, 0.004620682228908456
809.0, 0.0012524636943262919
810.0, 0.003478173110404875
811.0, 0.002642581053624163
812.0, 0.0028192403487735784
813.0, 0.0030758712655150895
814.0, 0.001657780476808232
815.0, 0.0012477147255775568
816.0, 0.004247571909572478
817.0, 0.006475989502622905
818.0, 0.0025416758370624113
819.0, 0.001200368620117671
820.0, 0.002180622158296841
821.0, 0.002282840172464989
822.0, 0.003104330131482719
823.0, 0.004585642550270944
824.0, 0.003765170553157115
825.0, 0.003069412270799913
826.0, 0.004754193145767478
827.0, 0.003664097698997064
828.0, 0.0005342573642707705
829.0, 0.0019333138529150024
830.0, 0.0004033480607859045
831.0, 0.00025248292860081793
832.0, 0.0015533112512023978
833.0, 0.0038682206787168283
834.0, 0.00228187844949629
835.0, 0.0010181596586409782
836.0, 0.0005550097204079226
837.0, 0.0015598757372518755
838.0, 0.002456250674788682
839.0, 0.0009674667157898183
840.0, 0.0008977075616292335
841.0, 0.001382146685111799
842.0, 0.0015970597202371547
843.0, 0.002957115113034367
844.0, 0.003339174769660507
845.0, 0.0007636601902749766
846.0, 0.00038276912661156166
847.0, 0.004116278058531496
848.0, 0.004515179160964275
849.0, 0.0008265014930891382
850.0, 0.0008273644258674892
851.0, 0.0034453458621012834
852.0, 0.0013340403810671322
853.0, 0.002695961457814789
854.0, 0.00406852230757099
855.0, 0.003935939365934477
856.0, 0.002090653315236201
857.0, 0.0002905564305243236
858.0, 0.0015257570734123315
859.0, 0.0014860696143962962
860.0, 0.0027575773611746954
861.0, 0.0008643745780905996
862.0, 0.001328544877788754
863.0, 0.004750575284668257
864.0, 0.005109667887778435
865.0, 0.002483181526915917
866.0, 0.001886830309686574
867.0, 0.0055578035217507555
868.0, 0.0004875877315492121
869.0, 0.0001282723454686935
870.0, 0.0037121833697529444
871.0, 0.005216181306822759
872.0, 0.003755895772144008
873.0, 0.0005013269699039178
874.0, 0.006396414347070167
875.0, 0.005244589731763935
876.0, 0.0020225819597265936
877.0, 0.0016035711620596247
878.0, 0.00376418384628471
879.0, 0.004366139550868168
880.0, 0.000665188698331906
881.0, 0.0007393708381481235
882.0, 0.001041327000683717
883.0, 0.0002715012461197718
884.0, 0.0015671909789238625
885.0, 0.004083439073693777
886.0, 0.005421055505345356
887.0, 0.007154585437573106
888.0, 0.005811544835250459
889.0, 0.005089205771932262
890.0, 0.0026720043311023686
891.0, 0.002650093467232366
892.0, 0.003659092640557568
893.0, 0.004343899943443788
894.0, 0.0058279476849267
895.0, 0.00596366625052212
896.0, 0.0051166858915863865
897.0, 0.0036252165941926076
898.0, 0.0015340149093186891
899.0, 0.0019717552888408154
900.0, 0.0026225679730546253
901.0, 0.0012675664170465869
902.0, 0.0012455408267288753
903.0, 0.003332037786372764
904.0, 0.002106544554297209
905.0, 0.0015406883598296588
906.0, 0.0027669552861047833
907.0, 0.0055743691783646234
908.0, 0.0052155143109783655
909.0, 0.0012741687773475414
910.0, 0.003096561151888114
911.0, 0.00587696185983402
912.0, 0.004174836996633164
913.0, 0.0044505313760212824
914.0, 0.004550104865289194
915.0, 0.0037389319657693256
916.0, 0.0038736558202575157
917.0, 0.004517256697901375
918.0, 0.002903414363512881
919.0, 0.00029350450654588715
920.0, 0.004308243863160054
921.0, 0.004827366482503076
922.0, 0.00441665746081427
923.0, 0.005021957930611429
924.0, 0.003926398715334307
925.0, 0.0018426264846374853
926.0, 0.005475463705923912
927.0, 0.0014629343006528914
928.0, 0.00037047226357963885
929.0, 0.00043683110198847956
930.0, 0.0048218040926935775
931.0, 0.007400110616386002
932.0, 0.005012423571111974
933.0, 0.0030086729594715495
934.0, 0.0032238422221368243
935.0, 0.005909580183919989
936.0, 0.004160560155349643
937.0, 0.004774041641156278
938.0, 0.004661076017709183
939.0, 0.002739075868227374
940.0, 0.0013486994186969403
941.0, 0.00047597197991778136
942.0, 0.0015468857956728462
943.0, 0.0033905250302559368
944.0, 0.00587981154766582
945.0, 0.004651672336898677
946.0, 0.0030321554572361005
947.0, 0.0037895989090607585
948.0, 0.005412787675950623
949.0, 0.005967390908913762
950.0, 0.005380353994290151
951.0, 0.0044997401703284045
952.0, 0.0020165460794187
953.0, 0.0011448820134048144
954.0, 0.0017469383234669665
955.0, 0.0029732641493500247
956.0, 0.0032737921454807726
957.0, 0.001032837966547936
958.0, 0.0002409965285221139
959.0, 0.0022265283367714616
960.0, 0.0016110246081362614
961.0, 0.002481405836911095
962.0, 0.00609843930669316
963.0, 0.005361411732700906
964.0, 0.0037634532297896096
965.0, 0.0038069692755368597
966.0, 0.003619107731186718
967.0, 0.005600064217096238
968.0, 0.004736612506161439
969.0, 0.002414079699060656
970.0, 0.001180387729061939
971.0, 0.002211134044712885
972.0, 0.004606484571831817
973.0, 0.006104586541185181
974.0, 0.004600913849409225
975.0, 0.001656323112955615
976.0, 0.005454793518617497
977.0, 0.0006008202709270388
978.0, 0.002521741280589564
979.0, 0.005191594598112572
980.0, 0.0023141442632752694
981.0, 0.0007921036324227543
982.0, 0.002422412882973628
983.0, 0.0019703488478166756
984.0, 0.0030027199047602936
985.0, 0.0009998584379417859
986.0, 0.00032050019308237765
987.0, 0.0006189253546840296
988.0, 0.0015709745199774415
989.0, 0.004243340438315001
990.0, 0.0029187837990301
991.0, 0.0022030955966880527
992.0, 0.004092870736345482
993.0, 0.0032163028635873794
994.0, 0.002286214590788483
995.0, 0.0024687354616567702
996.0, 0.0049751683321504715
997.0, 0.004726340618326114
998.0, 0.0016617519376115532
999.0, 0.0054259261364096294
1000.0, 0.00481799778506584
1001.0, 0.004121176176436988
1002.0, 0.003127471610033881
1003.0, 0.004798457213734042
1004.0, 0.003612399094884887
1005.0, 0.00422920265580312
1006.0, 0.007305419569384313
1007.0, 0.005216932113431967
1008.0, 0.00459157038045972
1009.0, 0.006334662184745353
1010.0, 0.005197177050850733
1011.0, 0.0038994808331035053
1012.0, 0.005568274615651176
1013.0, 0.004044505737099426
1014.0, 0.003981522642508966
1015.0, 0.00479981501536123
1016.0, 0.004135996430227105
1017.0, 0.004997558569514567
1018.0, 0.003807162434134567
1019.0, 0.005095671965835274
1020.0, 0.004440492362334231
1021.0, 0.0034876399817173665
1022.0, 0.003993480888052843
1023.0, 0.003289267980471639
1024.0, 0.0042266980160036915
1025.0, 0.002689114008202328
1026.0, 0.0029954888954275396
1027.0, 0.0006434242783378489
1028.0, 0.003736206355394651
1029.0, 0.00305576948800572
1030.0, 0.001900356201265294
1031.0, 0.002151057260740011
1032.0, 0.0010858050052960308
1033.0, 0.0010462857627839218
1034.0, 0.0012613254992927298
1035.0, 0.0028539386523481172
1036.0, 0.0023529112433288064
1037.0, 0.0035987335037752717
1038.0, 0.0026091388361830603
1039.0, 0.0026766708661595104
1040.0, 0.003208850797616542
1041.0, 0.0033487065729169052
1042.0, 0.00424304955417218
1043.0, 0.005249149618695359
1044.0, 0.0061656701380279596
1045.0, 0.007016291471480025
1046.0, 0.0021215547287565424
1047.0, 0.006403219292660107
1048.0, 0.005631508663148651
1049.0, 0.0010112214294333644
1050.0, 0.001832934230646378
1051.0, 0.0058321917180038495
1052.0, 0.004307885671782625
1053.0, 0.0004339665233169752
1054.0, 0.0023894738983313343
1055.0, 0.00026885685560878363
1056.0, 0.0009609291065860318
1057.0, 0.0016595867756378805
1058.0, 0.00043352371665032296
1059.0, 0.0008038468787116345
1060.0, 0.0025027583467549797
1061.0, 0.0016576631675827153
1062.0, 0.002010026382033439
1063.0, 0.002897210802550651
1064.0, 0.005712547791276212
1065.0, 0.0016155855333814609
1066.0, 0.003117363672487135
1067.0, 0.004547757784945965
1068.0, 0.004578224813680396
1069.0, 0.004424836614432077
1070.0, 0.0034358864833730187
1071.0, 0.004942922847985724
1072.0, 0.005144237153267916
1073.0, 0.005612329380664466
1074.0, 0.0012642785522548904
1075.0, 0.00036016435935813077
1076.0, 0.0004269206773816624
1077.0, 0.002695013745806933
1078.0, 0.005602783257847807
1079.0, 0.0054434598249901295
1080.0, 0.0043168646334474136
1081.0, 0.005109932085756579
1082.0, 0.004497822783666689
1083.0, 0.004749512967440959
1084.0, 0.005147288115770236
1085.0, 0.00025952618384049594
1086.0, 0.0006240108220411296
1087.0, 0.0023932962220810984
1088.0, 0.0014526137819028733
1089.0, 0.0018487055220299659
1090.0, 0.005689905545136782
1091.0, 0.003863325453919002
1092.0, 0.004627120490601272
1093.0, 0.0013528814277193695
1094.0, 0.000898153130884241
1095.0, 0.003144059547580065
1096.0, 0.0006634719206817425
1097.0, 0.0015324086887715147
1098.0, 0.0047327269920699674
1099.0, 0.003266207948271394
1100.0, 0.00317905804244819
1101.0, 0.0020402590323264007
1102.0, 0.0035685943238790417
1103.0, 0.005821145572603385
1104.0, 0.005358812434892516
1105.0, 0.0031044575987167937
1106.0, 0.002054167456360324
1107.0, 0.0024691398810267155
1108.0, 0.003821493130728265
1109.0, 0.004586921892355493
1110.0, 0.00327480915930098
1111.0, 0.002209483651186238
1112.0, 0.0003264915783867214
1113.0, 0.0032459955057824934
1114.0, 0.004631496311185762
1115.0, 0.00581490126674488
1116.0, 0.003089832793881497
1117.0, 0.003687219729545294
1118.0, 0.004621293966641835
1119.0, 0.0014898712849972188
1120.0, 0.0034353389294846425
1121.0, 0.0034678013917459637
1122.0, 0.0020895004830278003
1123.0, 0.0030565745816602302
1124.0, 0.004990503043080273
1125.0, 0.004275486296185559
1126.0, 0.004683571743296652
1127.0, 0.0048728082313918356
1128.0, 0.0043375597910186555
1129.0, 0.0036842708668537497
1130.0, 0.002294443129606244
1131.0, 0.0012565342600496826
1132.0, 0.00010229069126824108
1133.0, 0.0017915807684627213
1134.0, 0.0021774891123461835
1135.0, 0.0008817734688078697
1136.0, 0.002079482683768138
1137.0, 0.0030246679883950893
1138.0, 0.001512246082072526
1139.0, 0.0023247897272597783
1140.0, 0.00531882995418644
1141.0, 0.005073478564104313
1142.0, 0.008841497813642154
1143.0, 0.005427982713924351
1144.0, 0.0021735350151842036
1145.0, 0.003219413384517375
1146.0, 0.0075433579125022895
1147.0, 0.004737573386986722
1148.0, 0.002278256544443903
1149.0, 0.0032758159981530334
1150.0, 0.002484436089020942
1151.0, 0.0014667199538222547
1152.0, 0.004332928590979448
1153.0, 0.00281129920108497
1154.0, 0.0030644576299610217
1155.0, 0.004899546412348675
1156.0, 0.00373592209188101
1157.0, 0.0005820801520037726
1158.0, 0.0038902278575572587
1159.0, 0.005632523914670657
1160.0, 0.0027366290873339144
1161.0, 0.003387980928676062
1162.0, 0.003874698636995791
1163.0, 0.0017763551954434196
1164.0, 0.0008344677015385576
1165.0, 0.006313733451532037
1166.0, 0.006481325220721148
1167.0, 0.002797725347846907
1168.0, 0.0018898319006552123
1169.0, 0.0027629083986643777
1170.0, 0.001042519580924726
1171.0, 0.0017368080057967696
1172.0, 0.006018603583781722
1173.0, 0.0060266793290600475
1174.0, 0.002286489945058087
1175.0, 0.0018242181190325263
1176.0, 0.00569429800151198
1177.0, 0.0031201294061130105
1178.0, 0.004592914618119559
1179.0, 0.0037920484318109964
1180.0, 0.003628372163243833
1181.0, 0.0017752070306572187
1182.0, 0.0023602588605718053
1183.0, 0.004709966108624238
1184.0, 0.004344914850882564
1185.0, 0.003284588124647812
1186.0, 0.0026804544743434604
1187.0, 0.004567639188105413
1188.0, 0.004673365206355806
1189.0, 0.006114003503709334
1190.0, 0.007832248567361642
1191.0, 0.006458216596848961
1192.0, 0.003911235332025899
1193.0, 0.002470097768619004
1194.0, 0.004399035587654608
1195.0, 0.004000463626214153
1196.0, 0.00046307362770507763
1197.0, 0.003694556903249636
1198.0, 0.0052252101307454606
1199.0, 0.005639717595101523
1200.0, 0.005795141043724865
1201.0, 0.004626516506595044
1202.0, 0.004827814670362624
1203.0, 0.0011003567310014367
1204.0, 0.002096606991536464
1205.0, 0.0034474629810092197
1206.0, 0.004513982285494372
1207.0, 0.0046437001799396575
1208.0, 0.0021732905068406957
1209.0, 0.0018615090165367385
1210.0, 0.0009770383770862454
1211.0, 0.0041844625341297325
1212.0, 0.0018014167465148073
1213.0, 0.0025443211383619005
1214.0, 0.0022464308053576484
1215.0, 0.0046940491972082814
1216.0, 0.005863556087077749
1217.0, 0.003647190054920923
1218.0, 0.0005110007858323084
1219.0, 0.00017192092649266394
1220.0, 0.0025806056484103746
1221.0, 0.0024881202236510815
1222.0, 0.0006870061476165038
1223.0, 0.005900219429310594
1224.0, 0.005024462483977045
1225.0, 0.00560108926784496
1226.0, 0.0024717853954212025
1227.0, 0.0005850184117113542
1228.0, 0.0011597476544362999
1229.0, 0.0008435635184157778
1230.0, 0.0030800772407335976
1231.0, 0.002675492033080241
1232.0, 0.0013305350112493358
1233.0, 0.0028659411498851636
1234.0, 0.0040104278135824145
1235.0, 0.0014847101617182614
1236.0, 0.0010063400583800338
1237.0, 0.005702436332535881
1238.0, 0.002716028002258932
1239.0, 0.0026975494132512722
1240.0, 0.0025352262390633063
1241.0, 0.008873447527719066
1242.0, 0.005427430733486912
1243.0, 0.0031925522999675772
1244.0, 0.008680909545166867
1245.0, 0.006869929847707233
1246.0, 0.000650031455190891
1247.0, 0.0034141165667635693
1248.0, 0.0028092555075984287
1249.0, 0.01007333470688597
1250.0, 0.005641215619049061
1251.0, 0.0056628066897602605
1252.0, 0.005214011762844044
1253.0, 0.0025476210152212504
1254.0, 0.002085144056529819
1255.0, 0.002558788349902828
1256.0, 0.0035872224593895548
1257.0, 0.003931841718922676
1258.0, 0.0031957271826108836
1259.0, 0.0025710818200058716
1260.0, 0.001766398111134519
1261.0, 0.0016374772580965225
1262.0, 0.00369332172367731
1263.0, 0.0009323062220833236
1264.0, 0.003822126952117208
1265.0, 0.004675329695862718
1266.0, 0.0019897542494847226
1267.0, 0.004841832054921754
1268.0, 0.0016298015280391486
1269.0, 0.002948419555690123
1270.0, 0.002080423937795273
1271.0, 0.002772665445353369
1272.0, 0.004770138749751559
1273.0, 0.00014873695598118701
1274.0, 0.005988870403513996
1275.0, 0.006792001750410728
1276.0, 0.0030906070661658592
1277.0, 0.008631092226495527
1278.0, 0.006627422860031861
1279.0, 0.001078578490921515
1280.0, 0.001356191211316946
1281.0, 0.0023716987540607962
1282.0, 0.0008734089451049454
1283.0, 1.2527404293841697e-05
1284.0, 0.0010857048621855003
1285.0, 0.003151456712607582
1286.0, 0.0022102144803077765
1287.0, 0.0015728836946595202
1288.0, 0.005982378837699455
1289.0, 0.0013471447431308303
1290.0, 0.0020855773620083768
1291.0, 0.0034977439303542136
1292.0, 0.0005271490038667812
1293.0, 0.0007448861747155995
1294.0, 0.0005110394941505959
1295.0, 5.7669484166332114e-05
1296, 0.0
1297, 0.0
1298, 0.0
1299, 0.0
1300, 0.0
1301, 0.0
1302, 0.0
1303, 0.0
1304, 0.0
1305, 0.0
1306, 0.0
1307, 0.0
1308, 0.0
1309, 0.0
1310, 0.0
1311, 0.0
1312, 0.0
1313, 0.0
1314, 0.0
1315, 0.0
1316, 0.0
1317, 0.0
1318, 0.0
1319, 0.0
1320, 0.0
1321, 0.0
1322, 0.0
1323, 0.0
1324, 0.0
1325, 0.0
1326, 0.0
1327, 0.0
1328, 0.0
1329, 0.0
1330, 0.0
1331, 0.0
1332, 0.0
1333, 0.0
1334, 0.0
1335, 0.0
1336, 0.0
1337, 0.0
1338, 0.0
1339, 0.0
1340, 0.0
1341, 0.0
1342, 0.0
1343, 0.0
1344, 0.0
1345, 0.0
1346, 0.0
1347, 0.0
1348, 0.0
1349, 0.0
1350, 0.0
1351, 0.0
1352, 0.0
1353, 0.0
1354, 0.0
1355, 0.0
1356, 0.0
1357, 0.0
1358, 0.0
1359, 0.0
1360, 0.0
1361, 0.0
1362, 0.0
1363, 0.0
1364, 0.0
1365, 0.0
1366, 0.0
1367, 0.0
1368, 0.0
1369, 0.0
1370, 0.0
1371, 0.0
1372, 0.0
1373, 0.0
1374, 0.0
1375, 0.0
1376, 0.0
1377, 0.0
1378, 0.0
1379, 0.0
1380, 0.0
1381, 0.0
1382, 0.0
1383, 0.0
1384, 0.0
1385, 0.0
1386, 0.0
1387, 0.0
1388, 0.0
1389, 0.0
1390, 0.0
1391, 0.0
1392, 0.0
1393, 0.0
1394, 0.0
1395, 0.0
1396, 0.0
1397, 0.0
1398, 0.0
1399, 0.0
1400, 0.0
1401, 0.0
1402, 0.0
1403, 0.0
1404, 0.0
1405, 0.0
1406, 0.0
1407, 0.0
1408, 0.0
1409, 0.0
1410, 0.0
1411, 0.0
1412, 0.0
1413, 0.0
1414, 0.0
1415, 0.0
1416, 0.0
1417, 0.0
1418, 0.0
1419, 0.0
1420, 0.0
1421, 0.0
1422, 0.0
1423, 0.0
1424, 0.0
1425, 0.0
1426, 0.0
1427, 0.0
1428, 0.0
1429, 0.0
1430, 0.0
1431, 0.0
1432, 0.0
1433, 0.0
1434, 0.0
1435, 0.0
1436, 0.0
1437, 0.0
1438, 0.0
1439, 0.0
1440, 0.0
1441, 0.0
1442, 0.0
1443, 0.0
1444, 0.0
1445, 0.0
1446, 0.0
1447, 0.0
1448, 0.0
1449, 0.0
1450, 0.0
1451, 0.0
1452, 0.0
1453, 0.0
1454, 0.0
1455, 0.0
1456, 0.0
1457, 0.0
1458, 0.0
1459, 0.0
1460, 0.0
1461, 0.0
1462, 0.0
1463, 0.0
1464, 0.0
1465, 0.0
1466, 0.0
1467, 0.0
1468, 0.0
1469, 0.0
1470, 0.0
1471, 0.0
1472, 0.0
1473, 0.0
1474, 0.0
1475, 0.0
1476, 0.0
1477, 0.0
1478, 0.0
1479, 0.0
1480, 0.0
1481, 0.0
1482, 0.0
1483, 0.0
1484, 0.0
1485, 0.0
1486, 0.0
1487, 0.0
1488, 0.0
1489, 0.0
1490, 0.0
1491, 0.0
1492, 0.0
1493, 0.0
1494, 0.0
1495, 0.0
1496, 0.0
1497, 0.0
1498, 0.0
1499, 0.0
1500, 0.0
1501, 0.0
1502, 0.0
1503, 0.0
1504, 0.0
1505, 0.0
1506, 0.0
1507, 0.0
1508, 0.0
1509, 0.0
1510, 0.0
1511, 0.0
1512, 0.0
1513, 0.0
1514, 0.0
1515, 0.0
1516, 0.0
1517, 0.0
1518, 0.0
1519, 0.0
1520, 0.0
1521, 0.0
1522, 0.0
1523, 0.0
1524, 0.0
1525, 0.0
1526, 0.0
1527, 0.0
1528, 0.0
1529, 0.0
1530, 0.0
1531, 0.0
1532, 0.0
1533, 0.0
1534, 0.0
1535, 0.0
1536, 0.0
1537, 0.0
1538, 0.0
1539, 0.0
1540, 0.0
1541, 0.0
1542, 0.0
1543, 0.0
1544, 0.0
1545, 0.0
1546, 0.0
1547, 0.0
1548, 0.0
1549, 0.0
1550, 0.0
1551, 0.0
1552, 0.0
1553, 0.0
1554, 0.0
1555, 0.0
1556, 0.0
1557, 0.0
1558, 0.0
1559, 0.0
1560, 0.0
1561, 0.0
1562, 0.0
1563, 0.0
1564, 0.0
1565, 0.0
1566, 0.0
1567, 0.0
1568, 0.0
1569, 0.0
1570, 0.0
1571, 0.0
1572, 0.0
1573, 0.0
1574, 0.0
1575, 0.0
1576, 0.0
1577, 0.0
1578, 0.0
1579, 0.0
1580, 0.0
1581, 0.0
1582, 0.0
1583, 0.0
1584, 0.0
1585, 0.0
1586, 0.0
1587, 0.0
1588, 0.0
1589, 0.0
1590, 0.0
1591, 0.0
1592, 0.0
1593, 0.0
1594, 0.0
1595, 0.0
1596, 0.0
1597, 0.0
1598, 0.0
1599, 0.0
