30, 0.0
31, 0.0
32, 0.0
33, 0.0
34, 0.0
35, 0.0
36, 0.0
37, 0.0
38, 0.0
39, 0.0
40, 0.0
41, 0.0
42, 0.0
43, 0.0
44, 0.0
45, 0.0
46, 0.0
47, 0.0
48, 0.0
49, 0.0
50, 0.0
51, 0.0
52, 0.0
53, 0.0
54, 0.0
55, 0.0
56, 0.0
57, 0.0
58, 0.0
59, 0.0
60, 0.0
61, 0.0
62, 0.0
63, 0.0
64, 0.0
65, 0.0
66, 0.0
67, 0.0
68, 0.0
69, 0.0
70, 0.0
71, 0.0
72, 0.0
73, 0.0
74, 0.0
75, 0.0
76, 0.0
77, 0.0
78, 0.0
79, 0.0
80, 0.0
81, 0.0
82, 0.0
83, 0.0
84, 0.0
85, 0.0
86, 0.0
87, 0.0
88, 0.0
89, 0.0
90, 0.0
91, 0.0
92, 0.0
93.0, 0.001110656817426808
94.0, 0.0012739971068331272
95.0, 0.0014797014925033328
96.0, 0.0025236276084602627
97.0, 0.0016194087500542233
98.0, 0.0018601729104234395
99.0, 0.0022404271123849856
100.0, 0.0016529335521993605
101.0, 0.001702555384698817
102.0, 0.0007978849736607832
103.0, 8.692138961981896e-05
104.0, 0.00036113057680331174
105.0, 0.0005452755720854101
106.0, 0.00014608125083124843
107.0, 0.0011554127576882624
108.0, 0.002968150255394818
109.0, 0.004910943518007881
110.0, 0.0060156895943202565
111.0, 0.007052994110477706
112.0, 0.0084536142319934
113.0, 0.010192123421670338
114.0, 0.01145847265913996
115.0, 0.013331143227247535
116.0, 0.01580974982173664
117.0, 0.01855053637455771
118.0, 0.02119208482041587
119.0, 0.02477546121953785
120.0, 0.029114657861698947
121.0, 0.034743765860197076
122.0, 0.04286643223945443
123.0, 0.053878587107336604
124.0, 0.06963013285168185
125.0, 0.09107016883458632
126.0, 0.11984063808636916
127.0, 0.16205912361385963
128.0, 0.21586807639893543
129.0, 0.2556812102377243
130.0, 0.25258414337628265
131.0, 0.197876699536187
132.0, 0.13524614594069487
133.0, 0.08597583122529742
134.0, 0.05488528870710614
135.0, 0.036563147116294215
136.0, 0.025948065810950827
137.0, 0.01946649649437791
138.0, 0.015346352192285808
139.0, 0.01283989106364025
140.0, 0.011986601541364503
141.0, 0.011440174711881355
142.0, 0.010787322028252479
143.0, 0.010095829626131349
144.0, 0.009545321390094588
145.0, 0.009205264439439793
146.0, 0.00892636712040048
147.0, 0.008537951601011626
148.0, 0.007923472415178006
149.0, 0.007349182158007846
150.0, 0.00649869165468484
151.0, 0.005440596836860371
152.0, 0.004532691636988621
153.0, 0.003870290478866915
154.0, 0.002845789558333289
155.0, 0.0018444816023924211
156.0, 0.0012999507462991009
157.0, 0.00031950973735605094
158.0, 0.0005279620538337524
159.0, 0.0009808325253108166
160.0, 0.001083844026841838
161.0, 0.0010902885881148854
162.0, 0.0012548185927085968
163.0, 0.0006889816480130703
164.0, 0.00045951218093229413
165.0, 0.0012180920563622292
166.0, 0.00181636167595179
167.0, 0.002858806532946963
168.0, 0.00386393919218352
169.0, 0.004432255456754859
170.0, 0.00549575986392146
171.0, 0.006866866577309683
172.0, 0.008222694823136352
173.0, 0.009565431867353645
174.0, 0.011222171027846622
175.0, 0.012998998332368799
176.0, 0.015030121956424771
177.0, 0.017253026431132072
178.0, 0.01954238664943416
179.0, 0.021918961311929025
180.0, 0.02512324937519404
181.0, 0.028696993911437936
182.0, 0.032182673531945184
183.0, 0.03593305211329466
184.0, 0.04052036076045115
185.0, 0.045469108636370215
186.0, 0.05065049099352114
187.0, 0.05654624148623503
188.0, 0.06338115867657182
189.0, 0.07021692680542702
190.0, 0.0776059203293918
191.0, 0.08643825994418604
192.0, 0.09577404741063894
193.0, 0.1053343434169836
194.0, 0.11547209350952398
195.0, 0.12654440273384746
196.0, 0.13871222525150012
197.0, 0.15120174029781983
198.0, 0.16392233298172185
199.0, 0.17704363069378273
200.0, 0.1903898177191479
201.0, 0.20309765310511907
202.0, 0.21526995671938048
203.0, 0.22646822080533577
204.0, 0.2359619275326859
205.0, 0.24301797054410296
206.0, 0.24626953648892003
207.0, 0.24665540450593482
208.0, 0.2442229130666331
209.0, 0.23848021436535044
210.0, 0.23156111436080076
211.0, 0.22241285304896447
212.0, 0.21175501291228607
213.0, 0.20042151506838163
214.0, 0.18766505296829988
215.0, 0.1733777998708071
216.0, 0.15890067116462145
217.0, 0.14503873306730658
218.0, 0.13172303346605502
219.0, 0.11876495022710427
220.0, 0.10760023125007331
221.0, 0.09772536561856744
222.0, 0.0883877137616057
223.0, 0.07971088779679171
224.0, 0.07283040315492528
225.0, 0.06651878938184513
226.0, 0.060329618017790396
227.0, 0.054986354385895546
228.0, 0.0502331392062738
229.0, 0.04577844818486643
230.0, 0.04163370754845809
231.0, 0.03784319268482978
232.0, 0.03430568001636262
233.0, 0.03146626346096322
234.0, 0.028727332774662592
235.0, 0.026115137480671693
236.0, 0.02420689679505119
237.0, 0.02228105985568307
238.0, 0.020403745509754767
239.0, 0.018639666065320554
240.0, 0.017076054461750166
241.0, 0.015890130124079183
242.0, 0.014977991833949133
243.0, 0.013985538440157038
244.0, 0.013136244771589345
245.0, 0.01298975353315576
246.0, 0.01252501716635207
247.0, 0.01260926332546337
248.0, 0.01261215629718154
249.0, 0.012049159207414086
250.0, 0.011881074588044526
251.0, 0.011835872738805054
252.0, 0.011629982273996031
253.0, 0.011454104480444599
254.0, 0.011610160940766332
255.0, 0.011805339472020327
256.0, 0.012057082200174556
257.0, 0.012638352075108513
258.0, 0.013734911626829025
259.0, 0.015380459505242021
260.0, 0.017632907879852652
261.0, 0.020086726953981504
262.0, 0.023510319199244335
263.0, 0.0288444726008543
264.0, 0.0357701456431007
265.0, 0.04432329110826333
266.0, 0.04910105340494982
267.0, 0.045992510701978
268.0, 0.035201421666051176
269.0, 0.02421928839810039
270.0, 0.015965759036223142
271.0, 0.010506145316416866
272.0, 0.007138214863152321
273.0, 0.005337391111123311
274.0, 0.003663624859674008
275.0, 0.0027083890148243
276.0, 0.0022787141511768226
277.0, 0.0016684949548562893
278.0, 0.0012631728968945447
279.0, 0.000872093053881628
280.0, 0.0005670047039379152
281.0, 0.0003509178319406223
282.0, 5.436254984779633e-05
283.0, 0.00021778462355762708
284.0, 0.00031395398746074957
285.0, 0.00033194472930170614
286.0, 0.0003997568497980963
287.0, 0.0004591896292323312
288.0, 0.00047533414234085964
289.0, 0.00041091084102301664
290.0, 0.0003630077676506714
291.0, 0.00047656708137070407
292.0, 0.0006081357549852862
293.0, 0.0005383951928832434
294.0, 0.00039726135235353073
295.0, 0.0003809970866956085
296.0, 0.0005234453935593187
297.0, 0.0005707072234035997
298.0, 0.0005020225273836181
299.0, 0.0003981158614962186
300.0, 0.00032970123062398037
301.0, 0.00031496657375869184
302.0, 0.00034040292590174727
303.0, 0.00017154958032157525
304.0, 3.6590656709435536e-05
305.0, 0.00019986421876703407
306.0, 0.00011037575960874059
307.0, 0.00020150137401929
308.0, 0.00012311884365458282
309.0, 0.00034777856924451614
310.0, 0.0002089666047603015
311.0, 0.0004415290585497124
312.0, 0.0007067956905605386
313.0, 0.0007154770905884669
314.0, 0.000575411970369359
315.0, 0.0007865004394410465
316.0, 0.0007499994328406478
317.0, 0.0008643725203075465
318.0, 0.001027854192287567
319.0, 0.0009830027843009666
320.0, 0.0009053186431505598
321.0, 0.0012976603548265095
322.0, 0.0013548474305043448
323.0, 0.0012300028507723133
324.0, 0.0014498987995048868
325.0, 0.001085305256537845
326.0, 0.0012398636016166856
327.0, 0.0014570147635804905
328.0, 0.0014579190108670447
329.0, 0.0013948234713343827
330.0, 0.0014235683178319277
331.0, 0.001335604151628798
332.0, 0.0014533099212724646
333.0, 0.0017971698994489575
334.0, 0.0017505074629017659
335.0, 0.0020005495198074917
336.0, 0.0022678511259330335
337.0, 0.0025825646484036475
338.0, 0.0030653094747666735
339.0, 0.003590133986894977
340.0, 0.004360379229705499
341.0, 0.005030105035791735
342.0, 0.005463065266219717
343.0, 0.0057900456037575845
344.0, 0.006403449610027157
345.0, 0.0069757426655228895
346.0, 0.00785648491918359
347.0, 0.009039776824984469
348.0, 0.010308476570831126
349.0, 0.012114742660730492
350.0, 0.014675449794450766
351.0, 0.018604357458620224
352.0, 0.024183001952483647
353.0, 0.0317942354023346
354.0, 0.04346473741046716
355.0, 0.06103652322274398
356.0, 0.07817130884131929
357.0, 0.08318554175205611
358.0, 0.06590004489954412
359.0, 0.04391998040947885
360.0, 0.02758581720698012
361.0, 0.01779086838541401
362.0, 0.012200401969352292
363.0, 0.008938181493691974
364.0, 0.006823304942987192
365.0, 0.005256653340536263
366.0, 0.0041652420890703305
367.0, 0.003474249533544875
368.0, 0.0029156348943559897
369.0, 0.0022729443090651748
370.0, 0.0018031355811399029
371.0, 0.0015009883390835308
372.0, 0.001256458785249872
373.0, 0.0009627110372947058
374.0, 0.0007157429384427326
375.0, 0.0004518046309090016
376.0, 0.00032971407772100714
377.0, 0.0004234004384081452
378.0, 0.0004202835777077798
379.0, 0.000537608439778492
380.0, 0.0003392742100085918
381.0, 0.00017892797192203355
382.0, 0.0004571161967791457
383.0, 0.0003342425219042737
384.0, 0.00040171576475601765
385.0, 0.0006892304814433883
386.0, 0.0009732006457729067
387.0, 0.0012179175882075996
388.0, 0.0018138041810827163
389.0, 0.0024742503156866677
390.0, 0.003588755368914989
391.0, 0.005185489483922028
392.0, 0.007339612179071623
393.0, 0.010903836743310562
394.0, 0.017011107637918653
395.0, 0.01988768129266291
396.0, 0.017329245394970196
397.0, 0.010778053488196795
398.0, 0.006609586022921874
399.0, 0.004841298586812925
400.0, 0.004790144015816656
401.0, 0.005881857571040279
402.0, 0.007799619570449758
403.0, 0.0108343581231987
404.0, 0.013511221442338097
405.0, 0.012275521065382386
406.0, 0.008087777383838675
407.0, 0.004059458942913436
408.0, 0.0016654020754831602
409.0, 0.0003918356007257942
410.0, 0.0003915169973512653
411.0, 0.0008331872587193132
412.0, 0.0008893046737607713
413.0, 0.0007739595734655592
414.0, 0.0008454734130823418
415.0, 0.0008404173375732065
416.0, 0.0006960075433835984
417.0, 0.000554961918519581
418.0, 0.00048663174706291116
419.0, 0.00043121748997466204
420.0, 0.0002362891874754457
421.0, 6.311918017430148e-05
422.0, 3.141468114192612e-05
423.0, 0.00028224041696348144
424.0, 0.0004892980873730964
425.0, 0.0006756496846373224
426.0, 0.0008825347198646822
427.0, 0.0011066630983307612
428.0, 0.0013391825773309241
429.0, 0.0016952261534115072
430.0, 0.0021228767361347015
431.0, 0.002518714934283334
432.0, 0.002929250365534146
433.0, 0.0035801573810250262
434.0, 0.0042620711935862435
435.0, 0.0050154625447628625
436.0, 0.005920972123582371
437.0, 0.007062947709159397
438.0, 0.008444859457394635
439.0, 0.009965154091356562
440.0, 0.01191760507151775
441.0, 0.014363384972617552
442.0, 0.017126844042396387
443.0, 0.020181163425314046
444.0, 0.024497402893938352
445.0, 0.02934541668041406
446.0, 0.035727344598649145
447.0, 0.04403267547801675
448.0, 0.05385805724401872
449.0, 0.06543092118366498
450.0, 0.07843895447834148
451.0, 0.09288531080097574
452.0, 0.1083181558211331
453.0, 0.1247511298378723
454.0, 0.14423049712742297
455.0, 0.1675567167275829
456.0, 0.19653660546906274
457.0, 0.23294330839145042
458.0, 0.27838183868799826
459.0, 0.3361292160050517
460.0, 0.4087754320250692
461.0, 0.4985861236053257
462.0, 0.6078773710389666
463.0, 0.7328241764292671
464.0, 0.8664489984237838
465.0, 0.9694478706795404
466.0, 0.9962127029324203
467.0, 0.9342679296846461
468.0, 0.8017054260267341
469.0, 0.6498452989946146
470.0, 0.5125059758468659
471.0, 0.40145190944064674
472.0, 0.3169388937955779
473.0, 0.25428002036548786
474.0, 0.20755359553068414
475.0, 0.17266657319680181
476.0, 0.14535106214739055
477.0, 0.12403399735945085
478.0, 0.10758987065329631
479.0, 0.09428757696042568
480.0, 0.08301021863427906
481.0, 0.07375369835392914
482.0, 0.06639872922313408
483.0, 0.06013133930503227
484.0, 0.05439300716644963
485.0, 0.04938706218974539
486.0, 0.044840637067185087
487.0, 0.04117403372650483
488.0, 0.0377303191997388
489.0, 0.03445312651726295
490.0, 0.031978085851900616
491.0, 0.02975512405931242
492.0, 0.027729260769449184
493.0, 0.025708843371461836
494.0, 0.023989521672347795
495.0, 0.02277312420822137
496.0, 0.02129834928371306
497.0, 0.0202224835059748
498.0, 0.01910178361441733
499.0, 0.018128517202202137
500.0, 0.017504164963211777
501.0, 0.01690257017944283
502.0, 0.016757016799791028
503.0, 0.01709060327827187
504.0, 0.01800109182040296
505.0, 0.019489944849594723
506.0, 0.021567194456481097
507.0, 0.02506425099793687
508.0, 0.031250990306151756
509.0, 0.03918524957156192
510.0, 0.043163695090755114
511.0, 0.0383230087974923
512.0, 0.028041864954031916
513.0, 0.019431905712445623
514.0, 0.014304389523609459
515.0, 0.011127512075105771
516.0, 0.008816591470968188
517.0, 0.007769196686970071
518.0, 0.0069234512626900726
519.0, 0.006263401706331606
520.0, 0.005647517849222228
521.0, 0.005086302238142619
522.0, 0.004686072483857955
523.0, 0.0044011642215232225
524.0, 0.003913555170525281
525.0, 0.0034971828906859644
526.0, 0.003303589216471555
527.0, 0.003071993594170013
528.0, 0.0024497753719797365
529.0, 0.002472785749485527
530.0, 0.0026219971342830092
531.0, 0.002261704267894552
532.0, 0.001777116924759985
533.0, 0.0019323987269502197
534.0, 0.0019887484067866207
535.0, 0.0017649442697869507
536.0, 0.0016547401817007877
537.0, 0.0016241836730129344
538.0, 0.00148194821373609
539.0, 0.0012666611731809658
540.0, 0.001141618404300793
541.0, 0.0011836473727638588
542.0, 0.0010759802112387173
543.0, 0.0008112979831894838
544.0, 0.0007448614137775751
545.0, 0.001029049041000025
546.0, 0.0008181317066610565
547.0, 0.0008655478913844563
548.0, 0.0010366250955613902
549.0, 0.0009543876972709439
550.0, 0.0008108989474369574
551.0, 0.0006248434242780539
552.0, 0.0003577469808400952
553.0, 0.00013978855438143763
554.0, 2.6261769280432123e-05
555.0, 3.14052101883933e-05
556.0, 8.47088993121709e-05
557.0, 6.98870034847581e-06
558.0, 0.0002440835217899964
559.0, 0.0004236957882933077
560.0, 0.00023464023299499322
561.0, 4.1644702115866426e-05
562.0, 0.00027988631244515544
563.0, 0.0004251776934291378
564.0, 0.000379347093156629
565.0, 0.0003191129569219511
566.0, 0.0003924238480768862
567.0, 0.0004862707338493563
568.0, 0.0003793153232817387
569.0, 0.000516349895581087
570.0, 0.0005451220925015083
571.0, 0.00035241519536852053
572.0, 0.00025257533675540156
573.0, 0.00019149834268452734
574.0, 0.00015346506898575006
575.0, 4.8285572495585466e-05
576.0, 0.00011524932736088184
577.0, 9.026301389609819e-05
578.0, 2.7164927627834738e-05
579.0, 5.039938340160465e-05
580.0, 7.424474447154777e-05
581.0, 0.00022494554209920715
582.0, 0.0003700328917965584
583.0, 0.0003296148682093935
584.0, 0.0003643266814541938
585.0, 0.0003266761361739239
586.0, 0.0006766053079993826
587.0, 0.0009008007440903875
588.0, 0.0009543260316802578
589.0, 0.0011945337293919043
590.0, 0.0010627184184882183
591.0, 0.0012181958647803238
592.0, 0.0013605625355533957
593.0, 0.0012930954023148977
594.0, 0.0012091713621496015
595.0, 0.0013169256183262518
596.0, 0.0010788131861305668
597.0, 0.0011298021245883412
598.0, 0.0011564562092475784
599.0, 0.0011082585134357772
600.0, 0.0011572284397493684
601.0, 0.001330118475590824
602.0, 0.0011364925354452942
603.0, 0.00106136789774631
604.0, 0.0009780235413520428
605.0, 0.0009968770362002066
606.0, 0.0011260501260621566
607.0, 0.0009546123879206991
608.0, 0.0010147222134091623
609.0, 0.0010210101288869637
610.0, 0.0009839600898972785
611.0, 0.0010447550581165366
612.0, 0.0012106827133727004
613.0, 0.0011925104693956794
614.0, 0.0009758272262432192
615.0, 0.0009694132530886771
616.0, 0.0009239929496880897
617.0, 0.0008643353002228918
618.0, 0.0011188232326122041
619.0, 0.0012863738746232696
620.0, 0.0010885199854392678
621.0, 0.0008669022973399252
622.0, 0.0008048041915804156
623.0, 0.0008970262915264379
624.0, 0.0010406891453946107
625.0, 0.0008324211014775167
626.0, 0.0009253817682318771
627.0, 0.0009725695867747021
628.0, 0.0007520850476464671
629.0, 0.0004808368129602524
630.0, 0.0005203283409768076
631.0, 0.0006572500943425537
632.0, 0.000527675066232551
633.0, 0.0005493386345585481
634.0, 0.0006643138694834973
635.0, 0.0006767100574356067
636.0, 0.0006318360864995858
637.0, 0.0006620839533315763
638.0, 0.0004657234079314018
639.0, 0.0005605414775187585
640.0, 0.0007104942701596333
641.0, 0.0006686793633859697
642.0, 0.0007318324106997766
643.0, 0.0006867647766570694
644.0, 0.0005571661008793064
645.0, 0.0005147908780268208
646.0, 0.000514898483237965
647.0, 0.0004495680547545248
648.0, 0.00033473744702706596
649.0, 0.0004181962177136353
650.0, 0.0005070395877599618
651.0, 0.0003992247853218594
652.0, 0.0003641025879904183
653.0, 0.0005227251134159426
654.0, 0.0005290791780252934
655.0, 0.00018560414024931907
656.0, 0.0002173833702759256
657.0, 0.0002809126338196555
658.0, 0.00016868691035137006
659.0, 3.97772325004495e-05
660.0, 6.886032748167111e-05
661.0, 0.00014521309692828744
662.0, 1.498165438315961e-05
663.0, 1.2603280432824234e-05
664.0, 0.0001558485017384918
665.0, 0.0002139251821625925
666.0, 0.00013598937588761426
667.0, 0.00019296231688982078
668.0, 8.791520355737746e-05
669.0, 0.00017148541128334278
670.0, 0.00023068616885187014
671.0, 0.00019409019590503913
672.0, 0.00028337214184205746
673.0, 0.00026614749945046964
674.0, 0.0004339587879838476
675.0, 0.0003508487211817362
676.0, 0.00023324801322508872
677.0, 0.0003275491456456014
678.0, 0.0005850436672331595
679.0, 0.0007130589713863342
680.0, 0.0010598141642444835
681.0, 0.0011064702137302527
682.0, 0.0009325726848560326
683.0, 0.0008717611329884017
684.0, 0.0011072218751390231
685.0, 0.0014977529271124497
686.0, 0.0015766542812860535
687.0, 0.0017889971960078574
688.0, 0.0021137223946944583
689.0, 0.0025310858636473916
690.0, 0.0029277028623448088
691.0, 0.0031094075958258143
692.0, 0.004006439183714966
693.0, 0.004437857340152574
694.0, 0.004944059202003518
695.0, 0.00573474151474607
696.0, 0.0066928406139425255
697.0, 0.0075890293629766545
698.0, 0.0075170906840313296
699.0, 0.006750042964718614
700.0, 0.0058183743882686875
701.0, 0.004842219353239543
702.0, 0.003925042367411445
703.0, 0.003194021890301408
704.0, 0.0024532520215721104
705.0, 0.0021964830709294467
706.0, 0.0018339214964016959
707.0, 0.0014631903333969876
708.0, 0.0011837387648324926
709.0, 0.0009902280270801618
710.0, 0.0009610881342801037
711.0, 0.000936930653007142
712.0, 0.0008621322124146337
713.0, 0.0007776510918536568
714.0, 0.0010585256116830914
715.0, 0.0013415694839622172
716.0, 0.0007561955944157235
717.0, 0.0004359275550562214
718.0, 0.00037340628152659014
719.0, 0.00044607344793072106
720.0, 0.00035148625259112513
721.0, 0.00024046913805818206
722.0, 0.00041941032578910847
723.0, 0.0005295165200959604
724.0, 0.000508693223311776
725.0, 0.00043569433943659594
726.0, 0.00036544531681135313
727.0, 0.00021515462958494948
728.0, 0.00013508373139818557
729.0, 0.0004251286161403598
730.0, 0.000510800162675702
731.0, 8.907254074241031e-06
732.0, 5.439131957235119e-05
733.0, 0.00019173119237075962
734.0, 0.0002993750156404109
735.0, 0.00033046727605207446
736.0, 0.0003393110022622156
737.0, 8.202096751367625e-05
738.0, 6.634243428626316e-05
739.0, 0.00031284406732513044
740.0, 0.0004281245040052791
741.0, 0.00031996192613108275
742.0, 0.0003231757307515614
743.0, 0.0002450894730678679
744.0, 3.143409970750255e-05
745.0, 7.17022469008235e-06
746.0, 0.00021070121137753295
747.0, 0.00036746575764330387
748.0, 0.00023349116445707852
749.0, 0.00017477224696336755
750.0, 0.00017080506470029932
751.0, 0.00035188861833439656
752.0, 0.0002511887057485353
753.0, 1.9664519362145308e-05
754.0, 1.2403341964824213e-05
755.0, 6.198251603680055e-05
756.0, 5.200151497592942e-05
757.0, 0.0001734335246740629
758.0, 8.252762876132349e-05
759.0, 2.9000000976287173e-05
760.0, 0.000108386367563973
761.0, 0.00010217880389747342
762.0, 7.36803549900351e-05
763.0, 0.00013255655326034298
764.0, 6.323174676557661e-05
765.0, 0.00026832920926714814
766.0, 0.00014390812623866136
767.0, 4.222878345773296e-05
768.0, 0.0001704278782632752
769.0, 0.00030953313817560065
770.0, 0.0002723099666958193
771.0, 0.0001231781365949893
772.0, 8.981156728900597e-05
773.0, 0.0001404049422860706
774.0, 0.0002540377713717469
775.0, 0.0005143131034654136
776.0, 0.00031776261158630327
777.0, 0.00032027093047258136
778.0, 0.00033051015557333954
779.0, 0.00037115719355142787
780.0, 0.0005122774255927653
781.0, 0.0007162550505757933
782.0, 0.0009178148019787788
783.0, 0.0009259663180300774
784.0, 0.0009716379719058544
785.0, 0.0011318943714538525
786.0, 0.0013204924270292888
787.0, 0.0015449172040841244
788.0, 0.0018072192762566034
789.0, 0.0019271845498009088
790.0, 0.0022131919072543578
791.0, 0.002717504204941636
792.0, 0.003423950065680124
793.0, 0.003987995908580659
794.0, 0.0045889753210264705
795.0, 0.00548497859144851
796.0, 0.005982136352890634
797.0, 0.006596023844217118
798.0, 0.007416320068784407
799.0, 0.008507685371298469
800.0, 0.00971527489966403
801.0, 0.010894633605482049
802.0, 0.012262414585462724
803.0, 0.014432911781496725
804.0, 0.01765195013486702
805.0, 0.021246406033016807
806.0, 0.025776463888474096
807.0, 0.03139253151664162
808.0, 0.03724765445735129
809.0, 0.04198137735638783
810.0, 0.0439015070720654
811.0, 0.040737879288743103
812.0, 0.03506517251742483
813.0, 0.028213768831230696
814.0, 0.021658787614568215
815.0, 0.01654067732419522
816.0, 0.013015360020443616
817.0, 0.010377711632997316
818.0, 0.008551927677421746
819.0, 0.007009661850393146
820.0, 0.0059307785099976034
821.0, 0.005133156545075141
822.0, 0.004378181379068393
823.0, 0.0037468081984741706
824.0, 0.003381460948440306
825.0, 0.0028053741280275315
826.0, 0.002613937998247836
827.0, 0.0023489047888540643
828.0, 0.0020997575543922403
829.0, 0.0019125290075231386
830.0, 0.0017172185104220026
831.0, 0.0018737034181991942
832.0, 0.001851822050251337
833.0, 0.0014850194333292808
834.0, 0.00145033698553656
835.0, 0.0015422173350858666
836.0, 0.00136715095026917
837.0, 0.0010773139142354936
838.0, 0.001181187080679908
839.0, 0.0016205269724168538
840.0, 0.0014787389036984167
841.0, 0.001462980640988671
842.0, 0.0014951311658910854
843.0, 0.0014284796199133527
844.0, 0.0013743431568626386
845.0, 0.0013936311224702176
846.0, 0.0013911108229991919
847.0, 0.001270878125311596
848.0, 0.0011140694430292984
849.0, 0.001162002705717131
850.0, 0.001340405718150372
851.0, 0.0014047920717031681
852.0, 0.0012682021860468907
853.0, 0.0010739159426406365
854.0, 0.0009698950046847657
855.0, 0.0010093419873631292
856.0, 0.0011588999543543038
857.0, 0.0011582151642150927
858.0, 0.0009028192846958894
859.0, 0.0006852907731708597
860.0, 0.0006983426016481265
861.0, 0.0005516047433157909
862.0, 0.0007738201063530276
863.0, 0.0006845335140859802
864.0, 0.00034325455735964615
865.0, 8.648281960939105e-05
866.0, 2.2044384729854773e-05
867.0, 9.237044733999298e-05
868.0, 0.00031831481367721316
869.0, 8.27905304805245e-05
870.0, 0.00016168679419980547
871.0, 9.086217212519804e-05
872.0, 8.023157543894412e-05
873.0, 8.616041388876399e-05
874.0, 3.08017165347662e-05
875.0, 0.0001818541337730833
876.0, 6.320630584972232e-05
877.0, 4.35783506945627e-05
878.0, 2.739869411340111e-06
879.0, 4.838210093565945e-05
880.0, 6.255131327633164e-05
881.0, 0.00023020855622071258
882.0, 1.7928838996703856e-05
883.0, 0.00023106763246776545
884.0, 0.0003285033493003308
885.0, 0.00035436701595204634
886.0, 0.0002884609637520405
887.0, 0.0003885490498718963
888.0, 0.0006049233719420505
889.0, 0.0006036614036750256
890.0, 0.0005828308200778646
891.0, 0.0005485401015621024
892.0, 0.00030862087038489324
893.0, 0.0004469265342368333
894.0, 0.0006207740775973779
895.0, 0.0006762782242761168
896.0, 0.0006472238945118237
897.0, 0.00041784582938854696
898.0, 0.0005377111586272635
899.0, 0.0005684201954436949
900.0, 0.0004915553390107807
901.0, 0.00021276116443978585
902.0, 0.00017632595122509047
903.0, 0.0004452178347394704
904.0, 0.000512121711438664
905.0, 0.0002139663960784755
906.0, 0.0002642475282928147
907.0, 0.00012892509993227166
908.0, 0.0006078080306243684
909.0, 0.0005612845780135677
910.0, 0.00021607517261518048
911.0, 0.0001616175267284155
912.0, 0.00020329393421666625
913.0, 0.0001913476933078149
914.0, 0.0002523488550642077
915.0, 0.0005075985162581616
916.0, 0.0005516933181470156
917.0, 0.0006583606294290219
918.0, 0.0005899825640017044
919.0, 0.0004333181256805083
920.0, 0.0006186837975264174
921.0, 0.0003871185281312641
922.0, 0.0006615814460142817
923.0, 0.0006381047759073755
924.0, 0.0006508876387831242
925.0, 0.0006990270594563646
926.0, 0.0006006559822724076
927.0, 0.00036078726188065925
928.0, 0.00024173925875636967
929.0, 0.0004956951801772152
930.0, 0.0003727159876487368
931.0, 0.00022270003850028612
932.0, 0.00016736237169568695
933.0, 0.00012378918855401576
934.0, 1.6619870309367635e-05
935.0, 3.729536336156073e-05
936.0, 0.0001358020009149313
937.0, 0.00034528388943385794
938.0, 8.300396642014032e-05
939.0, 6.085107853092135e-05
940.0, 7.886958773387991e-05
941.0, 8.016968481587025e-05
942.0, 0.00012961906991290848
943.0, 0.0001963151063459565
944.0, 0.0003683485577027138
945.0, 5.300729946395382e-05
946.0, 0.0004989893043817092
947.0, 0.00018532768234411003
948.0, 0.00013936611753050928
949.0, 0.00017631409619021858
950.0, 0.000285676815376447
951.0, 0.00033313843713540033
952.0, 0.00013395913626356774
953.0, 0.0003536947219701014
954.0, 0.0002526821609275577
955.0, 0.00012480316265070903
956.0, 0.00018059630858867137
957.0, 0.00029199625218934025
958.0, 0.00016029902045879108
959.0, 3.571447873943151e-05
960.0, 1.2532637077932117e-05
961.0, 1.7441845712128845e-05
962.0, 0.00015087726598812085
963.0, 0.0005573882514891277
964.0, 0.00036960751460534346
965.0, 0.00040605326984072813
966.0, 0.0006020153949530895
967.0, 0.0005045797582109513
968.0, 0.00016361542601876707
969.0, 4.3806394237941365e-05
970.0, 0.00041857462388709136
971.0, 0.00029527206007001435
972.0, 0.00037254494050027205
973.0, 0.000362308404697334
974.0, 0.0003666017746502041
975.0, 0.00020303074785428738
976.0, 6.389634123543025e-05
977.0, 0.0002976431092180617
978.0, 0.00021933614036727828
979.0, 2.9672386885260356e-05
980.0, 0.00010239848699477127
981.0, 0.00016476107511613925
982.0, 0.00033415669791202386
983.0, 0.000545689693514351
984.0, 0.0005051094796756304
985.0, 0.00032604902321072167
986.0, 0.00033358412409346955
987.0, 0.00022332222747250126
988.0, 0.000586662259924206
989.0, 0.00038637779727886644
990.0, 8.905515506566698e-05
991.0, 0.00010277967148032421
992.0, 0.00020279816923171208
993.0, 0.00016677473780600072
994.0, 0.00019248084801121255
995.0, 0.00033895295764812855
996.0, 0.00020273062137381195
997.0, 6.35626221891126e-05
998.0, 9.876917381965964e-05
999.0, 2.3798089494843453e-05
1000.0, 5.47609014044258e-05
1001.0, 6.466242976088145e-05
1002.0, 8.571046018543433e-05
1003.0, 0.00011231454520997388
1004.0, 0.0001530782688907511
1005.0, 0.00011164957512089426
1006.0, 5.750234965158739e-05
1007.0, 0.00015457191899908847
1008.0, 0.000216745821942649
1009.0, 0.00023517902651488427
1010.0, 0.00011363847059231301
1011.0, 0.0001640161341206864
1012.0, 0.0005674166421203694
1013.0, 0.000620403077574
1014.0, 0.00014701007593570284
1015.0, 0.00036092958253500885
1016.0, 0.0003893977440784777
1017.0, 0.0003894962520871786
1018.0, 0.00037372436001466833
1019.0, 0.00018398185863304192
1020.0, 0.00011603063180767647
1021.0, 0.0004622405915366895
1022.0, 0.00040743495610816386
1023.0, 8.605225287859581e-05
1024.0, 0.00016694505325602025
1025.0, 0.00039784976114398056
1026.0, 0.000550046570970501
1027.0, 0.0005740372028514871
1028.0, 0.0005645645954500362
1029.0, 0.0005125237785767943
1030.0, 0.0004036416857722993
1031.0, 0.0005863908016887192
1032.0, 0.0006967645261573342
1033.0, 0.0005329509692660099
1034.0, 0.0003932722798548377
1035.0, 0.00047279498642539597
1036.0, 0.0006322555247200073
1037.0, 0.0006220236244529902
1038.0, 0.0006399050309293064
1039.0, 0.00083745419169717
1040.0, 0.0007186406871285745
1041.0, 0.0008288307657792402
1042.0, 0.0004609645970054374
1043.0, 0.0007458757375912518
1044.0, 0.0006533938308999987
1045.0, 0.0006708487750140343
1046.0, 0.0009141710868098717
1047.0, 0.0008899329978752908
1048.0, 0.0006155382065522072
1049.0, 0.00046560169293896516
1050.0, 0.0007547139317427362
1051.0, 0.0010543501128883867
1052.0, 0.000798980176109603
1053.0, 0.0007798781484938608
1054.0, 0.0007734631982332798
1055.0, 0.0008635706176543434
1056.0, 0.0011077600269611162
1057.0, 0.0011990336200588996
1058.0, 0.001098325909064955
1059.0, 0.0012182421278150789
1060.0, 0.001327514936165153
1061.0, 0.0013423367181361755
1062.0, 0.0015687515509660989
1063.0, 0.0016841076912838405
1064.0, 0.0016527654669197965
1065.0, 0.0018018845581216874
1066.0, 0.0021348023561156503
1067.0, 0.0023999709977799073
1068.0, 0.002722281141626513
1069.0, 0.0029158847108879593
1070.0, 0.003049840708153581
1071.0, 0.0033873215277646102
1072.0, 0.0036362005299226344
1073.0, 0.0043608699098503095
1074.0, 0.005151518011150826
1075.0, 0.005804904455437608
1076.0, 0.006681237805074853
1077.0, 0.007934142511935959
1078.0, 0.009853079685030986
1079.0, 0.012204998119970722
1080.0, 0.015153284408210432
1081.0, 0.018842956134710275
1082.0, 0.02255672674147709
1083.0, 0.024804700542441466
1084.0, 0.02400815086165817
1085.0, 0.020651400156028583
1086.0, 0.016545064631551913
1087.0, 0.012497480081524945
1088.0, 0.00923026682730969
1089.0, 0.007047493185057727
1090.0, 0.005328528878108334
1091.0, 0.0041129916516559
1092.0, 0.003420911386608011
1093.0, 0.002999646561958128
1094.0, 0.002447943448924159
1095.0, 0.0019828924416811946
1096.0, 0.00171292872808056
1097.0, 0.0012165397704185085
1098.0, 0.001282750814100478
1099.0, 0.0013505782902171976
1100.0, 0.0008948594540691841
1101.0, 0.0007442673281974043
1102.0, 0.000997193972056996
1103.0, 0.0008517151217408977
1104.0, 0.0006319331388403082
1105.0, 0.0006394842857683666
1106.0, 0.0005409926823030841
1107.0, 0.00029188122771729903
1108.0, 0.00014919853857237674
1109.0, 0.0004639968133679042
1110.0, 0.0006041266284724511
1111.0, 0.0003645203357553003
1112.0, 0.000507929847669891
1113.0, 0.0004378305090419394
1114.0, 0.00033981736438944816
1115.0, 0.00037149470652877254
1116.0, 0.0003152995421162479
1117.0, 0.00020394804132783917
1118.0, 9.262188093649364e-05
1119.0, 0.00022690385196531574
1120.0, 0.00029073107231555737
1121.0, 0.00010391638552851883
1122.0, 0.00012980212706028234
1123.0, 0.00020792760451544275
1124.0, 4.3074519109186803e-05
1125.0, 0.0002644429065623051
1126.0, 0.00023778618680169925
1127.0, 5.1224378826812926e-05
1128.0, 0.00023485802063699798
1129.0, 0.00010111547601653024
1130.0, 1.8656998907656283e-05
1131.0, 2.30899654568255e-06
1132.0, 3.4226278898921767e-05
1133.0, 1.6699391477503105e-05
1134.0, 3.4385347650009695e-05
1135.0, 2.1510595640600173e-06
1136.0, 0.0001169146824280751
1137.0, 0.00027724071083380495
1138.0, 0.00040546289799227975
1139.0, 0.00039548513356100487
1140.0, 0.0005243064386004904
1141.0, 0.0005445433072280241
1142.0, 0.0008565548920384724
1143.0, 0.0009314284210837864
1144.0, 0.0009079077694589738
1145.0, 0.0010023454855174478
1146.0, 0.0011799661185492437
1147.0, 0.0014061852956722292
1148.0, 0.0016387213308227979
1149.0, 0.0019219067479207003
1150.0, 0.0024350670731550857
1151.0, 0.0028803282688450293
1152.0, 0.0033881016197025294
1153.0, 0.004236975137974403
1154.0, 0.004955040501920044
1155.0, 0.0061330090699562275
1156.0, 0.007398842836292223
1157.0, 0.009041411002490979
1158.0, 0.010481632853353382
1159.0, 0.011569108978412885
1160.0, 0.012923943831819162
1161.0, 0.01364737955774526
1162.0, 0.012970933324091435
1163.0, 0.011701670086565988
1164.0, 0.009904654128804606
1165.0, 0.008163645638844213
1166.0, 0.00642523724928247
1167.0, 0.005128052534934839
1168.0, 0.004025721903012683
1169.0, 0.0031831490415347224
1170.0, 0.002572755636555328
1171.0, 0.0019826372789204633
1172.0, 0.0015272681268699655
1173.0, 0.0011153319981590344
1174.0, 0.0011750723690651347
1175.0, 0.0007779093531701606
1176.0, 0.0009024988532348423
1177.0, 0.0005303848247983874
1178.0, 0.0004077543021050659
1179.0, 0.0003566655889117088
1180.0, 0.0003853855356357234
1181.0, 0.0004143293433822219
1182.0, 0.0003971885499892627
1183.0, 0.0004088268632771153
1184.0, 0.00024407988358656483
1185.0, 0.00019737137035157428
1186.0, 0.00031997276343075114
1187.0, 0.0003574351238659582
1188.0, 0.0003365241345918306
1189.0, 0.0003142387386566641
1190.0, 0.00027743502963552567
1191.0, 0.00017389097041622183
1192.0, 0.00020846312825197446
1193.0, 0.00023428995576662846
1194.0, 9.574778912214277e-05
1195.0, 0.00014128149698697476
1196.0, 0.0002842070008693539
1197.0, 5.501791522361681e-05
1198.0, 8.78849809028677e-06
1199.0, 9.122852600320394e-06
1200.0, 0.00029971943284212433
1201.0, 0.00014958550733212996
1202.0, 5.504225028602233e-05
1203.0, 0.00021963026455482424
1204.0, 0.0002762545758363311
1205.0, 0.0002575200264021625
1206.0, 0.00016841062185547398
1207.0, 8.848589245172049e-05
1208.0, 0.0004352486004248221
1209.0, 0.000390715726907533
1210.0, 0.0003261399401700058
1211.0, 0.0003236128362312262
1212.0, 0.0001742968202847867
1213.0, 0.00030074373879901217
1214.0, 0.00039526797472916124
1215.0, 0.0005175142616430379
1216.0, 0.0006369900812669155
1217.0, 0.0007236581882910439
1218.0, 0.0009259182901807555
1219.0, 0.0012969514740402215
1220.0, 0.0016077776354691724
1221.0, 0.0016222473757638023
1222.0, 0.0015316685884308192
1223.0, 0.0017110902596368012
1224.0, 0.001713056348854918
1225.0, 0.0018077710749756846
1226.0, 0.0018814429224362373
1227.0, 0.002040147192339568
1228.0, 0.002181680457779812
1229.0, 0.002216783603467347
1230.0, 0.002255085990949764
1231.0, 0.0023886048672649837
1232.0, 0.00253078901999813
1233.0, 0.002615340719382659
1234.0, 0.002696440620275629
1235.0, 0.002381048068582148
1236.0, 0.001917827175267854
1237.0, 0.0019089361853606907
1238.0, 0.0015994155771686482
1239.0, 0.0014707047128808797
1240.0, 0.0014686809841514068
1241.0, 0.0012236854416603083
1242.0, 0.0011056925127193432
1243.0, 0.0011376571148738683
1244.0, 0.0011157915114923206
1245.0, 0.0010425278597215783
1246.0, 0.000876027162566725
1247.0, 0.0008244991855213497
1248.0, 0.0008075270673811473
1249.0, 0.0006604960225692797
1250.0, 0.0005081548611787732
1251.0, 0.0009136824146502588
1252.0, 0.001087121763374955
1253.0, 0.0008561618430352655
1254.0, 0.0006768810647837589
1255.0, 0.000574170108723728
1256.0, 0.0004291460612253365
1257.0, 0.0005047780147860196
1258.0, 0.0006142536522520879
1259.0, 0.00037799568419308863
1260.0, 0.0003307276187245958
1261.0, 0.0004271956373198208
1262.0, 0.0004967114534812894
1263.0, 0.0004943595794705733
1264.0, 0.00019736091979235157
1265.0, 0.00029708654476383615
1266.0, 0.000677574909092754
1267.0, 0.00033553416249844077
1268.0, 0.000319449827589582
1269.0, 0.0003945417347410964
1270.0, 0.00020255670531117318
1271.0, 0.00018534740964602797
1272.0, 0.00024624025230751256
1273.0, 0.00010532969818026079
1274.0, 0.00017643960286823146
1275.0, 0.00016367644106662677
1276.0, 0.00026955470045517295
1277.0, 0.0003414447226567905
1278.0, 0.00040033284249955476
1279.0, 0.00024260998467837412
1280.0, 2.789933691450728e-05
1281.0, 0.00020214178825600157
1282.0, 0.0001549576370835254
1283.0, 0.0001752531031216803
1284.0, 0.00019271911233745566
1285.0, 0.00020971618484093556
1286.0, 0.0002519005507488419
1287.0, 0.00011895538257388078
1288.0, 1.9761959618563614e-05
1289.0, 1.3190228539099918e-05
1290.0, 4.871337309110282e-05
1291.0, 0.00018265431482168714
1292.0, 9.44458986147161e-05
1293.0, 3.0320047968017465e-05
1294.0, 4.223685521659918e-05
1295.0, 0.00024483072918281826
1296.0, 0.00010438831075694512
1297.0, 0.00017062100319474298
1298.0, 0.000248559127311916
1299.0, 0.0001458836481471652
1300.0, 4.398140030517165e-05
1301.0, 4.14769172118196e-05
1302, 0.0
1303, 0.0
1304, 0.0
1305, 0.0
1306, 0.0
1307, 0.0
1308, 0.0
1309, 0.0
1310, 0.0
1311, 0.0
1312, 0.0
1313, 0.0
1314, 0.0
1315, 0.0
1316, 0.0
1317, 0.0
1318, 0.0
1319, 0.0
1320, 0.0
1321, 0.0
1322, 0.0
1323, 0.0
1324, 0.0
1325, 0.0
1326, 0.0
1327, 0.0
1328, 0.0
1329, 0.0
1330, 0.0
1331, 0.0
1332, 0.0
1333, 0.0
1334, 0.0
1335, 0.0
1336, 0.0
1337, 0.0
1338, 0.0
1339, 0.0
1340, 0.0
1341, 0.0
1342, 0.0
1343, 0.0
1344, 0.0
1345, 0.0
1346, 0.0
1347, 0.0
1348, 0.0
1349, 0.0
1350, 0.0
1351, 0.0
1352, 0.0
1353, 0.0
1354, 0.0
1355, 0.0
1356, 0.0
1357, 0.0
1358, 0.0
1359, 0.0
1360, 0.0
1361, 0.0
1362, 0.0
1363, 0.0
1364, 0.0
1365, 0.0
1366, 0.0
1367, 0.0
1368, 0.0
1369, 0.0
1370, 0.0
1371, 0.0
1372, 0.0
1373, 0.0
1374, 0.0
1375, 0.0
1376, 0.0
1377, 0.0
1378, 0.0
1379, 0.0
1380, 0.0
1381, 0.0
1382, 0.0
1383, 0.0
1384, 0.0
1385, 0.0
1386, 0.0
1387, 0.0
1388, 0.0
1389, 0.0
1390, 0.0
1391, 0.0
1392, 0.0
1393, 0.0
1394, 0.0
1395, 0.0
1396, 0.0
1397, 0.0
1398, 0.0
1399, 0.0
1400, 0.0
1401, 0.0
1402, 0.0
1403, 0.0
1404, 0.0
1405, 0.0
1406, 0.0
1407, 0.0
1408, 0.0
1409, 0.0
1410, 0.0
1411, 0.0
1412, 0.0
1413, 0.0
1414, 0.0
1415, 0.0
1416, 0.0
1417, 0.0
1418, 0.0
1419, 0.0
1420, 0.0
1421, 0.0
1422, 0.0
1423, 0.0
1424, 0.0
1425, 0.0
1426, 0.0
1427, 0.0
1428, 0.0
1429, 0.0
1430, 0.0
1431, 0.0
1432, 0.0
1433, 0.0
1434, 0.0
1435, 0.0
1436, 0.0
1437, 0.0
1438, 0.0
1439, 0.0
1440, 0.0
1441, 0.0
1442, 0.0
1443, 0.0
1444, 0.0
1445, 0.0
1446, 0.0
1447, 0.0
1448, 0.0
1449, 0.0
1450, 0.0
1451, 0.0
1452, 0.0
1453, 0.0
1454, 0.0
1455, 0.0
1456, 0.0
1457, 0.0
1458, 0.0
1459, 0.0
1460, 0.0
1461, 0.0
1462, 0.0
1463, 0.0
1464, 0.0
1465, 0.0
1466, 0.0
1467, 0.0
1468, 0.0
1469, 0.0
1470, 0.0
1471, 0.0
1472, 0.0
1473, 0.0
1474, 0.0
1475, 0.0
1476, 0.0
1477, 0.0
1478, 0.0
1479, 0.0
1480, 0.0
1481, 0.0
1482, 0.0
1483, 0.0
1484, 0.0
1485, 0.0
1486, 0.0
1487, 0.0
1488, 0.0
1489, 0.0
1490, 0.0
1491, 0.0
1492, 0.0
1493, 0.0
1494, 0.0
1495, 0.0
1496, 0.0
1497, 0.0
1498, 0.0
1499, 0.0
1500, 0.0
1501, 0.0
1502, 0.0
1503, 0.0
1504, 0.0
1505, 0.0
1506, 0.0
1507, 0.0
1508, 0.0
1509, 0.0
1510, 0.0
1511, 0.0
1512, 0.0
1513, 0.0
1514, 0.0
1515, 0.0
1516, 0.0
1517, 0.0
1518, 0.0
1519, 0.0
1520, 0.0
1521, 0.0
1522, 0.0
1523, 0.0
1524, 0.0
1525, 0.0
1526, 0.0
1527, 0.0
1528, 0.0
1529, 0.0
1530, 0.0
1531, 0.0
1532, 0.0
1533, 0.0
1534, 0.0
1535, 0.0
1536, 0.0
1537, 0.0
1538, 0.0
1539, 0.0
1540, 0.0
1541, 0.0
1542, 0.0
1543, 0.0
1544, 0.0
1545, 0.0
1546, 0.0
1547, 0.0
1548, 0.0
1549, 0.0
1550, 0.0
1551, 0.0
1552, 0.0
1553, 0.0
1554, 0.0
1555, 0.0
1556, 0.0
1557, 0.0
1558, 0.0
1559, 0.0
1560, 0.0
1561, 0.0
1562, 0.0
1563, 0.0
1564, 0.0
1565, 0.0
1566, 0.0
1567, 0.0
1568, 0.0
1569, 0.0
1570, 0.0
1571, 0.0
1572, 0.0
1573, 0.0
1574, 0.0
1575, 0.0
1576, 0.0
1577, 0.0
1578, 0.0
1579, 0.0
1580, 0.0
1581, 0.0
1582, 0.0
1583, 0.0
1584, 0.0
1585, 0.0
1586, 0.0
1587, 0.0
1588, 0.0
1589, 0.0
1590, 0.0
1591, 0.0
1592, 0.0
1593, 0.0
1594, 0.0
1595, 0.0
1596, 0.0
1597, 0.0
1598, 0.0
1599, 0.0
