30, 0.0
31, 0.0
32, 0.0
33, 0.0
34, 0.0
35, 0.0
36, 0.0
37, 0.0
38, 0.0
39, 0.0
40, 0.0
41, 0.0
42, 0.0
43, 0.0
44, 0.0
45, 0.0
46, 0.0
47, 0.0
48, 0.0
49, 0.0
50, 0.0
51, 0.0
52, 0.0
53, 0.0
54, 0.0
55, 0.0
56, 0.0
57, 0.0
58, 0.0
59, 0.0
60, 0.0
61, 0.0
62, 0.0
63, 0.0
64, 0.0
65, 0.0
66, 0.0
67, 0.0
68, 0.0
69, 0.0
70, 0.0
71, 0.0
72, 0.0
73, 0.0
74, 0.0
75, 0.0
76, 0.0
77, 0.0
78, 0.0
79, 0.0
80, 0.0
81, 0.0
82, 0.0
83, 0.0
84, 0.0
85, 0.0
86, 0.0
87, 0.0
88, 0.0
89, 0.0
90, 0.0
91, 0.0
92, 0.0
93, 0.0
94, 0.0
95, 0.0
96, 0.0
97, 0.0
98, 0.0
99, 0.0
100, 0.0
101, 0.0
102, 0.0
103, 0.0
104, 0.0
105, 0.0
106, 0.0
107, 0.0
108, 0.0
109, 0.0
110, 0.0
111, 0.0
112, 0.0
113, 0.0
114, 0.0
115, 0.0
116, 0.0
117, 0.0
118, 0.0
119, 0.0
120, 0.0
121, 0.0
122, 0.0
123, 0.0
124, 0.0
125, 0.0
126, 0.0
127, 0.0
128, 0.0
129, 0.0
130, 0.0
131, 0.0
132, 0.0
133, 0.0
134, 0.0
135, 0.0
136, 0.0
137, 0.0
138, 0.0
139, 0.0
140, 0.0
141, 0.0
142, 0.0
143, 0.0
144, 0.0
145, 0.0
146, 0.0
147, 0.0
148, 0.0
149, 0.0
150, 0.0
151, 0.0
152, 0.0
153, 0.0
154, 0.0
155, 0.0
156, 0.0
157, 0.0
158, 0.0
159, 0.0
160, 0.0
161, 0.0
162, 0.0
163, 0.0
164, 0.0
165, 0.0
166, 0.0
167, 0.0
168, 0.0
169, 0.0
170, 0.0
171.0, 0.00013216706639833747
172.0, 0.0016425185857568568
173.0, 0.005006685611319587
174.0, 0.0010895722389202634
175.0, 0.0006911219630866952
176.0, 0.0018379120473391952
177.0, 0.0009325735287752256
178.0, 0.0018250127492866692
179.0, 0.004250885706947638
180.0, 0.006454391625951915
181.0, 0.007812468161590478
182.0, 0.009450778977718222
183.0, 0.011043994667616217
184.0, 0.010581727649159137
185.0, 0.009671175587366947
186.0, 0.011180399957138825
187.0, 0.011205789910297666
188.0, 0.01518999900620421
189.0, 0.02113742165965277
190.0, 0.025543310495702687
191.0, 0.029865461399109717
192.0, 0.03480417566990291
193.0, 0.03942404671359589
194.0, 0.04326152543808209
195.0, 0.0461700888263022
196.0, 0.04762927601572872
197.0, 0.04821510544555588
198.0, 0.049992791501799284
199.0, 0.052379705790829
200.0, 0.05240103977608898
201.0, 0.05230958132487132
202.0, 0.05244734639328106
203.0, 0.052580671445747074
204.0, 0.05281911895752381
205.0, 0.052351972723819605
206.0, 0.05420231628902526
207.0, 0.05659932660731455
208.0, 0.05503459960610507
209.0, 0.05078428812037296
210.0, 0.049619232342594875
211.0, 0.05050860259320135
212.0, 0.05034360674752297
213.0, 0.04723830051345059
214.0, 0.04568351780921394
215.0, 0.044678448188018006
216.0, 0.0429589818901335
217.0, 0.04077432000613227
218.0, 0.04223326959263782
219.0, 0.04187952932588939
220.0, 0.04008690095858032
221.0, 0.038943658405213286
222.0, 0.03815573656590663
223.0, 0.040869131509102076
224.0, 0.04207344556638519
225.0, 0.04130074280370607
226.0, 0.042700153115805536
227.0, 0.04387546347340581
228.0, 0.04689041752709189
229.0, 0.049751092756837124
230.0, 0.05076589958834937
231.0, 0.052775949037730245
232.0, 0.05539156932309066
233.0, 0.05624202455682457
234.0, 0.05668001345149664
235.0, 0.06174924151448125
236.0, 0.06418251948767464
237.0, 0.06485933103918802
238.0, 0.06530019721419573
239.0, 0.06607664631253372
240.0, 0.06488758114049
241.0, 0.06637727372756523
242.0, 0.06643714881706267
243.0, 0.06482657985314592
244.0, 0.06635926904910441
245.0, 0.06600408082064994
246.0, 0.06496002515564432
247.0, 0.06527696229653322
248.0, 0.06752393512082537
249.0, 0.06707554919678611
250.0, 0.06818108164006795
251.0, 0.06964459758107203
252.0, 0.07079777806312636
253.0, 0.07211880669148102
254.0, 0.07199809196114441
255.0, 0.07418159416504605
256.0, 0.0749058716947071
257.0, 0.07060752276390575
258.0, 0.06476109163649414
259.0, 0.06258117646294352
260.0, 0.059675768635597155
261.0, 0.055147343521566194
262.0, 0.051296676244904825
263.0, 0.04494307878590876
264.0, 0.04029079230861867
265.0, 0.03693720015144908
266.0, 0.03242751461253163
267.0, 0.02420802364561434
268.0, 0.017423752174454396
269.0, 0.011753749518005209
270.0, 0.006645719045205177
271.0, 0.0026242471767759625
272.0, 0.0012614754271203152
273.0, 0.0008501842235774333
274.0, 0.0031282429923930226
275.0, 0.004242884399778648
276.0, 0.0029173746638605376
277.0, 0.0030435933034522627
278.0, 0.003951023642330852
279.0, 0.004122758132852364
280.0, 0.0029741261545218256
281.0, 0.0022125914298552676
282.0, 0.0005625247106085316
283.0, 0.0013224165628398148
284.0, 0.0026435780361183108
285.0, 0.005738469020337371
286.0, 0.010523524801211657
287.0, 0.012532259334474669
288.0, 0.014497672943029226
289.0, 0.01787587758669529
290.0, 0.018617618573696957
291.0, 0.021656646321853466
292.0, 0.02354821616115476
293.0, 0.024071843024127182
294.0, 0.02519574472638568
295.0, 0.027018443234969526
296.0, 0.029739126646990348
297.0, 0.034473633549533235
298.0, 0.03961686741123636
299.0, 0.04315437548360304
300.0, 0.04962035435230825
301.0, 0.055998201233925
302.0, 0.06342752849796446
303.0, 0.07330918617872494
304.0, 0.08527298638442019
305.0, 0.09643928237581113
306.0, 0.10616154535147741
307.0, 0.11556455025889534
308.0, 0.12583484727405655
309.0, 0.13644679439745339
310.0, 0.14687742167962617
311.0, 0.15675602003337566
312.0, 0.16654394375027182
313.0, 0.17611552854609488
314.0, 0.18196219036791117
315.0, 0.18759693935972624
316.0, 0.19119516756431704
317.0, 0.19265706493001064
318.0, 0.19464829177819162
319.0, 0.19160125089431201
320.0, 0.1880027250542762
321.0, 0.18359773018708617
322.0, 0.17748848121249713
323.0, 0.17196606519570123
324.0, 0.16485766155447973
325.0, 0.1557034663161383
326.0, 0.14712190156750107
327.0, 0.14149908271467077
328.0, 0.13625299298897545
329.0, 0.13277598783111247
330.0, 0.1299591550582796
331.0, 0.12645107853921717
332.0, 0.12165958652793718
333.0, 0.1206222272975781
334.0, 0.11554119086238764
335.0, 0.11148460704517356
336.0, 0.11050268432315674
337.0, 0.10667212391670468
338.0, 0.10185452263962683
339.0, 0.09673094629393686
340.0, 0.09111827005201094
341.0, 0.08501301621752097
342.0, 0.07939419658919301
343.0, 0.0730903713408654
344.0, 0.06763567299810198
345.0, 0.06130363961323535
346.0, 0.053047564602862134
347.0, 0.04707236251104922
348.0, 0.04131121002329696
349.0, 0.0376799795073263
350.0, 0.034254251197462796
351.0, 0.028360220167529145
352.0, 0.023788967198087978
353.0, 0.018142938070113884
354.0, 0.013837113002837001
355.0, 0.010641757168001965
356.0, 0.006268204777804827
357.0, 0.0037932612213453392
358.0, 0.0006999831835946307
359.0, 0.001313696339080009
360.0, 0.0011101801833625846
361.0, 0.002655911209966801
362.0, 0.0024755441135650967
363.0, 0.0026932971551711176
364.0, 0.0019335602857254311
365.0, 0.00015189890158365956
366.0, 0.0004106016075450345
367.0, 0.003944885365967177
368.0, 0.00753447511149494
369.0, 0.010383970925123442
370.0, 0.013535344217463836
371.0, 0.019495555840557257
372.0, 0.023871201206369888
373.0, 0.02959272589605921
374.0, 0.03500178826287102
375.0, 0.03916732650127109
376.0, 0.04632137295053367
377.0, 0.0503923338888796
378.0, 0.055189341185715717
379.0, 0.060732645334346864
380.0, 0.06423874482054934
381.0, 0.06443793217239797
382.0, 0.0652441578680268
383.0, 0.0651659715859819
384.0, 0.06376008486693294
385.0, 0.06167123912491766
386.0, 0.059181243531858774
387.0, 0.05817727067993089
388.0, 0.05839760787702192
389.0, 0.057630040732209085
390.0, 0.055369885294590325
391.0, 0.05567693604490204
392.0, 0.05638962849506888
393.0, 0.056420634855510306
394.0, 0.05600873959417653
395.0, 0.05557723199588044
396.0, 0.056276472588297655
397.0, 0.055702718814543514
398.0, 0.05375911064418436
399.0, 0.05248803722790391
400.0, 0.0528872275482965
401.0, 0.049270725813149986
402.0, 0.04969514376627712
403.0, 0.05030023531594305
404.0, 0.05018243653165863
405.0, 0.05115370037004731
406.0, 0.0504393895326123
407.0, 0.049349862053939604
408.0, 0.05004890246632198
409.0, 0.05125211697077792
410.0, 0.050905955091867294
411.0, 0.052430520544216805
412.0, 0.05352033130216155
413.0, 0.053335248583845994
414.0, 0.05347934727354365
415.0, 0.054613915922065465
416.0, 0.05266545750296035
417.0, 0.05345512742384613
418.0, 0.05230192540966159
419.0, 0.050517703940857944
420.0, 0.05151243536461924
421.0, 0.050184525846374194
422.0, 0.04973189051041055
423.0, 0.04684088287546609
424.0, 0.04348629595396802
425.0, 0.042993615900584536
426.0, 0.04228300632790464
427.0, 0.04123663761786001
428.0, 0.039452457910050184
429.0, 0.036511299183471964
430.0, 0.03331947698888729
431.0, 0.032617639465453055
432.0, 0.029953158407640887
433.0, 0.027473776086362922
434.0, 0.025061697540002648
435.0, 0.021656094698503957
436.0, 0.018412095657178423
437.0, 0.014953650708799471
438.0, 0.012438763383208502
439.0, 0.009445041814582859
440.0, 0.006267566741809885
441.0, 0.00638269134704637
442.0, 0.0034298579481771003
443.0, 0.0013598747876767095
444.0, 0.00037930757495664025
445.0, 0.0010549213478456493
446.0, 0.001202842475147013
447.0, 0.002468998327402213
448.0, 0.003562962275023497
449.0, 0.00311824168518734
450.0, 0.0022831789965795245
451.0, 0.004087615712458269
452.0, 0.004263101236604772
453.0, 0.004422657113262016
454.0, 0.0019237023070555305
455.0, 0.0024369270155130823
456.0, 0.0003025653229882935
457.0, 0.002616920851275515
458.0, 0.0037443610246680904
459.0, 0.004639802898305038
460.0, 0.007597705217294372
461.0, 0.011935067447133983
462.0, 0.013584195263234818
463.0, 0.015091808978792186
464.0, 0.01773723324349214
465.0, 0.020357862908841305
466.0, 0.02226998503290786
467.0, 0.02609761995466925
468.0, 0.02800490214109427
469.0, 0.030161582497300006
470.0, 0.03196480469670418
471.0, 0.0320451285101645
472.0, 0.031037224187658714
473.0, 0.03204626754097354
474.0, 0.03295606621729247
475.0, 0.032411652455407856
476.0, 0.030744728197849278
477.0, 0.029497361432942175
478.0, 0.031433219162065165
479.0, 0.0301970979315204
480.0, 0.02797381859564121
481.0, 0.02715381989436434
482.0, 0.02725434052862761
483.0, 0.025720121090508346
484.0, 0.025447555612998267
485.0, 0.02466735865920758
486.0, 0.02238648782972047
487.0, 0.01982264542718061
488.0, 0.01956842133974924
489.0, 0.019266124856188192
490.0, 0.01710108049206209
491.0, 0.016031089402257892
492.0, 0.016840594748309203
493.0, 0.01481618339119044
494.0, 0.014762819509287711
495.0, 0.015594542226431637
496.0, 0.015089229561467432
497.0, 0.01372018987246968
498.0, 0.013524334737999202
499.0, 0.013456476112102001
500.0, 0.013582955360993758
501.0, 0.014073995059962617
502.0, 0.014030921286450193
503.0, 0.012492447321756328
504.0, 0.009564171082175946
505.0, 0.01012373029114867
506.0, 0.008965582102432935
507.0, 0.007483528588373114
508.0, 0.007248715366611989
509.0, 0.005964404127469667
510.0, 0.0066741688078456275
511.0, 0.005766901007056632
512.0, 0.005627826583686535
513.0, 0.007129653847430299
514.0, 0.0076349997309668625
515.0, 0.00669319364149602
516.0, 0.006057536535028502
517.0, 0.006673665113086591
518.0, 0.0076732379129830245
519.0, 0.007757067463455527
520.0, 0.006470039501124983
521.0, 0.006960855506946106
522.0, 0.006909210933230426
523.0, 0.006691247099040273
524.0, 0.006612067562166144
525.0, 0.00605768265754124
526.0, 0.006342758141602557
527.0, 0.005578170174161948
528.0, 0.005946438669736595
529.0, 0.006754794582477904
530.0, 0.006036192242990217
531.0, 0.0044206899387121195
532.0, 0.005159913625313348
533.0, 0.005465486921478453
534.0, 0.005755490673718112
535.0, 0.006581052429217785
536.0, 0.0070179700614205
537.0, 0.00725998210261383
538.0, 0.007439849730314987
539.0, 0.006363805844490909
540.0, 0.006327290537889161
541.0, 0.008789464530794423
542.0, 0.009028288292785564
543.0, 0.01141794323535867
544.0, 0.012827149128411777
545.0, 0.012947884538248584
546.0, 0.01341700079406251
547.0, 0.015450792446780838
548.0, 0.0171667234310962
549.0, 0.018376218820658603
550.0, 0.020789562892110664
551.0, 0.023264145086153425
552.0, 0.024702247150172482
553.0, 0.02789577658067249
554.0, 0.030269994699827028
555.0, 0.03328133150015245
556.0, 0.03735426341766143
557.0, 0.04145140001296947
558.0, 0.04468155478577029
559.0, 0.04880133857384729
560.0, 0.053563305006263814
561.0, 0.059345191984995965
562.0, 0.06542596613493468
563.0, 0.07115669151498463
564.0, 0.07720419452317782
565.0, 0.08495107604662654
566.0, 0.09181063177406061
567.0, 0.10063213054742585
568.0, 0.11140347917892633
569.0, 0.12145993320986694
570.0, 0.13337620826371385
571.0, 0.14664870032822527
572.0, 0.16241807594833296
573.0, 0.17836360530743295
574.0, 0.19416093892487596
575.0, 0.21301669927314218
576.0, 0.2326088439160728
577.0, 0.2509385002846093
578.0, 0.2696482529799777
579.0, 0.2891563870250577
580.0, 0.307257025836946
581.0, 0.3209506104173117
582.0, 0.3293260703971471
583.0, 0.3370698249266947
584.0, 0.33822762962370856
585.0, 0.330595218979047
586.0, 0.3188308471308074
587.0, 0.3055557369820215
588.0, 0.2841640981100728
589.0, 0.2633372525392925
590.0, 0.24020456387764952
591.0, 0.2134773996628623
592.0, 0.19066898355265216
593.0, 0.17007974669304088
594.0, 0.15257035725394233
595.0, 0.13493941482318011
596.0, 0.11825810705977036
597.0, 0.10454355561758706
598.0, 0.09261791261104933
599.0, 0.08225101141631004
600.0, 0.07357706803021467
601.0, 0.06503155324275482
602.0, 0.05824461824784727
603.0, 0.05385216982472658
604.0, 0.045599331743445104
605.0, 0.04111337786905842
606.0, 0.03705964973163026
607.0, 0.03176234735638339
608.0, 0.027057554834892115
609.0, 0.024262528880948615
610.0, 0.020741544482150005
611.0, 0.01513332267102613
612.0, 0.012472604002558481
613.0, 0.010363421438392749
614.0, 0.006813321954734466
615.0, 0.00311619468728857
616.0, 0.0004867025129935007
617.0, 0.0011557889359423877
618.0, 0.002502495195177957
619.0, 0.002972580011298826
620.0, 0.002243387594252797
621.0, 0.002626335347804805
622.0, 0.004922162333422817
623.0, 0.00689523343416648
624.0, 0.005934176662252787
625.0, 0.004778320296617599
626.0, 0.005862453758723022
627.0, 0.007448606673067256
628.0, 0.0071063909413470894
629.0, 0.006752281586992415
630.0, 0.006988478778379938
631.0, 0.007419047378221013
632.0, 0.007412163473986886
633.0, 0.006734963929801074
634.0, 0.005556916254218491
635.0, 0.004682631121814388
636.0, 0.003961011558607006
637.0, 0.0037835377381246274
638.0, 0.00403566813177345
639.0, 0.003219542877334876
640.0, 0.003502793597365744
641.0, 0.0026712671918434506
642.0, 0.001352168824367072
643.0, 0.0003758612612887888
644.0, 0.0016619556593364415
645.0, 0.002228391541707411
646.0, 0.004489716014613664
647.0, 0.006706001284688838
648.0, 0.00894635253683627
649.0, 0.010674393136374546
650.0, 0.011864911792853766
651.0, 0.014266006862226297
652.0, 0.016358842978759256
653.0, 0.020276335972739506
654.0, 0.02390591574013641
655.0, 0.026015682558630487
656.0, 0.028317135889407593
657.0, 0.03387203073304267
658.0, 0.03590071748667076
659.0, 0.040879183575104255
660.0, 0.04666478247260391
661.0, 0.051763978046254
662.0, 0.05606653026836172
663.0, 0.05919661552550785
664.0, 0.06561536862372502
665.0, 0.07315131081412977
666.0, 0.07942518285481619
667.0, 0.08575762353398116
668.0, 0.09322210977748284
669.0, 0.10069407373892321
670.0, 0.1115201097396964
671.0, 0.11854839402147506
672.0, 0.1252404729114328
673.0, 0.1352977356848688
674.0, 0.14576217479126047
675.0, 0.15251199230117535
676.0, 0.1617328923011602
677.0, 0.17379940780583022
678.0, 0.1849021912537034
679.0, 0.19610437936923913
680.0, 0.20731710612179746
681.0, 0.21650618716362502
682.0, 0.22835023736806398
683.0, 0.24168408995056168
684.0, 0.254425615755218
685.0, 0.26877864784542443
686.0, 0.28533210657427543
687.0, 0.3010590111925579
688.0, 0.31442980710455043
689.0, 0.3303731999700935
690.0, 0.34669903762678117
691.0, 0.36185268398592935
692.0, 0.37761291054828705
693.0, 0.3953237192390539
694.0, 0.4125549894745009
695.0, 0.43141802599921036
696.0, 0.4499066720483541
697.0, 0.4662056671825641
698.0, 0.48184737256912846
699.0, 0.5001171023847075
700.0, 0.520757252442976
701.0, 0.5345149345762398
702.0, 0.5482884366777601
703.0, 0.5647368857946599
704.0, 0.579964778488761
705.0, 0.5935669553663622
706.0, 0.6085726740575859
707.0, 0.6171503490870293
708.0, 0.6275534561480346
709.0, 0.6335677949976662
710.0, 0.638044839405107
711.0, 0.6436183861043716
712.0, 0.6478964039490025
713.0, 0.6491889305410206
714.0, 0.6497899527550414
715.0, 0.6496829598081478
716.0, 0.6542406978252109
717.0, 0.6586260201229583
718.0, 0.6591163434371529
719.0, 0.6627332753203288
720.0, 0.666401545479511
721.0, 0.6690433911706111
722.0, 0.6713579120606287
723.0, 0.6733102852833416
724.0, 0.6731156968277173
725.0, 0.6702056916592299
726.0, 0.6700507342918943
727.0, 0.6687440770429421
728.0, 0.6642834219994382
729.0, 0.6586953590177727
730.0, 0.6519140430073054
731.0, 0.6437755954992892
732.0, 0.6366560771732197
733.0, 0.6204774632615984
734.0, 0.6084660863804681
735.0, 0.5965201113037568
736.0, 0.5810664991602418
737.0, 0.564463183361937
738.0, 0.5511106962262767
739.0, 0.5377206493687937
740.0, 0.5222189790508138
741.0, 0.4997932169502649
742.0, 0.48168971373909575
743.0, 0.4655122082723839
744.0, 0.445824566940168
745.0, 0.43159156041560465
746.0, 0.41201593232155326
747.0, 0.3958478697204901
748.0, 0.377981192231793
749.0, 0.3590981414070191
750.0, 0.3428477689342011
751.0, 0.329106545288395
752.0, 0.3111835860705057
753.0, 0.2918373460279355
754.0, 0.2761478978837328
755.0, 0.26254245324876246
756.0, 0.24746584328274307
757.0, 0.23198271778529936
758.0, 0.22063462661307331
759.0, 0.21013197117372778
760.0, 0.20108960804320275
761.0, 0.18803040111871214
762.0, 0.17657992762875055
763.0, 0.1680165218923527
764.0, 0.15757349571971146
765.0, 0.1456994396326068
766.0, 0.1355785621040123
767.0, 0.12739549948992387
768.0, 0.11811886892214558
769.0, 0.11003574205609243
770.0, 0.10344305618290316
771.0, 0.09473838370606516
772.0, 0.08697082880022942
773.0, 0.0831955537135414
774.0, 0.07537517378090985
775.0, 0.069125249668741
776.0, 0.06427461512148436
777.0, 0.058465472776966225
778.0, 0.05313793461893132
779.0, 0.04771475682403461
780.0, 0.04457684420625249
781.0, 0.04086940140903636
782.0, 0.036187003500878015
783.0, 0.03127015828304881
784.0, 0.027799998141163355
785.0, 0.027387462358895175
786.0, 0.02467393085625861
787.0, 0.02019042592570463
788.0, 0.01803814217586518
789.0, 0.016437341091593522
790.0, 0.014545562348250177
791.0, 0.013523960696122559
792.0, 0.012790260519222996
793.0, 0.01194221960013643
794.0, 0.008412711782124998
795.0, 0.006802043336005443
796.0, 0.007029659136802405
797.0, 0.005653714835007256
798.0, 0.002782201503162789
799.0, 0.0036000569058733684
800.0, 0.0017155765124895212
801.0, 0.001949460456809266
802.0, 0.00034522076036067935
803.0, 0.0016720742771101295
804.0, 0.0015743840227374637
805.0, 0.0025214938416861766
806.0, 0.0031797538114782253
807.0, 0.0038588668035888125
808.0, 0.003093224913032095
809.0, 0.0038897372583341742
810.0, 0.004785019214376414
811.0, 0.004375786486658018
812.0, 0.0042374900110952185
813.0, 0.0053928371085977195
814.0, 0.003795402158306498
815.0, 0.004643947278537386
816.0, 0.006339011207209504
817.0, 0.00544245782615
818.0, 0.0036955828123131453
819.0, 0.0045980801777446975
820.0, 0.004702312753186179
821.0, 0.004544084391995527
822.0, 0.005012057058948053
823.0, 0.004333367424627964
824.0, 0.0032388770227805954
825.0, 0.0026558236525420073
826.0, 0.0029155595884771354
827.0, 0.00509110540980115
828.0, 0.0034375466681844866
829.0, 0.0032434535317425743
830.0, 0.003694700216499431
831.0, 0.0043333746421032856
832.0, 0.004337261347468695
833.0, 0.0034370059381506886
834.0, 0.00275851435589647
835.0, 0.0005012371391214966
836.0, 0.0014175790713694197
837.0, 0.0007372412427596658
838.0, 0.001284450569722069
839.0, 0.0024433986094611056
840.0, 0.0009762065588661877
841.0, 0.0016191979885562468
842.0, 0.0020890212273521743
843.0, 0.0033258130049624575
844.0, 0.002027265760277674
845.0, 0.0025846898961177853
846.0, 0.0037550542183756885
847.0, 0.003807403003943447
848.0, 0.0052020870750030205
849.0, 0.003403981118310921
850.0, 0.003917807352779128
851.0, 0.005881787144529387
852.0, 0.00663887725644973
853.0, 0.00818436491875094
854.0, 0.010227538976505211
855.0, 0.010565281362429561
856.0, 0.013119078490127256
857.0, 0.014541389205532577
858.0, 0.014705135631698995
859.0, 0.015475830192864163
860.0, 0.017847883855088384
861.0, 0.019399161539360638
862.0, 0.019510355508173413
863.0, 0.021816414581975026
864.0, 0.023999647339304635
865.0, 0.023289502156382588
866.0, 0.02420608627937394
867.0, 0.0250940234472442
868.0, 0.026399588721731246
869.0, 0.02861685985195871
870.0, 0.029815910244306767
871.0, 0.03047192322658581
872.0, 0.030122306856732693
873.0, 0.0298628503424913
874.0, 0.029463673934652428
875.0, 0.030330482235213545
876.0, 0.03169426523835914
877.0, 0.031410671451396074
878.0, 0.03050863728367227
879.0, 0.03076549151596985
880.0, 0.03185145016575487
881.0, 0.033046688477764166
882.0, 0.035640025398702285
883.0, 0.038247421981594
884.0, 0.04006473630987006
885.0, 0.04291655599186454
886.0, 0.04815064757222481
887.0, 0.0532244267186799
888.0, 0.05888688183022544
889.0, 0.06635755409310376
890.0, 0.07286929736806996
891.0, 0.07989372413821669
892.0, 0.08927387153400232
893.0, 0.09845406563532037
894.0, 0.10725587992010177
895.0, 0.11856774409684188
896.0, 0.13014661851420828
897.0, 0.14294742534670088
898.0, 0.1556603092686436
899.0, 0.1674103681587574
900.0, 0.1805512594439127
901.0, 0.1972122512471553
902.0, 0.2135888758728501
903.0, 0.22779568939419395
904.0, 0.242063668146012
905.0, 0.2579326082748687
906.0, 0.27243156156952425
907.0, 0.2863562123898021
908.0, 0.30316972782554436
909.0, 0.31764284354267036
910.0, 0.33097276490787425
911.0, 0.3434078098294737
912.0, 0.3536640598021223
913.0, 0.3612036164770527
914.0, 0.3670821346464777
915.0, 0.3724943095820286
916.0, 0.3759665868157441
917.0, 0.3738991857503208
918.0, 0.373380408082678
919.0, 0.3644559508947848
920.0, 0.35774774098748485
921.0, 0.3477479374762228
922.0, 0.33348443358311536
923.0, 0.318999833324723
924.0, 0.30434710380942787
925.0, 0.2894263516922123
926.0, 0.27489431490656224
927.0, 0.257124010335012
928.0, 0.2432480086310401
929.0, 0.2278135676309577
930.0, 0.21082615915894595
931.0, 0.1948399516534609
932.0, 0.1775380687890118
933.0, 0.16232706638635758
934.0, 0.1522384788123172
935.0, 0.1401161746501341
936.0, 0.1282969073120455
937.0, 0.11830514969509898
938.0, 0.11012227338455385
939.0, 0.10250884850453676
940.0, 0.09451456360486199
941.0, 0.08838257689935612
942.0, 0.08417271060672164
943.0, 0.07832312760715597
944.0, 0.07395536604062691
945.0, 0.07105788572080528
946.0, 0.06985956944499046
947.0, 0.06935938287728556
948.0, 0.06846405816661813
949.0, 0.07113295441621573
950.0, 0.07552560571160283
951.0, 0.07939130119899707
952.0, 0.08471219964387032
953.0, 0.09385662295680584
954.0, 0.10360770770040802
955.0, 0.11268304013388988
956.0, 0.12487440468235306
957.0, 0.14049581619438278
958.0, 0.15405448258370819
959.0, 0.1694779857101829
960.0, 0.18526508871379774
961.0, 0.19770737828666027
962.0, 0.21018993876479847
963.0, 0.22050976153435128
964.0, 0.223600003574246
965.0, 0.22100883801113258
966.0, 0.2152719308850072
967.0, 0.20511769192345636
968.0, 0.1916963056543507
969.0, 0.17431716883441667
970.0, 0.15514437534354744
971.0, 0.13525722881649252
972.0, 0.11644246433730764
973.0, 0.10013376436562503
974.0, 0.0834916937903696
975.0, 0.06971433399986612
976.0, 0.055763487804856446
977.0, 0.04251085455257976
978.0, 0.03208244115154859
979.0, 0.025095328353056674
980.0, 0.017148935349019706
981.0, 0.007410224547510593
982.0, 0.0019634996043552777
983.0, 0.003792049490730138
984.0, 0.007363607704843705
985.0, 0.009337227607737423
986.0, 0.009212214225777015
987.0, 0.009767148332642556
988.0, 0.010826513886137873
989.0, 0.009222876906829094
990.0, 0.005684596188745084
991.0, 0.005415447938109021
992.0, 0.0008866729881384723
993.0, 0.0011626268543053256
994.0, 0.004079192431174962
995.0, 0.008684982157397209
996.0, 0.013961475150859336
997.0, 0.020232066412537386
998.0, 0.02777728664308247
999.0, 0.03651729654764077
1000.0, 0.04750646578435961
1001.0, 0.0586360948768463
1002.0, 0.06970229794049491
1003.0, 0.0827828825906483
1004.0, 0.09772532515122277
1005.0, 0.113701829962557
1006.0, 0.13137807711327973
1007.0, 0.15230188405576947
1008.0, 0.17697960017099296
1009.0, 0.20467453821105827
1010.0, 0.23328497310067747
1011.0, 0.267784062246894
1012.0, 0.3040830964535183
1013.0, 0.34453449230510225
1014.0, 0.38865352743729176
1015.0, 0.43688087892238436
1016.0, 0.4890776126468007
1017.0, 0.5438932038490281
1018.0, 0.6065875239850647
1019.0, 0.6731269581936824
1020.0, 0.7338452458990189
1021.0, 0.79537651529957
1022.0, 0.8527169861930152
1023.0, 0.9046231198742276
1024.0, 0.9492650295345129
1025.0, 0.9810269227875069
1026.0, 0.9976316163208994
1027.0, 0.9978610404594651
1028.0, 0.9814950927088536
1029.0, 0.9427838237958731
1030.0, 0.888149854722136
1031.0, 0.8276387094594624
1032.0, 0.7590467882852658
1033.0, 0.6864181141485446
1034.0, 0.6178553558823142
1035.0, 0.5537054347401204
1036.0, 0.4933359846442001
1037.0, 0.4346119242959448
1038.0, 0.38777271640968186
1039.0, 0.3415920428732945
1040.0, 0.30369620110135387
1041.0, 0.2711964437648812
1042.0, 0.24326751042481562
1043.0, 0.21916026654758847
1044.0, 0.19504849841322947
1045.0, 0.17297368455536302
1046.0, 0.15580717773805497
1047.0, 0.14102282912801542
1048.0, 0.12726599698351504
1049.0, 0.11326345941117054
1050.0, 0.10002928987574518
1051.0, 0.09028819409685529
1052.0, 0.0832349299507149
1053.0, 0.07632029115563065
1054.0, 0.06982363809335665
1055.0, 0.06330238064709505
1056.0, 0.05638507533440061
1057.0, 0.05037357816524264
1058.0, 0.04761958561009821
1059.0, 0.043849308249072134
1060.0, 0.039750333121619214
1061.0, 0.03714539919970836
1062.0, 0.035082794601060514
1063.0, 0.03291256820543069
1064.0, 0.03125095973875782
1065.0, 0.02752712819032702
1066.0, 0.02581574229077029
1067.0, 0.02324836704591104
1068.0, 0.021634487957092323
1069.0, 0.020350308179461533
1070.0, 0.0184087552331499
1071.0, 0.016961611302117846
1072.0, 0.015552151238144926
1073.0, 0.012974208451972983
1074.0, 0.012377718076935813
1075.0, 0.011344143693621769
1076.0, 0.012878479415444722
1077.0, 0.010675024852110426
1078.0, 0.010028553488485909
1079.0, 0.00879198401758235
1080.0, 0.006990616306827445
1081.0, 0.005703321081442388
1082.0, 0.004718430188514793
1083.0, 0.004804941430734734
1084.0, 0.005577917748170737
1085.0, 0.00427375497403551
1086.0, 0.0025469356482496113
1087.0, 0.00159124284739043
1088.0, 0.0012852839225643287
1089.0, 0.00046746026224639626
1090.0, 0.00017936884747728709
1091.0, 0.00015315607462243182
1092.0, 0.001215967469952304
1093.0, 0.002666340504421293
1094.0, 0.002126642289234158
1095.0, 0.0021167781694225985
1096.0, 0.001433091779054279
1097.0, 0.0014244300784795496
1098.0, 0.0010583518587835674
1099.0, 0.0017182601320983293
1100.0, 0.001864926056814227
1101.0, 0.0011992593059370399
1102.0, 0.0012570701295255102
1103.0, 0.0012992448808738372
1104.0, 0.0002764962719271014
1105.0, 0.0010220442570459862
1106.0, 0.0005777442856790777
1107.0, 0.0005830870005008969
1108.0, 0.0003013617771763938
1109.0, 0.0005743455637589976
1110.0, 0.00017104924103032468
1111.0, 0.00048309489167110126
1112.0, 0.0008176217125261832
1113.0, 0.001766926422063023
1114.0, 0.0010394763025001873
1115.0, 0.00020946500894959648
1116.0, 0.0021727192303894445
1117.0, 0.003500218336629698
1118.0, 0.003415194049742394
1119.0, 0.004329747790854943
1120.0, 0.004002710612297906
1121.0, 0.0029824629333358326
1122.0, 0.003417744256655383
1123.0, 0.004363043839603259
1124.0, 0.004069455534871804
1125.0, 0.003916412824323217
1126.0, 0.004150638348719519
1127.0, 0.005457539550574083
1128.0, 0.006733316697499064
1129.0, 0.006820401721672562
1130.0, 0.006961153476152943
1131.0, 0.007409172907620914
1132.0, 0.0075332851992911416
1133.0, 0.007407171387604453
1134.0, 0.008926604148756916
1135.0, 0.011520309735486555
1136.0, 0.010488303844615328
1137.0, 0.009677398252664891
1138.0, 0.008595772797327752
1139.0, 0.009136178433897902
1140.0, 0.008254929321132795
1141.0, 0.00811277274101488
1142.0, 0.008923067599476453
1143.0, 0.009477414424050031
1144.0, 0.009621475672618554
1145.0, 0.00998017896415326
1146.0, 0.010353746305703165
1147.0, 0.00966342415700502
1148.0, 0.008586993031804087
1149.0, 0.010397035747953799
1150.0, 0.010702732737358136
1151.0, 0.009376031000518951
1152.0, 0.00892826401280822
1153.0, 0.009330737443760388
1154.0, 0.0087992179672122
1155.0, 0.008103608935498554
1156.0, 0.008037035625520828
1157.0, 0.007605203290408714
1158.0, 0.008506516396265956
1159.0, 0.008076354480781232
1160.0, 0.008256175138198141
1161.0, 0.007997097369572687
1162.0, 0.00909211796135809
1163.0, 0.007632394197361538
1164.0, 0.007219903408759277
1165.0, 0.007832607196076239
1166.0, 0.00698551023693324
1167.0, 0.005786598326142524
1168.0, 0.006147277889750866
1169.0, 0.006319620117607081
1170.0, 0.005956765413078689
1171.0, 0.005633657721882261
1172.0, 0.005268704802935374
1173.0, 0.00534887745786257
1174.0, 0.005168294599672018
1175.0, 0.005177831213250817
1176.0, 0.005682685558219245
1177.0, 0.005215392752745094
1178.0, 0.004455254847101262
1179.0, 0.004698562415752168
1180.0, 0.005241674999741915
1181.0, 0.005853068741516398
1182.0, 0.00584316028346969
1183.0, 0.004561630237009905
1184.0, 0.0054172624700210455
1185.0, 0.004816974983367535
1186.0, 0.004016821012797797
1187.0, 0.005302925585621506
1188.0, 0.005011295596312266
1189.0, 0.0038477259854711463
1190.0, 0.0030766436261573434
1191.0, 0.002674384479069041
1192.0, 0.003383988019705329
1193.0, 0.0037629048032043026
1194.0, 0.002918795098193064
1195.0, 0.0036706169245585077
1196.0, 0.0037160103791770366
1197.0, 0.0031046867650417376
1198.0, 0.0033514234964428656
1199.0, 0.004051179782750033
1200.0, 0.003649504903792225
1201.0, 0.003254169593757102
1202.0, 0.003644163675585641
1203.0, 0.0035681844711119015
1204.0, 0.0032588415359308524
1205.0, 0.0040864830557887965
1206.0, 0.0038108472815931212
1207.0, 0.003123215210836848
1208.0, 0.0024195396296299945
1209.0, 0.002608026050693154
1210.0, 0.002916685763789587
1211.0, 0.0022365215848881557
1212.0, 0.002340561548630316
1213.0, 0.0031532386294327217
1214.0, 0.0024123265673309377
1215.0, 0.001750261733170021
1216.0, 0.002457709978000213
1217.0, 0.0026036467449935875
1218.0, 0.002314124407661857
1219.0, 0.0012895842109279987
1220.0, 0.0012765126143888825
1221.0, 0.0005231515383589669
1222.0, 0.0012651656383866486
1223.0, 0.0014454979722800002
1224.0, 0.0016531787500136358
1225.0, 0.0016906391186171455
1226.0, 0.0014434272254613386
1227.0, 0.001256453568092735
1228.0, 0.0014532008730125908
1229.0, 0.001335627091332093
1230.0, 0.0013534575571014363
1231.0, 0.002991011424424362
1232.0, 0.001960736213914853
1233.0, 0.0010370375515471072
1234.0, 0.0001528293718138049
1235.0, 0.0012932375253696534
1236.0, 0.00029515547245049053
1237.0, 0.0004242063879738687
1238.0, 0.0009077202423441528
1239.0, 0.001159018738921641
1240.0, 0.0011979052287576456
1241.0, 0.0011364943486540688
1242.0, 0.0009870350017607051
1243.0, 0.0008911260736344254
1244.0, 0.0015950090209204456
1245.0, 0.002158576720171735
1246.0, 0.001790935546757904
1247.0, 0.0026010467708787017
1248.0, 0.0013723779282641428
1249.0, 0.0006953920322648439
1250.0, 0.0004194934208876359
1251.0, 0.00018617588088741264
1252.0, 0.0003548899224795356
1253.0, 0.0017110083817324566
1254.0, 0.0017450302417548027
1255.0, 0.000898569020240028
1256.0, 0.0002646482962831155
1257.0, 0.0004586242541023989
1258.0, 0.0009779924107803225
1259.0, 0.0016475248636914478
1260.0, 0.0012128878369825253
1261.0, 0.0005142682470903363
1262.0, 0.000768241461631206
1263.0, 0.0007803478627102843
1264.0, 0.00044314343138488887
1265.0, 0.00029093510618393505
1266.0, 0.0010645895984266848
1267.0, 0.0008818133283368093
1268.0, 0.00019601979612922848
1269.0, 0.00042356058376289687
1270.0, 0.0010825560186380227
1271.0, 0.0008333070697973954
1272.0, 0.0001599626957995817
1273.0, 0.0007135338447334949
1274.0, 4.8446786904511e-05
1275.0, 0.00024867295628755367
1276.0, 0.0001619094326657292
1277.0, 0.0004037834301185015
1278.0, 0.00022484618801114892
1279.0, 0.0006958631166734284
1280.0, 0.0013650514709737944
1281.0, 0.001209921645380186
1282.0, 0.0014897622682717075
1283.0, 0.0012939007559837046
1284.0, 0.0009003587916253315
1285.0, 0.0009587098748955705
1286.0, 0.0009521504208933578
1287.0, 0.0016480105004209977
1288.0, 0.0002689545290258848
1289.0, 0.00022950426885043473
1290.0, 0.0005163220124858275
1291.0, 0.002470552378578726
1292.0, 0.0004369622475321644
1293.0, 0.0005258102427934075
1294.0, 0.000809581741755421
1295.0, 0.0008478963742505482
1296.0, 0.0008908929275344123
1297.0, 0.00040100822606312135
1298.0, 0.0010443812515010926
1299.0, 0.001190276409158786
1300.0, 0.0002756468503808631
1301.0, 0.00047705867728070416
1302, 0.0
1303, 0.0
1304, 0.0
1305, 0.0
1306, 0.0
1307, 0.0
1308, 0.0
1309, 0.0
1310, 0.0
1311, 0.0
1312, 0.0
1313, 0.0
1314, 0.0
1315, 0.0
1316, 0.0
1317, 0.0
1318, 0.0
1319, 0.0
1320, 0.0
1321, 0.0
1322, 0.0
1323, 0.0
1324, 0.0
1325, 0.0
1326, 0.0
1327, 0.0
1328, 0.0
1329, 0.0
1330, 0.0
1331, 0.0
1332, 0.0
1333, 0.0
1334, 0.0
1335, 0.0
1336, 0.0
1337, 0.0
1338, 0.0
1339, 0.0
1340, 0.0
1341, 0.0
1342, 0.0
1343, 0.0
1344, 0.0
1345, 0.0
1346, 0.0
1347, 0.0
1348, 0.0
1349, 0.0
1350, 0.0
1351, 0.0
1352, 0.0
1353, 0.0
1354, 0.0
1355, 0.0
1356, 0.0
1357, 0.0
1358, 0.0
1359, 0.0
1360, 0.0
1361, 0.0
1362, 0.0
1363, 0.0
1364, 0.0
1365, 0.0
1366, 0.0
1367, 0.0
1368, 0.0
1369, 0.0
1370, 0.0
1371, 0.0
1372, 0.0
1373, 0.0
1374, 0.0
1375, 0.0
1376, 0.0
1377, 0.0
1378, 0.0
1379, 0.0
1380, 0.0
1381, 0.0
1382, 0.0
1383, 0.0
1384, 0.0
1385, 0.0
1386, 0.0
1387, 0.0
1388, 0.0
1389, 0.0
1390, 0.0
1391, 0.0
1392, 0.0
1393, 0.0
1394, 0.0
1395, 0.0
1396, 0.0
1397, 0.0
1398, 0.0
1399, 0.0
1400, 0.0
1401, 0.0
1402, 0.0
1403, 0.0
1404, 0.0
1405, 0.0
1406, 0.0
1407, 0.0
1408, 0.0
1409, 0.0
1410, 0.0
1411, 0.0
1412, 0.0
1413, 0.0
1414, 0.0
1415, 0.0
1416, 0.0
1417, 0.0
1418, 0.0
1419, 0.0
1420, 0.0
1421, 0.0
1422, 0.0
1423, 0.0
1424, 0.0
1425, 0.0
1426, 0.0
1427, 0.0
1428, 0.0
1429, 0.0
1430, 0.0
1431, 0.0
1432, 0.0
1433, 0.0
1434, 0.0
1435, 0.0
1436, 0.0
1437, 0.0
1438, 0.0
1439, 0.0
1440, 0.0
1441, 0.0
1442, 0.0
1443, 0.0
1444, 0.0
1445, 0.0
1446, 0.0
1447, 0.0
1448, 0.0
1449, 0.0
1450, 0.0
1451, 0.0
1452, 0.0
1453, 0.0
1454, 0.0
1455, 0.0
1456, 0.0
1457, 0.0
1458, 0.0
1459, 0.0
1460, 0.0
1461, 0.0
1462, 0.0
1463, 0.0
1464, 0.0
1465, 0.0
1466, 0.0
1467, 0.0
1468, 0.0
1469, 0.0
1470, 0.0
1471, 0.0
1472, 0.0
1473, 0.0
1474, 0.0
1475, 0.0
1476, 0.0
1477, 0.0
1478, 0.0
1479, 0.0
1480, 0.0
1481, 0.0
1482, 0.0
1483, 0.0
1484, 0.0
1485, 0.0
1486, 0.0
1487, 0.0
1488, 0.0
1489, 0.0
1490, 0.0
1491, 0.0
1492, 0.0
1493, 0.0
1494, 0.0
1495, 0.0
1496, 0.0
1497, 0.0
1498, 0.0
1499, 0.0
1500, 0.0
1501, 0.0
1502, 0.0
1503, 0.0
1504, 0.0
1505, 0.0
1506, 0.0
1507, 0.0
1508, 0.0
1509, 0.0
1510, 0.0
1511, 0.0
1512, 0.0
1513, 0.0
1514, 0.0
1515, 0.0
1516, 0.0
1517, 0.0
1518, 0.0
1519, 0.0
1520, 0.0
1521, 0.0
1522, 0.0
1523, 0.0
1524, 0.0
1525, 0.0
1526, 0.0
1527, 0.0
1528, 0.0
1529, 0.0
1530, 0.0
1531, 0.0
1532, 0.0
1533, 0.0
1534, 0.0
1535, 0.0
1536, 0.0
1537, 0.0
1538, 0.0
1539, 0.0
1540, 0.0
1541, 0.0
1542, 0.0
1543, 0.0
1544, 0.0
1545, 0.0
1546, 0.0
1547, 0.0
1548, 0.0
1549, 0.0
1550, 0.0
1551, 0.0
1552, 0.0
1553, 0.0
1554, 0.0
1555, 0.0
1556, 0.0
1557, 0.0
1558, 0.0
1559, 0.0
1560, 0.0
1561, 0.0
1562, 0.0
1563, 0.0
1564, 0.0
1565, 0.0
1566, 0.0
1567, 0.0
1568, 0.0
1569, 0.0
1570, 0.0
1571, 0.0
1572, 0.0
1573, 0.0
1574, 0.0
1575, 0.0
1576, 0.0
1577, 0.0
1578, 0.0
1579, 0.0
1580, 0.0
1581, 0.0
1582, 0.0
1583, 0.0
1584, 0.0
1585, 0.0
1586, 0.0
1587, 0.0
1588, 0.0
1589, 0.0
1590, 0.0
1591, 0.0
1592, 0.0
1593, 0.0
1594, 0.0
1595, 0.0
1596, 0.0
1597, 0.0
1598, 0.0
1599, 0.0
