30, 0.0
31, 0.0
32, 0.0
33, 0.0
34, 0.0
35, 0.0
36, 0.0
37, 0.0
38, 0.0
39, 0.0
40, 0.0
41, 0.0
42, 0.0
43, 0.0
44, 0.0
45, 0.0
46, 0.0
47, 0.0
48, 0.0
49, 0.0
50, 0.0
51, 0.0
52, 0.0
53, 0.0
54, 0.0
55, 0.0
56, 0.0
57, 0.0
58, 0.0
59, 0.0
60, 0.0
61, 0.0
62, 0.0
63, 0.0
64, 0.0
65, 0.0
66, 0.0
67, 0.0
68, 0.0
69, 0.0
70, 0.0
71, 0.0
72, 0.0
73, 0.0
74, 0.0
75, 0.0
76, 0.0
77, 0.0
78, 0.0
79, 0.0
80, 0.0
81, 0.0
82, 0.0
83, 0.0
84, 0.0
85, 0.0
86, 0.0
87, 0.0
88, 0.0
89, 0.0
90, 0.0
91, 0.0
92, 0.0
93, 0.0
94, 0.0
95, 0.0
96, 0.0
97, 0.0
98, 0.0
99, 0.0
100, 0.0
101, 0.0
102, 0.0
103, 0.0
104, 0.0
105, 0.0
106, 0.0
107, 0.0
108, 0.0
109, 0.0
110, 0.0
111, 0.0
112, 0.0
113, 0.0
114, 0.0
115, 0.0
116, 0.0
117, 0.0
118, 0.0
119, 0.0
120, 0.0
121, 0.0
122, 0.0
123, 0.0
124, 0.0
125, 0.0
126, 0.0
127, 0.0
128, 0.0
129, 0.0
130, 0.0
131, 0.0
132, 0.0
133, 0.0
134, 0.0
135, 0.0
136, 0.0
137, 0.0
138, 0.0
139, 0.0
140, 0.0
141, 0.0
142, 0.0
143, 0.0
144, 0.0
145, 0.0
146, 0.0
147, 0.0
148, 0.0
149, 0.0
150, 0.0
151, 0.0
152, 0.0
153, 0.0
154, 0.0
155, 0.0
156, 0.0
157, 0.0
158, 0.0
159, 0.0
160, 0.0
161, 0.0
162, 0.0
163, 0.0
164, 0.0
165, 0.0
166, 0.0
167, 0.0
168, 0.0
169, 0.0
170, 0.0
171, 0.0
172, 0.0
173, 0.0
174, 0.0
175, 0.0
176.0, 0.0004420470511843597
177.0, 0.0033766181235768892
178.0, 0.003786848756463387
179.0, 0.004618081182503496
180.0, 0.008049500581611189
181.0, 0.0071328494198749
182.0, 0.005189378059225615
183.0, 0.0034227847470865262
184.0, 0.002896869686821534
185.0, 0.0010019798289745497
186.0, 0.0009857978501233954
187.0, 0.0010443885727273957
188.0, 0.0011933218191657934
189.0, 0.0036559343367176898
190.0, 0.0032450923362515385
191.0, 0.006436993732830972
192.0, 0.009172072033035293
193.0, 0.007964363604615252
194.0, 0.01222146110628467
195.0, 0.014374785172613654
196.0, 0.015896310126745458
197.0, 0.018634324980522546
198.0, 0.020265658653640682
199.0, 0.026613642410184168
200.0, 0.027964091209335705
201.0, 0.026262015528054884
202.0, 0.02544777738900699
203.0, 0.022418861146867475
204.0, 0.022252912958167448
205.0, 0.024361318264713796
206.0, 0.026697100326894953
207.0, 0.026562144256527434
208.0, 0.024758676192179366
209.0, 0.024283528938076945
210.0, 0.024179552907386458
211.0, 0.020989546525009718
212.0, 0.01697404738992859
213.0, 0.012629655468686515
214.0, 0.008152203136151594
215.0, 0.0034114160099601998
216.0, 0.001797400224833442
217.0, 0.0029086114708216817
218.0, 0.006359882843675564
219.0, 0.009592951143028241
220.0, 0.007076220045760568
221.0, 0.008559375839966911
222.0, 0.006743009314380762
223.0, 0.002736079342875721
224.0, 0.0008092804403876732
225.0, 0.003515775502244757
226.0, 0.006353339519593865
227.0, 0.013448802575450456
228.0, 0.023312437846720647
229.0, 0.03108330228853731
230.0, 0.040162873661551135
231.0, 0.048847565929593446
232.0, 0.059265162053758064
233.0, 0.07258069441615024
234.0, 0.08701196885273069
235.0, 0.09984693052220128
236.0, 0.11290898135958005
237.0, 0.12562738276230795
238.0, 0.13625251941448885
239.0, 0.14668129924380022
240.0, 0.15581801557415756
241.0, 0.16313120616086016
242.0, 0.16895122834074985
243.0, 0.1749006893677299
244.0, 0.1760248225325769
245.0, 0.18071367674162173
246.0, 0.1886798502084056
247.0, 0.19384743296364684
248.0, 0.1990457247727854
249.0, 0.20556827624355925
250.0, 0.21203323236755536
251.0, 0.2179019822583531
252.0, 0.2247145719776614
253.0, 0.23113941586022108
254.0, 0.2403786336149758
255.0, 0.24758678571161954
256.0, 0.24973651888585902
257.0, 0.25396080368479446
258.0, 0.25179413661312594
259.0, 0.2456165263042683
260.0, 0.23602334363291874
261.0, 0.22127937435396042
262.0, 0.20415434547702452
263.0, 0.18489661939585747
264.0, 0.16291611784799523
265.0, 0.1395837855747407
266.0, 0.11904258286908416
267.0, 0.09951977233670416
268.0, 0.08036449067281264
269.0, 0.06334206100995077
270.0, 0.05026409521883981
271.0, 0.033194119817347496
272.0, 0.02517867241159894
273.0, 0.019674320377971115
274.0, 0.01134902425921851
275.0, 0.004749506386538289
276.0, 0.005761984284969935
277.0, 0.005099227632694346
278.0, 0.0030800804556245704
279.0, 0.0023074623837735005
280.0, 0.0014892809577808964
281.0, 0.009865917689643547
282.0, 0.018061867297098813
283.0, 0.024360147573183354
284.0, 0.033146833062457144
285.0, 0.043675858956594475
286.0, 0.05630877100206677
287.0, 0.06780017239916279
288.0, 0.0792972133818535
289.0, 0.09418721423074307
290.0, 0.10151811822849749
291.0, 0.11094475489734779
292.0, 0.12400498003563004
293.0, 0.13637099666411348
294.0, 0.14444876902970086
295.0, 0.15552933919337078
296.0, 0.17331086512251648
297.0, 0.19317914358360655
298.0, 0.21225579521484728
299.0, 0.24085887450102494
300.0, 0.2674888937403261
301.0, 0.3018152508975642
302.0, 0.3432399523369291
303.0, 0.3839180743034526
304.0, 0.4309137354980813
305.0, 0.47995482851683563
306.0, 0.5311238542517034
307.0, 0.5846204052964696
308.0, 0.6390926330302564
309.0, 0.694907123584031
310.0, 0.747617885009886
311.0, 0.797202871376089
312.0, 0.8450275360067028
313.0, 0.8916625360412894
314.0, 0.9256345582960158
315.0, 0.9576218134501135
316.0, 0.984772979265718
317.0, 0.9979890937248398
318.0, 0.9985004234527831
319.0, 0.9850130078101953
320.0, 0.9652385379998658
321.0, 0.937873520643874
322.0, 0.9002728974931071
323.0, 0.8654400162113542
324.0, 0.8236171589618065
325.0, 0.7802214913670712
326.0, 0.7416370354190526
327.0, 0.7082019726962374
328.0, 0.6726427493791942
329.0, 0.6449292217937477
330.0, 0.6214663296826225
331.0, 0.5968604461020547
332.0, 0.5713065228568209
333.0, 0.5514230442120477
334.0, 0.5318304546319915
335.0, 0.5145773411228513
336.0, 0.4999391154528726
337.0, 0.48158864364770243
338.0, 0.4543565425490342
339.0, 0.4295297926452225
340.0, 0.4070262343807267
341.0, 0.3817699424133682
342.0, 0.35042108898476343
343.0, 0.32431033144989
344.0, 0.2969508633970845
345.0, 0.26979913619300155
346.0, 0.2465235695073734
347.0, 0.22524414355979558
348.0, 0.20823983149637973
349.0, 0.1894549809692839
350.0, 0.17073329030363082
351.0, 0.15517316545856377
352.0, 0.1382614534389396
353.0, 0.12201035018314424
354.0, 0.10719115251913194
355.0, 0.0927824084902234
356.0, 0.07800703867258076
357.0, 0.06481084021274766
358.0, 0.0507132359526434
359.0, 0.03575063349046532
360.0, 0.023212206988275412
361.0, 0.014338614154241704
362.0, 0.004710064464224715
363.0, 0.001723276532479123
364.0, 0.005933312448025928
365.0, 0.009184628860822698
366.0, 0.010935076062147022
367.0, 0.010413419378599919
368.0, 0.010675722946323732
369.0, 0.00968541589967306
370.0, 0.005886098698727777
371.0, 0.0014882365923213929
372.0, 0.006176971618650572
373.0, 0.014870464252081312
374.0, 0.02075010428852846
375.0, 0.0274903930862085
376.0, 0.03955490024051715
377.0, 0.04600049323852228
378.0, 0.057700194027901816
379.0, 0.06856598408948122
380.0, 0.07574139933092791
381.0, 0.08030522562291915
382.0, 0.08615675106070166
383.0, 0.09180732135692786
384.0, 0.09691855544349455
385.0, 0.09969373389132924
386.0, 0.09948082789204689
387.0, 0.09980680409712875
388.0, 0.09881905500629051
389.0, 0.09907530724496892
390.0, 0.09958925489117516
391.0, 0.10002017127411343
392.0, 0.1038902965299877
393.0, 0.10809912186467577
394.0, 0.11102907098850996
395.0, 0.11526561612984965
396.0, 0.12061853691123622
397.0, 0.1222458768415422
398.0, 0.12247542632229917
399.0, 0.12788008884408467
400.0, 0.1318336984295539
401.0, 0.1304549316045495
402.0, 0.1289692604904524
403.0, 0.12831661682144493
404.0, 0.12472772219075688
405.0, 0.121449177266498
406.0, 0.11964540600127749
407.0, 0.11602658848229991
408.0, 0.11204995384291043
409.0, 0.10746406100597461
410.0, 0.1018942216598353
411.0, 0.09374268597336027
412.0, 0.08330839700622863
413.0, 0.07933869831397428
414.0, 0.07521245487181434
415.0, 0.06792091147295025
416.0, 0.06007261466718218
417.0, 0.055521790238735665
418.0, 0.05210076986521555
419.0, 0.04767956102485869
420.0, 0.045238321188482956
421.0, 0.0440170085302284
422.0, 0.041555686950718256
423.0, 0.04048088576144313
424.0, 0.03918189402047461
425.0, 0.03925518257960523
426.0, 0.03792606501327558
427.0, 0.034518672504524214
428.0, 0.03424401544755338
429.0, 0.032749521328515246
430.0, 0.028859611326089236
431.0, 0.028010338833979055
432.0, 0.028612078598579123
433.0, 0.024184131631702386
434.0, 0.021514316480540262
435.0, 0.020964854244541142
436.0, 0.016670297650092987
437.0, 0.010534215949284428
438.0, 0.0078941463051184
439.0, 0.004918116072971478
440.0, 0.003066090949559507
441.0, 0.000883902733895084
442.0, 0.00041351695008873154
443.0, 0.0003861604424860866
444.0, 0.0006841909498414495
445.0, 0.0013315008207734431
446.0, 0.0014129035460290664
447.0, 0.0029386769554490795
448.0, 0.00630125858144652
449.0, 0.006346799204054729
450.0, 0.00338034335855409
451.0, 0.0042296909773548086
452.0, 0.0055897743936006794
453.0, 0.004921087992312497
454.0, 0.0029052126262923608
455.0, 0.0005174603158654614
456.0, 0.0010105177840796062
457.0, 0.0032500930084277397
458.0, 0.007399786688171395
459.0, 0.012888177031107536
460.0, 0.01492973872603371
461.0, 0.01696406943526964
462.0, 0.021270615380077212
463.0, 0.027065434062340098
464.0, 0.03247359035700699
465.0, 0.036635752975782455
466.0, 0.0406139082024977
467.0, 0.04527993012458868
468.0, 0.049681748493225805
469.0, 0.05376648037509983
470.0, 0.057892223304149386
471.0, 0.06133053186503254
472.0, 0.060296928790580906
473.0, 0.0611650049206523
474.0, 0.061980296584726195
475.0, 0.060662550476202115
476.0, 0.061767047004590285
477.0, 0.05903326741354703
478.0, 0.057112813122077395
479.0, 0.05489228966857113
480.0, 0.05320466368900216
481.0, 0.05361562764971927
482.0, 0.0508916498763403
483.0, 0.050743404636762066
484.0, 0.048532123324312455
485.0, 0.044303042615305606
486.0, 0.041041840029281025
487.0, 0.03954969092146415
488.0, 0.03756051983870017
489.0, 0.036603939541110894
490.0, 0.034169036744435444
491.0, 0.030129441232520038
492.0, 0.027647616860580655
493.0, 0.02764121569239699
494.0, 0.025735783076859073
495.0, 0.025460481971599374
496.0, 0.02525977119560774
497.0, 0.024307488654929803
498.0, 0.025495696859783562
499.0, 0.025994526092580267
500.0, 0.02370969772906855
501.0, 0.021572578521716793
502.0, 0.020941845595052598
503.0, 0.021174386515863227
504.0, 0.021575242827487604
505.0, 0.021480928952387835
506.0, 0.018732032764407547
507.0, 0.015621401376317774
508.0, 0.014536752298349706
509.0, 0.01412722957234978
510.0, 0.010482987028439993
511.0, 0.00985055881396039
512.0, 0.00966092573408539
513.0, 0.009013472853583318
514.0, 0.008632997525772701
515.0, 0.00894735326017079
516.0, 0.011882187968063115
517.0, 0.0094743840108423
518.0, 0.007227574412339496
519.0, 0.007306703242531137
520.0, 0.007159238989111793
521.0, 0.005315296157465896
522.0, 0.0032930588227191655
523.0, 0.0026657211267419522
524.0, 0.0030260008257303687
525.0, 0.0035051220401798137
526.0, 0.0035401637661539405
527.0, 0.0034178431626486826
528.0, 0.005335520868428148
529.0, 0.004422013482864918
530.0, 0.0024515993199558635
531.0, 0.0027549870250604303
532.0, 0.004692754810084018
533.0, 0.004716471921483625
534.0, 0.004272803236560174
535.0, 0.005054490165407585
536.0, 0.004886953459113687
537.0, 0.003903151657100819
538.0, 0.009081609212724585
539.0, 0.011158741775120431
540.0, 0.0122077107708005
541.0, 0.012275349819924758
542.0, 0.012863821645609596
543.0, 0.015460790627758791
544.0, 0.017269717566553485
545.0, 0.019924731432678346
546.0, 0.021090262867339192
547.0, 0.0240468593961341
548.0, 0.02965511985124996
549.0, 0.03489813802416781
550.0, 0.03710153284893382
551.0, 0.043148946032565375
552.0, 0.04833761771490072
553.0, 0.05232760940435286
554.0, 0.05796019208910546
555.0, 0.0675605013500084
556.0, 0.07561297119684764
557.0, 0.08407672376872981
558.0, 0.09353567271073145
559.0, 0.10297031015914129
560.0, 0.11249398317466398
561.0, 0.12300639313903987
562.0, 0.13162330196678476
563.0, 0.14430882774812612
564.0, 0.15778547168255194
565.0, 0.1696878835395712
566.0, 0.18094471824070718
567.0, 0.19506666091268796
568.0, 0.2097506969548227
569.0, 0.22742316959370523
570.0, 0.24768392218186838
571.0, 0.26990889734039414
572.0, 0.29415558000169056
573.0, 0.321148623456065
574.0, 0.3508674624041395
575.0, 0.3865195656978315
576.0, 0.42251002391323117
577.0, 0.4610613834792505
578.0, 0.5048373776990738
579.0, 0.5504035016255105
580.0, 0.5982105331798042
581.0, 0.6429693619250482
582.0, 0.6814256133246679
583.0, 0.7104485461606158
584.0, 0.7291474055407631
585.0, 0.7379655701547951
586.0, 0.7276942477689761
587.0, 0.702595535492734
588.0, 0.666538821866854
589.0, 0.617599366092302
590.0, 0.5601027931396222
591.0, 0.5043174409480782
592.0, 0.44637799205113915
593.0, 0.3920355465051417
594.0, 0.34280656950027205
595.0, 0.2966888841124097
596.0, 0.25560062635083886
597.0, 0.2247683354691369
598.0, 0.1969115302079751
599.0, 0.1702297853836735
600.0, 0.15034475391277777
601.0, 0.13360621005063805
602.0, 0.11745353513080134
603.0, 0.1036611414791169
604.0, 0.09165054814493294
605.0, 0.07937722625161822
606.0, 0.07093269927090463
607.0, 0.06287839227732478
608.0, 0.05427633644202904
609.0, 0.047020840994300005
610.0, 0.038795266327970604
611.0, 0.03160426359931755
612.0, 0.026626342806992036
613.0, 0.021824906564141044
614.0, 0.016744620879684403
615.0, 0.012263907116748457
616.0, 0.008505390019996638
617.0, 0.005616885623316501
618.0, 0.004344436985393855
619.0, 0.0020346898114286783
620.0, 0.00015007220665880304
621.0, 0.0004456312914048472
622.0, 0.0028128665221889993
623.0, 0.005623987921754505
624.0, 0.007103190350414524
625.0, 0.005970728623383884
626.0, 0.00565006860844762
627.0, 0.007210262622111252
628.0, 0.008148580484641088
629.0, 0.00723351234998417
630.0, 0.00742305173485486
631.0, 0.007039078939984947
632.0, 0.006473431513483896
633.0, 0.00607779842334406
634.0, 0.006132403155621137
635.0, 0.007146337810825671
636.0, 0.006158419684570798
637.0, 0.006569004472372674
638.0, 0.004203035225615107
639.0, 0.0024417385658991467
640.0, 0.002689812876077866
641.0, 0.0010651601648844307
642.0, 0.0010455404799659853
643.0, 0.00038026200669777403
644.0, 0.002773705578773898
645.0, 0.005511799759693089
646.0, 0.005384736229045645
647.0, 0.006682161565998461
648.0, 0.012323531387668273
649.0, 0.013111969319195014
650.0, 0.016017840711877694
651.0, 0.02096044571636429
652.0, 0.02439126873198014
653.0, 0.02717594272442349
654.0, 0.03267820498520772
655.0, 0.03636804842290249
656.0, 0.04084787457711856
657.0, 0.044478777368898936
658.0, 0.05309222263383859
659.0, 0.061553242089973745
660.0, 0.06504384686078546
661.0, 0.07383230480704672
662.0, 0.08201079475309848
663.0, 0.09035149710991879
664.0, 0.10022925138263397
665.0, 0.11064303145271005
666.0, 0.12020361767114877
667.0, 0.1300024115453173
668.0, 0.1433305639638906
669.0, 0.15601332250172237
670.0, 0.16635447337767198
671.0, 0.17768064650819543
672.0, 0.19104924546683583
673.0, 0.20628981557074327
674.0, 0.22391694488952696
675.0, 0.235796264513768
676.0, 0.2511864623878352
677.0, 0.26568700073925816
678.0, 0.28140128431106237
679.0, 0.3017844452650336
680.0, 0.32155714635461335
681.0, 0.331545694316408
682.0, 0.3482233913953516
683.0, 0.36677122967270254
684.0, 0.3835280746481165
685.0, 0.4003255426532344
686.0, 0.4172824971676864
687.0, 0.4325095350673912
688.0, 0.4520484296477833
689.0, 0.4678416786454205
690.0, 0.483888088517321
691.0, 0.5011807624004803
692.0, 0.5178327868675742
693.0, 0.5307218743720673
694.0, 0.5417101647253367
695.0, 0.5605744241172305
696.0, 0.5723657827137305
697.0, 0.5888260590905181
698.0, 0.6008809741951889
699.0, 0.6121022696364433
700.0, 0.6280752460329001
701.0, 0.6381078369240876
702.0, 0.6504711673097116
703.0, 0.6600656377833551
704.0, 0.6722318331157883
705.0, 0.6817850575758246
706.0, 0.6891967342218632
707.0, 0.6946910570354582
708.0, 0.692451967083103
709.0, 0.6923980515527199
710.0, 0.6889865133460612
711.0, 0.6864914044919581
712.0, 0.6784447534737457
713.0, 0.6668531025196588
714.0, 0.6585305359723558
715.0, 0.650205280159306
716.0, 0.6375284174849741
717.0, 0.6254385430484423
718.0, 0.6215513712184147
719.0, 0.6154881384114196
720.0, 0.6043519370535058
721.0, 0.5936556543928427
722.0, 0.5846939222411512
723.0, 0.5768816249330754
724.0, 0.5666276016127498
725.0, 0.553078319409894
726.0, 0.5423731118594085
727.0, 0.532681393640089
728.0, 0.5214230062982217
729.0, 0.5134102401476887
730.0, 0.5037854363888302
731.0, 0.49593869072969393
732.0, 0.484926710958142
733.0, 0.46741092152214964
734.0, 0.4509422050728608
735.0, 0.4386284238175006
736.0, 0.42071973999111517
737.0, 0.40817626685451525
738.0, 0.3952695981851458
739.0, 0.38100319334266264
740.0, 0.3651538276680934
741.0, 0.34977669377706117
742.0, 0.33620764256735125
743.0, 0.323235743261669
744.0, 0.31093501036867904
745.0, 0.29365327365341554
746.0, 0.28499017338615723
747.0, 0.2708812746577888
748.0, 0.2559250660191724
749.0, 0.24404713973054948
750.0, 0.23026619658415495
751.0, 0.21838810286124785
752.0, 0.20688794387637197
753.0, 0.19490658275231673
754.0, 0.18216515594107763
755.0, 0.17067756226574
756.0, 0.16056189505068735
757.0, 0.14988457277206974
758.0, 0.13861604579056297
759.0, 0.1305267944149148
760.0, 0.12195405304297491
761.0, 0.11282862890162713
762.0, 0.10443958055758872
763.0, 0.0965851208378717
764.0, 0.08870145851049858
765.0, 0.08155636801023815
766.0, 0.07495240802212652
767.0, 0.06883593761903324
768.0, 0.06169236641506505
769.0, 0.0563049277341021
770.0, 0.050925517037039264
771.0, 0.04588929733575431
772.0, 0.04265109140367178
773.0, 0.03729048027572499
774.0, 0.03381693473080382
775.0, 0.030611937328888054
776.0, 0.026928985146549674
777.0, 0.024418980990855512
778.0, 0.020773879562379048
779.0, 0.015945674516761
780.0, 0.013613337306795138
781.0, 0.013393410441158844
782.0, 0.011021603632936782
783.0, 0.009769733792713628
784.0, 0.009080134197421486
785.0, 0.007309105817021286
786.0, 0.006200455651918905
787.0, 0.005347715507559909
788.0, 0.0020880271728048643
789.0, 0.0017567206267449487
790.0, 0.0014516792482908345
791.0, 0.0029162946666820904
792.0, 0.0026256333566680233
793.0, 0.0007661671591546491
794.0, 0.0003406495857963512
795.0, 0.0005094138150325811
796.0, 0.0018586244243415657
797.0, 0.00014920066912676495
798.0, 0.00012243032160930901
799.0, 0.0021072300528817162
800.0, 0.0011043497661154525
801.0, 0.0011961197807549963
802.0, 0.002441154790004618
803.0, 0.0033960644754369588
804.0, 0.0031216434841761813
805.0, 0.004002845664671859
806.0, 0.003324032369997969
807.0, 0.003355221877014955
808.0, 0.003084950898489978
809.0, 0.002743157903064808
810.0, 0.003216145637171291
811.0, 0.0041059506723095
812.0, 0.0049946865475417835
813.0, 0.006083003871282108
814.0, 0.005745810617742578
815.0, 0.002919992375090051
816.0, 0.0015469065542258026
817.0, 0.0031735790179314716
818.0, 0.004341872575777564
819.0, 0.0030727435825724093
820.0, 0.0029747405996670417
821.0, 0.0013686379260848564
822.0, 0.0024505093753818866
823.0, 0.0038016551442248605
824.0, 0.0027338778301299305
825.0, 0.0007356819918579963
826.0, 0.0007877254961663061
827.0, 0.0029051327491094706
828.0, 0.0031229732659354254
829.0, 0.0012513901936538176
830.0, 0.0011342293732230634
831.0, 0.0018972657804921915
832.0, 0.0015823667785355607
833.0, 0.0012200963865421455
834.0, 0.0010114867433663702
835.0, 0.00016671081943920424
836.0, 0.00010099671724624342
837.0, 0.0020321007013324992
838.0, 0.0013460764322340527
839.0, 0.0022434880611215562
840.0, 0.001216454052116918
841.0, 0.0008966511174736693
842.0, 0.0007236955159594847
843.0, 0.00047118896844615816
844.0, 0.0018194344353171326
845.0, 0.002738826559252216
846.0, 0.0007570025103935467
847.0, 0.0033232071952260913
848.0, 0.005874414981888831
849.0, 0.005564018840491946
850.0, 0.00543525136776105
851.0, 0.006992453986333194
852.0, 0.008455332300004172
853.0, 0.00960897924856419
854.0, 0.011359554032661354
855.0, 0.012818106508510525
856.0, 0.012680377854366466
857.0, 0.01540269464060344
858.0, 0.01794402173504642
859.0, 0.01789739231558325
860.0, 0.018923076869466655
861.0, 0.021385165625732682
862.0, 0.021358353281845495
863.0, 0.024346431943943127
864.0, 0.025595744879144147
865.0, 0.026707947196474385
866.0, 0.028270604224486122
867.0, 0.03039975771325942
868.0, 0.03193969584274657
869.0, 0.032043024674124516
870.0, 0.032615416663136665
871.0, 0.034199710660304125
872.0, 0.03393831319482745
873.0, 0.037153166013076167
874.0, 0.03878687679751183
875.0, 0.03891307719975045
876.0, 0.03870705235442248
877.0, 0.03862130249106959
878.0, 0.039370734710569184
879.0, 0.04031160526011066
880.0, 0.04031659524007563
881.0, 0.040675761030998285
882.0, 0.0398196974958823
883.0, 0.04125235566521664
884.0, 0.043716950047825096
885.0, 0.04612245764958039
886.0, 0.049223136525243606
887.0, 0.05213264148341879
888.0, 0.05704306267868736
889.0, 0.06210175739442796
890.0, 0.06851585612664336
891.0, 0.07597835888148642
892.0, 0.08463273729105995
893.0, 0.09593730954978143
894.0, 0.10935215094958976
895.0, 0.12310338583879635
896.0, 0.13716977491549107
897.0, 0.1518649651946568
898.0, 0.16924932852720728
899.0, 0.18915868822995985
900.0, 0.20906591838870353
901.0, 0.22970390544898492
902.0, 0.2526147639177001
903.0, 0.2730308378862806
904.0, 0.2910651032232274
905.0, 0.3149000139092957
906.0, 0.3360545284272169
907.0, 0.35583689855505674
908.0, 0.376555724838278
909.0, 0.3970413704680831
910.0, 0.4132358397868239
911.0, 0.43093222736686715
912.0, 0.44703947871756705
913.0, 0.4575637217671362
914.0, 0.46623538209001275
915.0, 0.4746735158877763
916.0, 0.48185866827756535
917.0, 0.482788159985262
918.0, 0.4790006844731021
919.0, 0.46809804014644946
920.0, 0.4542805799747895
921.0, 0.4405695812726582
922.0, 0.4237357678452458
923.0, 0.4014165565121568
924.0, 0.38024859755273227
925.0, 0.36121405531558987
926.0, 0.33847018735391604
927.0, 0.31414778952805583
928.0, 0.2953204962114318
929.0, 0.27614502399657587
930.0, 0.25673951486741625
931.0, 0.23904571014526488
932.0, 0.22202993185317818
933.0, 0.20372176524075375
934.0, 0.18869123170596894
935.0, 0.17694261539997164
936.0, 0.16182464236007274
937.0, 0.15200970670220088
938.0, 0.1385903566629676
939.0, 0.12774739472358104
940.0, 0.12126238121362166
941.0, 0.11397994650389917
942.0, 0.10545057371058221
943.0, 0.09825508296518932
944.0, 0.09372993095182426
945.0, 0.08883525180636373
946.0, 0.08152265207288753
947.0, 0.0790596131290549
948.0, 0.07861652240445698
949.0, 0.07535341865815831
950.0, 0.07385050451706744
951.0, 0.07520217913902387
952.0, 0.0775741601286563
953.0, 0.08135116335461745
954.0, 0.08370947809997155
955.0, 0.08867154701116049
956.0, 0.09480557829169559
957.0, 0.09986016375159013
958.0, 0.10555390114454935
959.0, 0.11091186576927131
960.0, 0.11765746349047589
961.0, 0.12645688957104786
962.0, 0.13279333419986647
963.0, 0.13411436693731046
964.0, 0.13627482345616532
965.0, 0.13249464092789107
966.0, 0.12755732636081013
967.0, 0.12214960604050742
968.0, 0.11281098753688545
969.0, 0.10265140407756414
970.0, 0.09155931295375465
971.0, 0.08040646865546418
972.0, 0.07024925002900244
973.0, 0.06036075660658814
974.0, 0.05070920280660242
975.0, 0.04096191653444704
976.0, 0.03375527693696931
977.0, 0.02779798806361235
978.0, 0.02078575541539202
979.0, 0.015677289634495772
980.0, 0.01076105133219053
981.0, 0.008882464973991526
982.0, 0.008042617595066456
983.0, 0.004131489491247071
984.0, 0.00014694754486968987
985.0, 0.003452468173718208
986.0, 0.0027589372187910304
987.0, 0.006097229759085396
988.0, 0.0033309151837601974
989.0, 0.005314387268134252
990.0, 0.005106960024818774
991.0, 0.004350170244789199
992.0, 0.004930944238068217
993.0, 0.00374061226081666
994.0, 0.0023507069352027487
995.0, 0.0030959405822948653
996.0, 0.002527089964496451
997.0, 0.002098584190433555
998.0, 0.0002405488039543271
999.0, 0.00024760174076019024
1000.0, 0.0012250739987194944
1001.0, 0.0057649596303654994
1002.0, 0.008393186858176397
1003.0, 0.010198179765870567
1004.0, 0.012995245893695568
1005.0, 0.015248017603764416
1006.0, 0.019201305630173738
1007.0, 0.02522376313257634
1008.0, 0.02932801558888341
1009.0, 0.03460252132453156
1010.0, 0.040111391629568734
1011.0, 0.046124726968411085
1012.0, 0.05258730992027859
1013.0, 0.05699587437202921
1014.0, 0.064231504503534
1015.0, 0.07364074191499063
1016.0, 0.08179581509405465
1017.0, 0.09206563869449201
1018.0, 0.10280419814008876
1019.0, 0.11486860911516196
1020.0, 0.1265691169356771
1021.0, 0.1400329938855005
1022.0, 0.1523624092175432
1023.0, 0.16519136135760193
1024.0, 0.17906450791776915
1025.0, 0.19132921302948827
1026.0, 0.2009039336509968
1027.0, 0.20819032361904166
1028.0, 0.21444141769847078
1029.0, 0.21438215382266382
1030.0, 0.21421982301669187
1031.0, 0.20840406167680892
1032.0, 0.20002096115366833
1033.0, 0.18411404101827913
1034.0, 0.17206039604433238
1035.0, 0.15660870661481058
1036.0, 0.13921307318763315
1037.0, 0.12587051305397648
1038.0, 0.11406898760405478
1039.0, 0.10094232317781351
1040.0, 0.0895193612606427
1041.0, 0.08202879934157832
1042.0, 0.07314845913813446
1043.0, 0.06555280913780955
1044.0, 0.05916917298104623
1045.0, 0.05328081804739439
1046.0, 0.04690096533832207
1047.0, 0.04174389260290492
1048.0, 0.039217837395427536
1049.0, 0.03626269941013719
1050.0, 0.030635449739077815
1051.0, 0.026558613966617895
1052.0, 0.025507021148987237
1053.0, 0.023380278183912452
1054.0, 0.022055928280760712
1055.0, 0.018413426253532313
1056.0, 0.018289443487246208
1057.0, 0.015266396429323049
1058.0, 0.014732730024282777
1059.0, 0.015072811373872808
1060.0, 0.013206164304459833
1061.0, 0.01177907809092206
1062.0, 0.011777864816020578
1063.0, 0.012680195980104652
1064.0, 0.011897175023035776
1065.0, 0.009587042445234268
1066.0, 0.010288014147526909
1067.0, 0.010961028858921838
1068.0, 0.009295437594031794
1069.0, 0.00972360833604528
1070.0, 0.008105871981973215
1071.0, 0.00765138265507424
1072.0, 0.0064800265288377755
1073.0, 0.00570300961238401
1074.0, 0.005862578676226442
1075.0, 0.006635909279524551
1076.0, 0.006150775435651407
1077.0, 0.004680317849264075
1078.0, 0.0043428839874567245
1079.0, 0.004416547699038608
1080.0, 0.005402310935312457
1081.0, 0.005065828578623513
1082.0, 0.004278388042837088
1083.0, 0.0030347025543086517
1084.0, 0.002537402361799038
1085.0, 0.003471824827582535
1086.0, 0.0028297685937837313
1087.0, 0.00228072570082739
1088.0, 0.0031041424006985575
1089.0, 0.0022382242086816414
1090.0, 0.0018272188770717202
1091.0, 0.002940742741358793
1092.0, 0.001586733919389665
1093.0, 0.0021117160959686927
1094.0, 0.002324786262506449
1095.0, 0.0015029955306486043
1096.0, 0.001688635496782157
1097.0, 0.0021617779850795207
1098.0, 0.0037433404693221588
1099.0, 0.0011999891851809748
1100.0, 0.0014689907038218473
1101.0, 0.0020617469322707495
1102.0, 0.0020823285562686354
1103.0, 0.003272845928509441
1104.0, 0.0023457521509456544
1105.0, 0.0008396079936843374
1106.0, 0.000630145923890144
1107.0, 0.0008977647494400129
1108.0, 0.002750545037875044
1109.0, 0.0026960672956354834
1110.0, 0.005791135657517765
1111.0, 0.0017840395437468256
1112.0, 0.0027628250709824773
1113.0, 0.0019167244879910986
1114.0, 0.0024520757284471847
1115.0, 0.0019231764666041422
1116.0, 0.002607458079812443
1117.0, 0.0017523434253184098
1118.0, 0.00031563238226554446
1119.0, 0.00025874324729737786
1120.0, 0.00020370784102217987
1121.0, 0.0008998287531636145
1122.0, 0.0006912458562816261
1123.0, 0.0010011736540439745
1124.0, 0.001299018553079187
1125.0, 0.0007897209203018157
1126.0, 0.0022464685357692356
1127.0, 0.0021535527582854375
1128.0, 0.0007147364057499869
1129.0, 0.0002323120503453147
1130.0, 0.000455972520455197
1131.0, 0.0001372159488651999
1132.0, 0.001377727272626204
1133.0, 0.0013423400514596137
1134.0, 0.00025573696295566075
1135.0, 0.000641524201631014
1136.0, 0.0006418595852485128
1137.0, 0.0015177342164406867
1138.0, 0.0009550163643958515
1139.0, 0.0005547548254671269
1140.0, 0.0011133280169559505
1141.0, 0.00042390760473449534
1142.0, 0.00042219177295218125
1143.0, 0.0004795992790625359
1144.0, 0.00016152545753014608
1145.0, 0.0018290719021882898
1146.0, 0.0023101158521477805
1147.0, 0.0006534144133493577
1148.0, 0.000359326670668909
1149.0, 0.0016604175082261564
1150.0, 0.0008582614246557252
1151.0, 0.0008669816566473094
1152.0, 0.0019540632584509852
1153.0, 0.0007549138591313688
1154.0, 0.002963467696236414
1155.0, 0.0029585875341198416
1156.0, 0.001257936820903556
1157.0, 0.003126763773812284
1158.0, 0.002896556910577717
1159.0, 0.0006620936187224401
1160.0, 0.0018395416730412173
1161.0, 0.0037448830565400375
1162.0, 0.0020258744301618436
1163.0, 0.0012759112306306398
1164.0, 0.0015826680652784632
1165.0, 0.0015184815428371074
1166.0, 0.001551307182153112
1167.0, 0.0007632930846015023
1168.0, 0.0009490268005395521
1169.0, 0.0013904823030185115
1170.0, 0.00010217124813247749
1171.0, 7.653460457824568e-05
1172.0, 0.000644960216830382
1173.0, 0.00329953978765318
1174.0, 0.001996901957512096
1175.0, 0.0013723905847946563
1176.0, 0.0008484517504737119
1177.0, 0.0033094029846285683
1178.0, 0.001066761178514063
1179.0, 0.0010264852429804963
1180.0, 0.0014668356222630884
1181.0, 0.0027680254564228825
1182.0, 0.0063766499559015965
1183.0, 0.007628477985262324
1184.0, 0.006396510241569987
1185.0, 0.005912942857147751
1186.0, 0.006272396971196206
1187.0, 0.007344917939815188
1188.0, 0.009183124401086795
1189.0, 0.01080572565738112
1190.0, 0.008878600224571586
1191.0, 0.009367740266210513
1192.0, 0.012278581368825996
1193.0, 0.012530116663749131
1194.0, 0.012175620339348173
1195.0, 0.011739986812091954
1196.0, 0.012989774484953824
1197.0, 0.01625223161734492
1198.0, 0.015487417457447028
1199.0, 0.016861832934534936
1200.0, 0.018337537294863003
1201.0, 0.017637071456948938
1202.0, 0.018057358831125914
1203.0, 0.01920640891331905
1204.0, 0.020288540260022435
1205.0, 0.02189861874923593
1206.0, 0.021054241613086017
1207.0, 0.018120927905809266
1208.0, 0.01931098572962713
1209.0, 0.021384168878915793
1210.0, 0.02248729573337769
1211.0, 0.024960662519444905
1212.0, 0.02488753631647267
1213.0, 0.025295195877300232
1214.0, 0.025964239652468284
1215.0, 0.02775807623466961
1216.0, 0.02918322314289849
1217.0, 0.029982229988241984
1218.0, 0.03096683632836787
1219.0, 0.032496189792880034
1220.0, 0.03502433720473552
1221.0, 0.03623695152748166
1222.0, 0.039060492600121316
1223.0, 0.04097847178943532
1224.0, 0.04064257647176105
1225.0, 0.04249491760175548
1226.0, 0.04563836136516963
1227.0, 0.04951788581059774
1228.0, 0.05072572810430787
1229.0, 0.05130286846592109
1230.0, 0.053084582697224866
1231.0, 0.05705794125057396
1232.0, 0.06102589108971921
1233.0, 0.06149538923778865
1234.0, 0.06444422180472043
1235.0, 0.06572286523660432
1236.0, 0.06825364025433223
1237.0, 0.06987775626644628
1238.0, 0.07305576240465009
1239.0, 0.07652727057489925
1240.0, 0.07795778223409106
1241.0, 0.07812820694261557
1242.0, 0.08297096614460392
1243.0, 0.08732944004390573
1244.0, 0.09061026982746928
1245.0, 0.09493483554671317
1246.0, 0.09986233456873435
1247.0, 0.10364252450696804
1248.0, 0.10576072563227312
1249.0, 0.11048371045606882
1250.0, 0.1148676189564532
1251.0, 0.11884637972649657
1252.0, 0.12514802155311447
1253.0, 0.12848179855020223
1254.0, 0.13263736794032224
1255.0, 0.13965003238618573
1256.0, 0.14598835842901786
1257.0, 0.15014813383666026
1258.0, 0.15451400926097905
1259.0, 0.1587977240820002
1260.0, 0.16610933925890936
1261.0, 0.17456028304339552
1262.0, 0.18213552094289
1263.0, 0.1883062977069859
1264.0, 0.1956194295370993
1265.0, 0.20353338957516456
1266.0, 0.21110744692561534
1267.0, 0.2186582112035233
1268.0, 0.22614246235201974
1269.0, 0.23251509397968392
1270.0, 0.2418945845054021
1271.0, 0.25024550180748406
1272.0, 0.25848866140437626
1273.0, 0.2688255762373057
1274.0, 0.2771431505655226
1275.0, 0.2876508131251987
1276.0, 0.29890737808137285
1277.0, 0.30833684613051704
1278.0, 0.32242503528887156
1279.0, 0.3341187145286965
1280.0, 0.34253257671322346
1281.0, 0.35699615871700774
1282.0, 0.3707881075548623
1283.0, 0.38459028930170874
1284.0, 0.4008789839729688
1285.0, 0.4178106585128734
1286, 0.0
1287, 0.0
1288, 0.0
1289, 0.0
1290, 0.0
1291, 0.0
1292, 0.0
1293, 0.0
1294, 0.0
1295, 0.0
1296, 0.0
1297, 0.0
1298, 0.0
1299, 0.0
1300, 0.0
1301, 0.0
1302, 0.0
1303, 0.0
1304, 0.0
1305, 0.0
1306, 0.0
1307, 0.0
1308, 0.0
1309, 0.0
1310, 0.0
1311, 0.0
1312, 0.0
1313, 0.0
1314, 0.0
1315, 0.0
1316, 0.0
1317, 0.0
1318, 0.0
1319, 0.0
1320, 0.0
1321, 0.0
1322, 0.0
1323, 0.0
1324, 0.0
1325, 0.0
1326, 0.0
1327, 0.0
1328, 0.0
1329, 0.0
1330, 0.0
1331, 0.0
1332, 0.0
1333, 0.0
1334, 0.0
1335, 0.0
1336, 0.0
1337, 0.0
1338, 0.0
1339, 0.0
1340, 0.0
1341, 0.0
1342, 0.0
1343, 0.0
1344, 0.0
1345, 0.0
1346, 0.0
1347, 0.0
1348, 0.0
1349, 0.0
1350, 0.0
1351, 0.0
1352, 0.0
1353, 0.0
1354, 0.0
1355, 0.0
1356, 0.0
1357, 0.0
1358, 0.0
1359, 0.0
1360, 0.0
1361, 0.0
1362, 0.0
1363, 0.0
1364, 0.0
1365, 0.0
1366, 0.0
1367, 0.0
1368, 0.0
1369, 0.0
1370, 0.0
1371, 0.0
1372, 0.0
1373, 0.0
1374, 0.0
1375, 0.0
1376, 0.0
1377, 0.0
1378, 0.0
1379, 0.0
1380, 0.0
1381, 0.0
1382, 0.0
1383, 0.0
1384, 0.0
1385, 0.0
1386, 0.0
1387, 0.0
1388, 0.0
1389, 0.0
1390, 0.0
1391, 0.0
1392, 0.0
1393, 0.0
1394, 0.0
1395, 0.0
1396, 0.0
1397, 0.0
1398, 0.0
1399, 0.0
1400, 0.0
1401, 0.0
1402, 0.0
1403, 0.0
1404, 0.0
1405, 0.0
1406, 0.0
1407, 0.0
1408, 0.0
1409, 0.0
1410, 0.0
1411, 0.0
1412, 0.0
1413, 0.0
1414, 0.0
1415, 0.0
1416, 0.0
1417, 0.0
1418, 0.0
1419, 0.0
1420, 0.0
1421, 0.0
1422, 0.0
1423, 0.0
1424, 0.0
1425, 0.0
1426, 0.0
1427, 0.0
1428, 0.0
1429, 0.0
1430, 0.0
1431, 0.0
1432, 0.0
1433, 0.0
1434, 0.0
1435, 0.0
1436, 0.0
1437, 0.0
1438, 0.0
1439, 0.0
1440, 0.0
1441, 0.0
1442, 0.0
1443, 0.0
1444, 0.0
1445, 0.0
1446, 0.0
1447, 0.0
1448, 0.0
1449, 0.0
1450, 0.0
1451, 0.0
1452, 0.0
1453, 0.0
1454, 0.0
1455, 0.0
1456, 0.0
1457, 0.0
1458, 0.0
1459, 0.0
1460, 0.0
1461, 0.0
1462, 0.0
1463, 0.0
1464, 0.0
1465, 0.0
1466, 0.0
1467, 0.0
1468, 0.0
1469, 0.0
1470, 0.0
1471, 0.0
1472, 0.0
1473, 0.0
1474, 0.0
1475, 0.0
1476, 0.0
1477, 0.0
1478, 0.0
1479, 0.0
1480, 0.0
1481, 0.0
1482, 0.0
1483, 0.0
1484, 0.0
1485, 0.0
1486, 0.0
1487, 0.0
1488, 0.0
1489, 0.0
1490, 0.0
1491, 0.0
1492, 0.0
1493, 0.0
1494, 0.0
1495, 0.0
1496, 0.0
1497, 0.0
1498, 0.0
1499, 0.0
1500, 0.0
1501, 0.0
1502, 0.0
1503, 0.0
1504, 0.0
1505, 0.0
1506, 0.0
1507, 0.0
1508, 0.0
1509, 0.0
1510, 0.0
1511, 0.0
1512, 0.0
1513, 0.0
1514, 0.0
1515, 0.0
1516, 0.0
1517, 0.0
1518, 0.0
1519, 0.0
1520, 0.0
1521, 0.0
1522, 0.0
1523, 0.0
1524, 0.0
1525, 0.0
1526, 0.0
1527, 0.0
1528, 0.0
1529, 0.0
1530, 0.0
1531, 0.0
1532, 0.0
1533, 0.0
1534, 0.0
1535, 0.0
1536, 0.0
1537, 0.0
1538, 0.0
1539, 0.0
1540, 0.0
1541, 0.0
1542, 0.0
1543, 0.0
1544, 0.0
1545, 0.0
1546, 0.0
1547, 0.0
1548, 0.0
1549, 0.0
1550, 0.0
1551, 0.0
1552, 0.0
1553, 0.0
1554, 0.0
1555, 0.0
1556, 0.0
1557, 0.0
1558, 0.0
1559, 0.0
1560, 0.0
1561, 0.0
1562, 0.0
1563, 0.0
1564, 0.0
1565, 0.0
1566, 0.0
1567, 0.0
1568, 0.0
1569, 0.0
1570, 0.0
1571, 0.0
1572, 0.0
1573, 0.0
1574, 0.0
1575, 0.0
1576, 0.0
1577, 0.0
1578, 0.0
1579, 0.0
1580, 0.0
1581, 0.0
1582, 0.0
1583, 0.0
1584, 0.0
1585, 0.0
1586, 0.0
1587, 0.0
1588, 0.0
1589, 0.0
1590, 0.0
1591, 0.0
1592, 0.0
1593, 0.0
1594, 0.0
1595, 0.0
1596, 0.0
1597, 0.0
1598, 0.0
1599, 0.0
