30, 0.0
31, 0.0
32, 0.0
33, 0.0
34, 0.0
35, 0.0
36, 0.0
37, 0.0
38, 0.0
39, 0.0
40, 0.0
41, 0.0
42, 0.0
43, 0.0
44, 0.0
45, 0.0
46, 0.0
47, 0.0
48, 0.0
49, 0.0
50, 0.0
51, 0.0
52, 0.0
53, 0.0
54, 0.0
55, 0.0
56, 0.0
57, 0.0
58, 0.0
59, 0.0
60, 0.0
61, 0.0
62, 0.0
63, 0.0
64, 0.0
65, 0.0
66, 0.0
67, 0.0
68, 0.0
69, 0.0
70, 0.0
71, 0.0
72, 0.0
73, 0.0
74, 0.0
75, 0.0
76, 0.0
77, 0.0
78, 0.0
79, 0.0
80, 0.0
81, 0.0
82, 0.0
83, 0.0
84, 0.0
85, 0.0
86, 0.0
87, 0.0
88, 0.0
89, 0.0
90, 0.0
91, 0.0
92, 0.0
93.0, 0.008660102636223226
94.0, 0.13504522002601424
95.0, 0.22168786860080772
96.0, 0.2380533540859781
97.0, 0.22611767175894185
98.0, 0.2004052141063869
99.0, 0.17354654762826963
100.0, 0.14144566576351847
101.0, 0.10210826397351648
102.0, 0.05306140196638452
103.0, 0.01669083203103741
104.0, 0.006736187288446541
105.0, 0.015170959403053914
106.0, 0.008678684830365503
107.0, 0.012204964212209292
108.0, 0.007977323217803008
109.0, 0.006574915489682443
110.0, 0.005209372974015941
111.0, 0.00629776751418219
112.0, 0.01184238755736574
113.0, 0.02692574510726061
114.0, 0.051446732917338096
115.0, 0.06828311103970719
116.0, 0.07754462597218205
117.0, 0.08607775194756519
118.0, 0.0981679331296928
119.0, 0.08975818567343344
120.0, 0.08843056875173849
121.0, 0.09483125766654675
122.0, 0.09621693466482106
123.0, 0.09083689853353656
124.0, 0.08957203208373454
125.0, 0.08961611490804493
126.0, 0.08683537252948118
127.0, 0.08788073659464327
128.0, 0.09875424214086173
129.0, 0.11618799920827064
130.0, 0.13372156715779304
131.0, 0.14111215875928237
132.0, 0.16479145989880842
133.0, 0.18410469067873955
134.0, 0.19082666124581746
135.0, 0.20013283283742364
136.0, 0.2172405553121888
137.0, 0.24078694161484276
138.0, 0.25723833047033784
139.0, 0.2517843586236696
140.0, 0.2718608340672012
141.0, 0.277590484204166
142.0, 0.28030316702205543
143.0, 0.30977536772223063
144.0, 0.3387963123298377
145.0, 0.3546282347860468
146.0, 0.36486387642614737
147.0, 0.3794616950482303
148.0, 0.3876796547609566
149.0, 0.39654526850812044
150.0, 0.40423208611220723
151.0, 0.4068463355612686
152.0, 0.4062349914721729
153.0, 0.4035992933823089
154.0, 0.39534890693814867
155.0, 0.3833233285775187
156.0, 0.3722690492211528
157.0, 0.36560046684719694
158.0, 0.3566039978962483
159.0, 0.3348196981360055
160.0, 0.2971668392359518
161.0, 0.27808523393795265
162.0, 0.2547120913636652
163.0, 0.22434648361165763
164.0, 0.19051373214643383
165.0, 0.16012257581622463
166.0, 0.14184334038247093
167.0, 0.12869630870999835
168.0, 0.10809404089711795
169.0, 0.07622533948198813
170.0, 0.06337586137519935
171.0, 0.05459437590361184
172.0, 0.04696266990742839
173.0, 0.0421852561000849
174.0, 0.035016827601990735
175.0, 0.04389140837689004
176.0, 0.04827200761152539
177.0, 0.041611938570422786
178.0, 0.04734767211733056
179.0, 0.05682665421742382
180.0, 0.057990540463612135
181.0, 0.058731965574040056
182.0, 0.06997472753897631
183.0, 0.0626218181492478
184.0, 0.06768074331063047
185.0, 0.07984106661589145
186.0, 0.0846319175795202
187.0, 0.08065940901008198
188.0, 0.08171648003974344
189.0, 0.07207812524473002
190.0, 0.055984246731505476
191.0, 0.05424188603047233
192.0, 0.04084432326599942
193.0, 0.02478758296030099
194.0, 0.014993467317675075
195.0, 0.013627572564052037
196.0, 0.008718932975087903
197.0, 0.004617648480356279
198.0, 0.005802680243253452
199.0, 0.008838085986553185
200.0, 0.009714283996611447
201.0, 0.0035220117549052913
202.0, 0.005351601855428902
203.0, 0.0072470245992935075
204.0, 0.006562344420742977
205.0, 0.006759969825002143
206.0, 0.007006474448010953
207.0, 0.004575707817157581
208.0, 0.015997664829545455
209.0, 0.010947694804194443
210.0, 0.012949301961454603
211.0, 0.015341770690408688
212.0, 0.01656906050072206
213.0, 0.025016625921222772
214.0, 0.02769123555410939
215.0, 0.025149992839440187
216.0, 0.024531605764509273
217.0, 0.031927042178358976
218.0, 0.039282766761580296
219.0, 0.036271213986085744
220.0, 0.033980805291363776
221.0, 0.03364224082088064
222.0, 0.026738287763674956
223.0, 0.032574895770945
224.0, 0.031744218269224155
225.0, 0.03440251797801819
226.0, 0.046420653100876036
227.0, 0.043654625216958225
228.0, 0.02917634259781
229.0, 0.028746633606799958
230.0, 0.04123789060462293
231.0, 0.047533422291094946
232.0, 0.06086174057309472
233.0, 0.05323012581379808
234.0, 0.04674051713741566
235.0, 0.06031490724277533
236.0, 0.05136910941955851
237.0, 0.04843831233093547
238.0, 0.054087678943650935
239.0, 0.06441993790767912
240.0, 0.07396928948795019
241.0, 0.05776023480066856
242.0, 0.041793038124761074
243.0, 0.039611470846923146
244.0, 0.046251991252555885
245.0, 0.04269815425358264
246.0, 0.03436913416835091
247.0, 0.027981527804558384
248.0, 0.029654240020087236
249.0, 0.03885411566495844
250.0, 0.026053702603376905
251.0, 0.024322938863033574
252.0, 0.022867987784897733
253.0, 0.010758762938836059
254.0, 0.0038156779319263737
255.0, 0.017862339898888874
256.0, 0.011159820385874583
257.0, 0.012716074425823993
258.0, 0.013541442143510139
259.0, 0.008044956227895545
260.0, 0.0037502263067011456
261.0, 0.00784315320062986
262.0, 0.007425624037699729
263.0, 0.007823764536781455
264.0, 0.01126405265973208
265.0, 0.003680753728499169
266.0, 0.014578809745734224
267.0, 0.013248629620628016
268.0, 0.03467651230017584
269.0, 0.04649145019183012
270.0, 0.058253140207220055
271.0, 0.07189705382637684
272.0, 0.07940635938603968
273.0, 0.08072957344472849
274.0, 0.09751111219037652
275.0, 0.11938087076944082
276.0, 0.13658705924357556
277.0, 0.15025030782624804
278.0, 0.15586516495233915
279.0, 0.1630793231037193
280.0, 0.17946734769797076
281.0, 0.20511114377916653
282.0, 0.2141307750495823
283.0, 0.23713275326900207
284.0, 0.2554661944859797
285.0, 0.2651958537169799
286.0, 0.2800402003436824
287.0, 0.27442559733735755
288.0, 0.28111447586605404
289.0, 0.2983158669229894
290.0, 0.3087955764082021
291.0, 0.3072526778457911
292.0, 0.3088981045438908
293.0, 0.3248086035939245
294.0, 0.3243482597143039
295.0, 0.3025424494007858
296.0, 0.3039055524958449
297.0, 0.29957422844907117
298.0, 0.288929847640497
299.0, 0.2793699384292013
300.0, 0.27249465433237413
301.0, 0.25116803303626306
302.0, 0.23960991304012313
303.0, 0.2286302569611085
304.0, 0.21668331070823127
305.0, 0.21629253008719054
306.0, 0.21845967344932826
307.0, 0.2088366564572449
308.0, 0.20264301694545395
309.0, 0.20702724034339257
310.0, 0.1949783384014427
311.0, 0.18665661720682356
312.0, 0.17609582786176575
313.0, 0.16808919837891592
314.0, 0.16664157614903932
315.0, 0.15677994206425602
316.0, 0.161378031249639
317.0, 0.15036088052757302
318.0, 0.1334878324034121
319.0, 0.13238873430089645
320.0, 0.13261617606261658
321.0, 0.1256291031623487
322.0, 0.11914939816653837
323.0, 0.1182448847063796
324.0, 0.12105384003810725
325.0, 0.1227634039240611
326.0, 0.11833173617949853
327.0, 0.11752763819471378
328.0, 0.11969579430255181
329.0, 0.11545895216668338
330.0, 0.11744835728318341
331.0, 0.11197594358581654
332.0, 0.09595932088181015
333.0, 0.07929399994233133
334.0, 0.08936133717872462
335.0, 0.09055238719661843
336.0, 0.07667441456526791
337.0, 0.07447390563722946
338.0, 0.08772862751989464
339.0, 0.063247544049476
340.0, 0.058527501651214474
341.0, 0.058789536177460244
342.0, 0.048353442169393024
343.0, 0.039335824975352
344.0, 0.05119548721284069
345.0, 0.03867292732497472
346.0, 0.03735534797963173
347.0, 0.03954072235727664
348.0, 0.03402392209531014
349.0, 0.039211545875155816
350.0, 0.039327348374365134
351.0, 0.0365848835639279
352.0, 0.029540192030826303
353.0, 0.02022511919899013
354.0, 0.024101925817030252
355.0, 0.02327972826461998
356.0, 0.022257923734830327
357.0, 0.027498327570763183
358.0, 0.0383634121274659
359.0, 0.02121551017787241
360.0, 0.023253011003635415
361.0, 0.02777792254001209
362.0, 0.026160025423693813
363.0, 0.023403778499905062
364.0, 0.027565442074002362
365.0, 0.03661837746996174
366.0, 0.03320749724333625
367.0, 0.020551463998322406
368.0, 0.01755550041321105
369.0, 0.02520535748795825
370.0, 0.02811789106436752
371.0, 0.02822514252151267
372.0, 0.02509514085225963
373.0, 0.018743173782008443
374.0, 0.020966629373604044
375.0, 0.029268477901035535
376.0, 0.024240278307861372
377.0, 0.02121365643567443
378.0, 0.03323521793176289
379.0, 0.015007738982513542
380.0, 0.009881357434250873
381.0, 0.02262376274069949
382.0, 0.03412616125117099
383.0, 0.03239660165145666
384.0, 0.028311977817542907
385.0, 0.013373544799739859
386.0, 0.010217331328014015
387.0, 0.014534619592814386
388.0, 0.012322555045972742
389.0, 0.008467889625030686
390.0, 0.0058066936150231105
391.0, 0.01021358654444278
392.0, 0.014710859981401578
393.0, 0.012158062456402613
394.0, 0.007496340015368845
395.0, 0.015392201189863553
396.0, 0.005792774529008816
397.0, 0.005649080311164961
398.0, 0.010234929061575877
399.0, 0.007954259803568942
400.0, 0.007308773829319412
401.0, 0.010692802024790933
402.0, 0.008927887157834036
403.0, 0.007847410219095593
404.0, 0.0032115446818249288
405.0, 0.008371382721694786
406.0, 0.012365876239019961
407.0, 0.011634707700593864
408.0, 0.009566530686955671
409.0, 0.007572672573139056
410.0, 0.004678637059616406
411.0, 0.003257654417962066
412.0, 0.008794516366105738
413.0, 0.0049383265667063
414.0, 0.012472847080742575
415.0, 0.002227619845087405
416.0, 0.014549053164203499
417.0, 0.016032618822656566
418.0, 0.01036517977775077
419.0, 0.023567643373642925
420.0, 0.020724069512181847
421.0, 0.012116291115094652
422.0, 0.018672296474955316
423.0, 0.02333276607632411
424.0, 0.01138348663264539
425.0, 0.0119299607560039
426.0, 0.02171387438499787
427.0, 0.016991862990697885
428.0, 0.00934628908809789
429.0, 0.010214998314763801
430.0, 0.009681656098822301
431.0, 0.008471344035461131
432.0, 0.0036787616552751857
433.0, 0.00504061538615677
434.0, 0.012656775298960704
435.0, 0.006532851078678718
436.0, 0.005967203350746696
437.0, 0.017041646648514323
438.0, 0.01622411922764203
439.0, 0.005198029544862342
440.0, 0.006202802239200048
441.0, 0.01407355000601339
442.0, 0.02227696270886776
443.0, 0.02751173950171394
444.0, 0.03096641675402479
445.0, 0.03349156297221943
446.0, 0.03183246296737325
447.0, 0.031672095548288454
448.0, 0.032689840358457664
449.0, 0.03834241125978789
450.0, 0.047160509897865986
451.0, 0.04998055929297803
452.0, 0.056269307064581
453.0, 0.06107058494514681
454.0, 0.06655235130376164
455.0, 0.0687973708642678
456.0, 0.06502830670542036
457.0, 0.07808682813047585
458.0, 0.07743662033203479
459.0, 0.07802050649246757
460.0, 0.08791348177072532
461.0, 0.09369255607611904
462.0, 0.08357275793279596
463.0, 0.08173479354025698
464.0, 0.08127379502303372
465.0, 0.07713169303082806
466.0, 0.06593786065725132
467.0, 0.04989614189309014
468.0, 0.05088124040186855
469.0, 0.04509662302437552
470.0, 0.04244817850992696
471.0, 0.04324676384765417
472.0, 0.040794364769546856
473.0, 0.038901844737843874
474.0, 0.038590418390558844
475.0, 0.037279176081865005
476.0, 0.031318593309628745
477.0, 0.025493310163662602
478.0, 0.03027633540256246
479.0, 0.037848995278936474
480.0, 0.02311448827828602
481.0, 0.01410848587650879
482.0, 0.021249493937962945
483.0, 0.029593885868097823
484.0, 0.02017462841032734
485.0, 0.014925653099494176
486.0, 0.014364064078171585
487.0, 0.010119290230251243
488.0, 0.006231147702601743
489.0, 0.013974587926269743
490.0, 0.012190947306899621
491.0, 0.008967894973189979
492.0, 0.007759783373615841
493.0, 0.006887578040056246
494.0, 0.004046017985181534
495.0, 0.005124330499118149
496.0, 0.006003058013699692
497.0, 0.005756840615628392
498.0, 0.005510437646963795
499.0, 0.0038135982893063086
500.0, 0.008112104441490561
501.0, 0.0037941958553093648
502.0, 0.0034517734414937855
503.0, 0.004156530905597928
504.0, 0.004620098978744738
505.0, 0.007341912447176131
506.0, 0.007735825278489655
507.0, 0.0062075981822961555
508.0, 0.004583568322192576
509.0, 0.01630913632064709
510.0, 0.023913085920035004
511.0, 0.013032565588444036
512.0, 0.014497807134568927
513.0, 0.018932909327299515
514.0, 0.020315553332203688
515.0, 0.014479541608957822
516.0, 0.013241100181899963
517.0, 0.030158993893502878
518.0, 0.013382542311802864
519.0, 0.016705954766083032
520.0, 0.017728732411041326
521.0, 0.014938122472825893
522.0, 0.02091576698504915
523.0, 0.010839170394447529
524.0, 0.022063186972942694
525.0, 0.028242167246104254
526.0, 0.025585466999010133
527.0, 0.030228870861538894
528.0, 0.049148406316573724
529.0, 0.051506159901909515
530.0, 0.03459574764424956
531.0, 0.03850702937094063
532.0, 0.05189896902137455
533.0, 0.056254478912635734
534.0, 0.05818609202551966
535.0, 0.06021569132933602
536.0, 0.07370149670547275
537.0, 0.0832593889876383
538.0, 0.07955938530457848
539.0, 0.07289452663375397
540.0, 0.08958258199564209
541.0, 0.10582823139524912
542.0, 0.12326864029008894
543.0, 0.1412489249463546
544.0, 0.14862623555515944
545.0, 0.1529513125105307
546.0, 0.1832737053677781
547.0, 0.2055804240494867
548.0, 0.2125118327005866
549.0, 0.22833958735915508
550.0, 0.25636833126790254
551.0, 0.28240223900461053
552.0, 0.3019537720976351
553.0, 0.3208658207885238
554.0, 0.3468862817139543
555.0, 0.37867949643610477
556.0, 0.4099373147170202
557.0, 0.43935705364032895
558.0, 0.47216100512009423
559.0, 0.5013817616219304
560.0, 0.5383039048284197
561.0, 0.5656451642064232
562.0, 0.5763584393925563
563.0, 0.5807701014335709
564.0, 0.572045738103386
565.0, 0.5519326094221672
566.0, 0.51158141834229
567.0, 0.46019264064569504
568.0, 0.4123021065364496
569.0, 0.36790356742320196
570.0, 0.3120266429740834
571.0, 0.27377703240421614
572.0, 0.24058550316390573
573.0, 0.2060762031850026
574.0, 0.17190483366162818
575.0, 0.14374006713134538
576.0, 0.14020791454411674
577.0, 0.1213022806462639
578.0, 0.10371017086055956
579.0, 0.09393197618201111
580.0, 0.08489831276267208
581.0, 0.06958258294254671
582.0, 0.05347162313053258
583.0, 0.04071020945631914
584.0, 0.03995502844180345
585.0, 0.042505981892565804
586.0, 0.043026428653578634
587.0, 0.046357095606571024
588.0, 0.05016686165963101
589.0, 0.027065571794521917
590.0, 0.017831095676320012
591.0, 0.020647832472678998
592.0, 0.024376751413733463
593.0, 0.0273089602901464
594.0, 0.02309196502576145
595.0, 0.013307862194738403
596.0, 0.0035973808024881643
597.0, 0.00498177793039395
598.0, 0.003750945085594643
599.0, 0.006244527264896003
600.0, 0.009750357155799872
601.0, 0.0032726063447393225
602.0, 0.004668100610290907
603.0, 0.002632123449763784
604.0, 0.004484432598646017
605.0, 0.007322931518613353
606.0, 0.005316027353723526
607.0, 0.008558407194521403
608.0, 0.004872682364422099
609.0, 0.004868452936521738
610.0, 0.005591131174502242
611.0, 0.0154362013148746
612.0, 0.017672030262082614
613.0, 0.006640833881134151
614.0, 0.02282255662689251
615.0, 0.021962499240289448
616.0, 0.01467803674297714
617.0, 0.016125519043582615
618.0, 0.009086868956850888
619.0, 0.007941686415132994
620.0, 0.0036963843688115118
621.0, 0.005403719271183099
622.0, 0.009786209352994164
623.0, 0.007916298634594568
624.0, 0.014061261324824943
625.0, 0.01772604191890912
626.0, 0.019173109492852947
627.0, 0.02058839760553582
628.0, 0.015594961219008337
629.0, 0.01496489792536791
630.0, 0.02317130219881213
631.0, 0.011755879462719686
632.0, 0.010217834995745361
633.0, 0.007779998395184358
634.0, 0.010397571528393849
635.0, 0.018179996009392782
636.0, 0.02055920821191113
637.0, 0.011639202311394349
638.0, 0.004364133926119544
639.0, 0.013548034201230024
640.0, 0.007357765904772504
641.0, 0.010417400319002281
642.0, 0.019788608945594026
643.0, 0.01085021198091479
644.0, 0.01180362032020821
645.0, 0.01906044856592209
646.0, 0.013133851295035486
647.0, 0.00719004445988449
648.0, 0.003647323915766081
649.0, 0.0058241363955030155
650.0, 0.020456736091140345
651.0, 0.01584484142960848
652.0, 0.010574241742937232
653.0, 0.015046753602129315
654.0, 0.018157976614977846
655.0, 0.016663340881482407
656.0, 0.01648291362855283
657.0, 0.015217622950467632
658.0, 0.011229129187937812
659.0, 0.014479011726333771
660.0, 0.01774434357436984
661.0, 0.016383213977412745
662.0, 0.014434494156087406
663.0, 0.014618545737925575
664.0, 0.006004003756772639
665.0, 0.0029390902250684588
666.0, 0.0022922179465005134
667.0, 0.004539097781223412
668.0, 0.010946607314940366
669.0, 0.030910143938616665
670.0, 0.016722740782296824
671.0, 0.011146006926372886
672.0, 0.01771043883292624
673.0, 0.011295515076071233
674.0, 0.006129992083625423
675.0, 0.008901769242880338
676.0, 0.009382595176594394
677.0, 0.007989686338362258
678.0, 0.009825081135612632
679.0, 0.013689801455983263
680.0, 0.013172583550519356
681.0, 0.009199261005434108
682.0, 0.005919513117481788
683.0, 0.003885454634303595
684.0, 0.0027856877448628604
685.0, 0.005944529121563865
686.0, 0.004228568343379414
687.0, 0.005134421230162237
688.0, 0.008158533285037923
689.0, 0.008083679986590337
690.0, 0.007080599597274089
691.0, 0.0028207054047297993
692.0, 0.002514769815488691
693.0, 0.0023138923864795455
694.0, 0.010028723857228663
695.0, 0.009428139923483134
696.0, 0.0027369548835255546
697.0, 0.012626804210548528
698.0, 0.0026255675748322856
699.0, 0.005229122312800105
700.0, 0.007670487006908092
701.0, 0.003749031839618552
702.0, 0.0030544971076509222
703.0, 0.004902377715225803
704.0, 0.00740903507337859
705.0, 0.006399881003027357
706.0, 0.00986275811993753
707.0, 0.00792099885391781
708.0, 0.007393834772537983
709.0, 0.013614548837640768
710.0, 0.020242053917952998
711.0, 0.015689401726475826
712.0, 0.020428677001241246
713.0, 0.013310423897969883
714.0, 0.009481514474504165
715.0, 0.012142833858991347
716.0, 0.011217102932935825
717.0, 0.007018166049376518
718.0, 0.011630742131153803
719.0, 0.013504502994940083
720.0, 0.019446088335009305
721.0, 0.018978888806143915
722.0, 0.016796124835049796
723.0, 0.01903409499588809
724.0, 0.02051833117582818
725.0, 0.010271732380876556
726.0, 0.011383328067653395
727.0, 0.013120207040007381
728.0, 0.017612130263236252
729.0, 0.01657456419772213
730.0, 0.016313551553083862
731.0, 0.020508915321350824
732.0, 0.016721415125485667
733.0, 0.0250487048639162
734.0, 0.01671461216093522
735.0, 0.012218311536046652
736.0, 0.012997221990499082
737.0, 0.02025331975341439
738.0, 0.023970045727222052
739.0, 0.012575448646379871
740.0, 0.016103692011277773
741.0, 0.015463284394570205
742.0, 0.016656995120699552
743.0, 0.03178632860181326
744.0, 0.03279464487060927
745.0, 0.01985873205010363
746.0, 0.02397391788152611
747.0, 0.015409479565910737
748.0, 0.012907071813548462
749.0, 0.01869604745923108
750.0, 0.015572126289946335
751.0, 0.008797829411774533
752.0, 0.012034062830937133
753.0, 0.02352822123405028
754.0, 0.015418350666780059
755.0, 0.0055071142641737484
756.0, 0.010594627989503648
757.0, 0.01723876407541858
758.0, 0.019915305544885863
759.0, 0.013500920886298118
760.0, 0.0040569373683105895
761.0, 0.00017286213023183934
762.0, 0.0028566978339003867
763.0, 0.015452443512872864
764.0, 0.013385392541061561
765.0, 0.006728569864613864
766.0, 0.01274325780075327
767.0, 0.018989077123301387
768.0, 0.011202976684828093
769.0, 0.006364806250594269
770.0, 0.003827495214711943
771.0, 0.003483336596704718
772.0, 0.007996216255293896
773.0, 0.013386797362217012
774.0, 0.014374857912543958
775.0, 0.012731138859212447
776.0, 0.014633276265957298
777.0, 0.00694716705064151
778.0, 0.008721249995357963
779.0, 0.005993395411537996
780.0, 0.006280834705089701
781.0, 0.011317072385470955
782.0, 0.012311756453153936
783.0, 0.008978684528900722
784.0, 0.004677485233941146
785.0, 0.006171642607499474
786.0, 0.0037700471774844745
787.0, 0.002541897708502287
788.0, 0.0030601277010699084
789.0, 0.00444419677881894
790.0, 0.0052108051200967336
791.0, 0.006263184018140994
792.0, 0.01128566121514479
793.0, 0.020743750974885882
794.0, 0.020896964326817653
795.0, 0.01799195659264441
796.0, 0.019269933596419646
797.0, 0.022894054904064633
798.0, 0.019537837555913165
799.0, 0.006176945737107009
800.0, 0.007197452216901069
801.0, 0.010510854378693646
802.0, 0.015832632641257293
803.0, 0.017714213620635952
804.0, 0.014399220185458248
805.0, 0.014497642657999892
806.0, 0.019601627188659283
807.0, 0.016391627545783816
808.0, 0.011672643413135678
809.0, 0.002698353678536713
810.0, 0.009227694811621672
811.0, 0.015603174785692822
812.0, 0.017154110632593974
813.0, 0.018789048294386473
814.0, 0.012769108039357605
815.0, 0.003854623197761996
816.0, 0.007560881329994318
817.0, 0.0020063534481986316
818.0, 0.017664211251771984
819.0, 0.014166788551387125
820.0, 0.013571008925857393
821.0, 0.018215612093036564
822.0, 0.0077685286802182535
823.0, 0.009966699931742724
824.0, 0.005877821157236974
825.0, 0.0032333156145520846
826.0, 0.011494725825948193
827.0, 0.010590537341678712
828.0, 0.00494007129710094
829.0, 0.004857849960573988
830.0, 0.008477858751969984
831.0, 0.00911763146393315
832.0, 0.01668016249486095
833.0, 0.021243688433230483
834.0, 0.011571671975759822
835.0, 0.01716422507020912
836.0, 0.014628762482574768
837.0, 0.008875927970733924
838.0, 0.010145639884720519
839.0, 0.004500652461206336
840.0, 0.0192308311197623
841.0, 0.019270972356679527
842.0, 0.02221850222304564
843.0, 0.01654305249732694
844.0, 0.00337456991987016
845.0, 0.005096463498182893
846.0, 0.013304981436357544
847.0, 0.005520043087713505
848.0, 0.008791208883245041
849.0, 0.0047835482523191876
850.0, 0.011406674732969102
851.0, 0.008912547035567365
852.0, 0.0067404454049403125
853.0, 0.005371041505781885
854.0, 0.009239865640995819
855.0, 0.014861485048705558
856.0, 0.01714017432914339
857.0, 0.015507989031619422
858.0, 0.006923561320002609
859.0, 0.020953312974660944
860.0, 0.009024405281628753
861.0, 0.007632423445700405
862.0, 0.012559754451861888
863.0, 0.009689013742095728
864.0, 0.005790334347554147
865.0, 0.00815157662791211
866.0, 0.021105978640688288
867.0, 0.027840748192777688
868.0, 0.023106382300270047
869.0, 0.02153842302499846
870.0, 0.019940666631700882
871.0, 0.018883951931165734
872.0, 0.014356456723514887
873.0, 0.00422269678847979
874.0, 0.003880095639952857
875.0, 0.005891225337926245
876.0, 0.004913565773064202
877.0, 0.004089247803522131
878.0, 0.015428402861815134
879.0, 0.00670675501925211
880.0, 0.0033833503732080337
881.0, 0.011064451262895887
882.0, 0.009918505166391332
883.0, 0.0030223276945167354
884.0, 0.014739515774316975
885.0, 0.015150529439322604
886.0, 0.014325503008998585
887.0, 0.018204829527989914
888.0, 0.027529881158064852
889.0, 0.026054643623297093
890.0, 0.020191759748278464
891.0, 0.03157652155325168
892.0, 0.025329581358006135
893.0, 0.024479879321835176
894.0, 0.026655453234384403
895.0, 0.02920756763659852
896.0, 0.029134112252059537
897.0, 0.025734161133455828
898.0, 0.02136390026592048
899.0, 0.020213051654234874
900.0, 0.0275412386857539
901.0, 0.041172567175859195
902.0, 0.04752826621485396
903.0, 0.04227967628896646
904.0, 0.04604164634733746
905.0, 0.05828870144554551
906.0, 0.06215248328676889
907.0, 0.05821729710717084
908.0, 0.05674273949163372
909.0, 0.06411789913134926
910.0, 0.07889321937326961
911.0, 0.09075657737812878
912.0, 0.09858571487544682
913.0, 0.10563502638672465
914.0, 0.11159617480151172
915.0, 0.12837716897620158
916.0, 0.14481989908490459
917.0, 0.15935887374238117
918.0, 0.17234693068801057
919.0, 0.18189737356850139
920.0, 0.20815569000680276
921.0, 0.2362870327920354
922.0, 0.2600326349537079
923.0, 0.28138124589817337
924.0, 0.29995637906278955
925.0, 0.3212076969513716
926.0, 0.35388462334058657
927.0, 0.3910548039390336
928.0, 0.42665616612715207
929.0, 0.46950777180622133
930.0, 0.5071273405994138
931.0, 0.5484464360740555
932.0, 0.5888975304308323
933.0, 0.6304822396184167
934.0, 0.6768423100761779
935.0, 0.7268238288627621
936.0, 0.7674297045586738
937.0, 0.803822590685241
938.0, 0.8527611425053737
939.0, 0.8996893423958036
940.0, 0.9390304741060784
941.0, 0.962991562146332
942.0, 0.974347772285848
943.0, 0.9932077464477382
944.0, 0.9991438970696143
945.0, 0.9968629872375653
946.0, 0.9787628947713782
947.0, 0.9442549089476148
948.0, 0.9103501803654338
949.0, 0.859704466165072
950.0, 0.811382788381043
951.0, 0.7502947325484239
952.0, 0.6847632817453351
953.0, 0.609258694536518
954.0, 0.5467024139828449
955.0, 0.4902244826748774
956.0, 0.43522766537034113
957.0, 0.38427779747092594
958.0, 0.3282608213347486
959.0, 0.28285040445837956
960.0, 0.25174899856893557
961.0, 0.21482372496739346
962.0, 0.19175742213571298
963.0, 0.1622663685985563
964.0, 0.1277599925143123
965.0, 0.10094623933441452
966.0, 0.08543363510973331
967.0, 0.07217294949771594
968.0, 0.05560193905376576
969.0, 0.04428112692924657
970.0, 0.034988448363189914
971.0, 0.02277490883446039
972.0, 0.017556275912703142
973.0, 0.011983928957308517
974.0, 0.006370564231269001
975.0, 0.008943996947764571
976.0, 0.011412799550082987
977.0, 0.010068256068216049
978.0, 0.009291282203342835
979.0, 0.0057468845762833525
980.0, 0.0034645716280016204
981.0, 0.00866702451558853
982.0, 0.01442625904167002
983.0, 0.01320641959651817
984.0, 0.012953332081867032
985.0, 0.012936871864287129
986.0, 0.008576993805750648
987.0, 0.006066854916431925
988.0, 0.0034199023922047637
989.0, 0.008077383269839722
990.0, 0.009847969335448703
991.0, 0.006452504298212469
992.0, 0.010953616828420894
993.0, 0.0026977756624029106
994.0, 0.014182451427781274
995.0, 0.00947269649893982
996.0, 0.007788628335084509
997.0, 0.011809015480584247
998.0, 0.004829447754515635
999.0, 0.008036342999568916
1000.0, 0.011156194674609996
1001.0, 0.010150539935217194
1002.0, 0.011369046097664938
1003.0, 0.021579832064240776
1004.0, 0.02911665996426692
1005.0, 0.03861176068549293
1006.0, 0.04712891569458566
1007.0, 0.0653959187989605
1008.0, 0.07893751039308229
1009.0, 0.07967022671575605
1010.0, 0.08619570480467198
1011.0, 0.10389338241069138
1012.0, 0.11337764101194764
1013.0, 0.11450739256034499
1014.0, 0.12279269540601943
1015.0, 0.11861083978703298
1016.0, 0.13166435347306177
1017.0, 0.11048253623097323
1018.0, 0.08420481705030743
1019.0, 0.07353682055966342
1020.0, 0.07341323827976393
1021.0, 0.0646966297071555
1022.0, 0.04168187250161951
1023.0, 0.02654481342315026
1024.0, 0.02212341505868506
1025.0, 0.018709954186302835
1026.0, 0.014033857613663301
1027.0, 0.015060225589588503
1028.0, 0.013876588207680602
1029.0, 0.013382475276169552
1030.0, 0.01259870335631741
1031.0, 0.007825458724250159
1032.0, 0.006584082655387598
1033.0, 0.010187248738205056
1034.0, 0.023035754854249302
1035.0, 0.02913548141612543
1036.0, 0.013892509005079247
1037.0, 0.027964857755626328
1038.0, 0.017386525174134682
1039.0, 0.01683561718336095
1040.0, 0.01909527491592374
1041.0, 0.020529164688646424
1042.0, 0.02619459219221048
1043.0, 0.03268137814327462
1044.0, 0.03248721453639329
1045.0, 0.030185933612509975
1046.0, 0.0336152036903755
1047.0, 0.042309245744624455
1048.0, 0.05772478015591342
1049.0, 0.059599274540582045
1050.0, 0.07251511528083385
1051.0, 0.07625479185965334
1052.0, 0.08062182250390154
1053.0, 0.08800039032840318
1054.0, 0.09390987413068913
1055.0, 0.10097703943411493
1056.0, 0.09919896420817537
1057.0, 0.10841712573753352
1058.0, 0.11722107928608363
1059.0, 0.10536577064470053
1060.0, 0.10162944729081431
1061.0, 0.10194349003824019
1062.0, 0.09547629947831525
1063.0, 0.0864602344744671
1064.0, 0.06914029999400642
1065.0, 0.08825686422753855
1066.0, 0.06505593768175928
1067.0, 0.05261245218882759
1068.0, 0.056176687771727914
1069.0, 0.04353291073998768
1070.0, 0.03373961949107356
1071.0, 0.032029588177949715
1072.0, 0.020474396445565875
1073.0, 0.01481276483294911
1074.0, 0.02242947188935489
1075.0, 0.031563209206948675
1076.0, 0.014692507116837306
1077.0, 0.022489919241154024
1078.0, 0.017742153365298066
1079.0, 0.01938742348833252
1080.0, 0.010019237112110805
1081.0, 0.0221509267229973
1082.0, 0.025948867919416727
1083.0, 0.020464624693046395
1084.0, 0.016812014605222986
1085.0, 0.005809990528754177
1086.0, 0.001757563579814919
1087.0, 0.002830443951378515
1088.0, 0.009344172559536734
1089.0, 0.012126469990141428
1090.0, 0.016227359484612073
1091.0, 0.018372618038038187
1092.0, 0.011118289981464692
1093.0, 0.0038261242524551546
1094.0, 0.006454654615315034
1095.0, 0.008120721436595504
1096.0, 0.01481124020533256
1097.0, 0.0070155801988291775
1098.0, 0.005618340684823708
1099.0, 0.00950878889556636
1100.0, 0.01073552474384806
1101.0, 0.005311533433841286
1102.0, 0.01049276179794286
1103.0, 0.012295054187380508
1104.0, 0.008987478078078905
1105.0, 0.01284589610206441
1106.0, 0.004025604209747506
1107.0, 0.0033384189596065406
1108.0, 0.011646216140794424
1109.0, 0.017818350494627155
1110.0, 0.008460909179467343
1111.0, 0.017417369667263642
1112.0, 0.02555608005018303
1113.0, 0.01450770518201741
1114.0, 0.009414580982835253
1115.0, 0.0053017072944212314
1116.0, 0.010295505285622232
1117.0, 0.023759693989912355
1118.0, 0.014233982276993335
1119.0, 0.003585882238182147
1120.0, 0.0026343578732199733
1121.0, 0.005266505774421847
1122.0, 0.011893934860565985
1123.0, 0.013820548844196293
1124.0, 0.016202966569643387
1125.0, 0.018234737725840652
1126.0, 0.017073643433874
1127.0, 0.012039071247812198
1128.0, 0.010621171591861038
1129.0, 0.024808810340715647
1130.0, 0.04177038601787682
1131.0, 0.03200868522913341
1132.0, 0.014926063023054522
1133.0, 0.011503169996769936
1134.0, 0.023347865010974054
1135.0, 0.018538087113597158
1136.0, 0.021496803318257776
1137.0, 0.020856518634237667
1138.0, 0.021185608084735547
1139.0, 0.015197776579545543
1140.0, 0.016524546329158226
1141.0, 0.022126403061073958
1142.0, 0.02271273632156948
1143.0, 0.020662188650141546
1144.0, 0.01737603658687146
1145.0, 0.01646820802966501
1146.0, 0.01363321128737862
1147.0, 0.002508320906358349
1148.0, 0.00714280617777745
1149.0, 0.009904008209406246
1150.0, 0.01910530294941301
1151.0, 0.0388026897987115
1152.0, 0.021846237012631633
1153.0, 0.01899576381233471
1154.0, 0.01652378582449156
1155.0, 0.02799016541348625
1156.0, 0.02113383307799392
1157.0, 0.015088991884609592
1158.0, 0.01538507656867691
1159.0, 0.02117919517061008
1160.0, 0.017753436209764925
1161.0, 0.008705167026047298
1162.0, 0.0125243431843698
1163.0, 0.014316403915172915
1164.0, 0.010691687105742243
1165.0, 0.007858970078497606
1166.0, 0.021181750775279784
1167.0, 0.017307878986660325
1168.0, 0.025787431680613742
1169.0, 0.01856574593951387
1170.0, 0.022142396244493767
1171.0, 0.021374441445100437
1172.0, 0.021267440811746034
1173.0, 0.0317999752767631
1174.0, 0.038037853850490494
1175.0, 0.03404083576533923
1176.0, 0.03221779339627067
1177.0, 0.03086455355223448
1178.0, 0.030470801760014026
1179.0, 0.030488678899778073
1180.0, 0.024316405224339335
1181.0, 0.020171164794560086
1182.0, 0.014019148912223984
1183.0, 0.011428957767106689
1184.0, 0.011396461449805882
1185.0, 0.01586619778157818
1186.0, 0.02560539702698545
1187.0, 0.016508336272790698
1188.0, 0.02254475662534168
1189.0, 0.029645408627099454
1190.0, 0.03339966427208946
1191.0, 0.02776056160892074
1192.0, 0.02159971892388913
1193.0, 0.023502354520137103
1194.0, 0.02485772422935544
1195.0, 0.02156045702529326
1196.0, 0.022100460075104297
1197.0, 0.024923393211303154
1198.0, 0.02404853818081264
1199.0, 0.022844209920157076
1200.0, 0.02167723231730136
1201.0, 0.027445373467933066
1202.0, 0.025267615390429737
1203.0, 0.027376908361202112
1204.0, 0.023618236781929564
1205.0, 0.017840041760688853
1206.0, 0.028176856248072233
1207.0, 0.02392070720295131
1208.0, 0.02084038008408373
1209.0, 0.03339034390140178
1210.0, 0.031054892912508646
1211.0, 0.010017215846108358
1212.0, 0.017921757378885635
1213.0, 0.023222655216601946
1214.0, 0.01931542162894703
1215.0, 0.022393126509646772
1216.0, 0.016521373254659393
1217.0, 0.013041367864138285
1218.0, 0.019863611264258577
1219.0, 0.012456959988327174
1220.0, 0.002894250162584734
1221.0, 0.004824853598321242
1222.0, 0.002989679921223725
1223.0, 0.008901522721714999
1224.0, 0.004409773300365323
1225.0, 0.005865251723833597
1226.0, 0.009822622624366045
1227.0, 0.006524841837982153
1228.0, 0.01079453451387004
1229.0, 0.013752780613304814
1230.0, 0.012447405810720328
1231.0, 0.020143182651653067
1232.0, 0.019244483938444454
1233.0, 0.019371330717279055
1234.0, 0.017371098258764553
1235.0, 0.009916302871984677
1236.0, 0.015326906175777404
1237.0, 0.01668631510376594
1238.0, 0.014762033731349829
1239.0, 0.01341271133355554
1240.0, 0.006199462462075697
1241.0, 0.003983398162621977
1242.0, 0.006003229392834602
1243.0, 0.003375629855293042
1244.0, 0.005644253946802932
1245.0, 0.009884283988119962
1246.0, 0.015895833085998123
1247.0, 0.023927532892170027
1248.0, 0.01572425977644727
1249.0, 0.012766808538395544
1250.0, 0.022751386037941305
1251.0, 0.004165373285139982
1252.0, 0.010695594667894466
1253.0, 0.01675179514753881
1254.0, 0.006798502339506704
1255.0, 0.009658435825347401
1256.0, 0.0047030981371434365
1257.0, 0.006563962111014346
1258.0, 0.004681763112409989
1259.0, 0.006361334077958551
1260.0, 0.007039038232338927
1261.0, 0.009493269768292954
1262.0, 0.012862176983093703
1263.0, 0.01214182476727095
1264.0, 0.02099310478089167
1265.0, 0.026885474071512865
1266.0, 0.01755369299354622
1267.0, 0.01679293910306909
1268.0, 0.019617557680208807
1269.0, 0.020202103279068653
1270.0, 0.018955679602963297
1271.0, 0.013447482644480957
1272.0, 0.006178482811676792
1273.0, 0.0030449806350608477
1274.0, 0.008296790041658023
1275.0, 0.003009106817700836
1276.0, 0.0022196064765332016
1277.0, 0.009051824594626692
1278.0, 0.016790776082739874
1279.0, 0.01272103593699782
1280.0, 0.004723945358973185
1281.0, 0.005390137155708993
1282.0, 0.0029272821384843453
1283.0, 0.018070468741567824
1284.0, 0.022025580560773233
1285.0, 0.010026183936791255
1286.0, 0.002243476160838651
1287, 0.0
1288, 0.0
1289, 0.0
1290, 0.0
1291, 0.0
1292, 0.0
1293, 0.0
1294, 0.0
1295, 0.0
1296, 0.0
1297, 0.0
1298, 0.0
1299, 0.0
1300, 0.0
1301, 0.0
1302, 0.0
1303, 0.0
1304, 0.0
1305, 0.0
1306, 0.0
1307, 0.0
1308, 0.0
1309, 0.0
1310, 0.0
1311, 0.0
1312, 0.0
1313, 0.0
1314, 0.0
1315, 0.0
1316, 0.0
1317, 0.0
1318, 0.0
1319, 0.0
1320, 0.0
1321, 0.0
1322, 0.0
1323, 0.0
1324, 0.0
1325, 0.0
1326, 0.0
1327, 0.0
1328, 0.0
1329, 0.0
1330, 0.0
1331, 0.0
1332, 0.0
1333, 0.0
1334, 0.0
1335, 0.0
1336, 0.0
1337, 0.0
1338, 0.0
1339, 0.0
1340, 0.0
1341, 0.0
1342, 0.0
1343, 0.0
1344, 0.0
1345, 0.0
1346, 0.0
1347, 0.0
1348, 0.0
1349, 0.0
1350, 0.0
1351, 0.0
1352, 0.0
1353, 0.0
1354, 0.0
1355, 0.0
1356, 0.0
1357, 0.0
1358, 0.0
1359, 0.0
1360, 0.0
1361, 0.0
1362, 0.0
1363, 0.0
1364, 0.0
1365, 0.0
1366, 0.0
1367, 0.0
1368, 0.0
1369, 0.0
1370, 0.0
1371, 0.0
1372, 0.0
1373, 0.0
1374, 0.0
1375, 0.0
1376, 0.0
1377, 0.0
1378, 0.0
1379, 0.0
1380, 0.0
1381, 0.0
1382, 0.0
1383, 0.0
1384, 0.0
1385, 0.0
1386, 0.0
1387, 0.0
1388, 0.0
1389, 0.0
1390, 0.0
1391, 0.0
1392, 0.0
1393, 0.0
1394, 0.0
1395, 0.0
1396, 0.0
1397, 0.0
1398, 0.0
1399, 0.0
1400, 0.0
1401, 0.0
1402, 0.0
1403, 0.0
1404, 0.0
1405, 0.0
1406, 0.0
1407, 0.0
1408, 0.0
1409, 0.0
1410, 0.0
1411, 0.0
1412, 0.0
1413, 0.0
1414, 0.0
1415, 0.0
1416, 0.0
1417, 0.0
1418, 0.0
1419, 0.0
1420, 0.0
1421, 0.0
1422, 0.0
1423, 0.0
1424, 0.0
1425, 0.0
1426, 0.0
1427, 0.0
1428, 0.0
1429, 0.0
1430, 0.0
1431, 0.0
1432, 0.0
1433, 0.0
1434, 0.0
1435, 0.0
1436, 0.0
1437, 0.0
1438, 0.0
1439, 0.0
1440, 0.0
1441, 0.0
1442, 0.0
1443, 0.0
1444, 0.0
1445, 0.0
1446, 0.0
1447, 0.0
1448, 0.0
1449, 0.0
1450, 0.0
1451, 0.0
1452, 0.0
1453, 0.0
1454, 0.0
1455, 0.0
1456, 0.0
1457, 0.0
1458, 0.0
1459, 0.0
1460, 0.0
1461, 0.0
1462, 0.0
1463, 0.0
1464, 0.0
1465, 0.0
1466, 0.0
1467, 0.0
1468, 0.0
1469, 0.0
1470, 0.0
1471, 0.0
1472, 0.0
1473, 0.0
1474, 0.0
1475, 0.0
1476, 0.0
1477, 0.0
1478, 0.0
1479, 0.0
1480, 0.0
1481, 0.0
1482, 0.0
1483, 0.0
1484, 0.0
1485, 0.0
1486, 0.0
1487, 0.0
1488, 0.0
1489, 0.0
1490, 0.0
1491, 0.0
1492, 0.0
1493, 0.0
1494, 0.0
1495, 0.0
1496, 0.0
1497, 0.0
1498, 0.0
1499, 0.0
1500, 0.0
1501, 0.0
1502, 0.0
1503, 0.0
1504, 0.0
1505, 0.0
1506, 0.0
1507, 0.0
1508, 0.0
1509, 0.0
1510, 0.0
1511, 0.0
1512, 0.0
1513, 0.0
1514, 0.0
1515, 0.0
1516, 0.0
1517, 0.0
1518, 0.0
1519, 0.0
1520, 0.0
1521, 0.0
1522, 0.0
1523, 0.0
1524, 0.0
1525, 0.0
1526, 0.0
1527, 0.0
1528, 0.0
1529, 0.0
1530, 0.0
1531, 0.0
1532, 0.0
1533, 0.0
1534, 0.0
1535, 0.0
1536, 0.0
1537, 0.0
1538, 0.0
1539, 0.0
1540, 0.0
1541, 0.0
1542, 0.0
1543, 0.0
1544, 0.0
1545, 0.0
1546, 0.0
1547, 0.0
1548, 0.0
1549, 0.0
1550, 0.0
1551, 0.0
1552, 0.0
1553, 0.0
1554, 0.0
1555, 0.0
1556, 0.0
1557, 0.0
1558, 0.0
1559, 0.0
1560, 0.0
1561, 0.0
1562, 0.0
1563, 0.0
1564, 0.0
1565, 0.0
1566, 0.0
1567, 0.0
1568, 0.0
1569, 0.0
1570, 0.0
1571, 0.0
1572, 0.0
1573, 0.0
1574, 0.0
1575, 0.0
1576, 0.0
1577, 0.0
1578, 0.0
1579, 0.0
1580, 0.0
1581, 0.0
1582, 0.0
1583, 0.0
1584, 0.0
1585, 0.0
1586, 0.0
1587, 0.0
1588, 0.0
1589, 0.0
1590, 0.0
1591, 0.0
1592, 0.0
1593, 0.0
1594, 0.0
1595, 0.0
1596, 0.0
1597, 0.0
1598, 0.0
1599, 0.0
