30, 0.0
31, 0.0
32, 0.0
33, 0.0
34, 0.0
35, 0.0
36, 0.0
37, 0.0
38, 0.0
39, 0.0
40, 0.0
41, 0.0
42, 0.0
43, 0.0
44, 0.0
45, 0.0
46, 0.0
47, 0.0
48, 0.0
49, 0.0
50, 0.0
51, 0.0
52, 0.0
53, 0.0
54, 0.0
55, 0.0
56, 0.0
57, 0.0
58, 0.0
59, 0.0
60, 0.0
61, 0.0
62, 0.0
63, 0.0
64, 0.0
65, 0.0
66, 0.0
67, 0.0
68, 0.0
69, 0.0
70, 0.0
71, 0.0
72, 0.0
73, 0.0
74, 0.0
75, 0.0
76, 0.0
77, 0.0
78, 0.0
79, 0.0
80, 0.0
81, 0.0
82, 0.0
83, 0.0
84, 0.0
85, 0.0
86, 0.0
87, 0.0
88, 0.0
89, 0.0
90, 0.0
91, 0.0
92, 0.0
93, 0.0
94, 0.0
95, 0.0
96, 0.0
97, 0.0
98, 0.0
99, 0.0
100, 0.0
101, 0.0
102, 0.0
103, 0.0
104, 0.0
105, 0.0
106, 0.0
107, 0.0
108, 0.0
109, 0.0
110, 0.0
111, 0.0
112, 0.0
113, 0.0
114, 0.0
115, 0.0
116, 0.0
117, 0.0
118, 0.0
119, 0.0
120, 0.0
121, 0.0
122, 0.0
123, 0.0
124, 0.0
125, 0.0
126, 0.0
127, 0.0
128, 0.0
129, 0.0
130, 0.0
131, 0.0
132, 0.0
133, 0.0
134, 0.0
135, 0.0
136, 0.0
137, 0.0
138, 0.0
139, 0.0
140, 0.0
141, 0.0
142, 0.0
143, 0.0
144, 0.0
145, 0.0
146, 0.0
147, 0.0
148, 0.0
149, 0.0
150, 0.0
151, 0.0
152, 0.0
153, 0.0
154, 0.0
155, 0.0
156, 0.0
157, 0.0
158, 0.0
159, 0.0
160, 0.0
161, 0.0
162, 0.0
163, 0.0
164, 0.0
165, 0.0
166, 0.0
167, 0.0
168, 0.0
169, 0.0
170, 0.0
171, 0.0
172, 0.0
173, 0.0
174, 0.0
175, 0.0
176, 0.0
177, 0.0
178, 0.0
179, 0.0
180, 0.0
181, 0.0
182, 0.0
183, 0.0
184, 0.0
185, 0.0
186, 0.0
187, 0.0
188, 0.0
189, 0.0
190, 0.0
191, 0.0
192, 0.0
193, 0.0
194, 0.0
195, 0.0
196, 0.0
197, 0.0
198, 0.0
199, 0.0
200, 0.0
201, 0.0
202, 0.0
203, 0.0
204, 0.0
205, 0.0
206, 0.0
207, 0.0
208, 0.0
209, 0.0
210, 0.0
211, 0.0
212, 0.0
213, 0.0
214, 0.0
215, 0.0
216, 0.0
217, 0.0
218, 0.0
219, 0.0
220, 0.0
221, 0.0
222.0, 0.00013606005911193973
223.0, 0.0018583902923368521
224.0, 0.0016591425152061262
225.0, 0.0009765171675694756
226.0, 0.0032510666350294777
227.0, 0.0026627575224413298
228.0, 0.0009683416376134627
229.0, 0.004324290593735647
230.0, 0.0059093703882144135
231.0, 0.0025842760683602575
232.0, 0.0004017167556944881
233.0, 0.0008916784888856527
234.0, 0.0029808159201658324
235.0, 0.007755621112687126
236.0, 0.010995461230792786
237.0, 0.009086699530469308
238.0, 0.008923387651481615
239.0, 0.012873929256349245
240.0, 0.010725162941742077
241.0, 0.009121442134028275
242.0, 0.0119454855937631
243.0, 0.017296201510386786
244.0, 0.009869000386424649
245.0, 0.012561244480643491
246.0, 0.015200896668057632
247.0, 0.016368524655457697
248.0, 0.017309878234490577
249.0, 0.019804546118151526
250.0, 0.019486785876527128
251.0, 0.01694329289796709
252.0, 0.019948135806988482
253.0, 0.024342341823948583
254.0, 0.023359811812758466
255.0, 0.028686502298569297
256.0, 0.03459257030398479
257.0, 0.040367058665176314
258.0, 0.047898889243701614
259.0, 0.05453353238952775
260.0, 0.05420747273675971
261.0, 0.058050311793698184
262.0, 0.05710675862842737
263.0, 0.0590095263673057
264.0, 0.06399080843964139
265.0, 0.06971061270864437
266.0, 0.0732190831160173
267.0, 0.08072259183757918
268.0, 0.08160755773844275
269.0, 0.08524373392861773
270.0, 0.09103937562623066
271.0, 0.09438270031881262
272.0, 0.09633197579587373
273.0, 0.09625801624024484
274.0, 0.09498845906128575
275.0, 0.0953206641843143
276.0, 0.09383790685189655
277.0, 0.08439574219383048
278.0, 0.08256160295667464
279.0, 0.07116650404155404
280.0, 0.06370499756515383
281.0, 0.05913263355555369
282.0, 0.05438645272140034
283.0, 0.048240827082213944
284.0, 0.043398980897330956
285.0, 0.040300256902583
286.0, 0.0343265557037331
287.0, 0.027338297793564472
288.0, 0.021887105667823627
289.0, 0.016346629649888342
290.0, 0.020481644772953448
291.0, 0.020430025772153408
292.0, 0.019350712314640754
293.0, 0.017604526773978744
294.0, 0.014626229691252844
295.0, 0.01395535754909031
296.0, 0.014490807950318757
297.0, 0.013393864510077303
298.0, 0.011883731759901603
299.0, 0.011779121350202778
300.0, 0.014319297845169904
301.0, 0.016737843632737476
302.0, 0.01577462482335628
303.0, 0.01455563410028434
304.0, 0.014190171616495363
305.0, 0.014570303044124527
306.0, 0.014685346279921272
307.0, 0.01585199068687027
308.0, 0.01208814232366135
309.0, 0.010429687676033557
310.0, 0.01070825788249916
311.0, 0.012260892383558639
312.0, 0.017025902004336516
313.0, 0.02623090772029547
314.0, 0.02721947846410296
315.0, 0.029027600115106755
316.0, 0.03141638049023377
317.0, 0.03177952037031759
318.0, 0.031110442551929955
319.0, 0.034994399333339844
320.0, 0.034311469001572996
321.0, 0.02678984306584637
322.0, 0.0208047223429083
323.0, 0.024337115059095905
324.0, 0.02718742912944953
325.0, 0.022804285049348515
326.0, 0.02941053572654234
327.0, 0.02666078424598173
328.0, 0.01843792790555717
329.0, 0.020261128655221557
330.0, 0.01949734454261684
331.0, 0.0125188942393081
332.0, 0.011951290029216452
333.0, 0.008773003511313791
334.0, 0.006056015283804191
335.0, 0.013103350164102395
336.0, 0.009159261746099132
337.0, 0.013243314015873102
338.0, 0.013947562789962481
339.0, 0.011293407228166226
340.0, 0.008813694884570455
341.0, 0.00988988812320519
342.0, 0.005044647615636472
343.0, 0.0059961264300163845
344.0, 0.004838755489291766
345.0, 0.003196577271886611
346.0, 0.0033345696431581707
347.0, 0.005329758711746533
348.0, 0.0009706045001261722
349.0, 0.007363204450221748
350.0, 0.005094488929273977
351.0, 0.0019867926755791584
352.0, 0.0034400694574110574
353.0, 0.004974416408823867
354.0, 0.0049629292556772914
355.0, 0.003198577502780886
356.0, 0.004156128702440945
357.0, 0.004858630472377475
358.0, 0.0054792767694124694
359.0, 0.01070689884126224
360.0, 0.0035585744453900314
361.0, 0.0068746876753460065
362.0, 0.008149956917608565
363.0, 0.005169047627806703
364.0, 0.0014594855163542688
365.0, 0.0036050389875872547
366.0, 0.007330406356189414
367.0, 0.0033582620550714703
368.0, 0.0033947228739100387
369.0, 0.005469486285618471
370.0, 0.005980369817998572
371.0, 0.004345735705974267
372.0, 0.0027552423739493864
373.0, 0.004337880600500319
374.0, 0.0059582687411060455
375.0, 0.00768818554890612
376.0, 0.008848577480326686
377.0, 0.0074906483268673925
378.0, 0.009590017791363169
379.0, 0.00783685403352794
380.0, 0.009775544166689003
381.0, 0.010692300397782212
382.0, 0.00977471711882731
383.0, 0.012835084624685085
384.0, 0.006205185176598056
385.0, 0.009491718615538804
386.0, 0.013260470938667949
387.0, 0.012931946803078673
388.0, 0.010200612754550064
389.0, 0.011280106851671494
390.0, 0.010544852560892515
391.0, 0.00984927861829485
392.0, 0.0081937702206646
393.0, 0.009087311986234008
394.0, 0.01120009995299677
395.0, 0.009609362537390764
396.0, 0.013795036487098213
397.0, 0.008312808461823662
398.0, 0.007134042882622713
399.0, 0.005614185278040641
400.0, 0.0023923411413436318
401.0, 0.001592197028334995
402.0, 0.007148065552773149
403.0, 0.0017202371325780001
404.0, 0.0008381958489358475
405.0, 0.0034294802994455785
406.0, 0.0044429383554083456
407.0, 0.0006374112663843398
408.0, 0.0011647265078641913
409.0, 0.0032170831324934267
410.0, 0.0035297333949869747
411.0, 0.0025229143050868232
412.0, 0.0021398471073528964
413.0, 0.0033701869181110237
414.0, 0.0023939221335849805
415.0, 0.0005455959475754526
416.0, 0.0005694006085373798
417.0, 0.0016708373643720814
418.0, 0.003118974394861516
419.0, 0.003991024730558324
420.0, 0.002842254473724353
421.0, 0.0019478422117175176
422.0, 0.0009048955594637028
423.0, 0.0015234273755160407
424.0, 0.0016350895661914663
425.0, 0.0006374498804439932
426.0, 0.0025582614877914956
427.0, 0.005043240551879279
428.0, 0.0031262957522016866
429.0, 0.0019086687345630693
430.0, 0.0013506922404585486
431.0, 0.0008464158514380186
432.0, 0.0009218577240695553
433.0, 0.003135248525908187
434.0, 0.0028902496239559573
435.0, 0.002473790482422453
436.0, 0.002545438925704176
437.0, 0.003109090636537983
438.0, 0.00395174181842044
439.0, 0.005615841399164952
440.0, 0.005168890841360789
441.0, 0.006176802753282497
442.0, 0.00834292936536778
443.0, 0.010015642259763842
444.0, 0.010053242152836537
445.0, 0.010377679778803517
446.0, 0.011532456354593606
447.0, 0.009006170149656479
448.0, 0.007782195341392503
449.0, 0.00782317148201249
450.0, 0.007157893867581468
451.0, 0.005098304694693649
452.0, 0.007262096378026658
453.0, 0.0051374485627167675
454.0, 0.006021613577831482
455.0, 0.01076082948831148
456.0, 0.014608883305786496
457.0, 0.01130923257847
458.0, 0.012665938574378505
459.0, 0.009472956592207787
460.0, 0.009939505769850152
461.0, 0.010674681382510506
462.0, 0.010621632229129815
463.0, 0.011562033862602556
464.0, 0.013977894453587143
465.0, 0.01560782637174078
466.0, 0.015401318041091652
467.0, 0.01758042542071888
468.0, 0.019538784650640437
469.0, 0.019064836839110096
470.0, 0.02103193851321033
471.0, 0.018087249270448677
472.0, 0.020690883372726482
473.0, 0.020738511974093685
474.0, 0.021283259498982784
475.0, 0.022383904772561743
476.0, 0.019123811462083414
477.0, 0.020677205563832537
478.0, 0.022217373144495085
479.0, 0.021835365077564638
480.0, 0.021494847224219966
481.0, 0.021428636134339242
482.0, 0.021592622664143066
483.0, 0.025693438941035155
484.0, 0.02343871073372181
485.0, 0.02361366744056028
486.0, 0.022833904773433757
487.0, 0.021961878308106992
488.0, 0.02267960057558944
489.0, 0.02486791182229608
490.0, 0.02728664661765704
491.0, 0.024288227465117097
492.0, 0.024806121070724666
493.0, 0.026289421019358564
494.0, 0.026855722379853043
495.0, 0.026193541990984566
496.0, 0.02000483380810475
497.0, 0.022837149536689572
498.0, 0.020443180065644762
499.0, 0.021200457583207932
500.0, 0.020812474889928486
501.0, 0.016739465110590327
502.0, 0.01990077475899809
503.0, 0.020778518417060198
504.0, 0.0167694171880828
505.0, 0.014007361187891443
506.0, 0.01451964324635172
507.0, 0.016849470847465024
508.0, 0.01862164182842249
509.0, 0.02337478582385165
510.0, 0.026563416254882302
511.0, 0.02719717969643237
512.0, 0.027053116979624516
513.0, 0.026714702231066745
514.0, 0.026589202537551412
515.0, 0.02767633516526798
516.0, 0.026355322171861397
517.0, 0.026844488202923174
518.0, 0.024054143629332496
519.0, 0.02459588221498445
520.0, 0.02709229104391293
521.0, 0.024769455120935483
522.0, 0.025229930680129697
523.0, 0.028627710278690346
524.0, 0.03083521524411795
525.0, 0.032796815706706076
526.0, 0.0342392544806108
527.0, 0.03338835769164315
528.0, 0.028709430901275236
529.0, 0.03218798662551525
530.0, 0.030697012752872732
531.0, 0.026204897967270043
532.0, 0.023682497200093435
533.0, 0.023717718322655786
534.0, 0.023609375103932965
535.0, 0.022268579468173427
536.0, 0.02387232657237615
537.0, 0.02293711386512623
538.0, 0.01778119575580753
539.0, 0.013172523228734632
540.0, 0.012307828017148302
541.0, 0.0128376783261473
542.0, 0.007383624028171957
543.0, 0.008917449876973167
544.0, 0.010224169741694877
545.0, 0.010199235066018058
546.0, 0.012223595480403152
547.0, 0.01483800933228789
548.0, 0.0063496237220619645
549.0, 0.0036784195335496633
550.0, 0.006340661518707399
551.0, 0.009860883674968205
552.0, 0.007961040857214486
553.0, 0.0032108628613816584
554.0, 0.0029067160897291045
555.0, 0.005969722133546856
556.0, 0.003988981624871919
557.0, 0.0036464990961680706
558.0, 0.0016954606084133394
559.0, 0.002414185475356735
560.0, 0.004914166471884029
561.0, 0.002736925316370815
562.0, 0.00475729843845021
563.0, 0.005272757654165685
564.0, 0.005646350924945326
565.0, 0.006641011241104232
566.0, 0.004969349997013309
567.0, 0.0022279265560233804
568.0, 0.0075862387989369924
569.0, 0.005424760517824695
570.0, 0.0013694552231058854
571.0, 0.003380090445749516
572.0, 0.003958256174197876
573.0, 0.003920318123055187
574.0, 0.005638479132462979
575.0, 0.001313067849564965
576.0, 0.005987780694688805
577.0, 0.0029932969067406716
578.0, 0.0032542430617219955
579.0, 0.0028108784710271155
580.0, 0.0013755263481175285
581.0, 0.0019805275695339236
582.0, 0.0006543512021002523
583.0, 0.0003634818920921768
584.0, 0.0030252082704985807
585.0, 0.0021653081336205915
586.0, 0.0004284975288764003
587.0, 0.000339865268951662
588.0, 0.0009710050490270099
589.0, 0.00023736482428807183
590.0, 0.0006801691929659705
591.0, 0.003500096315814192
592.0, 0.0022052460643623294
593.0, 0.0020247860879367163
594.0, 0.003763503290125528
595.0, 0.0008881361602475639
596.0, 0.0024842621913149262
597.0, 0.0019991016134283833
598.0, 0.002358035563511074
599.0, 0.0031634982810594533
600.0, 0.004840829519505185
601.0, 0.006897315122244007
602.0, 0.007789252206361346
603.0, 0.010195333134083953
604.0, 0.009858720493024956
605.0, 0.012291082075738143
606.0, 0.015492653788227182
607.0, 0.013464801578357772
608.0, 0.009779064588469109
609.0, 0.018095221550682758
610.0, 0.013304819634154176
611.0, 0.014071086697427668
612.0, 0.017676558358937312
613.0, 0.018582224482061115
614.0, 0.020623409887358737
615.0, 0.02837105362668651
616.0, 0.036685170675142695
617.0, 0.020298219010634493
618.0, 0.05051848472696922
619.0, 0.045466720330345115
620.0, 0.029869144573770066
621.0, 0.022891752878785775
622.0, 0.026359086042290078
623.0, 0.03089119154551823
624.0, 0.0334987325767289
625.0, 0.03486100520306978
626.0, 0.03507003180687028
627.0, 0.04041714082003829
628.0, 0.045687907788857694
629.0, 0.04629368477606292
630.0, 0.04754955264150226
631.0, 0.04701598145738429
632.0, 0.051200246863743554
633.0, 0.05040292916107199
634.0, 0.0500925225290844
635.0, 0.04985408601468774
636.0, 0.048290616298438026
637.0, 0.047544851063600825
638.0, 0.046922654235967476
639.0, 0.041344032791483
640.0, 0.041799699404388754
641.0, 0.04185446835935403
642.0, 0.039341016254174785
643.0, 0.03703504780494676
644.0, 0.03798444766084005
645.0, 0.033054964955228354
646.0, 0.032913456108110514
647.0, 0.02859584867948341
648.0, 0.024360211018126927
649.0, 0.023249647995131083
650.0, 0.024904701065980826
651.0, 0.026201692445776338
652.0, 0.02493942678456679
653.0, 0.018450330317885316
654.0, 0.018414311970824156
655.0, 0.0210455402368583
656.0, 0.022750283605009157
657.0, 0.019868964846936607
658.0, 0.013840134833976236
659.0, 0.020035581651872136
660.0, 0.014549950624388488
661.0, 0.011012907628242639
662.0, 0.015454384844319642
663.0, 0.01742566963502169
664.0, 0.014831209652441401
665.0, 0.01332869960730994
666.0, 0.012651371584110761
667.0, 0.01232698465987221
668.0, 0.013578843825615198
669.0, 0.013967247918552098
670.0, 0.011949432547395864
671.0, 0.011426998281278298
672.0, 0.012488907438330367
673.0, 0.006847217138004358
674.0, 0.014197221676613919
675.0, 0.009400099147640345
676.0, 0.007764239863883458
677.0, 0.009681448828163288
678.0, 0.009500706825594655
679.0, 0.009384777907418509
680.0, 0.0174813751367157
681.0, 0.012793069356330879
682.0, 0.014216347260809841
683.0, 0.010522125410568186
684.0, 0.01033118926865707
685.0, 0.011522757225296368
686.0, 0.011075612151544189
687.0, 0.00994525427437504
688.0, 0.011370721846872864
689.0, 0.01042599653881804
690.0, 0.011384607843217435
691.0, 0.010407298560127665
692.0, 0.009224817617450622
693.0, 0.008687516428999833
694.0, 0.0086126965830597
695.0, 0.009539147624856503
696.0, 0.012370317615450705
697.0, 0.016339479697419015
698.0, 0.010710697007161008
699.0, 0.010368612989432407
700.0, 0.011706898037331902
701.0, 0.009270986945418403
702.0, 0.007754134646999979
703.0, 0.012926919802920713
704.0, 0.009801958015964975
705.0, 0.009792664220137547
706.0, 0.00868072947312734
707.0, 0.008641537858035477
708.0, 0.009941850220893613
709.0, 0.010111558574095215
710.0, 0.008378872996233671
711.0, 0.014463223613102854
712.0, 0.014995967899601453
713.0, 0.016887974606640148
714.0, 0.017207556271286027
715.0, 0.0173506993393651
716.0, 0.017403636203439973
717.0, 0.014639541296428903
718.0, 0.016053415288073282
719.0, 0.016357439209444064
720.0, 0.012429000728939276
721.0, 0.012768372603761971
722.0, 0.012818593746151971
723.0, 0.010446548872404425
724.0, 0.008219070785129996
725.0, 0.007601891535136857
726.0, 0.007905170324700811
727.0, 0.012370489102569448
728.0, 0.011952287633196898
729.0, 0.012136897146452084
730.0, 0.010553935918008732
731.0, 0.0067908288814188394
732.0, 0.006803178991213101
733.0, 0.011972786383026054
734.0, 0.0077855987489150215
735.0, 0.006133589922494776
736.0, 0.008639375231311384
737.0, 0.009329330551246077
738.0, 0.006802362695830058
739.0, 0.005932826711729408
740.0, 0.01157127616913101
741.0, 0.011464864209630901
742.0, 0.006177364096118968
743.0, 0.006347169872242337
744.0, 0.006937415184985148
745.0, 0.007212395069163196
746.0, 0.008067155376113824
747.0, 0.009351450042749013
748.0, 0.009463986260532742
749.0, 0.0113342353937667
750.0, 0.005734360667585791
751.0, 0.0018901275001537905
752.0, 0.0005194148126434951
753.0, 0.004984858747214425
754.0, 0.008668425321824753
755.0, 0.0017060192601153412
756.0, 0.006617097026089101
757.0, 0.008824361999387697
758.0, 0.002186095386011539
759.0, 0.014859508452174215
760.0, 0.02011543872141023
761.0, 0.0161485705392994
762.0, 0.011958663965415057
763.0, 0.0031596923290712663
764.0, 0.0030231618592950517
765.0, 0.008996393775185487
766.0, 0.008226896461459254
767.0, 0.006769120451110058
768.0, 0.005397915738218593
769.0, 0.005558801431434435
770.0, 0.008423253374928568
771.0, 0.011523693548995942
772.0, 0.010451444722880067
773.0, 0.0021930264185374975
774.0, 0.0024213766555303594
775.0, 0.005312711713995552
776.0, 0.005448743576039071
777.0, 0.006205667709678349
778.0, 0.010729782722915361
779.0, 0.009943920458863727
780.0, 0.006945023783059476
781.0, 0.0026113787280255658
782.0, 0.0071199675732581975
783.0, 0.005822989228161427
784.0, 0.0050082899771294745
785.0, 0.005299643797757285
786.0, 0.0022662477575245733
787.0, 0.005037424912369337
788.0, 0.001993466669043163
789.0, 0.009124071537236754
790.0, 0.0033564950921625867
791.0, 0.004996509743264567
792.0, 0.005495305654541567
793.0, 0.0013243741188395418
794.0, 0.0020221966042344216
795.0, 0.007649155681845142
796.0, 0.003380695916816525
797.0, 0.009550384062093631
798.0, 0.008905462080336633
799.0, 0.00863064979284193
800.0, 0.010831562418385846
801.0, 0.01092592591928058
802.0, 0.008357331236838022
803.0, 0.014354850836814906
804.0, 0.008055603661587795
805.0, 0.008875996413951004
806.0, 0.012680680938590344
807.0, 0.012731300805075443
808.0, 0.013292766002795943
809.0, 0.015339877584822885
810.0, 0.0159200282711456
811.0, 0.016696801381936053
812.0, 0.01715551254348134
813.0, 0.023399471279360994
814.0, 0.02694916548831692
815.0, 0.026090224917270508
816.0, 0.026046665292925993
817.0, 0.0256620381025691
818.0, 0.026482988376921836
819.0, 0.03856647967514177
820.0, 0.03386002022727563
821.0, 0.04095422559689093
822.0, 0.042378493258607285
823.0, 0.03875436155713042
824.0, 0.042442113765551986
825.0, 0.04865030485953468
826.0, 0.047751855629028346
827.0, 0.04615241792758981
828.0, 0.05999059819824372
829.0, 0.05762563474035705
830.0, 0.05570507662252896
831.0, 0.0624274494285162
832.0, 0.06394505453097069
833.0, 0.06369664761078353
834.0, 0.06656623816232496
835.0, 0.06918732073444393
836.0, 0.07916704139440628
837.0, 0.07902083509564563
838.0, 0.08854681311474841
839.0, 0.0971567407766475
840.0, 0.09587417643059869
841.0, 0.09664249072261744
842.0, 0.10483905927495807
843.0, 0.11322693518684072
844.0, 0.12045037840000526
845.0, 0.13411725113875728
846.0, 0.1451874833568308
847.0, 0.15114835706546884
848.0, 0.15948103278078898
849.0, 0.175818800525394
850.0, 0.19231789245657543
851.0, 0.20320414695209296
852.0, 0.21674432738853003
853.0, 0.2298644407546155
854.0, 0.25972754015632493
855.0, 0.28630265397622884
856.0, 0.3127432655235271
857.0, 0.33184446983666926
858.0, 0.35226412620113146
859.0, 0.3847604859950482
860.0, 0.42767839118278794
861.0, 0.46899280935100046
862.0, 0.5044496774180097
863.0, 0.5567252288008951
864.0, 0.6063866994135733
865.0, 0.6633087950340381
866.0, 0.7199323380678917
867.0, 0.7800372095654895
868.0, 0.8431080636311514
869.0, 0.8914657289680977
870.0, 0.945519747001417
871.0, 0.9753398183951362
872.0, 0.9878860473809687
873.0, 0.9968351546300928
874.0, 0.9893098359300094
875.0, 0.9564646300936392
876.0, 0.9055297975167885
877.0, 0.8463988702260522
878.0, 0.7713898918137025
879.0, 0.6941140115395714
880.0, 0.6221630786591882
881.0, 0.5553395274311945
882.0, 0.4897189467918244
883.0, 0.426947773158998
884.0, 0.3682876308085964
885.0, 0.320347819629786
886.0, 0.28734706614721356
887.0, 0.2455773765105908
888.0, 0.2214368980180697
889.0, 0.1865439469452361
890.0, 0.17504444809604494
891.0, 0.15816117227080506
892.0, 0.13384947213567008
893.0, 0.11897966457892269
894.0, 0.11575374089754252
895.0, 0.10270550512762595
896.0, 0.08998294245423917
897.0, 0.08335269264772155
898.0, 0.08330328457086864
899.0, 0.0756682606298712
900.0, 0.067094750911678
901.0, 0.05992230655970277
902.0, 0.053368667165405316
903.0, 0.04694927491148611
904.0, 0.04080432872716909
905.0, 0.036651916816606435
906.0, 0.030078389759295717
907.0, 0.029290181760347256
908.0, 0.02766735428544063
909.0, 0.026231131515284084
910.0, 0.023619115616385127
911.0, 0.021043002595003524
912.0, 0.02061559541368214
913.0, 0.018738358891926887
914.0, 0.01936051207851304
915.0, 0.012917877175822653
916.0, 0.00978837221984052
917.0, 0.014383999064421357
918.0, 0.012939486680285729
919.0, 0.010252771885477413
920.0, 0.011476795887479893
921.0, 0.011754499506748247
922.0, 0.009963552195914011
923.0, 0.008761866270732657
924.0, 0.01152383061952006
925.0, 0.005947329920919998
926.0, 0.00905957944933999
927.0, 0.00865960938887601
928.0, 0.0070681065766477
929.0, 0.007033005119040515
930.0, 0.006004721227113777
931.0, 0.008838399337689033
932.0, 0.010087684377567869
933.0, 0.012244307910377766
934.0, 0.0037532916479777424
935.0, 0.006185059198907741
936.0, 0.006019998530481987
937.0, 0.003034582268354844
938.0, 0.001154128006155716
939.0, 0.0016843563094304924
940.0, 0.006959794523754129
941.0, 0.00782448822971036
942.0, 0.010837696093583916
943.0, 0.009295380746605271
944.0, 0.006964109346759732
945.0, 0.002960309798488463
946.0, 0.0018969527272188964
947.0, 0.004510859895507447
948.0, 0.005639630450600803
949.0, 0.0030045963558438986
950.0, 0.005869106503323067
951.0, 0.000674247073008952
952.0, 0.005763734060700857
953.0, 0.0031861183381552737
954.0, 0.0019166721450424526
955.0, 0.0010003764856416197
956.0, 0.0019399946547208786
957.0, 0.0035084897437062507
958.0, 0.0017032572956671341
959.0, 0.005323242825785885
960.0, 0.0015426462583610773
961.0, 0.005288959153918713
962.0, 0.0014120570443954298
963.0, 0.003147715478808393
964.0, 0.006487297931857543
965.0, 0.006492266748308235
966.0, 0.00331137887416136
967.0, 0.0007950312706139998
968.0, 0.0016279214479543362
969.0, 0.0014968820997611461
970.0, 0.0010106798230270168
971.0, 0.0008850687166752583
972.0, 0.0020908367432799137
973.0, 0.0026209873970130327
974.0, 0.0029097567918067394
975.0, 0.0038380361179933746
976.0, 0.0043571317170206505
977.0, 0.0036285604761740874
978.0, 0.005698427769755241
979.0, 0.00632025645121035
980.0, 0.0042092329080683595
981.0, 0.0050579696372711185
982.0, 0.007335147945779761
983.0, 0.008423551465844167
984.0, 0.008248916252346463
985.0, 0.007273196901077721
986.0, 0.006050189554907747
987.0, 0.0058172751924391065
988.0, 0.004817527506011863
989.0, 0.0062086082775516
990.0, 0.005058050695505618
991.0, 0.00496273507312702
992.0, 0.005255705876199116
993.0, 0.005359588036876535
994.0, 0.007600099139527757
995.0, 0.011294977250251796
996.0, 0.012059791769880318
997.0, 0.010102827490177536
998.0, 0.010600644536266005
999.0, 0.008969470461172422
1000.0, 0.00410575953390322
1001.0, 0.009893929974760924
1002.0, 0.007250188246351391
1003.0, 0.003710850912787761
1004.0, 0.0069792969238307205
1005.0, 0.009153203217202711
1006.0, 0.003524752583575993
1007.0, 0.005908878831628429
1008.0, 0.010330569927580718
1009.0, 0.009941043600981431
1010.0, 0.005381643823131962
1011.0, 0.010870703387683063
1012.0, 0.009098914934005877
1013.0, 0.004501904122125149
1014.0, 0.005102323634599903
1015.0, 0.008261375008785368
1016.0, 0.007690086838647076
1017.0, 0.005956585308512029
1018.0, 0.0060704656001295005
1019.0, 0.0010130109884523234
1020.0, 0.010506615868607216
1021.0, 0.0044877426447026214
1022.0, 0.009194561573456116
1023.0, 0.01474676054313396
1024.0, 0.013951257055762415
1025.0, 0.012698878324713848
1026.0, 0.01212554225088561
1027.0, 0.009204652945145709
1028.0, 0.0047934044058006164
1029.0, 0.008112483965940807
1030.0, 0.006124311254173426
1031.0, 0.004760448029215497
1032.0, 0.007096232440199139
1033.0, 0.009015310138928116
1034.0, 0.00807102777748302
1035.0, 0.006477445902947943
1036.0, 0.007602458580565994
1037.0, 0.010639809193687845
1038.0, 0.0069787818522004585
1039.0, 0.009724298992580541
1040.0, 0.011337776919792483
1041.0, 0.008950401737151942
1042.0, 0.00871121388108141
1043.0, 0.008933404822320702
1044.0, 0.010924676633845718
1045.0, 0.013025191797215188
1046.0, 0.011810974697200938
1047.0, 0.011300270781371961
1048.0, 0.01266062884846018
1049.0, 0.011151047898060987
1050.0, 0.011196112135525923
1051.0, 0.013699666859160693
1052.0, 0.01584964366649407
1053.0, 0.015857940592246298
1054.0, 0.013142887895952651
1055.0, 0.010609214950931044
1056.0, 0.011370193446790787
1057.0, 0.014412367687109726
1058.0, 0.017130310572222154
1059.0, 0.021462982550563923
1060.0, 0.012822669888573529
1061.0, 0.017802206034904
1062.0, 0.0134281610519833
1063.0, 0.01676785757740168
1064.0, 0.017346714217261347
1065.0, 0.014681595057966531
1066.0, 0.014993053562797572
1067.0, 0.015635071591312673
1068.0, 0.013796705297779058
1069.0, 0.02036857441799747
1070.0, 0.0154805762042155
1071.0, 0.015158639711619707
1072.0, 0.019219180825228
1073.0, 0.022236063057774987
1074.0, 0.02025691623616258
1075.0, 0.015370326098167514
1076.0, 0.01567684528779934
1077.0, 0.02168686592643053
1078.0, 0.02381775906515614
1079.0, 0.019771694420143822
1080.0, 0.017411994428406685
1081.0, 0.018618743525959703
1082.0, 0.021312652520452644
1083.0, 0.031172178512245137
1084.0, 0.032184712786304887
1085.0, 0.025504573730703053
1086.0, 0.02685217671221525
1087.0, 0.028211704189395555
1088.0, 0.021063713018823267
1089.0, 0.019157604649733248
1090.0, 0.02055711375623889
1091.0, 0.01301094305977429
1092.0, 0.013564749579494429
1093.0, 0.01814767802605841
1094.0, 0.014860049020496778
1095.0, 0.01654837352666939
1096.0, 0.019239188476565538
1097.0, 0.015815881752229904
1098.0, 0.011299322728405807
1099.0, 0.012871766915643736
1100.0, 0.015927120264196588
1101.0, 0.013556635686666658
1102.0, 0.014615408542604413
1103.0, 0.008735753435017453
1104.0, 0.006765368028552609
1105.0, 0.00652235870248779
1106.0, 0.014642595650012896
1107.0, 0.01556886721472495
1108.0, 0.013770421618377889
1109.0, 0.013422687054233707
1110.0, 0.011649524886506557
1111.0, 0.008972420227882388
1112.0, 0.008356127179496268
1113.0, 0.005217186242739618
1114.0, 0.00718218385661249
1115.0, 0.011191638493721956
1116.0, 0.017537243056525893
1117.0, 0.014154694585427258
1118.0, 0.018390880246505703
1119.0, 0.01921087305880025
1120.0, 0.01858826154985686
1121.0, 0.017451039990895974
1122.0, 0.014088085190788078
1123.0, 0.018118825840228676
1124.0, 0.016595298584208232
1125.0, 0.022503262466724454
1126.0, 0.010288127517555415
1127.0, 0.005089057023825746
1128.0, 0.010179124430566771
1129.0, 0.009508070439215806
1130.0, 0.01221202175061407
1131.0, 0.014504259795566823
1132.0, 0.01328603911050702
1133.0, 0.010440895809421886
1134.0, 0.00840680417442164
1135.0, 0.013315278545902845
1136.0, 0.01684288798874473
1137.0, 0.008498478274348813
1138.0, 0.009671036985461406
1139.0, 0.008016356430071873
1140.0, 0.002117205189151439
1141.0, 0.00873772207640781
1142.0, 0.008968154473745446
1143.0, 0.006628156981049749
1144.0, 0.010188595495670751
1145.0, 0.01242218264649936
1146.0, 0.010160689521343353
1147.0, 0.013083778453234439
1148.0, 0.008055595350646644
1149.0, 0.008136510499668646
1150.0, 0.0010715778991928497
1151.0, 0.005785932208659127
1152.0, 0.00808409249626035
1153.0, 0.0034938873987841474
1154.0, 0.0016791431715569957
1155.0, 0.004822004147279347
1156.0, 0.007990166538515852
1157.0, 0.008357485137521744
1158.0, 0.006382921033127646
1159.0, 0.0036177968847016365
1160.0, 0.007207991739831567
1161.0, 0.00768166010333501
1162.0, 0.004117134555872684
1163.0, 0.007091577235412718
1164.0, 0.004967274824196758
1165.0, 0.0016663947165813336
1166.0, 0.006042445325742778
1167.0, 0.005223501492996242
1168.0, 0.0035464071663381925
1169.0, 0.006576618093607099
1170.0, 0.002698709522716689
1171.0, 0.003109066172949922
1172.0, 0.0039523134802925694
1173.0, 0.005039413243710198
1174.0, 0.00198799098558952
1175.0, 0.0003331947517533411
1176.0, 0.005000775641731103
1177.0, 0.0035555033356727767
1178.0, 0.0014436977397518569
1179.0, 0.0032282185557112003
1180.0, 0.0045842706478715555
1181.0, 0.0024264033892121488
1182.0, 0.0015618689841256765
1183.0, 0.004951954796743875
1184.0, 0.004847978613660076
1185.0, 0.00473394252530116
1186.0, 0.006883506171617466
1187.0, 0.0024389555877493666
1188.0, 0.0018120931696030739
1189.0, 0.008241879946863682
1190.0, 0.004997116498421444
1191.0, 0.0009532834332344792
1192.0, 0.004236781625616983
1193.0, 0.008654981603536904
1194.0, 0.010412353546940858
1195.0, 0.010615294365654409
1196.0, 0.0035017295906764716
1197.0, 0.0033839308575380643
1198.0, 0.0063726930066723576
1199.0, 0.0038426985761513413
1200.0, 0.0038533107705329413
1201.0, 0.00611297893308885
1202.0, 0.0076988773741022655
1203.0, 0.008549704809565057
1204.0, 0.005912421206440457
1205.0, 0.00729876070760206
1206.0, 0.011216193221298066
1207.0, 0.008987502799499657
1208.0, 0.0031475160113162586
1209.0, 0.0012255542989661218
1210.0, 0.005669812325727884
1211.0, 0.003568664327340398
1212.0, 0.003970353789298648
1213.0, 0.005794929444352512
1214.0, 0.006216780731746251
1215.0, 0.002909975658480169
1216.0, 0.009679345591583354
1217.0, 0.006672548315075695
1218.0, 0.0016463493319922818
1219.0, 0.0027745300385867257
1220.0, 0.003173944939309216
1221.0, 0.0019667982533867227
1222.0, 0.004335698194172625
1223.0, 0.011061239393709357
1224.0, 0.0076620372192681835
1225.0, 0.004965725661504347
1226.0, 0.007216209507135427
1227.0, 0.0048828420944126115
1228.0, 0.008318162636956025
1229.0, 0.003736995110346173
1230.0, 0.006194554876398718
1231.0, 0.005996250420570369
1232.0, 0.0037811467525197665
1233.0, 0.0033258858387694413
1234.0, 0.0015936947248229457
1235.0, 0.0028788416074386125
1236.0, 0.005388874701412725
1237.0, 0.004355902247011611
1238.0, 0.010203893321443499
1239.0, 0.00585771483143303
1240.0, 0.0058792399710780865
1241.0, 0.011442230018312436
1242.0, 0.005849394456616621
1243.0, 0.005618622690185928
1244.0, 0.007993591666311193
1245.0, 0.010220835131793522
1246.0, 0.006945323036559863
1247.0, 0.0017870188972765367
1248.0, 0.008729305693093551
1249.0, 0.028619632639621473
1250.0, 0.039469388226115384
1251.0, 0.011256423296500269
1252.0, 0.0038131605575988654
1253.0, 0.011230896373722921
1254.0, 0.005592738228620629
1255.0, 0.007586153486145492
1256.0, 0.0045217396072023295
1257.0, 0.0014022330775811387
1258.0, 0.005713633594499747
1259.0, 0.006832156771200602
1260.0, 0.00323321998373739
1261.0, 0.0016135681562128169
1262.0, 0.005460456763216516
1263.0, 0.009911039813427443
1264.0, 0.006359208690145286
1265.0, 0.016439173921474762
1266.0, 0.007556078856149015
1267.0, 0.006441997169869963
1268.0, 0.010045777748214163
1269.0, 0.007359605277580357
1270.0, 0.008170882818863223
1271.0, 0.005862479844415295
1272.0, 0.006546386341458125
1273.0, 0.009831075916432352
1274.0, 0.009276288596315555
1275.0, 0.004061924722254777
1276.0, 0.002003920157700684
1277.0, 0.010703682648745723
1278.0, 0.019519621497052265
1279.0, 0.009064107285335493
1280.0, 0.016746763125018497
1281.0, 0.009240370041712366
1282.0, 0.01104017430586858
1283.0, 0.010322972985060064
1284.0, 0.003556281472018228
1285.0, 0.00273473384955515
1286.0, 0.0012789374964013406
1287.0, 0.003456304844368277
1288.0, 0.009113554371018096
1289.0, 0.015026114546802812
1290.0, 0.014853016192212281
1291.0, 0.009588569586898578
1292.0, 0.005590395813556766
1293.0, 0.0029312251521514906
1294.0, 0.005593256585032749
1295.0, 0.014047960892417577
1296.0, 0.008990518895905351
1297.0, 0.009793423259341582
1298.0, 0.014647614056496389
1299.0, 0.008777734482599598
1300.0, 0.009785529904426231
1301.0, 0.010058691718233233
1302.0, 0.010115269555238096
1303.0, 0.01229919227942754
1304.0, 0.011171984511591905
1305.0, 0.009942600472800768
1306.0, 0.00984101958796068
1307.0, 0.009328389486160563
1308.0, 0.011192518985872164
1309.0, 0.011327445417452932
1310.0, 0.008790107662402447
1311.0, 0.007050581310769861
1312.0, 0.00763315020121062
1313.0, 0.011307207664552303
1314.0, 0.017699947339235224
1315.0, 0.018253178330294086
1316.0, 0.010466413334175504
1317.0, 0.013096297897054526
1318.0, 0.012407531584667774
1319.0, 0.010814795991901481
1320.0, 0.012178261085801166
1321.0, 0.014015975148299956
1322.0, 0.015143824103608039
1323.0, 0.012163189239471574
1324.0, 0.01146706965601401
1325.0, 0.019195703582039536
1326.0, 0.002685125011841259
1327.0, 0.015592279156414292
1328.0, 0.026158520602562494
1329.0, 0.014478994233753517
1330.0, 0.01116682280200711
1331.0, 0.01027372398025978
1332.0, 0.006139445677839462
1333.0, 0.01302404097488578
1334.0, 0.01186929152429441
1335.0, 0.010871893651290414
1336.0, 0.019183642245106127
1337.0, 0.02248327745850279
1338.0, 0.020692382987214885
1339.0, 0.02278525772899863
1340.0, 0.021160060416669884
1341.0, 0.015288077816151852
1342.0, 0.017996865145712703
1343.0, 0.013855140452024238
1344.0, 0.013670685181374338
1345.0, 0.01746218323418583
1346.0, 0.013128816782968985
1347.0, 0.007308207686620195
1348.0, 0.015475690592964251
1349.0, 0.012536254974909069
1350.0, 0.007674681620401257
1351.0, 0.00782575537716917
1352.0, 0.007383723782405811
1353.0, 0.007225224898384967
1354.0, 0.009326750064030623
1355.0, 0.010844063702850714
1356.0, 0.010055087111943592
1357.0, 0.010325605191772778
1358.0, 0.0114219631222068
1359.0, 0.009505409298589442
1360.0, 0.0100258042364374
1361.0, 0.008625536336926741
1362.0, 0.010375555097302036
1363.0, 0.016946207043773493
1364.0, 0.0148879210268393
1365.0, 0.004510713821061807
1366.0, 0.015664406112256085
1367.0, 0.004186026992419039
1368.0, 0.001559282628313879
1369.0, 0.004788596409178446
1370.0, 0.008595196658129271
1371.0, 0.012244825828728642
1372.0, 0.016623091523733157
1373.0, 0.019896308442896155
1374.0, 0.016293640392223533
1375.0, 0.011682970607742791
1376.0, 0.015351740926195373
1377.0, 0.01442667711498563
1378.0, 0.005280788634474034
1379.0, 0.010949977239468155
1380.0, 0.011124483657122609
1381.0, 0.0026847755579296616
1382.0, 0.00418918166666607
1383.0, 0.010600825600005977
1384.0, 0.007940915870989588
1385.0, 0.012002351486086336
1386.0, 0.012893666154784144
1387.0, 0.013841484715463167
1388.0, 0.013264619587331364
1389.0, 0.011486412764529535
1390.0, 0.00983938392273357
1391.0, 0.006933246680115129
1392.0, 0.008114273864720658
1393.0, 0.014077787735667377
1394.0, 0.017945914149314155
1395.0, 0.014537415240181309
1396.0, 0.0057175396424495655
1397.0, 0.0058116309863158406
1398.0, 0.00971730870766182
1399.0, 0.012308569273417847
1400.0, 0.005283841660203171
1401.0, 0.01233957768008955
1402.0, 0.0055026265339425855
1403.0, 0.005311110558798363
1404.0, 0.01178050616066344
1405.0, 0.010971535312448948
1406.0, 0.011342048373855586
1407.0, 0.00891250209802612
1408.0, 0.008539187662224243
1409.0, 0.004052102577624165
1410.0, 0.002036032675501754
1411.0, 0.002511764219817218
1412.0, 0.0016858742291280518
1413.0, 0.0023274067630450193
1414.0, 0.007289581617309723
1415.0, 0.013775193379937203
1416.0, 0.01688509377500398
1417.0, 0.0155279235981966
1418.0, 0.011197673612485835
1419.0, 0.012392144353818715
1420.0, 0.01554498524198902
1421.0, 0.00314963581141677
1422.0, 0.0016697127475407084
1423.0, 0.027549869893695306
1424.0, 0.012382936944776844
1425.0, 0.017412756981531732
1426.0, 0.005459556280713992
1427.0, 0.003336230437496243
1428.0, 0.004559137188004927
1429.0, 0.012088188243765521
1430.0, 0.007409150880182741
1431.0, 0.003910016041583518
1432.0, 0.004205007976286843
1433.0, 0.0067773070696966085
1434.0, 0.011647174529797542
1435.0, 0.011421817781669667
1436.0, 0.006702246853586864
1437.0, 0.006564993658184314
1438.0, 0.011228276521693033
1439.0, 0.010429823610693143
1440.0, 0.004895869946990825
1441.0, 0.00788489110243182
1442.0, 0.0012589494912836425
1443.0, 0.0039820592738741304
1444.0, 0.008098651874991836
1445.0, 0.0042342816687221535
1446.0, 0.0038173630641028574
1447.0, 0.005394336608337445
1448.0, 0.007368128206908674
1449.0, 0.008860250588845351
1450.0, 0.008825247061033036
1451.0, 0.008279364377363953
1452.0, 0.00921471893310555
1453.0, 0.008521550650378492
1454.0, 0.008040807203817729
1455.0, 0.00738972592340244
1456.0, 0.0075123287111908245
1457.0, 0.010121038693630988
1458.0, 0.0128417336817573
1459.0, 0.01356045359699471
1460.0, 0.01182332528007425
1461.0, 0.00895871307181018
1462.0, 0.007563434611537995
1463.0, 0.004615087756974842
1464.0, 0.0014622541488322049
1465.0, 0.007118048528239133
1466.0, 0.012564168135628889
1467.0, 0.00888525645892117
1468.0, 0.0034445447559753742
1469.0, 0.009955418344883228
1470.0, 0.00938493911776343
1471.0, 0.006781872921447631
1472.0, 0.010485839063971934
1473.0, 0.012100577541450329
1474.0, 0.009396300131820452
1475.0, 0.008862706512583113
1476.0, 0.009796156235134282
1477.0, 0.010822981330521307
1478.0, 0.012984887721479325
1479.0, 0.013314961076735299
1480.0, 0.012555240257228465
1481.0, 0.010926503086859428
1482.0, 0.009484840634969838
1483.0, 0.008636637668833918
1484.0, 0.005896372787822515
1485.0, 0.004755544807274628
1486.0, 0.003969897390639282
1487.0, 0.0024100752756972517
1488.0, 0.006967517138668645
1489.0, 0.00626538349369102
1490.0, 0.009397524462335579
1491.0, 0.005875882904995072
1492.0, 0.009377116893464571
1493.0, 0.005853848742983338
1494.0, 0.018632362958310618
1495.0, 0.0054712047602250196
1496.0, 0.0069814497059681995
1497.0, 0.011440906534776212
1498.0, 0.006618162679699844
1499.0, 0.008811225155887295
1500.0, 0.004106574034133425
1501.0, 0.004045750568347245
1502.0, 0.004380726180175667
1503.0, 0.007638926327797587
1504.0, 0.0056267486668667
1505.0, 0.004247059095543878
1506.0, 0.0033476780831389746
1507.0, 0.00758590547523756
1508.0, 0.010839030999256974
1509.0, 0.007603317757530117
1510.0, 0.0071497372180436706
1511.0, 0.007422461837140909
1512.0, 0.0056726273537220165
1513.0, 0.006728738006405694
1514.0, 0.007401485455162414
1515.0, 0.007365927224321931
1516.0, 0.0078618950028724
1517.0, 0.009040526567044275
1518.0, 0.013265685288594807
1519.0, 0.010105699764624044
1520.0, 0.011409185649405318
1521.0, 0.005641423721814694
1522.0, 0.010248702155270495
1523.0, 0.007573462634504601
1524.0, 0.003788600836826912
1525.0, 0.00830524298412489
1526.0, 0.008949167624157265
1527.0, 0.00578314499748519
1528.0, 0.005345580673213537
1529.0, 0.008237092476486109
1530.0, 0.012120468373196764
1531.0, 0.017096983332254796
1532.0, 0.01482529425882374
1533.0, 0.01264710661056708
1534.0, 0.0135415319417439
1535.0, 0.013565103122285713
1536.0, 0.012633062319064275
1537.0, 0.010734028841155476
1538.0, 0.009370530467110613
1539.0, 0.0091629829373827
1540.0, 0.007043117199925234
1541.0, 0.006985478165854135
1542.0, 0.010096769667140224
1543.0, 0.009179525352103165
1544.0, 0.011116569422727525
1545.0, 0.014497153102883532
1546.0, 0.007791520841488006
1547.0, 0.009749582533160885
1548.0, 0.009227973502697088
1549.0, 0.006769687692787956
1550.0, 0.011089607427356582
1551.0, 0.01576651908755539
1552.0, 0.017639118350685556
1553.0, 0.025237009976278642
1554.0, 0.033464057954289125
1555.0, 0.039013046451749626
1556.0, 0.0348170969130725
1557.0, 0.010981486786647345
1558.0, 0.018346031833398786
1559.0, 0.012339607460885043
1560.0, 0.0027650517168287987
1561.0, 0.014172740977784964
1562.0, 0.008633577512413098
1563.0, 0.008637817036915366
1564.0, 0.007095354715788439
1565.0, 0.011436749935451667
1566.0, 0.005951783533763081
1567.0, 0.008733065508024163
1568.0, 0.006901180354189807
1569.0, 0.00293647771000774
1570.0, 0.0007016961222360031
1571.0, 1.7229222222052706e-06
1572, 0.0
1573, 0.0
1574, 0.0
1575, 0.0
1576, 0.0
1577, 0.0
1578, 0.0
1579, 0.0
1580, 0.0
1581, 0.0
1582, 0.0
1583, 0.0
1584, 0.0
1585, 0.0
1586, 0.0
1587, 0.0
1588, 0.0
1589, 0.0
1590, 0.0
1591, 0.0
1592, 0.0
1593, 0.0
1594, 0.0
1595, 0.0
1596, 0.0
1597, 0.0
1598, 0.0
1599, 0.0
