30, 0.0
31, 0.0
32, 0.0
33, 0.0
34, 0.0
35, 0.0
36, 0.0
37, 0.0
38, 0.0
39, 0.0
40, 0.0
41, 0.0
42, 0.0
43, 0.0
44, 0.0
45, 0.0
46, 0.0
47, 0.0
48, 0.0
49, 0.0
50, 0.0
51, 0.0
52, 0.0
53, 0.0
54, 0.0
55, 0.0
56, 0.0
57, 0.0
58, 0.0
59, 0.0
60, 0.0
61, 0.0
62, 0.0
63, 0.0
64, 0.0
65, 0.0
66, 0.0
67, 0.0
68, 0.0
69, 0.0
70, 0.0
71, 0.0
72, 0.0
73, 0.0
74, 0.0
75, 0.0
76, 0.0
77, 0.0
78, 0.0
79, 0.0
80, 0.0
81, 0.0
82, 0.0
83, 0.0
84, 0.0
85, 0.0
86, 0.0
87, 0.0
88, 0.0
89, 0.0
90, 0.0
91, 0.0
92, 0.0
93, 0.0
94.0, 0.0006574262028892148
95.0, 0.0016577359865815526
96.0, 0.0021717372895664255
97.0, 0.0012702859092652262
98.0, 0.0004022403157660521
99.0, 0.0011405516393126075
100.0, 0.000561313880464938
101.0, 0.0028550638909812477
102.0, 0.007658701732342368
103.0, 0.012003789236207664
104.0, 0.01702693815543978
105.0, 0.025759502086482283
106.0, 0.03565949437638333
107.0, 0.04718347379728187
108.0, 0.06079338441384428
109.0, 0.07600966562006997
110.0, 0.08904383596010701
111.0, 0.1028613431399141
112.0, 0.11666687361869302
113.0, 0.12962176802524977
114.0, 0.14264681222686265
115.0, 0.1543513237035654
116.0, 0.16400297451565077
117.0, 0.17159969353061238
118.0, 0.1776832449174599
119.0, 0.18365029486626494
120.0, 0.1881790833088132
121.0, 0.19161825794124038
122.0, 0.19542121733855924
123.0, 0.1984970306554411
124.0, 0.20163733403131825
125.0, 0.20402774960731
126.0, 0.20472006050219294
127.0, 0.2053817551644833
128.0, 0.2054063197196556
129.0, 0.20524704546850744
130.0, 0.20529996098937314
131.0, 0.20492733763500975
132.0, 0.20355267759549617
133.0, 0.2020005561025135
134.0, 0.20065542579152754
135.0, 0.199013739761946
136.0, 0.19748849796213486
137.0, 0.19620279495794368
138.0, 0.19521824845714952
139.0, 0.1943997546311535
140.0, 0.19176632822677098
141.0, 0.189780263441697
142.0, 0.18826680706550064
143.0, 0.18613156870282047
144.0, 0.18328936049645686
145.0, 0.18073516536740272
146.0, 0.17759983662079495
147.0, 0.17366460395719446
148.0, 0.17039103396751712
149.0, 0.16671581895539223
150.0, 0.16313278244718993
151.0, 0.15983427134432127
152.0, 0.15580328386907913
153.0, 0.15179870855828695
154.0, 0.14781655055587228
155.0, 0.14330400029497015
156.0, 0.137826409470984
157.0, 0.13242627278785127
158.0, 0.1275586734447843
159.0, 0.12339791831703578
160.0, 0.11967942337574777
161.0, 0.11560062927121677
162.0, 0.11130367929861941
163.0, 0.10724985075684132
164.0, 0.10350156295790379
165.0, 0.09984198512253882
166.0, 0.09598351104888227
167.0, 0.09220754682301882
168.0, 0.0878568391867689
169.0, 0.08288234728151321
170.0, 0.07940989457240293
171.0, 0.07590913093499307
172.0, 0.07162857440465493
173.0, 0.06698107456379052
174.0, 0.06298576100613758
175.0, 0.059158041654163884
176.0, 0.05576965506960518
177.0, 0.05237957119972552
178.0, 0.04837973344834335
179.0, 0.04518218501394894
180.0, 0.042183524986477136
181.0, 0.039322314625844984
182.0, 0.03675993289139325
183.0, 0.034659596360925866
184.0, 0.03336103733391354
185.0, 0.0315323515956241
186.0, 0.029118430834569053
187.0, 0.027422110992795273
188.0, 0.026051426116157024
189.0, 0.025330329322060176
190.0, 0.02486055186202703
191.0, 0.024168022909295518
192.0, 0.023537942784922373
193.0, 0.022198037607758743
194.0, 0.02113529139830246
195.0, 0.0208717302429149
196.0, 0.02061607652717089
197.0, 0.02115322516756235
198.0, 0.021547552798021574
199.0, 0.021605912287608886
200.0, 0.02186556350598614
201.0, 0.02238417639911154
202.0, 0.022347601946251357
203.0, 0.022575108839965673
204.0, 0.023650981243371182
205.0, 0.024507969593648964
206.0, 0.025120967338614842
207.0, 0.026062788353736203
208.0, 0.02716922228767771
209.0, 0.027890057695889033
210.0, 0.0291264523137596
211.0, 0.03011471519533497
212.0, 0.0309003677024099
213.0, 0.031905861015060634
214.0, 0.0334732305656589
215.0, 0.03407452068071054
216.0, 0.03448674674513527
217.0, 0.034669818209787207
218.0, 0.033589399255823736
219.0, 0.03273930806335251
220.0, 0.030920086239884584
221.0, 0.028871465470836143
222.0, 0.027467784623836238
223.0, 0.025490793577783468
224.0, 0.023159079638998242
225.0, 0.020839271313180103
226.0, 0.01900806610525112
227.0, 0.017943259508943096
228.0, 0.01594258276199686
229.0, 0.013728856546972952
230.0, 0.011497466869045835
231.0, 0.009278797794628913
232.0, 0.007462705111244607
233.0, 0.005870627597020749
234.0, 0.004348478861783336
235.0, 0.003332589791345402
236.0, 0.003472857930395832
237.0, 0.0025685128922288787
238.0, 0.0014139355873356149
239.0, 0.000868918423231279
240.0, 0.0009885491457986319
241.0, 0.0005574475907035931
242.0, 0.0001159412095311125
243.0, 0.0006516684353435201
244.0, 0.0012160480207047237
245.0, 0.001333362742426112
246.0, 0.002224556034634414
247.0, 0.002290081860407421
248.0, 0.0024566906969633686
249.0, 0.003392678079869335
250.0, 0.0036402644134162984
251.0, 0.0034427982975262306
252.0, 0.003396348458334108
253.0, 0.0035371014562568465
254.0, 0.003475311101975015
255.0, 0.002941127150154195
256.0, 0.0021564377786469687
257.0, 0.001172758216786137
258.0, 0.00025696093558156934
259.0, 1.829227018655876e-05
260.0, 0.0009112963187952409
261.0, 0.0009888906010746684
262.0, 0.0011294226867347473
263.0, 0.002440433077911003
264.0, 0.0024658323995149656
265.0, 0.0031503295898579306
266.0, 0.003754048554627513
267.0, 0.0042039635894612175
268.0, 0.00539359162952128
269.0, 0.004967688809054511
270.0, 0.005466869170453222
271.0, 0.006353827851374319
272.0, 0.006846422745474403
273.0, 0.008649673534986985
274.0, 0.009857522317161587
275.0, 0.010368888776280774
276.0, 0.010566162005368392
277.0, 0.010935440394689659
278.0, 0.011567066112098902
279.0, 0.01173456695498909
280.0, 0.0121078723476433
281.0, 0.012459516634745867
282.0, 0.011496243257138009
283.0, 0.011118717579407146
284.0, 0.011674519372761741
285.0, 0.012233856893399361
286.0, 0.01244013998732903
287.0, 0.014246922797612806
288.0, 0.01437925685675328
289.0, 0.014197151538576428
290.0, 0.014480922537487426
291.0, 0.014871472955707388
292.0, 0.015002879322301925
293.0, 0.014976965507177678
294.0, 0.015176168994641722
295.0, 0.015400423745799377
296.0, 0.01513090964899908
297.0, 0.015479813477211845
298.0, 0.015842259176837462
299.0, 0.015484663274501103
300.0, 0.01493080902944491
301.0, 0.016590792354704804
302.0, 0.01750883795863028
303.0, 0.017815255833840516
304.0, 0.01817657419926537
305.0, 0.018989890616435384
306.0, 0.019974260350217907
307.0, 0.02107130879205755
308.0, 0.022180306483008727
309.0, 0.023024728500151075
310.0, 0.023461473057532618
311.0, 0.024357896837032267
312.0, 0.024793834463262797
313.0, 0.025219442663351046
314.0, 0.026010215668827698
315.0, 0.026551953372613058
316.0, 0.02678120646036345
317.0, 0.02803488782641005
318.0, 0.029020624157929928
319.0, 0.028302014836824582
320.0, 0.02758715226572251
321.0, 0.029968753294289937
322.0, 0.03186990392007877
323.0, 0.03235663243925278
324.0, 0.03308744901828615
325.0, 0.03531373335336155
326.0, 0.0373652193829105
327.0, 0.03860539256041671
328.0, 0.03942042477417294
329.0, 0.04073528112272226
330.0, 0.04160553851908416
331.0, 0.04262233072803861
332.0, 0.04398118137597562
333.0, 0.04585882328149684
334.0, 0.048391921828929665
335.0, 0.0514437140095498
336.0, 0.053734687125758955
337.0, 0.0566089479417038
338.0, 0.061022291783031965
339.0, 0.06478449239402484
340.0, 0.06664564585972116
341.0, 0.06910944018866343
342.0, 0.07186921771643885
343.0, 0.07421830775057642
344.0, 0.07647935542518469
345.0, 0.07780949774086257
346.0, 0.07970225958556082
347.0, 0.08176869108076049
348.0, 0.08304848291502048
349.0, 0.08567125567679948
350.0, 0.08788052353401582
351.0, 0.08889346433652452
352.0, 0.08955519228301002
353.0, 0.09156734677868436
354.0, 0.09519335791045622
355.0, 0.09761573595426007
356.0, 0.09823432756453149
357.0, 0.09865045328741288
358.0, 0.10069384491917234
359.0, 0.10198151785156973
360.0, 0.10316232580393801
361.0, 0.1034419496242408
362.0, 0.10265821518053438
363.0, 0.10210676020946935
364.0, 0.10134569999999594
365.0, 0.09945098232781764
366.0, 0.0981559262915971
367.0, 0.09793183158233884
368.0, 0.09599435497755039
369.0, 0.09106294398538999
370.0, 0.08848823147013143
371.0, 0.08656592022833465
372.0, 0.08277810970810313
373.0, 0.07920514206623408
374.0, 0.0760397922729828
375.0, 0.07281292263287813
376.0, 0.07069612720593776
377.0, 0.06952373324784729
378.0, 0.06547605282012363
379.0, 0.06267301725175231
380.0, 0.05904719674196432
381.0, 0.05443462659205805
382.0, 0.05013413150414475
383.0, 0.046472604175792104
384.0, 0.043525066095493996
385.0, 0.0397730695098375
386.0, 0.036113854793925204
387.0, 0.03329373467870671
388.0, 0.028400666489644778
389.0, 0.025209150724692757
390.0, 0.021917786969129327
391.0, 0.01750759068644919
392.0, 0.012673319433003701
393.0, 0.008089814475443078
394.0, 0.005515349579635427
395.0, 0.004346975864256315
396.0, 0.0036919520388523277
397.0, 0.002718134514810424
398.0, 0.00036975881010666966
399.0, 0.0012408663211560277
400.0, 0.0008715475883673448
401.0, 0.0011921855486815803
402.0, 0.0004764041172569921
403.0, 0.001366174102341891
404.0, 0.0021180901579807296
405.0, 0.0027590422261832832
406.0, 0.003868189432449046
407.0, 0.006040025985708409
408.0, 0.010313738808081134
409.0, 0.011795355541928112
410.0, 0.012515128520279167
411.0, 0.01302429376734772
412.0, 0.012524269906345665
413.0, 0.011741326556890936
414.0, 0.013336922692557136
415.0, 0.01138359402470586
416.0, 0.007651403337478751
417.0, 0.006746508413893548
418.0, 0.006765590733315098
419.0, 0.0059828949036677395
420.0, 0.00579977450670312
421.0, 0.005323492383829159
422.0, 0.004252598291580865
423.0, 0.006270748201297581
424.0, 0.009337619407391739
425.0, 0.010336265331085776
426.0, 0.010808316812323046
427.0, 0.01183279739040799
428.0, 0.009746452474023577
429.0, 0.008708517823245535
430.0, 0.009029999053904692
431.0, 0.008270340803157096
432.0, 0.005712716939344847
433.0, 0.0038310406620630857
434.0, 0.00018069395498328386
435.0, 0.0024706825113683852
436.0, 0.005505588258027026
437.0, 0.012290475875817733
438.0, 0.02198083408014647
439.0, 0.026060494174084597
440.0, 0.03393323091309258
441.0, 0.044984244294729525
442.0, 0.05421438690065565
443.0, 0.060283704956302406
444.0, 0.06972803842892254
445.0, 0.07799560177768297
446.0, 0.08736779421887447
447.0, 0.0978624924280008
448.0, 0.10648383695080887
449.0, 0.11440911955130607
450.0, 0.12355435106921168
451.0, 0.13329931220294938
452.0, 0.14357034686307663
453.0, 0.1545136817682814
454.0, 0.16450339735651615
455.0, 0.17416140312091224
456.0, 0.18697142967638025
457.0, 0.20063181821464007
458.0, 0.21127785702118942
459.0, 0.22161144990153747
460.0, 0.23121771473317573
461.0, 0.2405140292468644
462.0, 0.2518828410407934
463.0, 0.2659237007369557
464.0, 0.28030019801736317
465.0, 0.29367461751301754
466.0, 0.30895650903885385
467.0, 0.32308883065716626
468.0, 0.33650568522764357
469.0, 0.3558744156646436
470.0, 0.3751921954594469
471.0, 0.39312910260799355
472.0, 0.41207241315394344
473.0, 0.4317219139645097
474.0, 0.4499209186910364
475.0, 0.46908658342063553
476.0, 0.48736041830609866
477.0, 0.5042005386025695
478.0, 0.5201110110746954
479.0, 0.5353455352425077
480.0, 0.5487261262532043
481.0, 0.5647460510254694
482.0, 0.5753849657601701
483.0, 0.5821669238495034
484.0, 0.5902772259639741
485.0, 0.5999297547183564
486.0, 0.6015362175114731
487.0, 0.6046925448879107
488.0, 0.6085536120776553
489.0, 0.6111001206880937
490.0, 0.6132021981427219
491.0, 0.6147587055188162
492.0, 0.6160832567270249
493.0, 0.6207942266309122
494.0, 0.6285222848464368
495.0, 0.6360692193028084
496.0, 0.6440897017035389
497.0, 0.6563036270394592
498.0, 0.6677251593888888
499.0, 0.681354373124012
500.0, 0.697981497911348
501.0, 0.7095429696263199
502.0, 0.7211087887641525
503.0, 0.7325813413587978
504.0, 0.7416513040018282
505.0, 0.7473007032025187
506.0, 0.7503579239602411
507.0, 0.7514274130734553
508.0, 0.7501959942923047
509.0, 0.7498225094583485
510.0, 0.7462737127302759
511.0, 0.7365363022899727
512.0, 0.7294194342002625
513.0, 0.7207299790591325
514.0, 0.7138096024111728
515.0, 0.7061589863250815
516.0, 0.6964829694228334
517.0, 0.6886888323553915
518.0, 0.690837264171698
519.0, 0.6921946384817708
520.0, 0.6937368638842968
521.0, 0.701250062765992
522.0, 0.7173658751511299
523.0, 0.7327354921308153
524.0, 0.7505670547159478
525.0, 0.7695906872873367
526.0, 0.790998133863423
527.0, 0.8141003153957416
528.0, 0.8335195883395293
529.0, 0.8470089827442882
530.0, 0.8671137075798615
531.0, 0.887114953131136
532.0, 0.902866768202741
533.0, 0.9168868318416409
534.0, 0.9305067416712336
535.0, 0.9377797161818013
536.0, 0.9447095669855489
537.0, 0.9516998305483224
538.0, 0.9568640664816119
539.0, 0.9616263570742617
540.0, 0.9684663046401901
541.0, 0.973407448517511
542.0, 0.97941044001731
543.0, 0.986886848630552
544.0, 0.9918567560791525
545.0, 0.9924288889257156
546.0, 0.9981970167827708
547.0, 0.998398180301131
548.0, 0.9953377861096236
549.0, 0.9921511396139495
550.0, 0.9799073516049803
551.0, 0.9590117646530244
552.0, 0.9388534233430968
553.0, 0.9112134196516276
554.0, 0.8766688816389054
555.0, 0.8416280109298512
556.0, 0.7985883636414581
557.0, 0.7562752618655203
558.0, 0.7123963034824411
559.0, 0.6631532633170962
560.0, 0.6117029997804716
561.0, 0.5648726513653115
562.0, 0.513282988186821
563.0, 0.458756269183692
564.0, 0.408311017205366
565.0, 0.358716406212235
566.0, 0.3069474247016597
567.0, 0.26231548577256464
568.0, 0.2203823817386305
569.0, 0.18235289543359937
570.0, 0.1488673123873328
571.0, 0.11804613621311215
572.0, 0.08957361195372258
573.0, 0.07060148983823665
574.0, 0.05242680702578724
575.0, 0.03624321595310918
576.0, 0.024143366275085888
577.0, 0.015077319966969578
578.0, 0.006779768991432147
579.0, 0.004483922258158485
580.0, 0.003688391645958233
581.0, 0.001564455328483234
582.0, 0.0018690274250024578
583.0, 0.005591921046986323
584.0, 0.003850384219835084
585.0, 0.011130580418204711
586.0, 0.02076327405801212
587.0, 0.02543040189935903
588.0, 0.027589111658648843
589.0, 0.033418381772754385
590.0, 0.038061643942615186
591.0, 0.0443568458401472
592.0, 0.04852546460754405
593.0, 0.052505658110598145
594.0, 0.056870883444535225
595.0, 0.05813986667053153
596.0, 0.05827081890192821
597.0, 0.06076310401897608
598.0, 0.06289989860256304
599.0, 0.06292272768800641
600.0, 0.06151490726407394
601.0, 0.06059871119599486
602.0, 0.057753042764939255
603.0, 0.054791417148380185
604.0, 0.05119451233467638
605.0, 0.04799470359012583
606.0, 0.04641828689849826
607.0, 0.04472889948179386
608.0, 0.03866564728787743
609.0, 0.0365987054837744
610.0, 0.03258067255344632
611.0, 0.026538801122886056
612.0, 0.022722417048930934
613.0, 0.016564111298022037
614.0, 0.012616417300482784
615.0, 0.00768958394755948
616.0, 0.002562400060085722
617.0, 0.001982553417098866
618.0, 0.006699383252522066
619.0, 0.010297827304419803
620.0, 0.013571738163974592
621.0, 0.015839455848103572
622.0, 0.01830018124973692
623.0, 0.02025084567161581
624.0, 0.019747992623347
625.0, 0.021145923516177275
626.0, 0.022098731051662435
627.0, 0.0214510027225768
628.0, 0.020672639375921897
629.0, 0.020153115090483644
630.0, 0.018937384201376153
631.0, 0.019696663502627765
632.0, 0.01730633496780563
633.0, 0.014616290771077477
634.0, 0.013191026893539102
635.0, 0.011379329767495398
636.0, 0.007093562434089448
637.0, 0.005719151430034768
638.0, 0.0015324554533949005
639.0, 0.0029015073250837032
640.0, 0.0064346555220373015
641.0, 0.010921995957687008
642.0, 0.016855210664686857
643.0, 0.020887149515518146
644.0, 0.02657237807253628
645.0, 0.032592893970273054
646.0, 0.03874143464133829
647.0, 0.04587134436507921
648.0, 0.05352210427212123
649.0, 0.05849495637026153
650.0, 0.06550323534332149
651.0, 0.07284805122739153
652.0, 0.08083127566170381
653.0, 0.0896355659496528
654.0, 0.0969563673286911
655.0, 0.10138076741199233
656.0, 0.10682549228811461
657.0, 0.11350822051395315
658.0, 0.11972892637315095
659.0, 0.12468852724351155
660.0, 0.12894093607727697
661.0, 0.13243702983635225
662.0, 0.13765747258555203
663.0, 0.14032594048509747
664.0, 0.14074165984266285
665.0, 0.14132584220353947
666.0, 0.14239390471650987
667.0, 0.13888885700857811
668.0, 0.13722133577362655
669.0, 0.13377072293637146
670.0, 0.12830298413989588
671.0, 0.12216779945515849
672.0, 0.11651602375875827
673.0, 0.11332231576503334
674.0, 0.11034548581393387
675.0, 0.10660518792469788
676.0, 0.10284116192555437
677.0, 0.09869569937432747
678.0, 0.0936003840210936
679.0, 0.0914898199450328
680.0, 0.09034926754545501
681.0, 0.08702521785061997
682.0, 0.08277728090431423
683.0, 0.07900645247282007
684.0, 0.07541742122565555
685.0, 0.0709869145743861
686.0, 0.06708330714965426
687.0, 0.0637697200792037
688.0, 0.06143203864373239
689.0, 0.05818231204845292
690.0, 0.053438358818115074
691.0, 0.04942468058940969
692.0, 0.04664040118536227
693.0, 0.040502529022827624
694.0, 0.035605634173924365
695.0, 0.03197318256691805
696.0, 0.029165396661292513
697.0, 0.02811060119324527
698.0, 0.024655363693750234
699.0, 0.02260394201201981
700.0, 0.021849940745799913
701.0, 0.020203181109768428
702.0, 0.01839746984380008
703.0, 0.01778872354412666
704.0, 0.015332877965226402
705.0, 0.015627951140320968
706.0, 0.01574524164877203
707.0, 0.01468279328553679
708.0, 0.014141109338387763
709.0, 0.014840313303631211
710.0, 0.014227730496255643
711.0, 0.01532282366145091
712.0, 0.016082214906108012
713.0, 0.015422201713944726
714.0, 0.015094057217829493
715.0, 0.01534843025763609
716.0, 0.014358757332004745
717.0, 0.014324172444829829
718.0, 0.013497033512245092
719.0, 0.01337332985755708
720.0, 0.014587838820950301
721.0, 0.015087854669861109
722.0, 0.014263665790247682
723.0, 0.017182333574511252
724.0, 0.01597896757943368
725.0, 0.016206394993897554
726.0, 0.01687001184532109
727.0, 0.01755431273033925
728.0, 0.01872193529489486
729.0, 0.018837121792275653
730.0, 0.016107007357555037
731.0, 0.01684129718489138
732.0, 0.017439090537784006
733.0, 0.017250196349893568
734.0, 0.01677289506039786
735.0, 0.015875033345477883
736.0, 0.015603611864073302
737.0, 0.017596869201897836
738.0, 0.01989149602153279
739.0, 0.021521496330847496
740.0, 0.020605670879085578
741.0, 0.018766451317188147
742.0, 0.021261830697975985
743.0, 0.02159965692890348
744.0, 0.02333346084024501
745.0, 0.02617811271693229
746.0, 0.027370133235102907
747.0, 0.027478967823297062
748.0, 0.029372666788764754
749.0, 0.03169846964889773
750.0, 0.03154907357933701
751.0, 0.03414728464571973
752.0, 0.03409743916242929
753.0, 0.032681595692588945
754.0, 0.0335885903609636
755.0, 0.0338363872726027
756.0, 0.030707306231430094
757.0, 0.03180442912747951
758.0, 0.03133507990729414
759.0, 0.031507335552507724
760.0, 0.031945313139054916
761.0, 0.030956666601633067
762.0, 0.032648304246491226
763.0, 0.03499828438674601
764.0, 0.03291645023600523
765.0, 0.03350941415703983
766.0, 0.03513723834091787
767.0, 0.03491147266177655
768.0, 0.034941980675026026
769.0, 0.03544073086559037
770.0, 0.03477221815331612
771.0, 0.03713111443124256
772.0, 0.03833924752898791
773.0, 0.03921021118894736
774.0, 0.040997586861772684
775.0, 0.0403387418456745
776.0, 0.038898263926050544
777.0, 0.040797025353424804
778.0, 0.04298262767074936
779.0, 0.045155465720648776
780.0, 0.04563669431225223
781.0, 0.044751923864726345
782.0, 0.047385551257473256
783.0, 0.050362237545667043
784.0, 0.05111913326080075
785.0, 0.05549944580825061
786.0, 0.057318492466492954
787.0, 0.05641322345592237
788.0, 0.05864537795195062
789.0, 0.06102727907478523
790.0, 0.06268711377531658
791.0, 0.0639217845939923
792.0, 0.06610035921118933
793.0, 0.06907434851675957
794.0, 0.07151086272971613
795.0, 0.07325902991913999
796.0, 0.07574769695149501
797.0, 0.0765006033586009
798.0, 0.07907488147136997
799.0, 0.08270844206513302
800.0, 0.0859237753721272
801.0, 0.08834703533235008
802.0, 0.09021358442906059
803.0, 0.09131002764389129
804.0, 0.09380946464583402
805.0, 0.09774503057017665
806.0, 0.09956007684077137
807.0, 0.10230009455628511
808.0, 0.10525564532918304
809.0, 0.1040305337122403
810.0, 0.10372657526280543
811.0, 0.10298214449873372
812.0, 0.10134629178369713
813.0, 0.10131259553061685
814.0, 0.10068845401209602
815.0, 0.09873404007214054
816.0, 0.09769371926138523
817.0, 0.09543106108451165
818.0, 0.09381585762052581
819.0, 0.090426480780762
820.0, 0.08931275828472651
821.0, 0.08749558698846395
822.0, 0.08207824830022997
823.0, 0.07548820822234423
824.0, 0.06972088741418347
825.0, 0.06297286338034082
826.0, 0.05783462676635031
827.0, 0.05083515767190484
828.0, 0.04505877854629038
829.0, 0.04240383738648211
830.0, 0.039465438338072846
831.0, 0.03360849046843744
832.0, 0.029758165064970317
833.0, 0.02421570281640674
834.0, 0.022268322425939794
835.0, 0.019830664935992833
836.0, 0.016080765840777493
837.0, 0.01395376341155981
838.0, 0.010955632598563279
839.0, 0.010341418638839434
840.0, 0.01018830114212067
841.0, 0.010789247094427362
842.0, 0.009459941324421656
843.0, 0.00806455843704168
844.0, 0.008848663388014278
845.0, 0.008132497435157215
846.0, 0.006516651003016278
847.0, 0.002571799878097606
848.0, 0.0031708555819287376
849.0, 0.0021297942741593653
850.0, 0.000513491191739942
851.0, 0.0009630388704403216
852.0, 0.0011849719839190584
853.0, 0.0034011263459974303
854.0, 0.0027782269130903984
855.0, 0.002154211136989665
856.0, 0.0007472268599792815
857.0, 0.0009555294990133599
858.0, 0.0026563039041713663
859.0, 0.0015403161172443346
860.0, 0.0007888007073856526
861.0, 0.0008642879476218717
862.0, 0.0016488783477873175
863.0, 0.0019269923421640284
864.0, 0.0030703110361872316
865.0, 0.004200209383547916
866.0, 0.005404370609927266
867.0, 0.008660021122354014
868.0, 0.007734819963846411
869.0, 0.0059561426658870245
870.0, 0.0036498883057731754
871.0, 0.0035149990382771596
872.0, 0.003462122291776954
873.0, 0.0024614077100339493
874.0, 0.0031505085568559943
875.0, 0.0033506639338833737
876.0, 0.002579013031627101
877.0, 0.0034600719046783096
878.0, 0.0040540342381369205
879.0, 0.0031487075556811094
880.0, 0.0012779374246700132
881.0, 0.0002707168293862902
882.0, 0.001081580649619121
883.0, 0.0016258833278128206
884.0, 0.0036009381238636833
885.0, 0.002783601129155087
886.0, 0.004181991114543233
887.0, 0.0065387180165027295
888.0, 0.009538324917579161
889.0, 0.014230665979848579
890.0, 0.0132618138502208
891.0, 0.017410418089766993
892.0, 0.019574028025362653
893.0, 0.021516168723954888
894.0, 0.026440825155554067
895.0, 0.029401518752369325
896.0, 0.02854504637761642
897.0, 0.031094162064408907
898.0, 0.03219104600985077
899.0, 0.03342926740903867
900.0, 0.03637700652652903
901.0, 0.037608762700635345
902.0, 0.040097931696556545
903.0, 0.04356356470396979
904.0, 0.045804334462158994
905.0, 0.04952178594293796
906.0, 0.04843282849796297
907.0, 0.052796709603852035
908.0, 0.057156890671311134
909.0, 0.058726868593734396
910.0, 0.060588927183150405
911.0, 0.06400662208946281
912.0, 0.067255320120617
913.0, 0.07058996406424606
914.0, 0.07222649772051815
915.0, 0.07717731435845807
916.0, 0.08150876969551737
917.0, 0.08520811326233362
918.0, 0.08862227328373821
919.0, 0.09215156319825853
920.0, 0.09679787723209989
921.0, 0.10098648302618941
922.0, 0.10545512606259719
923.0, 0.11290091860129166
924.0, 0.11712807285125029
925.0, 0.12084792310744305
926.0, 0.12624651167657447
927.0, 0.1317315774285292
928.0, 0.13718487884578762
929.0, 0.14341496146162414
930.0, 0.14825840714281407
931.0, 0.15556847092717166
932.0, 0.16060376338892754
933.0, 0.16843130860131586
934.0, 0.17650425397604755
935.0, 0.18141185846866353
936.0, 0.18744312271768465
937.0, 0.1966717677258164
938.0, 0.2044221830690599
939.0, 0.21341683433281503
940.0, 0.22118755886366184
941.0, 0.23111755944302634
942.0, 0.2420989766401602
943.0, 0.2509841091125127
944.0, 0.26066990026706727
945.0, 0.275395631332224
946.0, 0.28458157649231725
947.0, 0.2920340386281779
948.0, 0.29979329883848166
949.0, 0.30989068484358134
950.0, 0.3182008870661933
951.0, 0.3246388663512501
952.0, 0.33400583194397876
953.0, 0.34139696623909455
954.0, 0.3433798165127505
955.0, 0.3461513305667645
956.0, 0.3499144672150794
957.0, 0.3538108055176788
958.0, 0.35378182663129465
959.0, 0.35294561545496067
960.0, 0.3541272629660801
961.0, 0.3507278090032132
962.0, 0.35116625601423185
963.0, 0.34962697273459364
964.0, 0.35097376163637295
965.0, 0.34969398904167304
966.0, 0.3436367527331363
967.0, 0.34172217064855603
968.0, 0.343156701002904
969.0, 0.3367744038571026
970.0, 0.33224506778566515
971.0, 0.32847815740203834
972.0, 0.32536833180573
973.0, 0.3219466456393734
974.0, 0.3174687596571815
975.0, 0.31370002306357003
976.0, 0.30995579860160394
977.0, 0.30501746766452376
978.0, 0.3020120239346992
979.0, 0.2970990220322648
980.0, 0.29010634219561426
981.0, 0.28330694316084515
982.0, 0.278058767394003
983.0, 0.2728321049892537
984.0, 0.26638197628714044
985.0, 0.2597618713482564
986.0, 0.2536821151473115
987.0, 0.2460835224338605
988.0, 0.23986104943194206
989.0, 0.23145823566808374
990.0, 0.22284708617761206
991.0, 0.21566236840496783
992.0, 0.20597571932227512
993.0, 0.19595653954217127
994.0, 0.18975967159259036
995.0, 0.18101249956717272
996.0, 0.1737766694869988
997.0, 0.16445087446684584
998.0, 0.1562652470183243
999.0, 0.14931107213738246
1000.0, 0.14231225224388916
1001.0, 0.13449480937032562
1002.0, 0.12561853341698703
1003.0, 0.11683129098514501
1004.0, 0.1106546645411489
1005.0, 0.10328709826173614
1006.0, 0.09663101025037084
1007.0, 0.08917608244905033
1008.0, 0.08250838525975213
1009.0, 0.07613923327997275
1010.0, 0.06995748273360566
1011.0, 0.06437209108411897
1012.0, 0.05908690480803339
1013.0, 0.05492406546813194
1014.0, 0.049379495432007
1015.0, 0.04462721712953204
1016.0, 0.04094432148345951
1017.0, 0.03493157422640017
1018.0, 0.030927375228188416
1019.0, 0.028136797977798042
1020.0, 0.02322339599477917
1021.0, 0.019375613918809962
1022.0, 0.015126682276490193
1023.0, 0.012824601060345242
1024.0, 0.008853990502142606
1025.0, 0.005981196401425562
1026.0, 0.0050331547773030645
1027.0, 0.004349210778295144
1028.0, 0.0023729308945107824
1029.0, 0.0006223383509798159
1030.0, 0.0031155391936365526
1031.0, 0.004180704564598645
1032.0, 0.0067041506545458705
1033.0, 0.007446713795387884
1034.0, 0.005540254496642915
1035.0, 0.00578071661392019
1036.0, 0.005673552802888746
1037.0, 0.004315191521798742
1038.0, 0.004113363765816138
1039.0, 0.004560288621338079
1040.0, 0.003439584974128226
1041.0, 0.001285988473448091
1042.0, 0.001249774539970805
1043.0, 0.0003923737679604445
1044.0, 0.002347564191027604
1045.0, 0.0039032877033997426
1046.0, 0.003857865640062258
1047.0, 0.0038881391239974647
1048.0, 0.00617801107396886
1049.0, 0.0073482414642546574
1050.0, 0.00882598741752926
1051.0, 0.010378984894490996
1052.0, 0.011570279276790852
1053.0, 0.012351995132038766
1054.0, 0.01201760996043268
1055.0, 0.011744299141060933
1056.0, 0.012188371048143815
1057.0, 0.011797199375625882
1058.0, 0.00962211161210109
1059.0, 0.00919377811950959
1060.0, 0.007909426234908744
1061.0, 0.007747066180544163
1062.0, 0.007373076426599667
1063.0, 0.00654661474704915
1064.0, 0.005303080215613674
1065.0, 0.003766012920526167
1066.0, 0.002749974132860581
1067.0, 0.0019095499560722131
1068.0, 4.163189956435685e-05
1069.0, 0.0010167261888562617
1070.0, 0.00019891001135041104
1071.0, 0.0011589883863029067
1072.0, 0.0017764802255686575
1073.0, 0.0018701011171142381
1074.0, 0.0017236566236573125
1075.0, 0.0015024047583843004
1076.0, 0.0005941014758496073
1077.0, 0.0008633168040662672
1078.0, 0.0008704942012514116
1079.0, 0.0005928362648930359
1080.0, 0.0016442736227214013
1081.0, 0.0016094665444291475
1082.0, 0.001665256618837173
1083.0, 0.003375277088235517
1084.0, 0.004055786404632146
1085.0, 0.004081575642144767
1086.0, 0.004465934843218201
1087.0, 0.0033457482803160546
1088.0, 0.004573980434294529
1089.0, 0.00406557353255885
1090.0, 0.0020031527982955115
1091.0, 0.0025920244602761476
1092.0, 0.0017547312303238332
1093.0, 0.0012991679863211397
1094.0, 0.0012464956114064253
1095.0, 0.00010595674024845394
1096.0, 0.0011384117536489956
1097.0, 0.0009405569343908477
1098.0, 0.0010661315874682482
1099.0, 0.0005481460494488981
1100.0, 0.0007361066884458419
1101.0, 0.00021531879494210624
1102.0, 0.00011165495660120184
1103.0, 0.0009987787854922171
1104.0, 0.0016208293166820695
1105.0, 0.00226876875861707
1106.0, 0.0025824213859863875
1107.0, 0.0017478498108795268
1108.0, 0.003160797553530824
1109.0, 0.003904448529694404
1110.0, 0.004759711499559803
1111.0, 0.007059520252623034
1112.0, 0.006813916141464867
1113.0, 0.007333505982207328
1114.0, 0.008444611990918715
1115.0, 0.008707776655544891
1116.0, 0.008895160906244518
1117.0, 0.009688548640637243
1118.0, 0.010761064398843126
1119.0, 0.01147610789514841
1120.0, 0.012325528033855214
1121.0, 0.01323522441045588
1122.0, 0.013670555050451354
1123.0, 0.01356239087573983
1124.0, 0.014010479681743144
1125.0, 0.01444782861944519
1126.0, 0.014857877095959648
1127.0, 0.01580528353072738
1128.0, 0.015828017646211036
1129.0, 0.01516975912245429
1130.0, 0.015027259163364828
1131.0, 0.014817423250577121
1132.0, 0.014924074602082569
1133.0, 0.014930929253208148
1134.0, 0.01534892588101684
1135.0, 0.015963632835397597
1136.0, 0.015966755915068617
1137.0, 0.016366045609274245
1138.0, 0.017763601567926807
1139.0, 0.017741541796488583
1140.0, 0.017936347688786353
1141.0, 0.018146769714500893
1142.0, 0.018756293788180254
1143.0, 0.019058820565546163
1144.0, 0.01930265565186525
1145.0, 0.019363345572643246
1146.0, 0.01952309656098351
1147.0, 0.019201180625791327
1148.0, 0.018939476149425347
1149.0, 0.019478456191307583
1150.0, 0.019104044661174324
1151.0, 0.018967593619864026
1152.0, 0.019634936226108013
1153.0, 0.01977876050559699
1154.0, 0.02018960564675111
1155.0, 0.02008121587132123
1156.0, 0.019370954757731686
1157.0, 0.018912624028466555
1158.0, 0.01850515389555778
1159.0, 0.018460320678881675
1160.0, 0.018745072509776573
1161.0, 0.017831183749204078
1162.0, 0.017464839579117496
1163.0, 0.01771492717950573
1164.0, 0.01735328227254201
1165.0, 0.017250240063255397
1166.0, 0.01690911411979653
1167.0, 0.01652866393903654
1168.0, 0.01603985628604302
1169.0, 0.01596443354682857
1170.0, 0.016106229253554656
1171.0, 0.015949011185167117
1172.0, 0.015845528349847954
1173.0, 0.015879178969755717
1174.0, 0.016534538552340255
1175.0, 0.015708801636679287
1176.0, 0.015811567296775696
1177.0, 0.015555931845683905
1178.0, 0.015884961368380527
1179.0, 0.015007372558444247
1180.0, 0.015005420732448618
1181.0, 0.01544103124917174
1182.0, 0.014562621912753409
1183.0, 0.014000138485628935
1184.0, 0.014258088132338973
1185.0, 0.01453615760403744
1186.0, 0.01424550321168542
1187.0, 0.013657376452848665
1188.0, 0.014197777803758695
1189.0, 0.01325669908856901
1190.0, 0.013373521650182438
1191.0, 0.013665311704995204
1192.0, 0.012993885601657769
1193.0, 0.012364075389346864
1194.0, 0.01219990359898064
1195.0, 0.011972615580536488
1196.0, 0.012061462625566882
1197.0, 0.011382407529993779
1198.0, 0.011143820239020713
1199.0, 0.010344623003566047
1200.0, 0.01072438959272992
1201.0, 0.010411646216163955
1202.0, 0.009900180846682888
1203.0, 0.009512691588384855
1204.0, 0.009275241880517666
1205.0, 0.009270778253761935
1206.0, 0.00921036228179449
1207.0, 0.00901084364004742
1208.0, 0.008983357753611898
1209.0, 0.008438762456656345
1210.0, 0.008381204183365581
1211.0, 0.008131383939943969
1212.0, 0.007867087675456243
1213.0, 0.008089321068157676
1214.0, 0.007458364064709566
1215.0, 0.007007060889111455
1216.0, 0.0069821602384733715
1217.0, 0.006560545557816796
1218.0, 0.006017232730165806
1219.0, 0.006017717191169606
1220.0, 0.006027079079565384
1221.0, 0.0056685106193244935
1222.0, 0.005511453252818533
1223.0, 0.005130547307622884
1224.0, 0.005112165913971884
1225.0, 0.004400970584353566
1226.0, 0.004027608232322059
1227.0, 0.003799400161494802
1228.0, 0.003473409810778077
1229.0, 0.0032871229416311623
1230.0, 0.0034544791947307358
1231.0, 0.0034529307720544376
1232.0, 0.0029440050907624214
1233.0, 0.0027877441770717834
1234.0, 0.0029405217770998903
1235.0, 0.0021101101723791254
1236.0, 0.00223177639793496
1237.0, 0.002965332059407602
1238.0, 0.0018392810278437394
1239.0, 0.0018060744848068285
1240.0, 0.0020786758568372616
1241.0, 0.0016851776428254207
1242.0, 0.0018389711028994466
1243.0, 0.0020851447730782014
1244.0, 0.0017932390401000614
1245.0, 0.0017723647777922217
1246.0, 0.00212988883941338
1247.0, 0.0022737931679145985
1248.0, 0.001862525025611123
1249.0, 0.0017474428151064384
1250.0, 0.0016572741749376302
1251.0, 0.0020879686415270176
1252.0, 0.001757126510088781
1253.0, 0.0019502157940464759
1254.0, 0.0018907208868260265
1255.0, 0.001376187497748954
1256.0, 0.001480345803417892
1257.0, 0.0017936874087828003
1258.0, 0.00170601994496566
1259.0, 0.0016441493111374404
1260.0, 0.0013788958065220815
1261.0, 0.0012520008822764046
1262.0, 0.0012961840237998101
1263.0, 0.000517947290781896
1264.0, 0.0008484260358824885
1265.0, 0.0002949440187739616
1266.0, 0.00028755970724602347
1267.0, 0.00015046921693020234
1268.0, 0.0005080831351838575
1269.0, 0.0006260394831908314
1270.0, 5.2204078155413e-05
1271.0, 0.00018738698291618632
1272.0, 3.800135729798301e-05
1273.0, 4.608183694156867e-05
1274.0, 0.00017480023108947256
1275.0, 0.0002884248059740596
1276.0, 9.162530329439098e-05
1277.0, 0.0007633327716618199
1278.0, 0.0008015214121046136
1279.0, 0.00031886538951533404
1280.0, 0.00015780193305293556
1281.0, 0.0006607841682423569
1282.0, 0.0002423478838290583
1283.0, 4.1156477922869964e-05
1284.0, 9.750118959860617e-05
1285.0, 0.00014496315613860531
1286.0, 0.0005327568504528018
1287.0, 0.00035101046295392857
1288.0, 0.0003787976585410411
1289.0, 9.865144936181008e-05
1290.0, 0.00027097211704429393
1291.0, 0.0001991456630498453
1292.0, 5.462467245649537e-05
1293.0, 0.00025289136197447447
1294.0, 0.00026592216332441615
1295.0, 9.392274898999837e-06
1296.0, 0.0003733381976662161
1297.0, 0.0004768815547271824
1298.0, 0.0006056168127718429
1299.0, 0.0005676218895475863
1300.0, 0.0001874438322737778
1301.0, 0.00012415466630166235
1302, 0.0
1303, 0.0
1304, 0.0
1305, 0.0
1306, 0.0
1307, 0.0
1308, 0.0
1309, 0.0
1310, 0.0
1311, 0.0
1312, 0.0
1313, 0.0
1314, 0.0
1315, 0.0
1316, 0.0
1317, 0.0
1318, 0.0
1319, 0.0
1320, 0.0
1321, 0.0
1322, 0.0
1323, 0.0
1324, 0.0
1325, 0.0
1326, 0.0
1327, 0.0
1328, 0.0
1329, 0.0
1330, 0.0
1331, 0.0
1332, 0.0
1333, 0.0
1334, 0.0
1335, 0.0
1336, 0.0
1337, 0.0
1338, 0.0
1339, 0.0
1340, 0.0
1341, 0.0
1342, 0.0
1343, 0.0
1344, 0.0
1345, 0.0
1346, 0.0
1347, 0.0
1348, 0.0
1349, 0.0
1350, 0.0
1351, 0.0
1352, 0.0
1353, 0.0
1354, 0.0
1355, 0.0
1356, 0.0
1357, 0.0
1358, 0.0
1359, 0.0
1360, 0.0
1361, 0.0
1362, 0.0
1363, 0.0
1364, 0.0
1365, 0.0
1366, 0.0
1367, 0.0
1368, 0.0
1369, 0.0
1370, 0.0
1371, 0.0
1372, 0.0
1373, 0.0
1374, 0.0
1375, 0.0
1376, 0.0
1377, 0.0
1378, 0.0
1379, 0.0
1380, 0.0
1381, 0.0
1382, 0.0
1383, 0.0
1384, 0.0
1385, 0.0
1386, 0.0
1387, 0.0
1388, 0.0
1389, 0.0
1390, 0.0
1391, 0.0
1392, 0.0
1393, 0.0
1394, 0.0
1395, 0.0
1396, 0.0
1397, 0.0
1398, 0.0
1399, 0.0
1400, 0.0
1401, 0.0
1402, 0.0
1403, 0.0
1404, 0.0
1405, 0.0
1406, 0.0
1407, 0.0
1408, 0.0
1409, 0.0
1410, 0.0
1411, 0.0
1412, 0.0
1413, 0.0
1414, 0.0
1415, 0.0
1416, 0.0
1417, 0.0
1418, 0.0
1419, 0.0
1420, 0.0
1421, 0.0
1422, 0.0
1423, 0.0
1424, 0.0
1425, 0.0
1426, 0.0
1427, 0.0
1428, 0.0
1429, 0.0
1430, 0.0
1431, 0.0
1432, 0.0
1433, 0.0
1434, 0.0
1435, 0.0
1436, 0.0
1437, 0.0
1438, 0.0
1439, 0.0
1440, 0.0
1441, 0.0
1442, 0.0
1443, 0.0
1444, 0.0
1445, 0.0
1446, 0.0
1447, 0.0
1448, 0.0
1449, 0.0
1450, 0.0
1451, 0.0
1452, 0.0
1453, 0.0
1454, 0.0
1455, 0.0
1456, 0.0
1457, 0.0
1458, 0.0
1459, 0.0
1460, 0.0
1461, 0.0
1462, 0.0
1463, 0.0
1464, 0.0
1465, 0.0
1466, 0.0
1467, 0.0
1468, 0.0
1469, 0.0
1470, 0.0
1471, 0.0
1472, 0.0
1473, 0.0
1474, 0.0
1475, 0.0
1476, 0.0
1477, 0.0
1478, 0.0
1479, 0.0
1480, 0.0
1481, 0.0
1482, 0.0
1483, 0.0
1484, 0.0
1485, 0.0
1486, 0.0
1487, 0.0
1488, 0.0
1489, 0.0
1490, 0.0
1491, 0.0
1492, 0.0
1493, 0.0
1494, 0.0
1495, 0.0
1496, 0.0
1497, 0.0
1498, 0.0
1499, 0.0
1500, 0.0
1501, 0.0
1502, 0.0
1503, 0.0
1504, 0.0
1505, 0.0
1506, 0.0
1507, 0.0
1508, 0.0
1509, 0.0
1510, 0.0
1511, 0.0
1512, 0.0
1513, 0.0
1514, 0.0
1515, 0.0
1516, 0.0
1517, 0.0
1518, 0.0
1519, 0.0
1520, 0.0
1521, 0.0
1522, 0.0
1523, 0.0
1524, 0.0
1525, 0.0
1526, 0.0
1527, 0.0
1528, 0.0
1529, 0.0
1530, 0.0
1531, 0.0
1532, 0.0
1533, 0.0
1534, 0.0
1535, 0.0
1536, 0.0
1537, 0.0
1538, 0.0
1539, 0.0
1540, 0.0
1541, 0.0
1542, 0.0
1543, 0.0
1544, 0.0
1545, 0.0
1546, 0.0
1547, 0.0
1548, 0.0
1549, 0.0
1550, 0.0
1551, 0.0
1552, 0.0
1553, 0.0
1554, 0.0
1555, 0.0
1556, 0.0
1557, 0.0
1558, 0.0
1559, 0.0
1560, 0.0
1561, 0.0
1562, 0.0
1563, 0.0
1564, 0.0
1565, 0.0
1566, 0.0
1567, 0.0
1568, 0.0
1569, 0.0
1570, 0.0
1571, 0.0
1572, 0.0
1573, 0.0
1574, 0.0
1575, 0.0
1576, 0.0
1577, 0.0
1578, 0.0
1579, 0.0
1580, 0.0
1581, 0.0
1582, 0.0
1583, 0.0
1584, 0.0
1585, 0.0
1586, 0.0
1587, 0.0
1588, 0.0
1589, 0.0
1590, 0.0
1591, 0.0
1592, 0.0
1593, 0.0
1594, 0.0
1595, 0.0
1596, 0.0
1597, 0.0
1598, 0.0
1599, 0.0
