30, 0.0
31, 0.0
32, 0.0
33, 0.0
34, 0.0
35, 0.0
36, 0.0
37, 0.0
38, 0.0
39, 0.0
40, 0.0
41, 0.0
42, 0.0
43, 0.0
44, 0.0
45, 0.0
46, 0.0
47, 0.0
48, 0.0
49, 0.0
50, 0.0
51, 0.0
52, 0.0
53, 0.0
54, 0.0
55, 0.0
56, 0.0
57, 0.0
58, 0.0
59, 0.0
60, 0.0
61, 0.0
62, 0.0
63, 0.0
64, 0.0
65, 0.0
66, 0.0
67, 0.0
68, 0.0
69, 0.0
70, 0.0
71, 0.0
72, 0.0
73, 0.0
74, 0.0
75, 0.0
76, 0.0
77, 0.0
78, 0.0
79, 0.0
80, 0.0
81, 0.0
82, 0.0
83, 0.0
84, 0.0
85, 0.0
86, 0.0
87, 0.0
88, 0.0
89, 0.0
90, 0.0
91, 0.0
92, 0.0
93, 0.0
94, 0.0
95, 0.0
96, 0.0
97, 0.0
98, 0.0
99, 0.0
100, 0.0
101, 0.0
102, 0.0
103, 0.0
104, 0.0
105, 0.0
106, 0.0
107, 0.0
108, 0.0
109, 0.0
110, 0.0
111, 0.0
112, 0.0
113, 0.0
114, 0.0
115, 0.0
116, 0.0
117, 0.0
118, 0.0
119, 0.0
120, 0.0
121, 0.0
122, 0.0
123, 0.0
124, 0.0
125, 0.0
126, 0.0
127, 0.0
128, 0.0
129, 0.0
130, 0.0
131, 0.0
132, 0.0
133, 0.0
134, 0.0
135, 0.0
136, 0.0
137, 0.0
138, 0.0
139, 0.0
140, 0.0
141, 0.0
142, 0.0
143, 0.0
144, 0.0
145, 0.0
146, 0.0
147, 0.0
148, 0.0
149, 0.0
150, 0.0
151, 0.0
152, 0.0
153, 0.0
154, 0.0
155, 0.0
156, 0.0
157, 0.0
158, 0.0
159, 0.0
160, 0.0
161, 0.0
162, 0.0
163, 0.0
164, 0.0
165, 0.0
166, 0.0
167, 0.0
168, 0.0
169, 0.0
170.0, 0.0007124970669147321
171.0, 0.0005178128972370541
172.0, 0.005815668555161461
173.0, 0.014911406385491774
174.0, 0.018529788630794547
175.0, 0.024129864435830973
176.0, 0.02568313944368966
177.0, 0.022839071212750736
178.0, 0.016006791151435145
179.0, 0.024401419690532895
180.0, 0.03334046018858528
181.0, 0.04602516516738105
182.0, 0.059325826575560445
183.0, 0.03282718240671087
184.0, 0.03751486362725518
185.0, 0.054052692915922906
186.0, 0.05930086713558468
187.0, 0.058424891955196644
188.0, 0.051878569455161824
189.0, 0.0481743559202836
190.0, 0.04681474572783424
191.0, 0.03357079285809946
192.0, 0.04124064595023777
193.0, 0.03903999691544399
194.0, 0.036668829230877505
195.0, 0.04349706230332696
196.0, 0.018061579167082068
197.0, 0.005317672846249426
198.0, 0.004926946159053361
199.0, 0.008704929326704483
200.0, 0.005042967734666668
201.0, 0.009349527402249291
202.0, 0.006361987197809081
203.0, 0.003747981586955001
204.0, 0.005662569480821131
205.0, 0.0017826425486947147
206.0, 0.00971987408214319
207.0, 0.009906292778037796
208.0, 0.006467796970314347
209.0, 0.012584058527257313
210.0, 0.0057761371433636
211.0, 0.003383411041633402
212.0, 0.005648360958711756
213.0, 0.0018487055990720038
214.0, 0.020250700974607013
215.0, 0.019286778953573856
216.0, 0.020717331312964195
217.0, 0.030379808443788982
218.0, 0.02398327277026149
219.0, 0.01706221402057257
220.0, 0.028061724496082664
221.0, 0.040130404857667785
222.0, 0.035594610103370436
223.0, 0.04575744690717436
224.0, 0.0488514322717167
225.0, 0.056078452161218546
226.0, 0.07366564619828328
227.0, 0.08735553093366896
228.0, 0.08907863998178081
229.0, 0.09224603309619996
230.0, 0.09859438064138965
231.0, 0.1005997523683091
232.0, 0.10534531226189753
233.0, 0.11078280985377771
234.0, 0.11171344282441478
235.0, 0.10833048245517922
236.0, 0.11314060398568487
237.0, 0.13907417335619016
238.0, 0.13735780639023948
239.0, 0.12846730188032085
240.0, 0.14898177183722153
241.0, 0.15070875162387196
242.0, 0.14821865149752467
243.0, 0.14258065509246493
244.0, 0.1382474787810915
245.0, 0.1488411491037996
246.0, 0.15553270809182346
247.0, 0.1463242427478264
248.0, 0.13889933925798298
249.0, 0.15344602256501158
250.0, 0.169604325497329
251.0, 0.16510417704527727
252.0, 0.15941960160627353
253.0, 0.1536585845624332
254.0, 0.1316810170913172
255.0, 0.12193407664380788
256.0, 0.12474787865122657
257.0, 0.12376976005857435
258.0, 0.12177002618389406
259.0, 0.14093572238386531
260.0, 0.13720452288387458
261.0, 0.13809745322532965
262.0, 0.14350681101355325
263.0, 0.137359765272293
264.0, 0.13826311101064054
265.0, 0.14044461489452484
266.0, 0.13583077384540823
267.0, 0.1274862450754798
268.0, 0.1313220938415756
269.0, 0.1312314222694652
270.0, 0.12172325344877738
271.0, 0.10878698580713354
272.0, 0.1027103424740863
273.0, 0.11323751366128991
274.0, 0.10962560423065132
275.0, 0.09362777390815587
276.0, 0.0771051375245388
277.0, 0.06987130129850834
278.0, 0.06902164378744761
279.0, 0.06816164397384715
280.0, 0.0556303918130271
281.0, 0.036958504209284336
282.0, 0.030961602067365705
283.0, 0.041876381005889196
284.0, 0.02599942625178208
285.0, 0.005119617809669056
286.0, 0.0025841327753104736
287.0, 0.002679963234422269
288.0, 0.004991560707865372
289.0, 0.002665876893017643
290.0, 0.0122237666393367
291.0, 0.02439701464057932
292.0, 0.01720876019548783
293.0, 0.007195159961850449
294.0, 0.0013463453955731676
295.0, 0.005661678991103197
296.0, 0.011336083538399275
297.0, 0.021759427108762344
298.0, 0.04029839610807727
299.0, 0.05839388680122904
300.0, 0.0679862761482227
301.0, 0.07932826674297598
302.0, 0.10927481369567224
303.0, 0.14445208156157224
304.0, 0.16967968429517627
305.0, 0.1874767899942252
306.0, 0.21747039283800207
307.0, 0.2338988425407604
308.0, 0.26232210633862457
309.0, 0.30414839642102615
310.0, 0.33926697845347314
311.0, 0.3624776457644001
312.0, 0.420928309851009
313.0, 0.4623635498231636
314.0, 0.483545083360598
315.0, 0.52972883239863
316.0, 0.5715425981951013
317.0, 0.6322983130214966
318.0, 0.6751022071239672
319.0, 0.6973514344150878
320.0, 0.7592120889317385
321.0, 0.7902496444944098
322.0, 0.8227127188597584
323.0, 0.8451861588498202
324.0, 0.8482550772549486
325.0, 0.8946616136961841
326.0, 0.9357791990916958
327.0, 0.9684024508698442
328.0, 0.9737592747362551
329.0, 0.947113015414518
330.0, 0.9554231321399128
331.0, 0.9858751003375008
332.0, 0.9929093167511867
333.0, 0.979012589381283
334.0, 0.9707779522276981
335.0, 0.9482191642821641
336.0, 0.9435301317423743
337.0, 0.9397678072296456
338.0, 0.9319002051687365
339.0, 0.9220688780976025
340.0, 0.8877870166420473
341.0, 0.8476083935182206
342.0, 0.8348647889104294
343.0, 0.8327104857468355
344.0, 0.8034910497370147
345.0, 0.7724729465078701
346.0, 0.7519926474361456
347.0, 0.7325113721925798
348.0, 0.7089104466865042
349.0, 0.6855760053136399
350.0, 0.6498033607887727
351.0, 0.6091234647674563
352.0, 0.5908971375915322
353.0, 0.5936429134316071
354.0, 0.566806723973619
355.0, 0.5473594391383358
356.0, 0.5292489420198367
357.0, 0.5095045757974416
358.0, 0.48766313314307624
359.0, 0.46712687304991807
360.0, 0.4435235025828633
361.0, 0.41101292276199536
362.0, 0.3933806406577918
363.0, 0.3888280366368761
364.0, 0.37050610339179774
365.0, 0.3679863453300801
366.0, 0.3419442732999294
367.0, 0.31750422596350225
368.0, 0.3112061333873724
369.0, 0.3043103884457942
370.0, 0.2897734013897426
371.0, 0.27790687035322575
372.0, 0.26340850808308897
373.0, 0.24571210021376044
374.0, 0.23344811039235513
375.0, 0.20691075896001043
376.0, 0.19315783595736338
377.0, 0.1916887564898084
378.0, 0.18750482272593125
379.0, 0.16325492347872342
380.0, 0.16242927926888695
381.0, 0.14845440891328252
382.0, 0.14215838412205126
383.0, 0.14860208861207516
384.0, 0.130863127568708
385.0, 0.11528286335427247
386.0, 0.11473278554312387
387.0, 0.1081195167388164
388.0, 0.09259427767737154
389.0, 0.08983997449351776
390.0, 0.08676428888311136
391.0, 0.07569708093720365
392.0, 0.06396281210792673
393.0, 0.05992726966384862
394.0, 0.0651282154750304
395.0, 0.05659305906926036
396.0, 0.04740408691761369
397.0, 0.045695434390166316
398.0, 0.0418188545987484
399.0, 0.028374595688874623
400.0, 0.03495386750931352
401.0, 0.03475020454930769
402.0, 0.03203526643611644
403.0, 0.026385100812809033
404.0, 0.016744071788182907
405.0, 0.013174912551411663
406.0, 0.004761695338431742
407.0, 0.0034554228125552575
408.0, 0.008268363323524519
409.0, 0.0058551648377027105
410.0, 0.010001029095869167
411.0, 0.008063648906406767
412.0, 0.0049481970410363355
413.0, 0.0040819071367180155
414.0, 0.013460335619322333
415.0, 0.0031414185899725014
416.0, 0.007977401314734721
417.0, 0.013509842576356824
418.0, 0.014916673520244837
419.0, 0.012093071716812752
420.0, 0.003936102858246866
421.0, 0.00951442046822544
422.0, 0.009555523591914855
423.0, 0.005425077080395818
424.0, 0.0025025654021691326
425.0, 0.0028722076127998966
426.0, 0.0032901147101934585
427.0, 0.0016475074331495122
428.0, 0.0019746897289570067
429.0, 0.01065874177164515
430.0, 0.023806866350711258
431.0, 0.02946977117658164
432.0, 0.03022576119837996
433.0, 0.02843043702767286
434.0, 0.021179933992573827
435.0, 0.012331638076015266
436.0, 0.016170149131290338
437.0, 0.018180002033778436
438.0, 0.03147252322537732
439.0, 0.037170435231916536
440.0, 0.025478937287757335
441.0, 0.02649835749413543
442.0, 0.04376374325321726
443.0, 0.03563630389830341
444.0, 0.02909309586146848
445.0, 0.038330412514993195
446.0, 0.04563412231487009
447.0, 0.03724172667960375
448.0, 0.05424587298025481
449.0, 0.06565551459166746
450.0, 0.056611919193624155
451.0, 0.04532995308549205
452.0, 0.05621298135903083
453.0, 0.08036057153673762
454.0, 0.0633210840114346
455.0, 0.0532437138182162
456.0, 0.07069700896459517
457.0, 0.06705091037684999
458.0, 0.07687081485150098
459.0, 0.07611391800351426
460.0, 0.07479665276792218
461.0, 0.07545116280832836
462.0, 0.07478917640971683
463.0, 0.08527930255411262
464.0, 0.08642867120439884
465.0, 0.09763633450279889
466.0, 0.09393857790207952
467.0, 0.07001404057529254
468.0, 0.07693332289310635
469.0, 0.08315177565921457
470.0, 0.06587763982768033
471.0, 0.05123622939124008
472.0, 0.050252196617745826
473.0, 0.05102704694030672
474.0, 0.05298939301320093
475.0, 0.04469833099896587
476.0, 0.03896074533766841
477.0, 0.0358155329941498
478.0, 0.02986956349811256
479.0, 0.027725050207346946
480.0, 0.039243520843790444
481.0, 0.04892205145952559
482.0, 0.03803989455699001
483.0, 0.01589373902012669
484.0, 0.012085910481083664
485.0, 0.014951644395371364
486.0, 0.01542417869005964
487.0, 0.009223056843019068
488.0, 0.005265108032404689
489.0, 0.008183768092970653
490.0, 0.0031357275265153435
491.0, 0.006126587493118918
492.0, 0.005744864803506063
493.0, 0.0037555923510082367
494.0, 0.007602397667913912
495.0, 0.008070998992306516
496.0, 0.002352078884196477
497.0, 0.00913532300259613
498.0, 0.012468577414627664
499.0, 0.010223946785703384
500.0, 0.008252870248043082
501.0, 0.0028908324061637136
502.0, 0.01230090755576643
503.0, 0.009806068053395244
504.0, 0.005856277918201515
505.0, 0.004103360094450485
506.0, 0.0034554120773609446
507.0, 0.014511053197305994
508.0, 0.012169254283748047
509.0, 0.006924947393899393
510.0, 0.013736770000272912
511.0, 0.018445872250821314
512.0, 0.017017571060344114
513.0, 0.005590136022483264
514.0, 0.0186438485314114
515.0, 0.01155368381314762
516.0, 0.0066806002840332415
517.0, 0.00641521657020245
518.0, 0.006428194069757687
519.0, 0.002214690386195323
520.0, 0.0019102995384222424
521.0, 0.0036708974081907193
522.0, 0.009930151739943603
523.0, 0.014051916648239144
524.0, 0.01794810523063714
525.0, 0.015812025522381652
526.0, 0.012661031876257752
527.0, 0.0028272788364303225
528.0, 0.007956324362918203
529.0, 0.01523714393944017
530.0, 0.010060418684644787
531.0, 0.005470920959289951
532.0, 0.005998513130530702
533.0, 0.010129497985962565
534.0, 0.002531099963003284
535.0, 0.0007460829783976963
536.0, 0.0028718574280595746
537.0, 0.0015487626064861306
538.0, 0.005900699954066513
539.0, 0.0014791022291368154
540.0, 0.01176261900005322
541.0, 0.0027224296481669617
542.0, 0.021935290060207568
543.0, 0.017545092495813583
544.0, 0.018273408223233548
545.0, 0.025507720166825832
546.0, 0.020301378532006354
547.0, 0.01807984795657427
548.0, 0.05172332848560539
549.0, 0.05328320225090162
550.0, 0.055424671400859805
551.0, 0.07293665870867011
552.0, 0.08494463846364997
553.0, 0.10143400128129214
554.0, 0.11695521810207532
555.0, 0.12815097741565742
556.0, 0.13106606285280226
557.0, 0.13652107338355104
558.0, 0.15754525909573788
559.0, 0.18502172143382764
560.0, 0.18078083975104434
561.0, 0.1878180093587164
562.0, 0.19786429778466294
563.0, 0.2126743428625554
564.0, 0.24583538885595876
565.0, 0.24145022627183396
566.0, 0.26420303710880255
567.0, 0.2832514121341965
568.0, 0.3061043163553571
569.0, 0.3237713955637874
570.0, 0.3224727976582552
571.0, 0.3525782465628501
572.0, 0.37316793564429174
573.0, 0.3802790062120267
574.0, 0.3899973904320401
575.0, 0.4112460623508555
576.0, 0.43669160196145956
577.0, 0.4462515076646432
578.0, 0.4710949049851522
579.0, 0.46995765364271175
580.0, 0.4813397202550093
581.0, 0.511485486192755
582.0, 0.5164523210865261
583.0, 0.5186291744024084
584.0, 0.5382129679295218
585.0, 0.5619884675012187
586.0, 0.573185799816322
587.0, 0.5808700753073718
588.0, 0.5951034958378145
589.0, 0.5849502158906676
590.0, 0.6313878790300386
591.0, 0.6491484362762869
592.0, 0.6444841972401884
593.0, 0.6528128421328032
594.0, 0.6731038803708024
595.0, 0.6650326201996364
596.0, 0.6607644829334627
597.0, 0.6589783318631924
598.0, 0.6598064338905728
599.0, 0.6574694424107144
600.0, 0.651929583969627
601.0, 0.6593702466377959
602.0, 0.6540017539896514
603.0, 0.6372611051608041
604.0, 0.6140052291428704
605.0, 0.591241051511087
606.0, 0.5734248909310962
607.0, 0.5568495651175162
608.0, 0.5406520319356785
609.0, 0.5337504870635709
610.0, 0.5158723970144794
611.0, 0.4831800972128154
612.0, 0.453576349036656
613.0, 0.43964617956173285
614.0, 0.4031689418023973
615.0, 0.36698888108046435
616.0, 0.3555498773087091
617.0, 0.33930600483022205
618.0, 0.30539769363796576
619.0, 0.2775368708890657
620.0, 0.2594688815667842
621.0, 0.22811586288585176
622.0, 0.20905475165097884
623.0, 0.18859194829455428
624.0, 0.17088169256983918
625.0, 0.16212281328965203
626.0, 0.13537230240191264
627.0, 0.12768829875627197
628.0, 0.11143348679726577
629.0, 0.08927383089954692
630.0, 0.07668462411600234
631.0, 0.0719201415372024
632.0, 0.061773781836212995
633.0, 0.05438770412031815
634.0, 0.05047202294448738
635.0, 0.050827944423498216
636.0, 0.036869274290637584
637.0, 0.013050900120247172
638.0, 0.003910900722695507
639.0, 0.010067338129194239
640.0, 0.023749216626727975
641.0, 0.01508700948809749
642.0, 0.01035600304352366
643.0, 0.014882702923362997
644.0, 0.014010879521361855
645.0, 0.0191828087732653
646.0, 0.014199341196076007
647.0, 0.015228640556559751
648.0, 0.021708087100662635
649.0, 0.022664215735591124
650.0, 0.021324748931323783
651.0, 0.030220123335461715
652.0, 0.02932488869105674
653.0, 0.0346388163255094
654.0, 0.03622522179393261
655.0, 0.03917353670280894
656.0, 0.04460846627275844
657.0, 0.04486967280316583
658.0, 0.040074122568009685
659.0, 0.029610359768687457
660.0, 0.03455760482315804
661.0, 0.05168841603071219
662.0, 0.06356606347835199
663.0, 0.06195262313739811
664.0, 0.055303526731851446
665.0, 0.06525550631969462
666.0, 0.06012120209010868
667.0, 0.05854373245709954
668.0, 0.06849661953459171
669.0, 0.0714345855505023
670.0, 0.06213028156870657
671.0, 0.06611260816041005
672.0, 0.07456170610006059
673.0, 0.0789818757246061
674.0, 0.06425863706730439
675.0, 0.056631147047394415
676.0, 0.06509027826011819
677.0, 0.06674113969762155
678.0, 0.05598887664602222
679.0, 0.06732331462440262
680.0, 0.06433229149509403
681.0, 0.057740712961140916
682.0, 0.05218427856501183
683.0, 0.05322899297831323
684.0, 0.061798252145563774
685.0, 0.04323303653293197
686.0, 0.0504458146511162
687.0, 0.0653894241173933
688.0, 0.06184295221514731
689.0, 0.04627480392315884
690.0, 0.03797693742646702
691.0, 0.042446582971171855
692.0, 0.05097163570094903
693.0, 0.046186874797963205
694.0, 0.0415379130224179
695.0, 0.0409084311756265
696.0, 0.03762493351292778
697.0, 0.027436407649011323
698.0, 0.01714066492489215
699.0, 0.019605701981958
700.0, 0.007924931373658566
701.0, 0.0181081344442701
702.0, 0.022375074725372385
703.0, 0.015766920328475206
704.0, 0.01013508305553817
705.0, 0.007181093801563169
706.0, 0.017711896935389392
707.0, 0.015713128091775667
708.0, 0.011263861953950785
709.0, 0.01474513691512802
710.0, 0.01590382067453091
711.0, 0.011714582948643368
712.0, 0.013010682980850164
713.0, 0.004517303920529107
714.0, 0.007627158717171514
715.0, 0.011434670634860812
716.0, 0.007067172386339845
717.0, 0.003382457499396325
718.0, 0.0029209057383241346
719.0, 0.004113228798974391
720.0, 0.006269965905321063
721.0, 0.003940129362022799
722.0, 0.003674091048000844
723.0, 0.0059670202872676254
724.0, 0.0017029085606456362
725.0, 0.0019351598360048475
726.0, 0.01745074330600948
727.0, 0.005325305595696541
728.0, 0.01091155524691106
729.0, 0.005298228131617605
730.0, 0.000891258648062341
731.0, 0.0034530828157280013
732.0, 0.003965380010204841
733.0, 0.002750369163909424
734.0, 0.0037119386627842044
735.0, 0.015575378023206347
736.0, 0.012932202679907119
737.0, 0.004340852407596447
738.0, 0.002510325416443948
739.0, 0.004515172456894212
740.0, 0.005637856918310847
741.0, 0.016689673855961425
742.0, 0.014968600956494939
743.0, 0.007045769031946271
744.0, 0.005298249862292642
745.0, 0.004029669107509242
746.0, 0.007569402939620518
747.0, 0.009547861391670598
748.0, 0.0028612496472079124
749.0, 0.012019544097632378
750.0, 0.012907997951406774
751.0, 0.012653957234053267
752.0, 0.01204377119224508
753.0, 0.009315841778810813
754.0, 0.007576771975695929
755.0, 0.010644249922363576
756.0, 0.016176289084522795
757.0, 0.0009712258675970611
758.0, 0.010531017637150203
759.0, 0.02012404662668583
760.0, 0.02393601299738216
761.0, 0.02632712289549895
762.0, 0.018144559386105173
763.0, 0.023889464127710848
764.0, 0.02934029821760669
765.0, 0.024850420501949952
766.0, 0.024979401069359263
767.0, 0.034026225884027345
768.0, 0.031065589823892945
769.0, 0.013556426824303667
770.0, 0.028483429349836095
771.0, 0.0373025490150954
772.0, 0.03216822698133259
773.0, 0.028461651757672218
774.0, 0.030075206999700912
775.0, 0.032744669663979015
776.0, 0.02920314265154748
777.0, 0.024459677584362283
778.0, 0.03595196465838125
779.0, 0.04273474966577422
780.0, 0.04352022783531139
781.0, 0.04647768644682216
782.0, 0.043390086790382774
783.0, 0.04385133381688923
784.0, 0.04937928584313682
785.0, 0.04976379257946012
786.0, 0.0505067935975323
787.0, 0.038894816701636775
788.0, 0.053282091692053536
789.0, 0.05595284223611302
790.0, 0.059715118159766524
791.0, 0.0611640631536824
792.0, 0.05313730009303446
793.0, 0.05965350163090956
794.0, 0.05185325619781459
795.0, 0.05582825334520944
796.0, 0.05148149195509185
797.0, 0.0471589722352567
798.0, 0.055423805579627644
799.0, 0.0646018436409162
800.0, 0.062139126384513195
801.0, 0.07486241791329745
802.0, 0.08003487387565088
803.0, 0.08800949040623751
804.0, 0.08853739270216633
805.0, 0.09850019399452402
806.0, 0.10101879558840125
807.0, 0.09345034046221734
808.0, 0.09395293112901233
809.0, 0.09477153221995879
810.0, 0.09468947098913946
811.0, 0.09420466199441964
812.0, 0.0988576283921792
813.0, 0.09127490841000775
814.0, 0.08482577839610134
815.0, 0.08820025819679686
816.0, 0.09757979833550906
817.0, 0.11114574368481395
818.0, 0.10958611009620993
819.0, 0.10480298637335865
820.0, 0.10961909062503862
821.0, 0.10670211114845697
822.0, 0.10439173678772032
823.0, 0.1073470297033294
824.0, 0.1082248857349279
825.0, 0.10853000747510616
826.0, 0.09576787637319009
827.0, 0.10195161691082082
828.0, 0.11335236459216995
829.0, 0.09868743208349609
830.0, 0.09427564741434985
831.0, 0.09854750806726405
832.0, 0.08680905332731344
833.0, 0.09060610037652433
834.0, 0.10271053396220288
835.0, 0.08631988050750178
836.0, 0.0801453768638901
837.0, 0.07778318411441738
838.0, 0.08448766389292221
839.0, 0.08517891473800804
840.0, 0.07818401737889558
841.0, 0.0803064911243482
842.0, 0.06729304145467076
843.0, 0.060706115480221534
844.0, 0.06378349972942107
845.0, 0.05827608691608953
846.0, 0.05672007394681816
847.0, 0.0593740271908797
848.0, 0.05575581083230322
849.0, 0.052485679139561654
850.0, 0.061882338928141156
851.0, 0.060394610567558765
852.0, 0.05771483566482352
853.0, 0.053910644801163386
854.0, 0.05652405619013542
855.0, 0.056257517561436016
856.0, 0.049829270685276525
857.0, 0.04279469861503986
858.0, 0.03693806568863089
859.0, 0.047265149276611435
860.0, 0.026885886940735487
861.0, 0.03524210313813395
862.0, 0.02905563698067291
863.0, 0.026264613892314655
864.0, 0.02801504864533664
865.0, 0.026306680247800057
866.0, 0.02693419275488524
867.0, 0.03127838014442937
868.0, 0.030863746332564158
869.0, 0.014315399146154697
870.0, 0.02641335541039755
871.0, 0.02142500473743536
872.0, 0.02079528968577055
873.0, 0.023289259721661664
874.0, 0.021772676285187358
875.0, 0.027149625436818876
876.0, 0.014203457722591668
877.0, 0.018458300351782527
878.0, 0.01716042753538018
879.0, 0.024224921917983776
880.0, 0.02136282668722795
881.0, 0.015587135420673257
882.0, 0.011757506259807184
883.0, 0.0017379471176164653
884.0, 0.007691962813408118
885.0, 0.019253638125490215
886.0, 0.011036510679928856
887.0, 0.020297050983328263
888.0, 0.012026882938025174
889.0, 0.009031136488117148
890.0, 0.0033924610950616814
891.0, 0.00424551782972395
892.0, 0.013389138855198487
893.0, 0.013029904034816117
894.0, 0.01233136909415656
895.0, 0.013723492996749595
896.0, 0.005444236766315734
897.0, 0.002951826281630546
898.0, 0.003358108098576781
899.0, 0.00479040325951623
900.0, 0.003453914336134808
901.0, 0.003849952401085359
902.0, 0.00598891171540907
903.0, 0.0064336822290408215
904.0, 0.012024424930344389
905.0, 0.011611423618558719
906.0, 0.002096105462243737
907.0, 0.0017359143252275043
908.0, 0.0085139344006907
909.0, 0.012840243716257154
910.0, 0.01670205518566794
911.0, 0.017955207918404322
912.0, 0.008720039262308143
913.0, 0.0035589372105155823
914.0, 0.002803262900917836
915.0, 0.009204496601841642
916.0, 0.003949656563075783
917.0, 0.00125240707041121
918.0, 0.010357996673334213
919.0, 0.005769851016959393
920.0, 0.0010944499372771577
921.0, 0.005107007291459402
922.0, 0.014877708652681098
923.0, 0.016901921885102728
924.0, 0.006310581148889929
925.0, 0.006062775395929002
926.0, 0.004742173627436124
927.0, 0.00372327280394633
928.0, 0.0028340299898294476
929.0, 0.0008141607252214997
930.0, 0.005485008576780313
931.0, 0.005076318344942109
932.0, 0.002802693078931177
933.0, 0.01859150110210017
934.0, 0.012477190207028567
935.0, 0.0016954931351750018
936.0, 0.01010192459098576
937.0, 0.019236347663460218
938.0, 0.016374800093233652
939.0, 0.014597652153495544
940.0, 0.008499879215042477
941.0, 0.0010876362087682639
942.0, 0.014873629477516104
943.0, 0.009984207849699316
944.0, 0.020895585179770398
945.0, 0.015150979161000232
946.0, 0.004517664098767062
947.0, 0.0036959845846598737
948.0, 0.00530844675272951
949.0, 0.0076793494858784376
950.0, 0.01399741323729026
951.0, 0.014569438357780988
952.0, 0.013459498157893221
953.0, 0.00537741838773331
954.0, 0.00639844276192189
955.0, 0.0119237896072009
956.0, 0.008262594783502511
957.0, 0.004382569706284277
958.0, 0.0098469332549346
959.0, 0.017175335220105916
960.0, 0.01483440645563833
961.0, 0.011926033940305164
962.0, 0.010393241226738634
963.0, 0.004868890514873269
964.0, 0.007981659255162702
965.0, 0.015133246557930786
966.0, 0.012096005979894008
967.0, 0.01601083175363857
968.0, 0.011399425277883082
969.0, 0.004495817459523973
970.0, 0.008141718072957728
971.0, 0.002800185066141483
972.0, 0.00907007036068122
973.0, 0.012619894668339038
974.0, 0.002586104163908351
975.0, 0.012614160870055789
976.0, 0.010772949039109537
977.0, 0.0030748649434274985
978.0, 0.007278107255451277
979.0, 0.01420215806678375
980.0, 0.02002859762243668
981.0, 0.023045500063233075
982.0, 0.012505472291626447
983.0, 0.017033039037043216
984.0, 0.019876944211207427
985.0, 0.01723005691847924
986.0, 0.015085291432634634
987.0, 0.013993089900114747
988.0, 0.006714325548897801
989.0, 0.010513768632862155
990.0, 0.014920726524164667
991.0, 0.007773018223975531
992.0, 0.006262958242309242
993.0, 0.010683735992134489
994.0, 0.010249753656528433
995.0, 0.011576306478112097
996.0, 0.010328756091165885
997.0, 0.028979466241402147
998.0, 0.024963354914418565
999.0, 0.016491226087235324
1000.0, 0.014793108190133238
1001.0, 0.008774911994427093
1002.0, 0.012418686675979018
1003.0, 0.023154275283805006
1004.0, 0.004389307073887146
1005.0, 0.006998606271356285
1006.0, 0.007421016334810266
1007.0, 0.00791349048980685
1008.0, 0.020838159611219393
1009.0, 0.013944779775443868
1010.0, 0.011495524450987211
1011.0, 0.027098026234091088
1012.0, 0.020301657757729318
1013.0, 0.0018861232428919643
1014.0, 0.013378183396291094
1015.0, 0.015250102453446312
1016.0, 0.013477342817623018
1017.0, 0.01948728712644272
1018.0, 0.014611108789793948
1019.0, 0.009955247400783546
1020.0, 0.014623513517740886
1021.0, 0.024895384344992173
1022.0, 0.021186216969897295
1023.0, 0.0031652244570093933
1024.0, 0.005752765790541944
1025.0, 0.009137130131755667
1026.0, 0.023627365375986822
1027.0, 0.0239212075114408
1028.0, 0.015268100848049809
1029.0, 0.009045643774948299
1030.0, 0.011771106679820441
1031.0, 0.012276769118604378
1032.0, 0.002434072576437474
1033.0, 0.0002849930976511452
1034.0, 0.004118580124669646
1035.0, 0.01116944732446823
1036.0, 0.011027585008838926
1037.0, 0.005115643063939834
1038.0, 0.020088189386148807
1039.0, 0.021043473592622364
1040.0, 0.012139430604428224
1041.0, 0.010879998073287343
1042.0, 0.01444998626507226
1043.0, 0.011973986323501712
1044.0, 0.02122278820718091
1045.0, 0.027120883746560527
1046.0, 0.00818377943086087
1047.0, 0.01322373284188914
1048.0, 0.023571093904641332
1049.0, 0.020547796339494225
1050.0, 0.023968966462717574
1051.0, 0.011317169296859326
1052.0, 0.018320392231914496
1053.0, 0.023856460252315376
1054.0, 0.007587273160388981
1055.0, 0.010948451886008754
1056.0, 0.009552157422753617
1057.0, 0.01628778517476678
1058.0, 0.010888907557291522
1059.0, 0.014223988811669743
1060.0, 0.020525166703769828
1061.0, 0.014626544067720142
1062.0, 0.00848612668637405
1063.0, 0.007035062305957974
1064.0, 0.010688570741130457
1065.0, 0.03454295502814848
1066.0, 0.027883666288893078
1067.0, 0.025330422377336025
1068.0, 0.02052318565112331
1069.0, 0.003532716556243678
1070.0, 0.013580596705414701
1071.0, 0.01326967375866778
1072.0, 0.015319514417136233
1073.0, 0.010224662561560214
1074.0, 0.00728605339806257
1075.0, 0.017457896765172436
1076.0, 0.013818850074523447
1077.0, 0.013764466467592199
1078.0, 0.014071681414326038
1079.0, 0.01282881982715934
1080.0, 0.00642201420073539
1081.0, 0.003945352242604604
1082.0, 0.008452039576526146
1083.0, 0.013873226688488697
1084.0, 0.016407723779343693
1085.0, 0.010340440383628743
1086.0, 0.006699192153779269
1087.0, 0.006654954263825643
1088.0, 0.008438976068049497
1089.0, 0.010893835399410388
1090.0, 0.005439529337684593
1091.0, 0.0017258816258447457
1092.0, 0.015028524138185315
1093.0, 0.004645682273344449
1094.0, 0.010780456393985142
1095.0, 0.0017722979662995525
1096.0, 0.006624222872331031
1097.0, 0.011115674975208448
1098.0, 0.014519162709071116
1099.0, 0.005817995116975108
1100.0, 0.0021370490448038722
1101.0, 0.005836461065291247
1102.0, 0.0153846484190538
1103.0, 0.022367857829146263
1104.0, 0.009999236515863586
1105.0, 0.0019285249339492912
1106.0, 0.010845743397270832
1107.0, 0.023764741819450066
1108.0, 0.021697586833096884
1109.0, 0.015663321784227715
1110.0, 0.0022924488506224057
1111.0, 0.013353634478471325
1112.0, 0.011834304697558754
1113.0, 0.005886878779890475
1114.0, 0.011321896354581914
1115.0, 0.01891678266112693
1116.0, 0.010803402844610212
1117.0, 0.003661331349611065
1118.0, 0.014537399835029177
1119.0, 0.015083890224882403
1120.0, 0.004687650230971758
1121.0, 0.011883230436586106
1122.0, 0.005278523490673754
1123.0, 0.002687849454215176
1124.0, 0.004577690716274824
1125.0, 0.009615538647395418
1126.0, 0.0056195944704732275
1127.0, 0.004824812215226596
1128.0, 0.005219086282088153
1129.0, 0.008012109855295917
1130.0, 0.010111889928022245
1131.0, 0.0048921217672301615
1132.0, 0.0007608798609535445
1133.0, 0.006630295230664591
1134.0, 0.017107869311196826
1135.0, 0.017120104817331817
1136.0, 0.018584050946676287
1137.0, 0.015255420696290945
1138.0, 0.016072381160323057
1139.0, 0.01849844265091978
1140.0, 0.008882945649609734
1141.0, 0.00170904741951023
1142.0, 0.004294976607604958
1143.0, 0.005879036102218569
1144.0, 0.00659170094759665
1145.0, 0.015461481598659533
1146.0, 0.01399439609840737
1147.0, 0.006607795953630406
1148.0, 0.0033242385649486536
1149.0, 0.008217844505596117
1150.0, 0.014420787788695462
1151.0, 0.014518462639698387
1152.0, 0.012013174877210087
1153.0, 0.008105691519198818
1154.0, 0.009473844737349251
1155.0, 0.020461117233759294
1156.0, 0.008532717044802508
1157.0, 0.010341411373358955
1158.0, 0.009209526272354742
1159.0, 0.01837140043285677
1160.0, 0.009684954298655133
1161.0, 0.003952226353806626
1162.0, 0.004741084527941173
1163.0, 0.019143640401919054
1164.0, 0.01969059447097306
1165.0, 0.023524367525928586
1166.0, 0.028228787710090342
1167.0, 0.01380326587899477
1168.0, 0.01738797657914848
1169.0, 0.02259054346885085
1170.0, 0.020058602345304835
1171.0, 0.02738851661407851
1172.0, 0.015074672535323555
1173.0, 0.029439673343527463
1174.0, 0.016113085831894466
1175.0, 0.006454832289980471
1176.0, 0.008839059538735735
1177.0, 0.008580413895207783
1178.0, 0.015752598624641897
1179.0, 0.016332077685903012
1180.0, 0.013623804875451263
1181.0, 0.015148004129525508
1182.0, 0.008238940578997551
1183.0, 0.003686180555999388
1184.0, 0.0053794190197294384
1185.0, 0.006466960072934698
1186.0, 0.017677388954632833
1187.0, 0.012926735032439445
1188.0, 0.008968197109047822
1189.0, 0.020347004190379235
1190.0, 0.01231566239582918
1191.0, 0.019495464876246822
1192.0, 0.01973012330157276
1193.0, 0.01557057915187651
1194.0, 0.005921927216532889
1195.0, 0.013553778472373879
1196.0, 0.011989374009204027
1197.0, 0.011098359076752216
1198.0, 0.0072389573256654
1199.0, 0.016002865011506474
1200.0, 0.01790108617743449
1201.0, 0.01730830660986374
1202.0, 0.020006253277465497
1203.0, 0.013693734769566809
1204.0, 0.012029021281507549
1205.0, 0.0027282034119471697
1206.0, 0.008882167376776757
1207.0, 0.009084268852984823
1208.0, 0.015305524425635108
1209.0, 0.012815220447103782
1210.0, 0.017021220639197865
1211.0, 0.010489463661671795
1212.0, 0.01670235812953154
1213.0, 0.0010983367886498283
1214.0, 0.007065416918156198
1215.0, 0.009452668982343959
1216.0, 0.0035557320622520983
1217.0, 0.0027386521059168147
1218.0, 0.016071465740007684
1219.0, 0.0236715334278897
1220.0, 0.011528700249524846
1221.0, 0.010215100543317574
1222.0, 0.009566956212908581
1223.0, 0.01068814496984141
1224.0, 0.017391072903326785
1225.0, 0.0117809108885984
1226.0, 0.00976339398939343
1227.0, 0.008134620908359737
1228.0, 0.0024742298019762485
1229.0, 0.01349179416169716
1230.0, 0.015612280433893884
1231.0, 0.01602569157849355
1232.0, 0.0037115975577837156
1233.0, 0.00215548377435189
1234.0, 0.017602855619157396
1235.0, 0.020635874825179125
1236.0, 0.016383295497726543
1237.0, 0.007980602027227782
1238.0, 0.023237736842161946
1239.0, 0.0171192765591189
1240.0, 0.00775629165945039
1241.0, 0.007351218741658237
1242.0, 0.003909997767797067
1243.0, 0.00826732076112405
1244.0, 0.013281410374276234
1245.0, 0.013470944944735046
1246.0, 0.013908518083280589
1247.0, 0.006622650273249611
1248.0, 0.008962731423629293
1249.0, 0.02281928780030526
1250.0, 0.015810642007210787
1251.0, 0.013510412986109218
1252.0, 0.014199468581634237
1253.0, 0.012451581737591647
1254.0, 0.025082985274412356
1255.0, 0.014506121155367872
1256.0, 0.015041817359664122
1257.0, 0.022968838701813668
1258.0, 0.02555477925364281
1259.0, 0.03221359271786865
1260.0, 0.03032357744768288
1261.0, 0.014852681513303049
1262.0, 0.0278414973813061
1263.0, 0.02469689608484984
1264.0, 0.015206429357571657
1265.0, 0.01281947733218791
1266.0, 0.013574757431577896
1267.0, 0.023232998736780957
1268.0, 0.015741760662195778
1269.0, 0.02042754334327908
1270.0, 0.024375839275660664
1271.0, 0.01669104231828307
1272.0, 0.011386800061356091
1273.0, 0.0139844014003238
1274.0, 0.01607883689042426
1275.0, 0.010667810191401967
1276.0, 0.020215423435792208
1277.0, 0.03217867879473187
1278.0, 0.026812286045679992
1279.0, 0.018206401685582515
1280.0, 0.017059871200181133
1281.0, 0.026598038362725198
1282.0, 0.014303664214473839
1283.0, 0.0043615979006331705
1284.0, 0.028281612512726345
1285, 0.0
1286, 0.0
1287, 0.0
1288, 0.0
1289, 0.0
1290, 0.0
1291, 0.0
1292, 0.0
1293, 0.0
1294, 0.0
1295, 0.0
1296, 0.0
1297, 0.0
1298, 0.0
1299, 0.0
1300, 0.0
1301, 0.0
1302, 0.0
1303, 0.0
1304, 0.0
1305, 0.0
1306, 0.0
1307, 0.0
1308, 0.0
1309, 0.0
1310, 0.0
1311, 0.0
1312, 0.0
1313, 0.0
1314, 0.0
1315, 0.0
1316, 0.0
1317, 0.0
1318, 0.0
1319, 0.0
1320, 0.0
1321, 0.0
1322, 0.0
1323, 0.0
1324, 0.0
1325, 0.0
1326, 0.0
1327, 0.0
1328, 0.0
1329, 0.0
1330, 0.0
1331, 0.0
1332, 0.0
1333, 0.0
1334, 0.0
1335, 0.0
1336, 0.0
1337, 0.0
1338, 0.0
1339, 0.0
1340, 0.0
1341, 0.0
1342, 0.0
1343, 0.0
1344, 0.0
1345, 0.0
1346, 0.0
1347, 0.0
1348, 0.0
1349, 0.0
1350, 0.0
1351, 0.0
1352, 0.0
1353, 0.0
1354, 0.0
1355, 0.0
1356, 0.0
1357, 0.0
1358, 0.0
1359, 0.0
1360, 0.0
1361, 0.0
1362, 0.0
1363, 0.0
1364, 0.0
1365, 0.0
1366, 0.0
1367, 0.0
1368, 0.0
1369, 0.0
1370, 0.0
1371, 0.0
1372, 0.0
1373, 0.0
1374, 0.0
1375, 0.0
1376, 0.0
1377, 0.0
1378, 0.0
1379, 0.0
1380, 0.0
1381, 0.0
1382, 0.0
1383, 0.0
1384, 0.0
1385, 0.0
1386, 0.0
1387, 0.0
1388, 0.0
1389, 0.0
1390, 0.0
1391, 0.0
1392, 0.0
1393, 0.0
1394, 0.0
1395, 0.0
1396, 0.0
1397, 0.0
1398, 0.0
1399, 0.0
1400, 0.0
1401, 0.0
1402, 0.0
1403, 0.0
1404, 0.0
1405, 0.0
1406, 0.0
1407, 0.0
1408, 0.0
1409, 0.0
1410, 0.0
1411, 0.0
1412, 0.0
1413, 0.0
1414, 0.0
1415, 0.0
1416, 0.0
1417, 0.0
1418, 0.0
1419, 0.0
1420, 0.0
1421, 0.0
1422, 0.0
1423, 0.0
1424, 0.0
1425, 0.0
1426, 0.0
1427, 0.0
1428, 0.0
1429, 0.0
1430, 0.0
1431, 0.0
1432, 0.0
1433, 0.0
1434, 0.0
1435, 0.0
1436, 0.0
1437, 0.0
1438, 0.0
1439, 0.0
1440, 0.0
1441, 0.0
1442, 0.0
1443, 0.0
1444, 0.0
1445, 0.0
1446, 0.0
1447, 0.0
1448, 0.0
1449, 0.0
1450, 0.0
1451, 0.0
1452, 0.0
1453, 0.0
1454, 0.0
1455, 0.0
1456, 0.0
1457, 0.0
1458, 0.0
1459, 0.0
1460, 0.0
1461, 0.0
1462, 0.0
1463, 0.0
1464, 0.0
1465, 0.0
1466, 0.0
1467, 0.0
1468, 0.0
1469, 0.0
1470, 0.0
1471, 0.0
1472, 0.0
1473, 0.0
1474, 0.0
1475, 0.0
1476, 0.0
1477, 0.0
1478, 0.0
1479, 0.0
1480, 0.0
1481, 0.0
1482, 0.0
1483, 0.0
1484, 0.0
1485, 0.0
1486, 0.0
1487, 0.0
1488, 0.0
1489, 0.0
1490, 0.0
1491, 0.0
1492, 0.0
1493, 0.0
1494, 0.0
1495, 0.0
1496, 0.0
1497, 0.0
1498, 0.0
1499, 0.0
1500, 0.0
1501, 0.0
1502, 0.0
1503, 0.0
1504, 0.0
1505, 0.0
1506, 0.0
1507, 0.0
1508, 0.0
1509, 0.0
1510, 0.0
1511, 0.0
1512, 0.0
1513, 0.0
1514, 0.0
1515, 0.0
1516, 0.0
1517, 0.0
1518, 0.0
1519, 0.0
1520, 0.0
1521, 0.0
1522, 0.0
1523, 0.0
1524, 0.0
1525, 0.0
1526, 0.0
1527, 0.0
1528, 0.0
1529, 0.0
1530, 0.0
1531, 0.0
1532, 0.0
1533, 0.0
1534, 0.0
1535, 0.0
1536, 0.0
1537, 0.0
1538, 0.0
1539, 0.0
1540, 0.0
1541, 0.0
1542, 0.0
1543, 0.0
1544, 0.0
1545, 0.0
1546, 0.0
1547, 0.0
1548, 0.0
1549, 0.0
1550, 0.0
1551, 0.0
1552, 0.0
1553, 0.0
1554, 0.0
1555, 0.0
1556, 0.0
1557, 0.0
1558, 0.0
1559, 0.0
1560, 0.0
1561, 0.0
1562, 0.0
1563, 0.0
1564, 0.0
1565, 0.0
1566, 0.0
1567, 0.0
1568, 0.0
1569, 0.0
1570, 0.0
1571, 0.0
1572, 0.0
1573, 0.0
1574, 0.0
1575, 0.0
1576, 0.0
1577, 0.0
1578, 0.0
1579, 0.0
1580, 0.0
1581, 0.0
1582, 0.0
1583, 0.0
1584, 0.0
1585, 0.0
1586, 0.0
1587, 0.0
1588, 0.0
1589, 0.0
1590, 0.0
1591, 0.0
1592, 0.0
1593, 0.0
1594, 0.0
1595, 0.0
1596, 0.0
1597, 0.0
1598, 0.0
1599, 0.0
