30, 0.0
31, 0.0
32, 0.0
33, 0.0
34, 0.0
35, 0.0
36, 0.0
37, 0.0
38, 0.0
39, 0.0
40, 0.0
41, 0.0
42, 0.0
43, 0.0
44, 0.0
45, 0.0
46, 0.0
47, 0.0
48, 0.0
49, 0.0
50, 0.0
51, 0.0
52, 0.0
53, 0.0
54, 0.0
55, 0.0
56, 0.0
57, 0.0
58, 0.0
59, 0.0
60, 0.0
61, 0.0
62, 0.0
63, 0.0
64, 0.0
65, 0.0
66, 0.0
67, 0.0
68, 0.0
69, 0.0
70, 0.0
71, 0.0
72, 0.0
73, 0.0
74, 0.0
75, 0.0
76, 0.0
77, 0.0
78, 0.0
79, 0.0
80, 0.0
81, 0.0
82, 0.0
83, 0.0
84, 0.0
85, 0.0
86, 0.0
87, 0.0
88, 0.0
89, 0.0
90, 0.0
91.0, 0.006157392781644614
92.0, 0.014007161020966117
93.0, 0.007437273889115801
94.0, 0.005396281782097546
95.0, 0.003900137419792599
96.0, 0.002332398128739893
97.0, 0.0025758784563210094
98.0, 0.0012145001681463131
99.0, 0.0013926275004404675
100.0, 0.005009390260659892
101.0, 0.010310730930434504
102.0, 0.01451840675249153
103.0, 0.02013298695114004
104.0, 0.025125307452071095
105.0, 0.026388452958857406
106.0, 0.017890975265565566
107.0, 0.010147963837999163
108.0, 0.003986871976884324
109.0, 0.0006751791534540726
110.0, 0.0017148621778609757
111.0, 0.00041579242504561313
112.0, 0.0009696414723346293
113.0, 0.0011484980963120872
114.0, 0.0015670257218735005
115.0, 0.0018866605231134066
116.0, 0.0028029091499525657
117.0, 0.0036200673889926482
118.0, 0.0030410015501101655
119.0, 0.0036497117282939927
120.0, 0.005771207579808623
121.0, 0.007946161883755685
122.0, 0.008220266189636845
123.0, 0.014277268286730265
124.0, 0.01968388512777489
125.0, 0.02005529240793084
126.0, 0.014289849423506612
127.0, 0.006011455796514367
128.0, 0.0007654206441093453
129.0, 0.001491660621220827
130.0, 0.0021880679274995127
131.0, 0.0015039028031677267
132.0, 0.0013047555647505678
133.0, 0.001180674134032375
134.0, 0.000636488099782638
135.0, 0.0007034727548575391
136.0, 0.0023080833231812195
137.0, 0.005048886149970273
138.0, 0.00865738717329164
139.0, 0.012041015614119483
140.0, 0.015370934979485293
141.0, 0.016729827913704753
142.0, 0.017334342287894332
143.0, 0.018275791503813543
144.0, 0.016991178452569453
145.0, 0.01847284268048694
146.0, 0.0202244350439285
147.0, 0.02080536624368596
148.0, 0.02320654878985084
149.0, 0.02745520684932473
150.0, 0.031123073232955493
151.0, 0.03406697981007461
152.0, 0.0379348984240501
153.0, 0.04389065307279949
154.0, 0.04812791753169305
155.0, 0.05178970021775653
156.0, 0.05781653560576192
157.0, 0.06366475697042509
158.0, 0.0714973283266727
159.0, 0.07932027862714394
160.0, 0.08585315599665966
161.0, 0.09270904631512868
162.0, 0.09681307375017201
163.0, 0.09869581339025585
164.0, 0.09821154687795262
165.0, 0.09496530505150479
166.0, 0.09494223373117669
167.0, 0.09705407323424728
168.0, 0.100610895730935
169.0, 0.10581548907626967
170.0, 0.11196933920912132
171.0, 0.11965016093969895
172.0, 0.12829720788970211
173.0, 0.13664493965872831
174.0, 0.14336705819562887
175.0, 0.15124433985051125
176.0, 0.15833548520738405
177.0, 0.16547963268257568
178.0, 0.1755989830533771
179.0, 0.18741610284366617
180.0, 0.1995113982233317
181.0, 0.20971214655048553
182.0, 0.2175011158930227
183.0, 0.22740981672172936
184.0, 0.23427183073011792
185.0, 0.2390779993150833
186.0, 0.24330321226302598
187.0, 0.2471142786583549
188.0, 0.24808632300842204
189.0, 0.24635436645379954
190.0, 0.23990167858061043
191.0, 0.22459032451523167
192.0, 0.19991332866731878
193.0, 0.1715330414929613
194.0, 0.14368295377796714
195.0, 0.11866934418404741
196.0, 0.09756118308936088
197.0, 0.08340552897118367
198.0, 0.07349751945264034
199.0, 0.06513220048391272
200.0, 0.0581833089858631
201.0, 0.05467515269517386
202.0, 0.05247394821953251
203.0, 0.05066917642334418
204.0, 0.04931284645098883
205.0, 0.04822422747120627
206.0, 0.046039832388456346
207.0, 0.04383119938091192
208.0, 0.041386105264806156
209.0, 0.03681361493674337
210.0, 0.03359746764081989
211.0, 0.029701477729008535
212.0, 0.025450254097780914
213.0, 0.022569236538517213
214.0, 0.020401145819054556
215.0, 0.01618801977855939
216.0, 0.012435462291095028
217.0, 0.010512530424560849
218.0, 0.009298552041494901
219.0, 0.008468073801952964
220.0, 0.008623470155830256
221.0, 0.009160940635906003
222.0, 0.009296489588416395
223.0, 0.009467527978031994
224.0, 0.010616351134764323
225.0, 0.010855764572092775
226.0, 0.00985471220094254
227.0, 0.010926178628077557
228.0, 0.010531688590688216
229.0, 0.010562751434550212
230.0, 0.011167397370389647
231.0, 0.011242334106347016
232.0, 0.012684548139927088
233.0, 0.014091102535181263
234.0, 0.015153956510479114
235.0, 0.016025209229019795
236.0, 0.01657648236040723
237.0, 0.01590668439555021
238.0, 0.016198225225895792
239.0, 0.017132846600203006
240.0, 0.017199811949053685
241.0, 0.016600043630545902
242.0, 0.01636934427097702
243.0, 0.015915544852864717
244.0, 0.014807787993814884
245.0, 0.013338327087584208
246.0, 0.012436757742420444
247.0, 0.011104960130546333
248.0, 0.008497501240221157
249.0, 0.004977882543053354
250.0, 0.002846371032662914
251.0, 0.0026471446332999747
252.0, 0.00213285875157188
253.0, 0.0004228015288670464
254.0, 0.0012584195109080353
255.0, 0.0021865884172604165
256.0, 0.0027416426186786633
257.0, 0.0031537135314464245
258.0, 0.0035821912300819264
259.0, 0.00417853014325376
260.0, 0.00380062577932203
261.0, 0.003156702230990305
262.0, 0.0026347685183060647
263.0, 0.002111260042492835
264.0, 0.0014280443092867525
265.0, 0.0013321222910206284
266.0, 0.0017528814060233655
267.0, 0.0024260040307022028
268.0, 0.0039283641418912905
269.0, 0.004656915697356242
270.0, 0.0041831684607527755
271.0, 0.004379121349959659
272.0, 0.006850024682136528
273.0, 0.007539288832121022
274.0, 0.009001731483307381
275.0, 0.010599436325517166
276.0, 0.01214893464903914
277.0, 0.014374911864666974
278.0, 0.016323726217504008
279.0, 0.01859002944438124
280.0, 0.021708057699130003
281.0, 0.025681378504388657
282.0, 0.029971357530911374
283.0, 0.03254058156631583
284.0, 0.03308548896429573
285.0, 0.03338857623914429
286.0, 0.03379773476341708
287.0, 0.031913867925047766
288.0, 0.029312366135274392
289.0, 0.02848460237751342
290.0, 0.029118836517688883
291.0, 0.029684858143414032
292.0, 0.029867084781370415
293.0, 0.031609018115781186
294.0, 0.03431825134582922
295.0, 0.03786308451853503
296.0, 0.04377056829405302
297.0, 0.04773404581236795
298.0, 0.05275451472062206
299.0, 0.05880294397325812
300.0, 0.06485453334226375
301.0, 0.07058624973311182
302.0, 0.07481742010633151
303.0, 0.07525866986767886
304.0, 0.071475914823888
305.0, 0.06531978768220631
306.0, 0.05869696637482313
307.0, 0.052308445067413036
308.0, 0.04611874061819907
309.0, 0.04002774636214437
310.0, 0.035483386080731226
311.0, 0.0343170380651434
312.0, 0.0324321208501901
313.0, 0.03153577549869753
314.0, 0.03372519518297304
315.0, 0.038393673789129494
316.0, 0.038355187741719345
317.0, 0.040590704699758194
318.0, 0.045796550765798735
319.0, 0.052268275243081114
320.0, 0.058845846358196945
321.0, 0.06562901033792513
322.0, 0.07366845157428974
323.0, 0.08190334227196842
324.0, 0.08925556956163357
325.0, 0.09639266084648199
326.0, 0.10595543781997739
327.0, 0.11444503102802571
328.0, 0.12285175118889427
329.0, 0.13419784881213634
330.0, 0.1462957409922016
331.0, 0.15913475692114262
332.0, 0.17287448496319674
333.0, 0.18786268109486462
334.0, 0.20360658261653963
335.0, 0.2182657333803136
336.0, 0.23247009460185628
337.0, 0.24171994263765195
338.0, 0.2450510895961045
339.0, 0.24243359911299245
340.0, 0.2305725091975366
341.0, 0.21080418231688638
342.0, 0.19181376155269494
343.0, 0.17437864394651104
344.0, 0.15528073213492624
345.0, 0.1420267127899481
346.0, 0.13249307315167402
347.0, 0.12583326886860846
348.0, 0.12133599070304968
349.0, 0.11792800034991356
350.0, 0.11774876074666511
351.0, 0.11777000340344035
352.0, 0.11871607960109631
353.0, 0.12058884365537746
354.0, 0.12064070284100963
355.0, 0.12113327061227616
356.0, 0.12062428794852309
357.0, 0.11722135890616892
358.0, 0.11116298577591674
359.0, 0.10459644675507544
360.0, 0.09534243314277348
361.0, 0.0858449763293044
362.0, 0.07645365081114922
363.0, 0.06680207652874283
364.0, 0.05720513617538136
365.0, 0.04814989547185347
366.0, 0.039177090992628956
367.0, 0.031500856009635064
368.0, 0.02560690855958674
369.0, 0.020740049433336197
370.0, 0.016403818694169608
371.0, 0.012046538452963457
372.0, 0.008827040158159192
373.0, 0.006927947503519152
374.0, 0.004939368794107486
375.0, 0.0026632877451689624
376.0, 0.0012132123631123435
377.0, 0.0003571439630479335
378.0, 0.0007078404176593474
379.0, 0.002635753161058493
380.0, 0.0024147438906650435
381.0, 0.003701094978342485
382.0, 0.00476211843805341
383.0, 0.003931946396225433
384.0, 0.0028672150711496224
385.0, 0.0021359409832972655
386.0, 0.0009444098286529624
387.0, 0.0005727020198662137
388.0, 0.0002623837116533925
389.0, 0.0035218721469568374
390.0, 0.003998836153312425
391.0, 0.005441914245806778
392.0, 0.007073998035981133
393.0, 0.008281091008760252
394.0, 0.010242252162677955
395.0, 0.013303998399023517
396.0, 0.01591877157509124
397.0, 0.018758426387097526
398.0, 0.022692525737431503
399.0, 0.02738629695006115
400.0, 0.03172300313547954
401.0, 0.035492990184393634
402.0, 0.04046779662823294
403.0, 0.04591426996186432
404.0, 0.05002867659295675
405.0, 0.05285715501362632
406.0, 0.054695850687045036
407.0, 0.05545416641835365
408.0, 0.05639987376149586
409.0, 0.0576473158963955
410.0, 0.05680466089695269
411.0, 0.059547702309646615
412.0, 0.06390334963929334
413.0, 0.06806851327603448
414.0, 0.07189791815384734
415.0, 0.07641738684072731
416.0, 0.08017732381642692
417.0, 0.08465410610168568
418.0, 0.08815352532059516
419.0, 0.08963446248773077
420.0, 0.09083870809313002
421.0, 0.09036372553695532
422.0, 0.08725852827740611
423.0, 0.08361415088964684
424.0, 0.07956619084124478
425.0, 0.07323739111167697
426.0, 0.06764246316575401
427.0, 0.06204728660531682
428.0, 0.0552712155661204
429.0, 0.0489775872602684
430.0, 0.04517704746548973
431.0, 0.039499748558663506
432.0, 0.03563462752300845
433.0, 0.03179247793316638
434.0, 0.02878313414525459
435.0, 0.028186272092520337
436.0, 0.02710117613955106
437.0, 0.025844275535643252
438.0, 0.024700979917259353
439.0, 0.02415763042926393
440.0, 0.02392831562513564
441.0, 0.02366938006075539
442.0, 0.025761604552296234
443.0, 0.028588259709701802
444.0, 0.030439576088168507
445.0, 0.03204804964145716
446.0, 0.03491728075312165
447.0, 0.03819853317438672
448.0, 0.04134583101741716
449.0, 0.04453005927737301
450.0, 0.046314655385051376
451.0, 0.04592521988470594
452.0, 0.04540697163859459
453.0, 0.04219168354682538
454.0, 0.038434083699622194
455.0, 0.035162584465846074
456.0, 0.031107895976834346
457.0, 0.025309776464959268
458.0, 0.024252766104104043
459.0, 0.022712586599822664
460.0, 0.021173898723830204
461.0, 0.02101584811549655
462.0, 0.021678170417041755
463.0, 0.02016321867837337
464.0, 0.02079522331583368
465.0, 0.021723425055760276
466.0, 0.022605767439583497
467.0, 0.023708949053610973
468.0, 0.024592410691428094
469.0, 0.026041371333625468
470.0, 0.027400481770143217
471.0, 0.027949542171985135
472.0, 0.02765441060154757
473.0, 0.027380194312246406
474.0, 0.02822599146680041
475.0, 0.025691602705741032
476.0, 0.02309650355059796
477.0, 0.02175125707644456
478.0, 0.020231975625691408
479.0, 0.017759000501651388
480.0, 0.015688042996731533
481.0, 0.014392797911905595
482.0, 0.013038750020932044
483.0, 0.01126140853144969
484.0, 0.009502334216513971
485.0, 0.008203385466365766
486.0, 0.007699042994481361
487.0, 0.007465884436333799
488.0, 0.006741759360696824
489.0, 0.005097613708445637
490.0, 0.0034939227621694066
491.0, 0.003035284972599167
492.0, 0.002935452378957971
493.0, 0.0019697149996278024
494.0, 0.0008787997303452893
495.0, 0.0009275268698738738
496.0, 0.00018141989551979305
497.0, 5.792143926232732e-05
498.0, 0.0003003399927746361
499.0, 0.0006270904590092836
500.0, 0.0005626314179535846
501.0, 0.0009512101401586916
502.0, 0.0008910535615243628
503.0, 0.0013534171397625667
504.0, 0.0011705995150667798
505.0, 0.00030695437963419004
506.0, 0.0004256304268832504
507.0, 0.0007484575824372147
508.0, 0.00032083306095225645
509.0, 4.966870407213811e-05
510.0, 1.7095278595387006e-05
511.0, 0.00019456415634932958
512.0, 0.0001951232610874939
513.0, 0.00033892906170582705
514.0, 0.00028718286015442585
515.0, 0.0004370279350943472
516.0, 0.0007111009304056321
517.0, 0.0007527577255550205
518.0, 0.00041002480650650014
519.0, 0.0007149699781085534
520.0, 0.0002114277784874756
521.0, 0.0004039147590783139
522.0, 0.000509489882218903
523.0, 0.00015857040032679674
524.0, 0.0003487238729331398
525.0, 0.0013219935648962026
526.0, 0.001295778636133114
527.0, 0.001128965810889377
528.0, 0.0013332479656484478
529.0, 0.0014829430045050086
530.0, 0.0016815868536271914
531.0, 0.002587611508165642
532.0, 0.0024639937434266846
533.0, 0.002047666796638021
534.0, 0.001965492314528934
535.0, 0.0011746151075218189
536.0, 0.0007429964186045124
537.0, 0.0021989716016285097
538.0, 0.002672699713559856
539.0, 0.0025337189315812487
540.0, 0.002709337850899696
541.0, 0.0019382271238837546
542.0, 0.0022920195679907098
543.0, 0.002475068952697668
544.0, 0.0027093364934450037
545.0, 0.002542786419122358
546.0, 0.001722785232185115
547.0, 0.0018340551894935736
548.0, 0.002982818225305284
549.0, 0.0037129551564152475
550.0, 0.00317916948716626
551.0, 0.0030268203450653196
552.0, 0.004510914873554912
553.0, 0.0038410308811664146
554.0, 0.004098350021975258
555.0, 0.004336446889228925
556.0, 0.004251932210501196
557.0, 0.004325456505639841
558.0, 0.004761078268588706
559.0, 0.004787759920572584
560.0, 0.004086739622229557
561.0, 0.0040654104206292755
562.0, 0.0034817547993746126
563.0, 0.0028712580707457793
564.0, 0.003898073916710124
565.0, 0.003408055600073054
566.0, 0.001968438184852634
567.0, 0.002394992079639892
568.0, 0.0028722019538820467
569.0, 0.0027264786423154266
570.0, 0.0030340201713437154
571.0, 0.0021300946348719292
572.0, 0.003061407629470888
573.0, 0.0029710170255078535
574.0, 0.0021048470985874173
575.0, 0.0019180077547133589
576.0, 0.0027685358032361797
577.0, 0.00265268913116755
578.0, 0.0011305181474162457
579.0, 0.0011457196277609872
580.0, 0.0016368148106310318
581.0, 0.0016664509608573489
582.0, 0.0017806978551120959
583.0, 0.0005672333876154755
584.0, 0.0015542399219838085
585.0, 0.0013369348118078908
586.0, 0.0006697485150391349
587.0, 0.0008112176596057625
588.0, 0.0012937512885815693
589.0, 0.0012884680001813643
590.0, 0.0010584713091525881
591.0, 0.0004093797779830161
592.0, 0.00068517753165442
593.0, 0.0013857789856470228
594.0, 0.0009568555381818339
595.0, 0.0006715138764382935
596.0, 0.0006868301204372776
597.0, 0.0011318365407162417
598.0, 0.0009719364722059836
599.0, 0.00040039043509325557
600.0, 0.00027821773591424034
601.0, 0.00043494326060403404
602.0, 0.0003587819848780428
603.0, 9.011860998996298e-05
604.0, 0.0007428986477637408
605.0, 0.0012809795732153073
606.0, 0.000902354494265948
607.0, 0.0006950333611711782
608.0, 0.000434301208315336
609.0, 0.0003749305244751788
610.0, 0.00013868962992998822
611.0, 0.0002578915359025911
612.0, 0.0008614165491855909
613.0, 0.0005579548242974778
614.0, 0.00030921236655451033
615.0, 0.0005869503195419545
616.0, 0.0007063794273278846
617.0, 0.00019406204027430708
618.0, 0.0005361674722655913
619.0, 0.00036325738416405074
620.0, 0.0002884547561680234
621.0, 0.00044629640001561655
622.0, 0.0005890147427525149
623.0, 0.0011772046211198854
624.0, 0.001619599291001295
625.0, 0.0010642330946478923
626.0, 0.00018885936622827531
627.0, 0.00013893068443543934
628.0, 0.0007713378065125433
629.0, 0.0014998940877629517
630.0, 0.001995396957768885
631.0, 0.0019480435348737403
632.0, 0.0014805597441647886
633.0, 0.002017213683949584
634.0, 0.0018146482321957117
635.0, 0.002371384866147341
636.0, 0.00307002546488181
637.0, 0.0028449643310721924
638.0, 0.002194605021759112
639.0, 0.002711345969335638
640.0, 0.0023705697982942795
641.0, 0.0029300920677762373
642.0, 0.0037907175191793873
643.0, 0.0043475003723138445
644.0, 0.004492269746903512
645.0, 0.0038569025957821477
646.0, 0.004932739620281879
647.0, 0.0047605532725619355
648.0, 0.00518544704488034
649.0, 0.005435238286375594
650.0, 0.005026590802737799
651.0, 0.005504481692178104
652.0, 0.0057812490156893765
653.0, 0.006505125118404069
654.0, 0.00593319525962797
655.0, 0.006097712860521796
656.0, 0.006536976275103951
657.0, 0.005939652042968332
658.0, 0.00674730225587167
659.0, 0.007581973346169796
660.0, 0.007025361722702027
661.0, 0.006313806110044605
662.0, 0.005319491096060986
663.0, 0.004518798270707129
664.0, 0.005526966587002489
665.0, 0.0056048088750891255
666.0, 0.004154418932666043
667.0, 0.0035773674816245416
668.0, 0.004243719518804212
669.0, 0.0040981396481183435
670.0, 0.0030526398776993154
671.0, 0.003449954960315787
672.0, 0.002907387733605914
673.0, 0.002680127579249639
674.0, 0.0026054058543229534
675.0, 0.0017328555678971136
676.0, 0.0004833938437936779
677.0, 0.0003024067471396816
678.0, 0.001010713035434256
679.0, 0.0010924120566572148
680.0, 0.0002976272455219729
681.0, 0.00020014712080623957
682.0, 0.00019345139785912932
683.0, 0.0007098049244263203
684.0, 0.0008965345459725838
685.0, 0.0013154106495829754
686.0, 0.0018985714898847072
687.0, 0.002063989761911306
688.0, 0.002713401826300227
689.0, 0.002778466013665482
690.0, 0.002635310824395466
691.0, 0.0042705369144280456
692.0, 0.005392811824476854
693.0, 0.005404232847860039
694.0, 0.005948037756261283
695.0, 0.007184768842342994
696.0, 0.007697149008729638
697.0, 0.007464205372415223
698.0, 0.008423458971391429
699.0, 0.010002814619389734
700.0, 0.010637285909735244
701.0, 0.010427468153261978
702.0, 0.01019800435969421
703.0, 0.011364213160040493
704.0, 0.012342974265712193
705.0, 0.010758297269885232
706.0, 0.012199716720060143
707.0, 0.01287042782642122
708.0, 0.013638164368984627
709.0, 0.014818719182239983
710.0, 0.015318115694979073
711.0, 0.014940573095923974
712.0, 0.01463637913888607
713.0, 0.014100785624439994
714.0, 0.014914295425540063
715.0, 0.01534983748516234
716.0, 0.014401316830452024
717.0, 0.014025162318761955
718.0, 0.014769030625327832
719.0, 0.013289275250635037
720.0, 0.012888681733558952
721.0, 0.01328848265269548
722.0, 0.012505940505335605
723.0, 0.01121260952021449
724.0, 0.01071964600211612
725.0, 0.010945504499783378
726.0, 0.010941611190616903
727.0, 0.009774602209848385
728.0, 0.008578483454024939
729.0, 0.007503241954005707
730.0, 0.006346970074909751
731.0, 0.0049821527341013154
732.0, 0.003884149568128357
733.0, 0.003600026001927676
734.0, 0.002923921436109065
735.0, 0.000563731770062174
736.0, 0.00029214809121033556
737.0, 0.0003692815185212718
738.0, 0.0009106228131208171
739.0, 0.0018644164022771775
740.0, 0.0022011946317059576
741.0, 0.0013362525169784063
742.0, 0.0027693511918539786
743.0, 0.0031750283144188433
744.0, 0.003885976868869342
745.0, 0.0036627535443101433
746.0, 0.0030628864388353096
747.0, 0.0037619288553955993
748.0, 0.004610491846507325
749.0, 0.004123188539382632
750.0, 0.003345570759419599
751.0, 0.003116406484427816
752.0, 0.0020293947955923024
753.0, 0.0014078714392425171
754.0, 0.0014420354826215303
755.0, 0.00011022791202904356
756.0, 0.001234229182493198
757.0, 0.0031856967372986666
758.0, 0.005172328939783489
759.0, 0.0056353184454275085
760.0, 0.00825157509747772
761.0, 0.012987755516560482
762.0, 0.015127553481003309
763.0, 0.018940031045149634
764.0, 0.02196394266991481
765.0, 0.025277930410637625
766.0, 0.028823943337410125
767.0, 0.03301324644859212
768.0, 0.03729246362679421
769.0, 0.04135072326635669
770.0, 0.04705309724245588
771.0, 0.05358348531645938
772.0, 0.05898393772312708
773.0, 0.06471240515742921
774.0, 0.07032416250035158
775.0, 0.07647791680431346
776.0, 0.0831087013611308
777.0, 0.0891935584505466
778.0, 0.0952059717726953
779.0, 0.10214073556593796
780.0, 0.10965218007822594
781.0, 0.11758271718665464
782.0, 0.12402866456362709
783.0, 0.13111384198050674
784.0, 0.1393125653785556
785.0, 0.14619049949902047
786.0, 0.15411739298045624
787.0, 0.16197593484853315
788.0, 0.17155899678712844
789.0, 0.17928898360613388
790.0, 0.18819494619053712
791.0, 0.19778583198891514
792.0, 0.20652219670066715
793.0, 0.21654774537164706
794.0, 0.22195699596314658
795.0, 0.2302814574271887
796.0, 0.23556705636188255
797.0, 0.2393032634885499
798.0, 0.24182533319083105
799.0, 0.24149798277626908
800.0, 0.23901086030012625
801.0, 0.23924269325653258
802.0, 0.240680171516278
803.0, 0.2454583399454045
804.0, 0.2548059680859689
805.0, 0.26619698573609396
806.0, 0.2798394200115433
807.0, 0.2999576120954851
808.0, 0.32773223434533205
809.0, 0.3547714543463727
810.0, 0.38699990087710806
811.0, 0.42612364798742564
812.0, 0.46727092205433707
813.0, 0.511116842522785
814.0, 0.5551539320425837
815.0, 0.6005867645140597
816.0, 0.6490120111984455
817.0, 0.696488448593479
818.0, 0.7479863594647624
819.0, 0.793621238950679
820.0, 0.8415132908251037
821.0, 0.8882504502511198
822.0, 0.9320600759021321
823.0, 0.969826239832063
824.0, 0.9942056738762644
825.0, 0.9994381406309971
826.0, 0.989426197422142
827.0, 0.9649843533891068
828.0, 0.9229697435575274
829.0, 0.8701653743357634
830.0, 0.811498373631497
831.0, 0.749932563254135
832.0, 0.6877709996058469
833.0, 0.6254208953789436
834.0, 0.5665200709545826
835.0, 0.5072773432971771
836.0, 0.45032597128600366
837.0, 0.40267147020661537
838.0, 0.35893099262339345
839.0, 0.32044592563771435
840.0, 0.28907216073405595
841.0, 0.2595248295953011
842.0, 0.2330567438997218
843.0, 0.20925065372807872
844.0, 0.18881804074705502
845.0, 0.1690660855240233
846.0, 0.15274417126081927
847.0, 0.1378337100208699
848.0, 0.12312897081958069
849.0, 0.1113928119885895
850.0, 0.1028217068868376
851.0, 0.09390516996688311
852.0, 0.08800961680433718
853.0, 0.08427256423779692
854.0, 0.07959764225242899
855.0, 0.0762589945891601
856.0, 0.07570911907948236
857.0, 0.07537475141205896
858.0, 0.07471820938883032
859.0, 0.07550006785568313
860.0, 0.07481081732859073
861.0, 0.07648786764363782
862.0, 0.07714911274992178
863.0, 0.07679199825279001
864.0, 0.07727670570636452
865.0, 0.07727211780067982
866.0, 0.07532077047339285
867.0, 0.07397612093415604
868.0, 0.07251498701886783
869.0, 0.06950787275186683
870.0, 0.06435139709215336
871.0, 0.05919093063851143
872.0, 0.05264474574953368
873.0, 0.04665647692143094
874.0, 0.04150210790324596
875.0, 0.035243527299221415
876.0, 0.03094300010627133
877.0, 0.026829118434750686
878.0, 0.022660805252568382
879.0, 0.019796811220443546
880.0, 0.017169236499239956
881.0, 0.01367201753289571
882.0, 0.011610312500899002
883.0, 0.010624976731669795
884.0, 0.00840074705447314
885.0, 0.008186227552649715
886.0, 0.006901612076306112
887.0, 0.005336571036685731
888.0, 0.00422145628815752
889.0, 0.003415461945259598
890.0, 0.0019099262967280962
891.0, 0.0006438161585764678
892.0, 0.00016829734050711247
893.0, 0.0005957195511434861
894.0, 0.0002476158970914583
895.0, 0.0009427168696718661
896.0, 0.0016583423787617227
897.0, 0.0014025590602315687
898.0, 0.002379494497647177
899.0, 0.0029930759898381476
900.0, 0.0031287883034030128
901.0, 0.00338897613900938
902.0, 0.002878995155227739
903.0, 0.0026942774398755866
904.0, 0.0023297224373453845
905.0, 0.002387233417795927
906.0, 0.0016989805844925274
907.0, 0.002253371887565754
908.0, 0.0019615085772573867
909.0, 0.0017735285439365472
910.0, 0.0020336113101455636
911.0, 0.0013250265229484243
912.0, 0.0006344301204916828
913.0, 0.000728454881929466
914.0, 0.000708593685195695
915.0, 0.0009716661522665967
916.0, 0.0007059936611675441
917.0, 0.00043583353868575556
918.0, 0.0001555750290961217
919.0, 0.0007404610005357685
920.0, 0.0019005682898157177
921.0, 0.0016581028136317285
922.0, 0.0008765065490035565
923.0, 0.002750894138739562
924.0, 0.001406832785052004
925.0, 0.0028703676571900216
926.0, 0.0031324407690726573
927.0, 0.0031335132044032214
928.0, 0.003245355013134274
929.0, 0.003788317788588355
930.0, 0.00490000352855903
931.0, 0.004492312344247239
932.0, 0.004168909388591508
933.0, 0.004689062181789185
934.0, 0.005724102870950035
935.0, 0.005686981991511751
936.0, 0.005467934449670857
937.0, 0.00505805102894995
938.0, 0.005037357853344336
939.0, 0.00530717883696916
940.0, 0.005623615334623033
941.0, 0.007395115180357879
942.0, 0.006714534844040598
943.0, 0.006937521759902993
944.0, 0.007307465455903192
945.0, 0.008299101533249273
946.0, 0.008308976147748103
947.0, 0.008618016539466552
948.0, 0.00785965187290169
949.0, 0.007376670314924503
950.0, 0.009101076361339389
951.0, 0.008983807851715493
952.0, 0.009132173628287228
953.0, 0.009726287771041085
954.0, 0.008529302701980069
955.0, 0.009509537024042424
956.0, 0.01037006443616605
957.0, 0.0095739560556919
958.0, 0.00914014719727604
959.0, 0.009344347133767202
960.0, 0.00877216812607608
961.0, 0.00869357225624661
962.0, 0.008179129369930994
963.0, 0.008424006198499012
964.0, 0.008195038869524766
965.0, 0.007185413494165919
966.0, 0.008508992290836069
967.0, 0.008318952037528806
968.0, 0.007798115478695748
969.0, 0.008057643361878109
970.0, 0.007675471863229413
971.0, 0.007313555649135554
972.0, 0.006820043312327335
973.0, 0.00566493258434768
974.0, 0.006104162914352746
975.0, 0.00813697360075232
976.0, 0.0069230139049337265
977.0, 0.006587233035450741
978.0, 0.005871155617215466
979.0, 0.005066359336990597
980.0, 0.00561528358778632
981.0, 0.005537407991950618
982.0, 0.0047928538207199604
983.0, 0.004890064980804708
984.0, 0.0040340184867042024
985.0, 0.0030462528531983763
986.0, 0.004321066348210552
987.0, 0.00366576460564306
988.0, 0.0032297518244428663
989.0, 0.003510871526729962
990.0, 0.004083750641398906
991.0, 0.004315536686422245
992.0, 0.0028318059117641943
993.0, 0.0020782651771966637
994.0, 0.0031130385739072198
995.0, 0.0022643984579256743
996.0, 0.003160363070237356
997.0, 0.0039725797242394735
998.0, 0.0027659728735074077
999.0, 0.0031792334537396874
1000.0, 0.002801873905404901
1001.0, 0.0015845248193794442
1002.0, 0.0016892710491819753
1003.0, 0.0021231056111767166
1004.0, 0.002514817202962734
1005.0, 0.0032811528835118915
1006.0, 0.002692209375377238
1007.0, 0.0024243072338285777
1008.0, 0.002167571734474049
1009.0, 0.0019698504567076617
1010.0, 0.0015748110099391022
1011.0, 0.0014079656467539774
1012.0, 0.001840622888387767
1013.0, 0.002061328315799959
1014.0, 0.0020313658601824663
1015.0, 0.0022370780990554656
1016.0, 0.0011463418222378205
1017.0, 0.0017856360729105044
1018.0, 0.0014162888134882647
1019.0, 0.00034923252130063633
1020.0, 0.0007496336967504031
1021.0, 0.001997593919773134
1022.0, 0.0009805050157555056
1023.0, 0.0007028892542667593
1024.0, 0.001452895315006184
1025.0, 0.0011570439458380747
1026.0, 0.0012610052017389066
1027.0, 0.0012076027471989593
1028.0, 0.001262106510299024
1029.0, 0.001312827153323388
1030.0, 0.00019178220230300333
1031.0, 0.00038305838756796094
1032.0, 0.0015725751597099134
1033.0, 0.0004508627854318606
1034.0, 0.00032865260456102887
1035.0, 0.0006897351338857168
1036.0, 0.0003770425679451726
1037.0, 0.0006890520954134543
1038.0, 0.0015438879281024246
1039.0, 0.0007645828166892457
1040.0, 0.00145404075359073
1041.0, 0.0014103822279061637
1042.0, 0.0012342056535879053
1043.0, 0.0012570568577287258
1044.0, 0.00042518156034581506
1045.0, 0.000392102388264412
1046.0, 0.0008011096379437717
1047.0, 0.0001791391687702003
1048.0, 0.0009092149855497828
1049.0, 0.0017048568780595093
1050.0, 0.0008619225367007227
1051.0, 0.0016657556415826185
1052.0, 0.002261666873987456
1053.0, 0.00010606151284971499
1054.0, 0.0013107068394109514
1055.0, 0.00021414037434697996
1056.0, 0.0003831187680895944
1057.0, 0.00025503394169601944
1058.0, 0.000728559155081686
1059.0, 0.0004914987527317642
1060.0, 0.00043547750135766256
1061.0, 0.001351064803370623
1062.0, 0.0016026678921466319
1063.0, 0.0009975621516968682
1064.0, 0.0009501811793196683
1065.0, 0.001634587556886762
1066.0, 0.0015677564961317683
1067.0, 0.0006156451552503307
1068.0, 0.0013141733562701528
1069.0, 0.0015928634989928426
1070.0, 0.0010695830337520698
1071.0, 0.001081145121060578
1072.0, 0.0010460209045495175
1073.0, 0.0005421192181046003
1074.0, 0.00016639642150839175
1075.0, 0.0006005899831533323
1076.0, 0.0010158200184627432
1077.0, 0.0004205288939392903
1078.0, 0.0006393391700634659
1079.0, 0.001094598904002413
1080.0, 0.0009678950001352481
1081.0, 0.0005466335482684775
1082.0, 0.0008137856048641916
1083.0, 0.0006339404071401507
1084.0, 0.0006420408575466086
1085.0, 0.000713956140937354
1086.0, 0.0008642457439122405
1087.0, 0.0004406660144531731
1088.0, 0.0002429965825009405
1089.0, 0.0004520770138988882
1090.0, 0.00014826101095472498
1091.0, 0.0008751597588042676
1092.0, 0.0005360246430880513
1093.0, 0.0006598241530592977
1094.0, 3.7073549008048355e-05
1095.0, 0.000624163637889178
1096.0, 0.00048647141152412715
1097.0, 7.103897561611472e-05
1098.0, 0.00026721524277026907
1099.0, 0.00048105722328386954
1100.0, 0.0007723633868231391
1101.0, 0.001226115142140644
1102.0, 0.0007709182976239219
1103.0, 0.00020138111359007378
1104.0, 0.00025498428479998935
1105.0, 0.000258959690746767
1106.0, 0.0002738997447343575
1107.0, 0.0011792024456891302
1108.0, 0.0005860395141495923
1109.0, 0.0002677841534912522
1110.0, 0.00019125545354482557
1111.0, 0.0002556547705170619
1112.0, 0.00048180836499455294
1113.0, 0.0005420755977703517
1114.0, 0.00019045899908538843
1115.0, 0.0013002784495152323
1116.0, 0.0010966924069025724
1117.0, 0.00030335241734608977
1118.0, 0.0005949292527443423
1119.0, 0.0005088525257650413
1120.0, 0.0003033298838109491
1121.0, 0.0003444005436789082
1122.0, 0.0007461135356493379
1123.0, 0.0008459872994973751
1124.0, 8.386197901558579e-05
1125.0, 0.0005591315444344649
1126.0, 0.0004471860670999112
1127.0, 0.0001324126331135272
1128.0, 0.00010818936756362682
1129.0, 0.0011779106894193598
1130.0, 0.0014662828460613446
1131.0, 0.0007900727193180356
1132.0, 0.0009130687736692156
1133.0, 0.0007692969258144505
1134.0, 0.0007838944379182445
1135.0, 0.001341221051676958
1136.0, 0.0009408402644690331
1137.0, 0.000458304186785458
1138.0, 0.0007571791690047942
1139.0, 0.0006014181291232339
1140.0, 0.0003139121243516773
1141.0, 0.0012647428045274953
1142.0, 0.0003404410073946224
1143.0, 0.0006438983660353038
1144.0, 0.001101351886384795
1145.0, 0.0008875553856506777
1146.0, 0.0012183992412400637
1147.0, 0.0012777452162285774
1148.0, 0.0008921142248394349
1149.0, 0.0008230176721020642
1150.0, 0.0006872987519220661
1151.0, 0.0006222033471011202
1152.0, 0.00022925646095930691
1153.0, 0.0011506214178399368
1154.0, 0.001184759446514169
1155.0, 0.0014635355269280008
1156.0, 0.0022404477647595196
1157.0, 0.00020406822523998374
1158.0, 5.812290677969809e-05
1159.0, 0.0008221194293516266
1160.0, 0.001254262503336817
1161.0, 0.0011782844596307733
1162.0, 0.00048017284280039583
1163.0, 0.0007381852991116866
1164.0, 0.0013991036114877583
1165.0, 0.001609612084160095
1166.0, 0.0013516419151470256
1167.0, 0.0014398213858858118
1168.0, 0.001451534662995221
1169.0, 0.001502336167718838
1170.0, 0.0014805037807369573
1171.0, 0.0012890646479072575
1172.0, 0.0005219118555280065
1173.0, 0.0012087374920811478
1174.0, 0.0015889348813010427
1175.0, 0.0011192843185615982
1176.0, 0.0011399426707240918
1177.0, 0.0008749106274542647
1178.0, 0.001145905800554591
1179.0, 0.001974819755961882
1180.0, 0.0018225599925053254
1181.0, 0.0012807740216260496
1182.0, 0.0009796252603840574
1183.0, 0.0007911677486662388
1184.0, 0.0010136873269194625
1185.0, 0.0012077624350999236
1186.0, 0.0009106110291510264
1187.0, 0.000805765753470613
1188.0, 0.0009555960549883822
1189.0, 0.00025015074472903444
1190.0, 0.001306372946118012
1191.0, 0.0011332669247060276
1192.0, 0.0010440591474219381
1193.0, 0.0020887768519104854
1194.0, 0.0015292665677242947
1195.0, 0.0008454524671778515
1196.0, 0.0003191429626453809
1197.0, 0.0005051811180414904
1198.0, 0.0012677220013435195
1199.0, 0.0012322850258469518
1200.0, 0.0013482055758693098
1201.0, 0.0010048535956545491
1202.0, 0.0004404975474608553
1203.0, 0.0009333011385112846
1204.0, 0.001170870215617321
1205.0, 0.0010006591732080372
1206.0, 0.0015601995623820677
1207.0, 0.0014956365982573743
1208.0, 0.001496207849903129
1209.0, 0.0009003513454100612
1210.0, 0.0007898612139941158
1211.0, 0.0009112843612919393
1212.0, 0.00020646689666208506
1213.0, 0.0017627546964156888
1214.0, 0.001191696135626233
1215.0, 0.0010285800215377042
1216.0, 0.001739760251027502
1217.0, 0.0011142050621380968
1218.0, 0.001046049574904241
1219.0, 0.0008346777048804238
1220.0, 0.0008706840304862477
1221.0, 0.0011349968668819686
1222.0, 0.0009831491729831116
1223.0, 0.0012371765934225097
1224.0, 0.0010955873985141733
1225.0, 0.0006294478002346497
1226.0, 0.001478149665387974
1227.0, 0.001500646251907558
1228.0, 0.0005321311652695538
1229.0, 0.0016173591977055352
1230.0, 0.0005619867270865072
1231.0, 0.0007965637030658528
1232.0, 0.0012370125332902676
1233.0, 0.0008365607945904226
1234.0, 0.0014880098696204499
1235.0, 0.0011145271798201953
1236.0, 0.000908142740579882
1237.0, 0.0007674341884268406
1238.0, 0.0015342704657958582
1239.0, 0.0018496387515704285
1240.0, 0.0010952662440160323
1241.0, 0.0007396592617922414
1242.0, 0.0006713709705717763
1243.0, 0.0002803120880763809
1244.0, 0.0004900684678890889
1245.0, 0.0010285744436971409
1246.0, 0.0012915395180166853
1247.0, 0.0013823635599476956
1248.0, 0.001297188541449848
1249.0, 0.0010705090833710098
1250.0, 0.0008426189894876058
1251.0, 0.0011131953932651047
1252.0, 0.001630052520231127
1253.0, 0.0011535418695914916
1254.0, 0.00044086480147875805
1255.0, 0.0005546803647746996
1256.0, 0.0008896024335548397
1257.0, 0.0011998292101272532
1258.0, 0.0005719922074064185
1259.0, 0.00036545733244540033
1260.0, 0.00028783276324833977
1261.0, 0.0006133251120388747
1262.0, 0.0010987042992508449
1263.0, 0.0007449261979153605
1264.0, 8.961060396837076e-05
1265.0, 0.00020294656702482685
1266.0, 0.0004193021556281178
1267.0, 0.0004381272108940058
1268.0, 0.001351475004670296
1269.0, 0.0015632608663712377
1270.0, 0.0007183813798653508
1271.0, 0.00047972868044959767
1272.0, 0.0006515315010861714
1273.0, 0.0009362657268214851
1274.0, 0.0013174999135029816
1275.0, 0.0012272167042390073
1276.0, 0.0015400468731631778
1277.0, 0.0005610322210707782
1278.0, 0.0006187434509871524
1279.0, 0.00012012361498511424
1280.0, 0.00011202553981832098
1281.0, 0.00114691562233471
1282.0, 0.001393711809614554
1283.0, 0.0006895758583070061
1284.0, 0.0003718336751745213
1285, 0.0
1286, 0.0
1287, 0.0
1288, 0.0
1289, 0.0
1290, 0.0
1291, 0.0
1292, 0.0
1293, 0.0
1294, 0.0
1295, 0.0
1296, 0.0
1297, 0.0
1298, 0.0
1299, 0.0
1300, 0.0
1301, 0.0
1302, 0.0
1303, 0.0
1304, 0.0
1305, 0.0
1306, 0.0
1307, 0.0
1308, 0.0
1309, 0.0
1310, 0.0
1311, 0.0
1312, 0.0
1313, 0.0
1314, 0.0
1315, 0.0
1316, 0.0
1317, 0.0
1318, 0.0
1319, 0.0
1320, 0.0
1321, 0.0
1322, 0.0
1323, 0.0
1324, 0.0
1325, 0.0
1326, 0.0
1327, 0.0
1328, 0.0
1329, 0.0
1330, 0.0
1331, 0.0
1332, 0.0
1333, 0.0
1334, 0.0
1335, 0.0
1336, 0.0
1337, 0.0
1338, 0.0
1339, 0.0
1340, 0.0
1341, 0.0
1342, 0.0
1343, 0.0
1344, 0.0
1345, 0.0
1346, 0.0
1347, 0.0
1348, 0.0
1349, 0.0
1350, 0.0
1351, 0.0
1352, 0.0
1353, 0.0
1354, 0.0
1355, 0.0
1356, 0.0
1357, 0.0
1358, 0.0
1359, 0.0
1360, 0.0
1361, 0.0
1362, 0.0
1363, 0.0
1364, 0.0
1365, 0.0
1366, 0.0
1367, 0.0
1368, 0.0
1369, 0.0
1370, 0.0
1371, 0.0
1372, 0.0
1373, 0.0
1374, 0.0
1375, 0.0
1376, 0.0
1377, 0.0
1378, 0.0
1379, 0.0
1380, 0.0
1381, 0.0
1382, 0.0
1383, 0.0
1384, 0.0
1385, 0.0
1386, 0.0
1387, 0.0
1388, 0.0
1389, 0.0
1390, 0.0
1391, 0.0
1392, 0.0
1393, 0.0
1394, 0.0
1395, 0.0
1396, 0.0
1397, 0.0
1398, 0.0
1399, 0.0
1400, 0.0
1401, 0.0
1402, 0.0
1403, 0.0
1404, 0.0
1405, 0.0
1406, 0.0
1407, 0.0
1408, 0.0
1409, 0.0
1410, 0.0
1411, 0.0
1412, 0.0
1413, 0.0
1414, 0.0
1415, 0.0
1416, 0.0
1417, 0.0
1418, 0.0
1419, 0.0
1420, 0.0
1421, 0.0
1422, 0.0
1423, 0.0
1424, 0.0
1425, 0.0
1426, 0.0
1427, 0.0
1428, 0.0
1429, 0.0
1430, 0.0
1431, 0.0
1432, 0.0
1433, 0.0
1434, 0.0
1435, 0.0
1436, 0.0
1437, 0.0
1438, 0.0
1439, 0.0
1440, 0.0
1441, 0.0
1442, 0.0
1443, 0.0
1444, 0.0
1445, 0.0
1446, 0.0
1447, 0.0
1448, 0.0
1449, 0.0
1450, 0.0
1451, 0.0
1452, 0.0
1453, 0.0
1454, 0.0
1455, 0.0
1456, 0.0
1457, 0.0
1458, 0.0
1459, 0.0
1460, 0.0
1461, 0.0
1462, 0.0
1463, 0.0
1464, 0.0
1465, 0.0
1466, 0.0
1467, 0.0
1468, 0.0
1469, 0.0
1470, 0.0
1471, 0.0
1472, 0.0
1473, 0.0
1474, 0.0
1475, 0.0
1476, 0.0
1477, 0.0
1478, 0.0
1479, 0.0
1480, 0.0
1481, 0.0
1482, 0.0
1483, 0.0
1484, 0.0
1485, 0.0
1486, 0.0
1487, 0.0
1488, 0.0
1489, 0.0
1490, 0.0
1491, 0.0
1492, 0.0
1493, 0.0
1494, 0.0
1495, 0.0
1496, 0.0
1497, 0.0
1498, 0.0
1499, 0.0
1500, 0.0
1501, 0.0
1502, 0.0
1503, 0.0
1504, 0.0
1505, 0.0
1506, 0.0
1507, 0.0
1508, 0.0
1509, 0.0
1510, 0.0
1511, 0.0
1512, 0.0
1513, 0.0
1514, 0.0
1515, 0.0
1516, 0.0
1517, 0.0
1518, 0.0
1519, 0.0
1520, 0.0
1521, 0.0
1522, 0.0
1523, 0.0
1524, 0.0
1525, 0.0
1526, 0.0
1527, 0.0
1528, 0.0
1529, 0.0
1530, 0.0
1531, 0.0
1532, 0.0
1533, 0.0
1534, 0.0
1535, 0.0
1536, 0.0
1537, 0.0
1538, 0.0
1539, 0.0
1540, 0.0
1541, 0.0
1542, 0.0
1543, 0.0
1544, 0.0
1545, 0.0
1546, 0.0
1547, 0.0
1548, 0.0
1549, 0.0
1550, 0.0
1551, 0.0
1552, 0.0
1553, 0.0
1554, 0.0
1555, 0.0
1556, 0.0
1557, 0.0
1558, 0.0
1559, 0.0
1560, 0.0
1561, 0.0
1562, 0.0
1563, 0.0
1564, 0.0
1565, 0.0
1566, 0.0
1567, 0.0
1568, 0.0
1569, 0.0
1570, 0.0
1571, 0.0
1572, 0.0
1573, 0.0
1574, 0.0
1575, 0.0
1576, 0.0
1577, 0.0
1578, 0.0
1579, 0.0
1580, 0.0
1581, 0.0
1582, 0.0
1583, 0.0
1584, 0.0
1585, 0.0
1586, 0.0
1587, 0.0
1588, 0.0
1589, 0.0
1590, 0.0
1591, 0.0
1592, 0.0
1593, 0.0
1594, 0.0
1595, 0.0
1596, 0.0
1597, 0.0
1598, 0.0
1599, 0.0
