30, 0.0
31, 0.0
32, 0.0
33, 0.0
34, 0.0
35, 0.0
36, 0.0
37, 0.0
38, 0.0
39, 0.0
40, 0.0
41, 0.0
42, 0.0
43, 0.0
44, 0.0
45, 0.0
46, 0.0
47, 0.0
48, 0.0
49, 0.0
50, 0.0
51, 0.0
52, 0.0
53, 0.0
54, 0.0
55, 0.0
56, 0.0
57, 0.0
58, 0.0
59, 0.0
60, 0.0
61, 0.0
62, 0.0
63, 0.0
64, 0.0
65, 0.0
66, 0.0
67, 0.0
68, 0.0
69, 0.0
70, 0.0
71, 0.0
72, 0.0
73, 0.0
74, 0.0
75, 0.0
76, 0.0
77, 0.0
78, 0.0
79, 0.0
80, 0.0
81, 0.0
82, 0.0
83, 0.0
84, 0.0
85, 0.0
86, 0.0
87, 0.0
88, 0.0
89, 0.0
90, 0.0
91, 0.0
92, 0.0
93, 0.0
94, 0.0
95, 0.0
96, 0.0
97, 0.0
98, 0.0
99, 0.0
100, 0.0
101, 0.0
102, 0.0
103, 0.0
104, 0.0
105, 0.0
106, 0.0
107, 0.0
108, 0.0
109, 0.0
110, 0.0
111, 0.0
112, 0.0
113, 0.0
114, 0.0
115, 0.0
116, 0.0
117, 0.0
118, 0.0
119, 0.0
120, 0.0
121, 0.0
122, 0.0
123, 0.0
124, 0.0
125, 0.0
126, 0.0
127, 0.0
128, 0.0
129, 0.0
130, 0.0
131, 0.0
132, 0.0
133, 0.0
134, 0.0
135, 0.0
136, 0.0
137, 0.0
138.0, 1.9137149707852513e-05
139.0, 0.00041671704625323143
140.0, 0.0011503006053687893
141.0, 0.0011069105509165886
142.0, 0.0009699788305679999
143.0, 0.0013572680186020483
144.0, 0.001805804809098056
145.0, 0.002837004661139856
146.0, 0.006394313126074335
147.0, 0.00780996113096767
148.0, 0.00905184428173821
149.0, 0.009667752290074653
150.0, 0.010081196488474702
151.0, 0.011326571320714143
152.0, 0.01288381576546991
153.0, 0.014347108947453911
154.0, 0.016034572285927973
155.0, 0.01685965997964065
156.0, 0.015736983719900826
157.0, 0.015179653629705537
158.0, 0.017663846786816043
159.0, 0.016321948164180155
160.0, 0.01448001541096083
161.0, 0.01517460412224286
162.0, 0.013838669263054718
163.0, 0.013543990346870812
164.0, 0.013940609070962706
165.0, 0.013414490446614547
166.0, 0.012453681315142441
167.0, 0.014675075365343477
168.0, 0.012559216611092402
169.0, 0.012238665175260482
170.0, 0.013056146747427668
171.0, 0.013522403306281077
172.0, 0.012085917844947943
173.0, 0.013000377035824713
174.0, 0.012572024313414575
175.0, 0.012733161405052753
176.0, 0.012925648075732639
177.0, 0.012467115589399091
178.0, 0.014045274175406458
179.0, 0.014101932167218095
180.0, 0.01277597891828907
181.0, 0.011358512642754628
182.0, 0.010306593751316189
183.0, 0.008136507354421393
184.0, 0.0062301396621960705
185.0, 0.006682745001878625
186.0, 0.006396251856679737
187.0, 0.005025293758342741
188.0, 0.004661644286098986
189.0, 0.004584062361186174
190.0, 0.004483323610226333
191.0, 0.0024477770544743763
192.0, 0.0006841580593206678
193.0, 0.001521419248314783
194.0, 0.000751742749433745
195.0, 0.0032838820774486596
196.0, 0.0038446371735697846
197.0, 0.0034149846439408067
198.0, 0.0032992927559310015
199.0, 0.0036817718023818857
200.0, 0.0018128462884682483
201.0, 0.0008494156170920064
202.0, 0.0008951339650725447
203.0, 0.0013966761468935224
204.0, 0.0014308124326076316
205.0, 0.0007256140393321966
206.0, 0.0013349071155768577
207.0, 0.002053123962235495
208.0, 0.002384577784814467
209.0, 0.002217579529512934
210.0, 0.0019308154067892449
211.0, 0.0027700350068493606
212.0, 0.0034833891950374076
213.0, 0.003523333383870218
214.0, 0.003189298618237695
215.0, 0.003567209377163201
216.0, 0.0027070803865539006
217.0, 0.003242356903547556
218.0, 0.0032058156487965025
219.0, 0.003354006604596872
220.0, 0.004662754683485307
221.0, 0.0032326277843288224
222.0, 0.003545491032267254
223.0, 0.004527690800657236
224.0, 0.0055784976810208
225.0, 0.006404082993664438
226.0, 0.0071235132040994974
227.0, 0.00738684256993599
228.0, 0.008043862836383569
229.0, 0.008028425938332178
230.0, 0.007465988417292503
231.0, 0.007109496983194984
232.0, 0.007037833032550073
233.0, 0.0073753359176869674
234.0, 0.008077476138887572
235.0, 0.008888346119433066
236.0, 0.009315780378968718
237.0, 0.00857112139023064
238.0, 0.008614771497393788
239.0, 0.008456472126131912
240.0, 0.008352964877598224
241.0, 0.008222203512745854
242.0, 0.008011425340490996
243.0, 0.009437939275857659
244.0, 0.009169949553227068
245.0, 0.0094924503466873
246.0, 0.009838704779275285
247.0, 0.00930885320762921
248.0, 0.00749018396585407
249.0, 0.010035210179238432
250.0, 0.0108695519125345
251.0, 0.010641004407022729
252.0, 0.010892377632258598
253.0, 0.012699904191500617
254.0, 0.011939644944897444
255.0, 0.013018695497174637
256.0, 0.01342505332831454
257.0, 0.013408840734993235
258.0, 0.013527128935703259
259.0, 0.013996924828574559
260.0, 0.01258348516889629
261.0, 0.013261219204738398
262.0, 0.013155214576478877
263.0, 0.012372350639708984
264.0, 0.012140419883714967
265.0, 0.011831213169872219
266.0, 0.011227270057877298
267.0, 0.01075917784308309
268.0, 0.010790293628158674
269.0, 0.011207840151665215
270.0, 0.01147432844061401
271.0, 0.012965546357747437
272.0, 0.012965118108362081
273.0, 0.013734291423005775
274.0, 0.014909381321561546
275.0, 0.01558539504776743
276.0, 0.015952832659869843
277.0, 0.015445889001085348
278.0, 0.014477840469300035
279.0, 0.015198697599262978
280.0, 0.01667777793966251
281.0, 0.016386730199725197
282.0, 0.01799044817428597
283.0, 0.018625902785899807
284.0, 0.018399733789678872
285.0, 0.016781091174306154
286.0, 0.01508195252053994
287.0, 0.017189962597075597
288.0, 0.015250138153121094
289.0, 0.014892173635422392
290.0, 0.012716559231599337
291.0, 0.010750302188089941
292.0, 0.01116813053848622
293.0, 0.008593346774110819
294.0, 0.009976515269614138
295.0, 0.009367759954735343
296.0, 0.0071279119602504935
297.0, 0.005527613504857605
298.0, 0.006969170326584841
299.0, 0.006619231147000869
300.0, 0.006034497099225794
301.0, 0.005155759727501935
302.0, 0.004592350498460572
303.0, 0.004600458263908084
304.0, 0.004670032454534067
305.0, 0.0038214067384878766
306.0, 0.0035859022259786635
307.0, 0.00281215731727826
308.0, 0.0020887837696938727
309.0, 0.001952212207459099
310.0, 0.0008935673074682124
311.0, 0.001788703728304721
312.0, 0.002102782720140924
313.0, 0.0022158347230914815
314.0, 0.0017220107104323132
315.0, 0.0002542976303287073
316.0, 0.0006448629789690618
317.0, 0.0004961480185832324
318.0, 0.0008106945625091809
319.0, 0.0008319165160345492
320.0, 0.0004953041198374642
321.0, 0.0007625896509676124
322.0, 0.003064427398768733
323.0, 0.0010519847036819692
324.0, 0.0003489078983714474
325.0, 0.000832317820992389
326.0, 0.0012294783710459867
327.0, 0.0008802638884779386
328.0, 0.0005084038269620404
329.0, 0.0007812498307611079
330.0, 0.0010586781499327695
331.0, 0.0010942871985648666
332.0, 0.0009527715545370458
333.0, 0.0010236213858746657
334.0, 0.00021011606849469417
335.0, 0.000515630565271745
336.0, 0.0004520026175298692
337.0, 7.595142238244859e-05
338.0, 0.00030678044349102297
339.0, 0.0016840664884101998
340.0, 0.0010709824819583244
341.0, 0.0005412695063922744
342.0, 0.0005319158230614029
343.0, 0.0013809755722317847
344.0, 0.0026995338325710412
345.0, 0.00033372847176904694
346.0, 0.001435901485040751
347.0, 0.0013537967146729697
348.0, 0.0009001818197384771
349.0, 0.0007607168610511746
350.0, 0.0007069356046429235
351.0, 0.000224001301126863
352.0, 0.0008251377144255579
353.0, 0.0013430691221499745
354.0, 0.0009853884829691185
355.0, 0.00018227939647282195
356.0, 0.00045110104004739474
357.0, 0.00018323217256706445
358.0, 0.0009235321786154426
359.0, 0.0012250780101594537
360.0, 0.0013957562567930952
361.0, 0.0016310234296477146
362.0, 0.0013912685927520386
363.0, 0.0013689652448466414
364.0, 0.0010202967091290421
365.0, 0.00045690415762940085
366.0, 0.0006233559443730033
367.0, 0.0013348674222298184
368.0, 0.0003807944659090473
369.0, 0.000814994580630508
370.0, 0.0007126834530616593
371.0, 0.0007346962751349673
372.0, 0.0005639272806804656
373.0, 0.0008371092420194032
374.0, 0.004181441510564696
375.0, 0.0007509162627273901
376.0, 0.0033056481305666777
377.0, 0.004241790654608047
378.0, 0.004096289216637014
379.0, 0.00446440540657288
380.0, 0.0027789860702380777
381.0, 0.0043458553204256635
382.0, 0.005617454816611816
383.0, 0.005936339049850636
384.0, 0.006034344026435991
385.0, 0.007019715881336094
386.0, 0.009478153965358333
387.0, 0.010897006055785493
388.0, 0.012199192459025475
389.0, 0.013273841573909104
390.0, 0.013945613188130325
391.0, 0.01496047104390339
392.0, 0.018682671763080003
393.0, 0.021350758842962097
394.0, 0.023147341353661765
395.0, 0.02462361083355766
396.0, 0.0263491187367386
397.0, 0.02865105946949206
398.0, 0.03139441440125956
399.0, 0.034370396623816725
400.0, 0.03921455679539464
401.0, 0.04097323461919465
402.0, 0.04154136877534528
403.0, 0.044156837689032856
404.0, 0.04944661589443145
405.0, 0.04979252280270898
406.0, 0.04843836147795563
407.0, 0.04768069030594334
408.0, 0.047799849474661316
409.0, 0.047519479952897146
410.0, 0.044675950846180576
411.0, 0.04229839722405067
412.0, 0.04159586603228073
413.0, 0.03991299337816212
414.0, 0.03821742465434707
415.0, 0.03680360769207167
416.0, 0.03428604436396559
417.0, 0.03421468605854002
418.0, 0.03320383266476289
419.0, 0.033310093578774624
420.0, 0.03322455914442222
421.0, 0.03273479933979536
422.0, 0.03330213304173542
423.0, 0.03423076804681164
424.0, 0.03509303382237455
425.0, 0.03481523761043304
426.0, 0.03477168113033005
427.0, 0.035940106367860734
428.0, 0.03789716784674402
429.0, 0.03729701537382445
430.0, 0.038209685626975534
431.0, 0.04091399981996634
432.0, 0.04127252030029803
433.0, 0.039455518283561364
434.0, 0.038999066011530525
435.0, 0.0431510309308904
436.0, 0.04026122219240804
437.0, 0.03936886728427997
438.0, 0.0401591782089488
439.0, 0.04053761618824321
440.0, 0.03961497037369635
441.0, 0.04057981069194522
442.0, 0.03937661475076241
443.0, 0.039769455271185146
444.0, 0.03883644974805348
445.0, 0.03843798340758839
446.0, 0.03956877522391276
447.0, 0.03933834346887951
448.0, 0.039866848051992754
449.0, 0.03919843746654429
450.0, 0.0392488914705366
451.0, 0.039370714836739026
452.0, 0.03924595257458691
453.0, 0.03931698958251953
454.0, 0.03794710734900612
455.0, 0.03871117554105721
456.0, 0.03821038960743216
457.0, 0.03734557145901426
458.0, 0.037224339341154704
459.0, 0.03757517988599527
460.0, 0.03461424765366704
461.0, 0.03393447386256176
462.0, 0.03354320753657248
463.0, 0.03396372569079421
464.0, 0.03230010566529225
465.0, 0.028291745121718066
466.0, 0.029717921151121936
467.0, 0.027920874088050135
468.0, 0.025387934037451442
469.0, 0.024407822632398643
470.0, 0.02346619726882009
471.0, 0.022716889501310567
472.0, 0.024418502685004145
473.0, 0.01943432895412562
474.0, 0.022752928528994236
475.0, 0.02155035799472878
476.0, 0.020720828156182224
477.0, 0.021435539316050422
478.0, 0.02074329736700319
479.0, 0.019476232613197888
480.0, 0.020441877898203106
481.0, 0.022833699753979548
482.0, 0.023372201966643233
483.0, 0.022859716207770157
484.0, 0.02258938421784246
485.0, 0.021164708441962662
486.0, 0.020660700942653664
487.0, 0.018667617148721855
488.0, 0.017910309464829462
489.0, 0.017774799699586143
490.0, 0.01717768739647832
491.0, 0.015565406650114825
492.0, 0.012698090858021363
493.0, 0.0099108726913476
494.0, 0.008965041361205763
495.0, 0.008633179587967313
496.0, 0.007974471610081873
497.0, 0.0070805668652297905
498.0, 0.007343926696407441
499.0, 0.00702016661223293
500.0, 0.0057767430036308786
501.0, 0.004681117164142348
502.0, 0.004095630537278587
503.0, 0.0035376951878076726
504.0, 0.0025787381590036034
505.0, 0.005309355479754509
506.0, 0.0027511707553162013
507.0, 0.002849930476879248
508.0, 0.0034371861784353477
509.0, 0.0027831897360592775
510.0, 0.0015218645628446653
511.0, 0.0029677188168941602
512.0, 0.001487032033222444
513.0, 0.0020670798401980976
514.0, 0.0022127415780831363
515.0, 0.0021574033699746403
516.0, 0.00234813909575469
517.0, 0.002467203246790671
518.0, 0.0021605233094522352
519.0, 0.0040825274858034034
520.0, 0.0026184694877634776
521.0, 0.002549770103138624
522.0, 0.0028239813007030967
523.0, 0.0020952034023203215
524.0, 0.005787884931762516
525.0, 0.0049175125422565025
526.0, 0.003494540243484141
527.0, 0.0036715415146036014
528.0, 0.003942700287175467
529.0, 0.0040549540128485715
530.0, 0.005121494980693434
531.0, 0.005298961971728926
532.0, 0.006770075952807692
533.0, 0.00862841477342345
534.0, 0.009854801526793433
535.0, 0.011191459725206805
536.0, 0.012814623013362694
537.0, 0.013077897096150762
538.0, 0.012847097336233376
539.0, 0.015555469429032028
540.0, 0.01705195658163448
541.0, 0.019839761424163757
542.0, 0.02470743092935953
543.0, 0.02964456985156693
544.0, 0.03117125758919865
545.0, 0.03591071246887112
546.0, 0.03762361577313578
547.0, 0.03830082770973306
548.0, 0.038064052741913025
549.0, 0.037326844816874906
550.0, 0.036665270218358505
551.0, 0.03387177888483482
552.0, 0.031201077184654542
553.0, 0.030291089045052944
554.0, 0.029104565975496717
555.0, 0.027790070206034186
556.0, 0.028005801470682032
557.0, 0.031125921051273493
558.0, 0.032966247599651034
559.0, 0.03353120910854011
560.0, 0.03450824291368985
561.0, 0.034373110679465746
562.0, 0.034133273813772
563.0, 0.03466823164406205
564.0, 0.0334070019855302
565.0, 0.032611190271366525
566.0, 0.029059489997743063
567.0, 0.02513411445087107
568.0, 0.021187849388467146
569.0, 0.01803189770407188
570.0, 0.016380830878066376
571.0, 0.014995286330842971
572.0, 0.01365411179944542
573.0, 0.012850719991188935
574.0, 0.011842345360174889
575.0, 0.011082796672410071
576.0, 0.010650637476394576
577.0, 0.010176313825330997
578.0, 0.010242212397263924
579.0, 0.010018544605269387
580.0, 0.009769707476207654
581.0, 0.010228331548747374
582.0, 0.010031620064954512
583.0, 0.009563096805782408
584.0, 0.011139722537103616
585.0, 0.012667370688022997
586.0, 0.014748073588621438
587.0, 0.015450843866322546
588.0, 0.017633338103911832
589.0, 0.020616437309575644
590.0, 0.022671070165678143
591.0, 0.023528970894333676
592.0, 0.025821325674609215
593.0, 0.02576475772303326
594.0, 0.025753931332196976
595.0, 0.026340765273650212
596.0, 0.027595277679142917
597.0, 0.028868667302722896
598.0, 0.02901288781226014
599.0, 0.028291735334341997
600.0, 0.030714806265447793
601.0, 0.03195472939935087
602.0, 0.03344529081124164
603.0, 0.03442803100823824
604.0, 0.03436554845120591
605.0, 0.03497612398765595
606.0, 0.03628247635628733
607.0, 0.03401320549432964
608.0, 0.032505836002971494
609.0, 0.03011298264822298
610.0, 0.027810059959191363
611.0, 0.026105871606714973
612.0, 0.023004016789700283
613.0, 0.022223675988034958
614.0, 0.023540983655563952
615.0, 0.02385554174275299
616.0, 0.023335777216444985
617.0, 0.0244879834349083
618.0, 0.027257193245840798
619.0, 0.027419665958395446
620.0, 0.027708403670658216
621.0, 0.026866342556984397
622.0, 0.027787067332016645
623.0, 0.030523003620460898
624.0, 0.030186408147547604
625.0, 0.02757525388145261
626.0, 0.030856038760634998
627.0, 0.029529152402549746
628.0, 0.026546990007418975
629.0, 0.028130484963660336
630.0, 0.028798990177623978
631.0, 0.028506723033541067
632.0, 0.027450682781564005
633.0, 0.023887148040483887
634.0, 0.02117843481573235
635.0, 0.02150442904697317
636.0, 0.01944048260329988
637.0, 0.014812515113070975
638.0, 0.010925131124274253
639.0, 0.009303326580013486
640.0, 0.007841323463081003
641.0, 0.0034812849707440904
642.0, 0.005328254370653747
643.0, 0.0054175005460599685
644.0, 0.003586784559332483
645.0, 0.0025747759033076375
646.0, 0.003403676242835841
647.0, 0.004504109709430108
648.0, 0.00399868236572622
649.0, 0.00405062356276031
650.0, 0.00526059833242085
651.0, 0.0037622040707942736
652.0, 0.002302334988478562
653.0, 0.0013677450726925155
654.0, 0.00011245930678242905
655.0, 0.00028349264177847367
656.0, 0.0022263434775616035
657.0, 0.0005300143524279502
658.0, 0.001199516374277413
659.0, 0.0013317801089807507
660.0, 0.0007432482218136143
661.0, 0.0007533671299973098
662.0, 0.0015072719679811403
663.0, 0.002790576623637035
664.0, 0.0013107149419118148
665.0, 0.0008431341827157906
666.0, 0.0014072068506679803
667.0, 0.0016221970296887939
668.0, 0.001223693583129801
669.0, 0.0013077859370174722
670.0, 0.0015738726516403647
671.0, 0.00031676502037941896
672.0, 0.000905132556454873
673.0, 0.0014029310754610702
674.0, 0.0008843935991603724
675.0, 0.0006582245877512794
676.0, 0.0018589996597104044
677.0, 0.0021757517674102695
678.0, 0.0010887082131888425
679.0, 0.0010254709300099609
680.0, 0.0003662732173017228
681.0, 0.0014094231347055112
682.0, 0.001965657698716187
683.0, 0.0009861995451662538
684.0, 0.0018743274566217537
685.0, 0.0032807517451683157
686.0, 0.000542370322847588
687.0, 0.00011042270686282222
688.0, 0.00020313636235619133
689.0, 0.0009274388782610648
690.0, 0.0013299683175896759
691.0, 0.00032351645832896363
692.0, 0.0004755450789093545
693.0, 0.0013604999570004282
694.0, 0.0009008211769385949
695.0, 0.0012643631961528974
696.0, 0.002374064625232453
697.0, 0.003384108068351079
698.0, 0.0038345945582890827
699.0, 0.004072077216720198
700.0, 0.0037851305616633454
701.0, 0.003719989843101137
702.0, 0.0030260290434672137
703.0, 0.0019145415285037857
704.0, 0.0017996279113748907
705.0, 0.0026428598407950647
706.0, 0.0028699496986285163
707.0, 0.001794436838934651
708.0, 0.0038209383577862783
709.0, 0.0009654822814172286
710.0, 0.00046507917527510625
711.0, 0.0004892995632244516
712.0, 0.0008973685831828097
713.0, 0.0020936466341193558
714.0, 0.0030001367780423897
715.0, 0.0028732562018403108
716.0, 0.002296258705867564
717.0, 0.0008014480053336275
718.0, 0.0015240985190588352
719.0, 0.0017324167696255125
720.0, 0.0011484538600664079
721.0, 0.0014925996718883688
722.0, 0.0020370745534762065
723.0, 0.0021519554572173674
724.0, 0.0009512732551968213
725.0, 0.002252208411953446
726.0, 0.0020193307350899513
727.0, 0.0016143476991459327
728.0, 0.002287391657810038
729.0, 0.0023685703157135763
730.0, 0.000295602892802085
731.0, 0.0002888923410703722
732.0, 0.0015052736374272574
733.0, 0.001338925293085463
734.0, 0.0015149365146479063
735.0, 0.0017031610355145866
736.0, 0.002054758646227355
737.0, 0.0037360051494353995
738.0, 0.0020303588043713446
739.0, 0.0007145155533923702
740.0, 0.0008687504624464291
741.0, 0.0013812694274921069
742.0, 0.002658530712076053
743.0, 0.0037195738341546623
744.0, 0.002900223611130651
745.0, 0.0004109837077975688
746.0, 0.00153951904334676
747.0, 0.002851133179036279
748.0, 0.0009240882670053428
749.0, 0.0016329085243509502
750.0, 0.0014510060757680025
751.0, 0.0008209738990766166
752.0, 0.0021547978891382305
753.0, 0.00175723474072224
754.0, 0.00014015122653808412
755.0, 0.0014057646783289279
756.0, 0.0020459280185704145
757.0, 0.0012177390550076315
758.0, 0.00083855482475415
759.0, 0.0015820267991265016
760.0, 0.0019119751898457825
761.0, 0.00041509731399462394
762.0, 0.0007019008120955348
763.0, 0.0012389830221919277
764.0, 0.0011841230610898773
765.0, 0.001113116142368713
766.0, 0.0010655153771208011
767.0, 0.000810388154555962
768.0, 0.00041471114881259875
769.0, 0.0004951126139181405
770.0, 0.0006275378611687011
771.0, 0.0005635621571238757
772.0, 0.0013020968650617512
773.0, 0.001296403195177848
774.0, 0.0009952541529678245
775.0, 0.0014985753960475412
776.0, 0.00237174832353046
777.0, 0.0012720448775541129
778.0, 0.003607907162847597
779.0, 0.003133616522841666
780.0, 0.001995725715907183
781.0, 0.0009234786657492109
782.0, 0.0003904975763066182
783.0, 0.0008496571141912522
784.0, 0.0016485290411199212
785.0, 0.0004992840300734815
786.0, 0.0002652466404145679
787.0, 0.00032046733918124256
788.0, 0.0027542165323852334
789.0, 0.0017716424396112189
790.0, 0.0008322308287852262
791.0, 0.0014387185603937347
792.0, 0.0014741137782130684
793.0, 0.0010366627536925119
794.0, 0.0026002064445573
795.0, 0.0012674112073600878
796.0, 0.001955801015220322
797.0, 0.0013502333273342636
798.0, 0.0013606946150117316
799.0, 0.0015204746906423209
800.0, 0.0007022271571691184
801.0, 0.0008971055962924896
802.0, 0.0009787373814519665
803.0, 0.0015094090906463875
804.0, 0.0004727725015597725
805.0, 0.001607232621013064
806.0, 0.0017969005190784522
807.0, 0.0007179397874741041
808.0, 0.0002569443482949592
809.0, 0.0008357876541821753
810.0, 0.0006609997610139621
811.0, 0.0003736804517397719
812.0, 0.0006657994840671688
813.0, 0.0003837205926744871
814.0, 0.0005620033926289887
815.0, 0.0006788958454884938
816.0, 0.000408868705645352
817.0, 0.0005617117760383616
818.0, 0.0014275590518939229
819.0, 0.0008530774736618284
820.0, 0.0020765964230878586
821.0, 0.0016129852291862454
822.0, 0.003384353706503224
823.0, 0.003085124415706985
824.0, 0.0014575318837738256
825.0, 0.0016403641511960666
826.0, 0.00020324821049276629
827.0, 0.0011130995019587606
828.0, 0.0013201878180712967
829.0, 0.0021109066277120976
830.0, 0.0009419890165699573
831.0, 0.000714154465371413
832.0, 0.0010836222940968092
833.0, 0.0006073747395869352
834.0, 0.0002287567333379529
835.0, 0.0012002727400128258
836.0, 0.0009190812057949638
837.0, 0.0007576022203174376
838.0, 0.00177330730803873
839.0, 0.0009581061751003917
840.0, 0.0009595602937257332
841.0, 0.0019787291851238588
842.0, 0.0016581973243048108
843.0, 0.0013455270803292834
844.0, 0.0024453541213580138
845.0, 0.001997184708358772
846.0, 0.001200747706969207
847.0, 0.0006783478514182419
848.0, 0.00026106159642510525
849.0, 0.0009430123526982164
850.0, 0.0030680332413034377
851.0, 0.004872818273340195
852.0, 0.004223087844569507
853.0, 0.002889240356340164
854.0, 0.003558206471182357
855.0, 0.0022156270742536314
856.0, 0.003860286752231018
857.0, 0.006091192390128999
858.0, 0.006089729727583229
859.0, 0.004890267581467449
860.0, 0.005137068068561645
861.0, 0.004350444701400881
862.0, 0.004920759202778016
863.0, 0.004543672983964942
864.0, 0.00459457755461561
865.0, 0.0048793322676462
866.0, 0.004359410658441793
867.0, 0.003299853493316552
868.0, 0.0026849922577396037
869.0, 0.0018506797529488574
870.0, 0.0007214214931346608
871.0, 0.0013799575873778749
872.0, 0.002195621681529225
873.0, 0.0035260887236803246
874.0, 0.003971140448512716
875.0, 0.0038558286247549543
876.0, 0.0036046361256944
877.0, 0.0030258883994323704
878.0, 0.0032702296773013356
879.0, 0.0019179691515416914
880.0, 0.002655418557812199
881.0, 0.0029206833968157242
882.0, 0.0017101729604262201
883.0, 0.0022761085052953457
884.0, 0.0026626024608957665
885.0, 0.002545643587693075
886.0, 0.005065340279347209
887.0, 0.003431803603150489
888.0, 0.0036990709794487374
889.0, 0.004824225338438725
890.0, 0.006425420669485155
891.0, 0.007898393398944872
892.0, 0.009280268019563581
893.0, 0.010748441458845594
894.0, 0.01208742152226495
895.0, 0.01279317892792549
896.0, 0.013031407471956387
897.0, 0.014620256152084071
898.0, 0.015271782590907198
899.0, 0.01631101756401999
900.0, 0.015992870807134442
901.0, 0.016759565722210837
902.0, 0.01798955942937799
903.0, 0.01889415997346284
904.0, 0.020593533463753873
905.0, 0.01936656725119488
906.0, 0.023370191921928272
907.0, 0.02588625742504954
908.0, 0.02580738205779647
909.0, 0.026506490716145754
910.0, 0.029019049004082302
911.0, 0.03237864384586781
912.0, 0.03640999055609746
913.0, 0.04203815222838189
914.0, 0.048377150896955386
915.0, 0.05962187945047922
916.0, 0.06331598077945058
917.0, 0.07120743628765945
918.0, 0.08011248830209639
919.0, 0.08632416316544222
920.0, 0.09083576313966153
921.0, 0.09610283289675661
922.0, 0.10019953782201359
923.0, 0.09691446331622175
924.0, 0.09345784540832758
925.0, 0.08503879212794783
926.0, 0.07809786432693964
927.0, 0.06844564524732716
928.0, 0.05939087141229106
929.0, 0.05103463948517291
930.0, 0.04406158810589286
931.0, 0.0398749518627933
932.0, 0.036560636481932085
933.0, 0.034864682968560164
934.0, 0.033193418072806784
935.0, 0.0328083782104542
936.0, 0.03194402376439377
937.0, 0.032575345375441364
938.0, 0.03609512974649325
939.0, 0.03786084247958738
940.0, 0.03795779727250228
941.0, 0.043617882220058996
942.0, 0.04523749075864627
943.0, 0.047176617673416396
944.0, 0.052621248337954125
945.0, 0.05967470179532977
946.0, 0.06345134818163949
947.0, 0.07003917201141759
948.0, 0.08083513610910426
949.0, 0.09427536398408341
950.0, 0.11091407738849957
951.0, 0.1324190677627521
952.0, 0.16196099095225724
953.0, 0.20038342872535597
954.0, 0.24418105460892617
955.0, 0.30144787465057793
956.0, 0.37221996150069403
957.0, 0.45409537032873143
958.0, 0.5438667802125821
959.0, 0.6364149733331527
960.0, 0.7246786447158093
961.0, 0.8027751742248566
962.0, 0.8600662616276133
963.0, 0.9113359303476445
964.0, 0.9589807990873664
965.0, 0.9855418963547417
966.0, 0.9968046393121238
967.0, 0.9895919020184818
968.0, 0.9545592499004157
969.0, 0.8931667099508515
970.0, 0.8194439624813485
971.0, 0.7322986123849714
972.0, 0.6311464338982365
973.0, 0.5322227094707521
974.0, 0.4404318833297874
975.0, 0.3595830412203572
976.0, 0.28970495948994474
977.0, 0.23366123904380517
978.0, 0.1914344649917469
979.0, 0.15929099492078894
980.0, 0.13774313038882402
981.0, 0.12249784782582414
982.0, 0.11780171678532009
983.0, 0.11604067675860258
984.0, 0.1171697027260297
985.0, 0.11862982389769124
986.0, 0.12110453639730687
987.0, 0.12650179946154563
988.0, 0.13180869908939413
989.0, 0.131821577164869
990.0, 0.13057329919209773
991.0, 0.1319409083214642
992.0, 0.12672005265931172
993.0, 0.1234073594937462
994.0, 0.11563966371687273
995.0, 0.10766301688362451
996.0, 0.10114512454823428
997.0, 0.09295741865687003
998.0, 0.08456292074243467
999.0, 0.08046042344712155
1000.0, 0.07315942588348663
1001.0, 0.06649647850636951
1002.0, 0.06735761951871526
1003.0, 0.06222808126588006
1004.0, 0.058577671712646814
1005.0, 0.053156486603824035
1006.0, 0.05012932094384269
1007.0, 0.04824398921181808
1008.0, 0.047412507986405006
1009.0, 0.05091527836848263
1010.0, 0.05145265215201517
1011.0, 0.052647077322609655
1012.0, 0.053516528273644906
1013.0, 0.05673188090819043
1014.0, 0.05906518235431864
1015.0, 0.06162417636585431
1016.0, 0.06453514862679584
1017.0, 0.06761872012846483
1018.0, 0.07120091128055696
1019.0, 0.07525545166133482
1020.0, 0.07915158465664607
1021.0, 0.08541549183428035
1022.0, 0.08617538195921083
1023.0, 0.0911805674476565
1024.0, 0.09385552635039751
1025.0, 0.09585415004102894
1026.0, 0.09751509185512834
1027.0, 0.09852278856354325
1028.0, 0.09895204651433882
1029.0, 0.09844350811778595
1030.0, 0.09545247053005358
1031.0, 0.08983407764275533
1032.0, 0.08707342341933777
1033.0, 0.08267015100556296
1034.0, 0.07692876436820376
1035.0, 0.07247284221676598
1036.0, 0.06645745995842335
1037.0, 0.05981594956663877
1038.0, 0.05458071008183223
1039.0, 0.05005135121887659
1040.0, 0.04546032059301874
1041.0, 0.043918554217925114
1042.0, 0.03974128346368271
1043.0, 0.03796446004661177
1044.0, 0.03447181964957978
1045.0, 0.03186956168236366
1046.0, 0.029552139426221213
1047.0, 0.027952621930096573
1048.0, 0.027388427439780406
1049.0, 0.02638132972457078
1050.0, 0.024301406081476136
1051.0, 0.023632044908964922
1052.0, 0.02486445024583596
1053.0, 0.02590880776733926
1054.0, 0.02546327368338429
1055.0, 0.025128862390414012
1056.0, 0.024731741973709725
1057.0, 0.025454967599936762
1058.0, 0.02821125487075929
1059.0, 0.03015740735123835
1060.0, 0.029920184318218877
1061.0, 0.030466830407459306
1062.0, 0.033170160065103864
1063.0, 0.03348536802140811
1064.0, 0.034550363250076065
1065.0, 0.0347734929560866
1066.0, 0.032878887159116646
1067.0, 0.031687372199644515
1068.0, 0.030236648512242212
1069.0, 0.030837426523202868
1070.0, 0.03179726764126147
1071.0, 0.03125475683866241
1072.0, 0.030364959751628222
1073.0, 0.028881500951627486
1074.0, 0.032428387484576646
1075.0, 0.028723113423807733
1076.0, 0.030399590461291315
1077.0, 0.03382900532709519
1078.0, 0.033386130031580884
1079.0, 0.03190084586536696
1080.0, 0.03367947757752719
1081.0, 0.036319012780451826
1082.0, 0.03649452717024464
1083.0, 0.03520784149750678
1084.0, 0.0334082226114918
1085.0, 0.033411847764265847
1086.0, 0.03347212652083004
1087.0, 0.03358311506169715
1088.0, 0.036456936428528826
1089.0, 0.033038325457431704
1090.0, 0.03220744596408145
1091.0, 0.03209709015002107
1092.0, 0.0332686921432927
1093.0, 0.035044243399332736
1094.0, 0.03448384099497207
1095.0, 0.03541835069520132
1096.0, 0.03375243187262957
1097.0, 0.03343567853260603
1098.0, 0.03127532714133199
1099.0, 0.03277840945178867
1100.0, 0.03051366850143039
1101.0, 0.03013500363350316
1102.0, 0.029897072044985474
1103.0, 0.028174900742518622
1104.0, 0.025958411052968075
1105.0, 0.02484627591942484
1106.0, 0.025007048474870616
1107.0, 0.02370006700727096
1108.0, 0.021485050124071807
1109.0, 0.019910123529112686
1110.0, 0.01886695009672365
1111.0, 0.019975186009311943
1112.0, 0.01710625464923961
1113.0, 0.016269655460932588
1114.0, 0.01496338689951266
1115.0, 0.01232036232509499
1116.0, 0.011939301465245529
1117.0, 0.01275562805736427
1118.0, 0.010130746874190681
1119.0, 0.010945286627422638
1120.0, 0.010335362345688366
1121.0, 0.007671258310151552
1122.0, 0.009116415921475595
1123.0, 0.006141045391852274
1124.0, 0.0055202568354546485
1125.0, 0.004606224148482803
1126.0, 0.004468670515448197
1127.0, 0.0055091786327314185
1128.0, 0.004524090215432422
1129.0, 0.00241764848432715
1130.0, 0.004248629653098213
1131.0, 0.003708951828252564
1132.0, 0.002507652396621403
1133.0, 0.001259447964191807
1134.0, 0.0018214257551728795
1135.0, 0.002835744943657934
1136.0, 0.0033280425756534266
1137.0, 0.0034057744503249495
1138.0, 0.0036536802953018917
1139.0, 0.004280796645282164
1140.0, 0.004585731945937568
1141.0, 0.004053919290223755
1142.0, 0.004006997867367471
1143.0, 0.00348316801312886
1144.0, 0.0037964677324772884
1145.0, 0.002926019985058527
1146.0, 0.0033188904114203055
1147.0, 0.0033846839350959623
1148.0, 0.002656798037692396
1149.0, 0.0021831154994681207
1150.0, 0.002746339329513561
1151.0, 0.0026921114912360827
1152.0, 0.001953453382376434
1153.0, 0.002441006928810622
1154.0, 0.0005526321119250177
1155.0, 0.002943330534483905
1156.0, 0.004535209595607021
1157.0, 0.002691427804613491
1158.0, 0.0023707562858369985
1159.0, 0.002174471006218181
1160.0, 0.0010385183583814161
1161.0, 0.00046567948431180955
1162.0, 0.0008903493998776988
1163.0, 0.0008066663905123467
1164.0, 0.0001017400323417689
1165.0, 0.0006019155765541514
1166.0, 0.0016175756149753098
1167.0, 0.0011031976742700569
1168.0, 0.0008067475126559534
1169.0, 0.0001767187249841911
1170.0, 0.0003581040406854936
1171.0, 0.0009345699398440892
1172.0, 0.0016075444360166803
1173.0, 0.00113015719222124
1174.0, 0.0016542135142216694
1175.0, 0.0031892602566170416
1176.0, 0.002576550980469187
1177.0, 0.0008808331475533734
1178.0, 0.0026341865767658987
1179.0, 0.0017712326132887516
1180.0, 4.3850227133190194e-05
1181.0, 0.0007733931467422755
1182.0, 0.0014533726798152235
1183.0, 0.0019757515917548894
1184.0, 0.001214325937638175
1185.0, 0.0017743802228740672
1186.0, 0.002360371418746134
1187.0, 0.002550346314285858
1188.0, 0.002211019911992352
1189.0, 0.0010730475671010934
1190.0, 0.0002478607751664534
1191.0, 0.0007122247395324843
1192.0, 0.0005705750793888096
1193.0, 0.0015647842532334436
1194.0, 0.0027458467410601947
1195.0, 0.000752546207709075
1196.0, 0.0008823597760118024
1197.0, 0.000397446662114538
1198.0, 0.00033870602930147583
1199.0, 0.0008597761044607245
1200.0, 0.001274294392197724
1201.0, 0.0013418181764732094
1202.0, 0.000958459325646524
1203.0, 0.0004814697487637588
1204.0, 0.0009857784062379102
1205.0, 0.0006820661666604713
1206.0, 0.0015962994165059888
1207.0, 0.00041279338681906046
1208.0, 0.00020500473400767333
1209.0, 0.00015350645004971907
1210.0, 0.00019874461785114106
1211.0, 0.00012309525346344342
1212.0, 0.00011808202149360908
1213.0, 9.7468565480398e-05
1214.0, 0.0001473653110734006
1215.0, 0.0002282434390114726
1216.0, 0.000467256631843373
1217.0, 0.0011693596797738976
1218.0, 0.0004986246804518069
1219.0, 0.0008471720509675091
1220.0, 0.00030327824721004923
1221.0, 0.00248564905727561
1222.0, 0.004702380059730095
1223.0, 0.0016681051915507865
1224.0, 0.0007758199723850308
1225.0, 0.0013437465187983316
1226.0, 0.0016625551621269137
1227.0, 0.000963527881332569
1228.0, 0.00022071038148898075
1229.0, 0.0006982782719581335
1230.0, 0.0016878374839122212
1231.0, 0.0020722137172296995
1232.0, 0.0004715359307465286
1233.0, 0.0034483379725352217
1234.0, 0.005620967548135115
1235.0, 0.002857099062297139
1236.0, 0.0006197435441603651
1237.0, 0.004884555584746955
1238.0, 0.0023020941723754865
1239.0, 0.0019550820366299763
1240.0, 0.003829813258919912
1241.0, 0.0037249668718162873
1242.0, 0.002980579206030789
1243.0, 0.0027642506214280286
1244.0, 0.0029024631460260637
1245.0, 0.0050839794980584285
1246.0, 0.0015564077245051266
1247.0, 0.0033903300494005084
1248.0, 0.004237293565673532
1249.0, 0.0006754909527588164
1250.0, 0.00047929154089927715
1251.0, 0.003697546048307162
1252.0, 0.004448392529467704
1253.0, 0.0043506973214542345
1254.0, 0.004119992572124478
1255.0, 0.002494617895575239
1256.0, 0.0019569513324081186
1257.0, 0.0037105801808481743
1258.0, 0.0037430716641434552
1259.0, 0.0038033290837841526
1260.0, 0.0016968274833980839
1261.0, 0.004679846550513186
1262.0, 0.0006698918880225142
1263.0, 0.0036565582064349072
1264.0, 0.0022741299532010317
1265.0, 0.0020902617656554166
1266.0, 0.004863005884599654
1267.0, 0.004608557505061738
1268.0, 0.003957335434814812
1269.0, 0.0037800313743555683
1270.0, 0.002833170509014293
1271.0, 0.0023974554914165994
1272.0, 0.00335877265706739
1273.0, 0.004700456012375684
1274.0, 0.0049327973835157374
1275.0, 0.004437847487682374
1276.0, 0.00610527831546099
1277.0, 0.004984565423509387
1278.0, 0.0035009440684841114
1279.0, 0.0038544159104155614
1280.0, 0.002980712222634334
1281.0, 0.003793013848885301
1282.0, 0.0039601140512263
1283.0, 0.003769288552968246
1284.0, 0.004813246285959893
1285.0, 0.004161572932085438
1286.0, 0.0025681766198589217
1287.0, 0.0041862747765901995
1288.0, 0.002177623184741341
1289.0, 0.002681101098829241
1290.0, 0.002549745933791513
1291.0, 0.004865175184354063
1292.0, 0.0037698660963798756
1293.0, 0.0026184290145311907
1294.0, 0.004988508938179827
1295.0, 0.0053840937387911155
1296.0, 0.005837755684299032
1297.0, 0.005400820714675078
1298.0, 0.004284187403945159
1299.0, 0.003996402077012272
1300.0, 0.004729710280103918
1301.0, 0.005318883346053248
1302.0, 0.005509002270460489
1303.0, 0.005559738347114331
1304.0, 0.0029290857154755817
1305.0, 0.003314548877694738
1306.0, 0.0076367407162113545
1307.0, 0.0036277930339360612
1308.0, 0.0038760382674331486
1309.0, 0.004771749533427655
1310.0, 0.00380238520612815
1311.0, 0.005075773607747093
1312.0, 0.006067705246466095
1313.0, 0.00604895836632787
1314.0, 0.004493300885399912
1315.0, 0.0024757871507860543
1316.0, 0.0027566679846710894
1317.0, 0.004349566289967612
1318.0, 0.004156618785500398
1319.0, 0.004611076892406372
1320.0, 0.0043788640392784075
1321.0, 0.004517486651460539
1322.0, 0.004472501380509293
1323.0, 0.002554039345760111
1324.0, 0.005554631335334019
1325.0, 0.002912922856105029
1326.0, 0.002177544607167421
1327.0, 0.0011159013416471768
1328.0, 0.0024055972106420075
1329.0, 0.0027819371503131594
1330.0, 0.002320623307373634
1331.0, 0.0038538616414810867
1332.0, 0.004072358436252567
1333.0, 0.0015782589287870305
1334.0, 0.0021191730642834312
1335.0, 0.002111724395476593
1336.0, 0.0008597335357215728
1337.0, 0.0029760727826941133
1338.0, 0.002380341151252507
1339.0, 0.002729237593106034
1340.0, 0.0009207141611339536
1341.0, 0.0031466657202681436
1342.0, 0.0036115205697720095
1343.0, 0.0024612996013161944
1344.0, 0.002129093391208754
1345.0, 0.0010464550638865768
1346.0, 0.0013084525947214837
1347.0, 0.0026706989256157737
1348.0, 0.002182408670706472
1349.0, 0.0014384387285566694
1350.0, 0.0026373869534604623
1351.0, 0.003461898796752115
1352.0, 0.00534467079479432
1353.0, 0.0025425056440303963
1354.0, 0.0018653471592367135
1355.0, 0.001709080333369027
1356.0, 0.0008148840036874619
1357.0, 0.004086972141877897
1358.0, 0.002783139533594834
1359.0, 0.0008433435665879906
1360.0, 0.0017253062974274674
1361.0, 0.0012442799906074774
1362.0, 0.0006656054881997426
1363.0, 0.003008360214339219
1364.0, 0.0030863293353734123
1365.0, 0.001720920894665022
1366.0, 0.0019381419294143948
1367.0, 0.0006117872405145585
1368.0, 0.0016368385734498645
1369.0, 0.002659910621887021
1370.0, 0.002390625959751945
1371.0, 0.003611347114741489
1372.0, 0.002393318341562908
1373.0, 0.003569052803491009
1374.0, 0.003815499401752211
1375.0, 0.001143887442136262
1376.0, 0.0031175756505794796
1377.0, 0.0026708724321800764
1378.0, 0.0017820589662541858
1379.0, 0.001683910284925552
1380.0, 0.0013844867324735897
1381.0, 0.0024468585763934535
1382.0, 0.003915685233436613
1383.0, 0.003828364477782237
1384.0, 0.0027169362139920356
1385.0, 0.002299133551771082
1386.0, 0.0036616421032610595
1387.0, 0.0016398228403797812
1388.0, 0.0011928821833088888
1389.0, 0.003098480538170343
1390.0, 0.0010879827064749434
1391.0, 0.0028744022925376433
1392.0, 0.0036552683759619605
1393.0, 0.004264659570237832
1394.0, 0.0035393218622146306
1395.0, 0.002005995998683305
1396.0, 0.0037503212694363713
1397.0, 0.004905350977388012
1398.0, 0.002886983981755271
1399.0, 0.0023151448449368704
1400.0, 0.0018108705614392634
1401.0, 0.0013349022562864621
1402.0, 0.0025628190672683155
1403.0, 0.0023841049664486413
1404.0, 0.002589496964156334
1405.0, 0.002897147682130381
1406.0, 0.0017046485244824332
1407.0, 0.0023979241392504966
1408.0, 0.004032882633139551
1409.0, 0.002349106189489028
1410.0, 0.0036445289003984986
1411.0, 0.004510928161831554
1412.0, 0.004490142780908192
1413.0, 0.00411331754834036
1414.0, 0.0023268503154779637
1415.0, 0.0005504782473157393
1416.0, 0.0008062221134189868
1417.0, 0.0016081133855036678
1418.0, 0.0018093355919627106
1419.0, 0.00201556355934455
1420.0, 0.001969720257012032
1421.0, 0.0015890265515512445
1422.0, 0.0019428765704532292
1423.0, 0.0020781320295111963
1424.0, 0.0012567010470956805
1425.0, 0.002617833447065928
1426.0, 0.0017957817433474224
1427.0, 0.0022168635767304255
1428.0, 0.0031567442429194996
1429.0, 0.0012975437827983784
1430.0, 0.0006854260554052898
1431.0, 0.002278638324747191
1432.0, 0.0023761017013655067
1433.0, 0.003040621709792153
1434.0, 0.002157059849360721
1435.0, 0.0023026862148513194
1436.0, 0.002734190177259951
1437.0, 0.003649504670576838
1438.0, 0.0038633863788417964
1439.0, 0.0034102081007051886
1440.0, 0.0027209793971335818
1441.0, 0.002982454852248222
1442.0, 0.004588768760732795
1443.0, 0.005274945702050749
1444.0, 0.006828332902592656
1445.0, 0.0073630813198966956
1446.0, 0.006969450183952879
1447.0, 0.005875296374860029
1448.0, 0.007409053670375419
1449.0, 0.00649709614565467
1450.0, 0.008577457119914488
1451.0, 0.008568637180740538
1452.0, 0.006723113484286507
1453.0, 0.006572221744552072
1454.0, 0.008178468135066903
1455.0, 0.00852191881668148
1456.0, 0.007653253905065733
1457.0, 0.0075124258707274984
1458.0, 0.005164004850486559
1459.0, 0.00484722515040799
1460.0, 0.005187181742210173
1461.0, 0.005535081612431942
1462.0, 0.0072695845684724435
1463.0, 0.006187648668493657
1464.0, 0.004896417384935386
1465.0, 0.00581451739866414
1466.0, 0.0044457834836017195
1467.0, 0.004571921798897381
1468.0, 0.007254781462581426
1469.0, 0.006702515601770307
1470.0, 0.005789385394535552
1471.0, 0.005741051919090208
1472.0, 0.00701592380672463
1473.0, 0.004833297702904386
1474.0, 0.006076221370831026
1475.0, 0.0031775681299493004
1476.0, 0.0023851072082588217
1477.0, 0.005003694197179337
1478.0, 0.005410435102404635
1479.0, 0.0051897030125120855
1480.0, 0.003972554065366908
1481.0, 0.003872125536243022
1482.0, 0.003751997484482116
1483.0, 0.0024479102171359297
1484.0, 0.002752908662050115
1485.0, 0.0037854716388255193
1486.0, 0.0035471523300099135
1487.0, 0.0035436786516212316
1488.0, 0.0028650746556808018
1489.0, 0.003652834432566749
1490.0, 0.0033577052391194715
1491.0, 0.001726653661376852
1492.0, 0.003178949614426479
1493.0, 0.0021637315895419156
1494.0, 0.001270368659696164
1495.0, 0.005534575018765926
1496.0, 0.002150242205048677
1497.0, 0.002632705675160985
1498.0, 0.0011569975031196084
1499.0, 0.0038018572013539488
1500.0, 0.0026760351443358968
1501.0, 0.0023013483651568136
1502.0, 0.0030829881390335052
1503.0, 0.001854487146486332
1504.0, 0.002175064148649436
1505.0, 0.0024136741225319657
1506.0, 0.002590789039542456
1507.0, 0.00501925444916771
1508.0, 0.004884283897465872
1509.0, 0.0024504838040542492
1510.0, 0.002808897276690888
1511.0, 0.002546284190589694
1512.0, 0.004441945904148882
1513.0, 0.002713714672785504
1514.0, 0.005804836487559355
1515.0, 0.005522284521230992
1516.0, 0.0015231805083591558
1517.0, 0.0022940064255953397
1518.0, 0.004780100070799652
1519.0, 0.0023668756513416213
1520.0, 0.005442841349596659
1521.0, 0.0030317777624396967
1522.0, 0.002365300266924369
1523.0, 0.001809496953386216
1524.0, 0.003966565155686105
1525.0, 0.00337320876621946
1526.0, 0.0038657509877933647
1527.0, 0.005413236879366849
1528.0, 0.00454314317577936
1529.0, 0.003851900084925683
1530.0, 0.003160424590088447
1531.0, 0.0026187280250973654
1532.0, 0.003266501761977568
1533.0, 0.0031699581552225454
1534.0, 0.0024463319198208787
1535.0, 0.0030524567475391047
1536.0, 0.004143297786848802
1537.0, 0.004843038170086803
1538.0, 0.00568791967665667
1539.0, 0.004606772355235482
1540.0, 0.0032013095558332772
1541.0, 0.004789742207639757
1542.0, 0.0035929147153962583
1543.0, 0.0042831564284927254
1544.0, 0.005260885103154995
1545.0, 0.0044063901909707935
1546.0, 0.0036594014423277743
1547.0, 0.0035602193592545353
1548.0, 0.004065639382105227
1549.0, 0.00346008376664519
1550.0, 0.0011632302893953917
1551.0, 0.0046597292923015905
1552.0, 0.00421317762241865
1553.0, 0.002110528895111725
1554.0, 0.002834859293829064
1555.0, 0.003100830739251917
1556.0, 0.0029452510198076896
1557.0, 0.0036770012283514355
1558.0, 0.002786422513700855
1559.0, 0.001649050770177962
1560.0, 0.0024721688964521498
1561.0, 0.0020712924846294258
1562.0, 0.000485179453564028
1563.0, 0.000498169253507816
1564.0, 0.0008949312576643029
1565.0, 0.002271781241489902
1566.0, 0.002521618975173363
1567.0, 0.0030390632790173477
1568.0, 0.002866666946824764
1569.0, 0.001095881195980507
1570.0, 0.0021322187627533812
1571.0, 0.0015955414675307802
1572.0, 0.002292180005553652
1573.0, 0.0013503648892715073
1574.0, 0.001342590180090509
1575.0, 0.001491428874876412
1576.0, 0.00014738690392255616
1577.0, 0.0006539288980091785
1578.0, 0.00012139991110782179
1579, 0.0
1580, 0.0
1581, 0.0
1582, 0.0
1583, 0.0
1584, 0.0
1585, 0.0
1586, 0.0
1587, 0.0
1588, 0.0
1589, 0.0
1590, 0.0
1591, 0.0
1592, 0.0
1593, 0.0
1594, 0.0
1595, 0.0
1596, 0.0
1597, 0.0
1598, 0.0
1599, 0.0
