30, 0.0
31, 0.0
32, 0.0
33, 0.0
34, 0.0
35, 0.0
36, 0.0
37, 0.0
38, 0.0
39, 0.0
40, 0.0
41, 0.0
42, 0.0
43, 0.0
44, 0.0
45, 0.0
46, 0.0
47, 0.0
48, 0.0
49, 0.0
50, 0.0
51, 0.0
52, 0.0
53, 0.0
54, 0.0
55, 0.0
56, 0.0
57, 0.0
58, 0.0
59, 0.0
60, 0.0
61, 0.0
62, 0.0
63, 0.0
64, 0.0
65, 0.0
66, 0.0
67, 0.0
68, 0.0
69, 0.0
70, 0.0
71, 0.0
72, 0.0
73, 0.0
74, 0.0
75, 0.0
76, 0.0
77, 0.0
78, 0.0
79, 0.0
80, 0.0
81, 0.0
82, 0.0
83, 0.0
84, 0.0
85, 0.0
86, 0.0
87, 0.0
88, 0.0
89, 0.0
90, 0.0
91, 0.0
92, 0.0
93, 0.0
94, 0.0
95, 0.0
96, 0.0
97, 0.0
98, 0.0
99, 0.0
100, 0.0
101, 0.0
102, 0.0
103, 0.0
104, 0.0
105, 0.0
106, 0.0
107, 0.0
108, 0.0
109, 0.0
110, 0.0
111, 0.0
112, 0.0
113, 0.0
114, 0.0
115, 0.0
116, 0.0
117, 0.0
118, 0.0
119, 0.0
120, 0.0
121, 0.0
122, 0.0
123, 0.0
124.0, 0.0001560863596469042
125.0, 0.003952048449390404
126.0, 0.008168503988347524
127.0, 0.008631152384438495
128.0, 0.0014065692550665194
129.0, 0.0007196853885250401
130.0, 0.0009739724071991876
131.0, 0.0041620793823617325
132.0, 0.008418770866636983
133.0, 0.010039507061846012
134.0, 0.0067452848804266914
135.0, 0.010853133225024047
136.0, 0.006583704722248621
137.0, 0.0049518410476774985
138.0, 0.013474185671828336
139.0, 0.01792291706225007
140.0, 0.010876426035545225
141.0, 0.004360091462864586
142.0, 0.0058217030859699075
143.0, 0.012005364776963871
144.0, 0.010736243960675889
145.0, 0.014250284553334892
146.0, 0.012082163820460285
147.0, 0.012678061492205815
148.0, 0.012079070528005949
149.0, 0.0060408209938733
150.0, 0.011038988820634314
151.0, 0.0208042131973038
152.0, 0.019298620481981145
153.0, 0.01469832736908113
154.0, 0.014363840478721539
155.0, 0.018376920528502212
156.0, 0.00452170841880444
157.0, 0.0052336176094539165
158.0, 0.011505236351497111
159.0, 0.013669031896463136
160.0, 0.006205036661649281
161.0, 0.011770828314068983
162.0, 0.010222557765231649
163.0, 0.011786176499375836
164.0, 0.012518137154111486
165.0, 0.0088604322701491
166.0, 0.005668393179807496
167.0, 0.01940507525368766
168.0, 0.0236866990119951
169.0, 0.023036843321933138
170.0, 0.02156276073458235
171.0, 0.021534126526208616
172.0, 0.02573184184392447
173.0, 0.03659084721007665
174.0, 0.043961231874367554
175.0, 0.04859062960298427
176.0, 0.0547504803639017
177.0, 0.06668864650053376
178.0, 0.06893480884116172
179.0, 0.0903280889717868
180.0, 0.12378248429715083
181.0, 0.16568028485079017
182.0, 0.2155002383989182
183.0, 0.20637404624135722
184.0, 0.24287617998959102
185.0, 0.22318429619714192
186.0, 0.16410921563756306
187.0, 0.11707388965641582
188.0, 0.09625891702471386
189.0, 0.08029139250526111
190.0, 0.07423093890926995
191.0, 0.07586720449058583
192.0, 0.08029296917763268
193.0, 0.08258773425484382
194.0, 0.10988891199284322
195.0, 0.12806843918699187
196.0, 0.15535928737107865
197.0, 0.18865757189166785
198.0, 0.22185104208663797
199.0, 0.2667064719724073
200.0, 0.30869329675630985
201.0, 0.37129871419894633
202.0, 0.45655045808832107
203.0, 0.5665183101077507
204.0, 0.7042151014252338
205.0, 0.8618970406795102
206.0, 0.9644623911416758
207.0, 0.9130846275350623
208.0, 0.7242961570173839
209.0, 0.4781834793896398
210.0, 0.305565563450377
211.0, 0.2023792658515668
212.0, 0.14441171203233766
213.0, 0.11236061730376694
214.0, 0.08801369273685004
215.0, 0.0596796872354758
216.0, 0.05598101674902383
217.0, 0.053110174920659135
218.0, 0.053117079428152046
219.0, 0.0564582334428875
220.0, 0.060557437009501995
221.0, 0.05766068325871307
222.0, 0.06428365920031776
223.0, 0.07941632864739871
224.0, 0.1049898153172767
225.0, 0.1456462952478957
226.0, 0.20563718660762415
227.0, 0.279514280815795
228.0, 0.32929760990187235
229.0, 0.31613756635279966
230.0, 0.26356020711915534
231.0, 0.20152388508346175
232.0, 0.14830127141012117
233.0, 0.1215602126655722
234.0, 0.10943168026784439
235.0, 0.10026535213907704
236.0, 0.09963503314591544
237.0, 0.11681560470449709
238.0, 0.14674325326253224
239.0, 0.17937244101168187
240.0, 0.19579263918782602
241.0, 0.18934686280548815
242.0, 0.16688504624636372
243.0, 0.14422187234110487
244.0, 0.10966694870054242
245.0, 0.08454928477019694
246.0, 0.06472141034348869
247.0, 0.05202410247806228
248.0, 0.045522890324769014
249.0, 0.036366358800781984
250.0, 0.033215446057803716
251.0, 0.03580851886002481
252.0, 0.029412758269502192
253.0, 0.021759185639885492
254.0, 0.027124603584200845
255.0, 0.032457617095941686
256.0, 0.017108910893695407
257.0, 0.024223891393461046
258.0, 0.030381618885484844
259.0, 0.024996434445549363
260.0, 0.019358006319501058
261.0, 0.01466806583959617
262.0, 0.01475613130364138
263.0, 0.017258955246745186
264.0, 0.016594400727097638
265.0, 0.012662711839744125
266.0, 0.017172458040881116
267.0, 0.009604206878352067
268.0, 0.01457317013939182
269.0, 0.021148385565269254
270.0, 0.023538630952599598
271.0, 0.020100698121988794
272.0, 0.011953175812430432
273.0, 0.005499958907184324
274.0, 0.012908768738969885
275.0, 0.013031604381956595
276.0, 0.00686376324651348
277.0, 0.013037302250676503
278.0, 0.01052418248573903
279.0, 0.009646983606348379
280.0, 0.01047597670240885
281.0, 0.008944790139190008
282.0, 0.007585557300203364
283.0, 0.01769467859262549
284.0, 0.011040049180967236
285.0, 0.007516533516761513
286.0, 0.009419359431852795
287.0, 0.008386897731996894
288.0, 0.000980481951379811
289.0, 0.004038461618932632
290.0, 0.016054893016382556
291.0, 0.017038614398250454
292.0, 0.01873383320289939
293.0, 0.022735112061261685
294.0, 0.02635787541584151
295.0, 0.03700713943366539
296.0, 0.04994268231601465
297.0, 0.057365915478555934
298.0, 0.06664801655932408
299.0, 0.07907602211047148
300.0, 0.08828026287671958
301.0, 0.08116356250759324
302.0, 0.05312866289876121
303.0, 0.03442370462075868
304.0, 0.026625514679237218
305.0, 0.022641638974658377
306.0, 0.013426349131444134
307.0, 0.014258823701318894
308.0, 0.02116600138836096
309.0, 0.023251440306761073
310.0, 0.01893430942861891
311.0, 0.011169017744336493
312.0, 0.005723541978333654
313.0, 0.01225254331081899
314.0, 0.004877125720429129
315.0, 0.0035125673500778364
316.0, 0.004890969237352676
317.0, 0.003073180311840769
318.0, 0.008325201735236189
319.0, 0.009923041595167654
320.0, 0.005970491129930648
321.0, 0.010883329791881318
322.0, 0.016880436651911475
323.0, 0.013049986272663548
324.0, 0.017122608172483962
325.0, 0.022123803691861454
326.0, 0.031243642494385798
327.0, 0.030002222370693755
328.0, 0.028663664276092418
329.0, 0.04435991930786019
330.0, 0.04996956696745083
331.0, 0.04315335120515551
332.0, 0.03537492495421615
333.0, 0.030983463202055316
334.0, 0.025870125535152774
335.0, 0.014487900185546283
336.0, 0.01843097765129913
337.0, 0.01260746547876642
338.0, 0.007443116675134438
339.0, 0.010837841966477715
340.0, 0.015631005010485047
341.0, 0.007292104024712065
342.0, 0.017263424835234645
343.0, 0.017133244034506185
344.0, 0.018237401160239867
345.0, 0.020927737383686383
346.0, 0.02286130031560161
347.0, 0.022488116060932505
348.0, 0.03233424747970118
349.0, 0.033133156800276224
350.0, 0.039696352014886485
351.0, 0.044375094100188556
352.0, 0.04293897067685106
353.0, 0.041197553054408066
354.0, 0.044983661185261176
355.0, 0.06328912788847267
356.0, 0.08423075216693925
357.0, 0.1048398299471227
358.0, 0.12383745913666634
359.0, 0.13746236137801565
360.0, 0.11142745439223112
361.0, 0.09942446966630185
362.0, 0.0942827788418847
363.0, 0.08682030161982206
364.0, 0.07450000294923227
365.0, 0.06444425021216592
366.0, 0.06103029022592198
367.0, 0.04423436573896348
368.0, 0.02798142243179054
369.0, 0.0180714066954011
370.0, 0.01545898688367634
371.0, 0.016775579229252945
372.0, 0.012756253534610358
373.0, 0.009617908128158319
374.0, 0.007667565432490885
375.0, 0.009201782833890866
376.0, 0.013541664437617264
377.0, 0.016148648284099013
378.0, 0.019160174854989703
379.0, 0.01066975923506526
380.0, 0.0070719658139906496
381.0, 0.012937999305679572
382.0, 0.019070667940446397
383.0, 0.009202064862331006
384.0, 0.025461028035847134
385.0, 0.029352211008500002
386.0, 0.02825306285466143
387.0, 0.031506791945025724
388.0, 0.03690095153795824
389.0, 0.03153866452207137
390.0, 0.027116240404001277
391.0, 0.02277359669033431
392.0, 0.019862097190532262
393.0, 0.02075465113108055
394.0, 0.02156359370057801
395.0, 0.015319428524009275
396.0, 0.01645439880109047
397.0, 0.020629244809908725
398.0, 0.017032560394236746
399.0, 0.011934007501269203
400.0, 0.008982573682192414
401.0, 0.007078137796881134
402.0, 0.006554302959534229
403.0, 0.012561128379598845
404.0, 0.009903652769213341
405.0, 0.00835049381571195
406.0, 0.007503442830530114
407.0, 0.0024193477043601367
408.0, 0.00970364717004676
409.0, 0.005110560302393168
410.0, 0.012927322288002733
411.0, 0.010642332893291943
412.0, 0.004491765958570267
413.0, 0.012696359797643008
414.0, 0.028311672116948974
415.0, 0.021934648684358897
416.0, 0.013928161964578037
417.0, 0.009908317615615177
418.0, 0.009061531321750407
419.0, 0.00729572436366303
420.0, 0.0008844857624271912
421.0, 0.0012540740530293077
422.0, 0.0004329899230558965
423.0, 0.0008764119435853323
424.0, 0.004104437461927081
425.0, 0.00913422278744
426.0, 0.012059815873678081
427.0, 0.01468969359285059
428.0, 0.012707835631613797
429.0, 0.013793337846204819
430.0, 0.01055810110643948
431.0, 0.003382095494289722
432.0, 0.00457307573133859
433.0, 0.007699008647557401
434.0, 0.012996812956669351
435.0, 0.007090885566425981
436.0, 0.0071381010666073585
437.0, 0.011228109791850831
438.0, 0.004735602925936083
439.0, 0.015830433955767165
440.0, 0.005882244532888813
441.0, 0.005737867034195659
442.0, 0.008118352414288989
443.0, 0.00809081129658137
444.0, 0.005619483141448331
445.0, 0.0033049205588979802
446.0, 0.012822275371090963
447.0, 0.015472007049143139
448.0, 0.023371659308200055
449.0, 0.028797176532437848
450.0, 0.02324846161817053
451.0, 0.013657482510431411
452.0, 0.010670042404564291
453.0, 0.0051430634886026234
454.0, 0.005491011383505986
455.0, 0.010396571920258077
456.0, 0.01273444435875681
457.0, 0.005340162225550556
458.0, 0.0021833271028428467
459.0, 0.001850095881826653
460.0, 0.004723493073496494
461.0, 0.004913940331464847
462.0, 0.004928220628726831
463.0, 0.010112159962804637
464.0, 0.01073013675886084
465.0, 0.011028385619369975
466.0, 0.00391800961369266
467.0, 0.004466751200940165
468.0, 0.007379497664412957
469.0, 0.0050658332206599726
470.0, 0.0060092760943095
471.0, 0.004914320523831155
472.0, 0.0015013776620275317
473.0, 0.0025848690202253362
474.0, 0.004174423989267064
475.0, 0.003768168698349481
476.0, 0.004186112168249385
477.0, 0.007137942928218457
478.0, 0.006908114330526538
479.0, 0.010936478609547589
480.0, 0.008698799411929237
481.0, 0.003984530623965428
482.0, 0.006158340192702732
483.0, 0.006466788954717896
484.0, 0.0018419905525734273
485.0, 0.005235895613743557
486.0, 0.008287790912537658
487.0, 0.011579070791491685
488.0, 0.01636747640847079
489.0, 0.01897772532773586
490.0, 0.01595900566533782
491.0, 0.023358234559166663
492.0, 0.025217818219833276
493.0, 0.021747925503917253
494.0, 0.020951059890547782
495.0, 0.028675479816206727
496.0, 0.02922186679341652
497.0, 0.036902112941178795
498.0, 0.037252427521772845
499.0, 0.03526337367084882
500.0, 0.031018168728710042
501.0, 0.02429712786288511
502.0, 0.019532264091263973
503.0, 0.02406565762831674
504.0, 0.016609249869762945
505.0, 0.013211690900420346
506.0, 0.013632473477059445
507.0, 0.01198086890751855
508.0, 0.005834266804867231
509.0, 0.012995099447664221
510.0, 0.006103420477966888
511.0, 0.0034837948083530777
512.0, 0.0036645599908732645
513.0, 0.004427654435382354
514.0, 0.005071009310551773
515.0, 0.006687565987372147
516.0, 0.002390834685769257
517.0, 0.005841977021556616
518.0, 0.003507625654479726
519.0, 0.0026458579943393766
520.0, 0.007918783806883068
521.0, 0.014933597690593752
522.0, 0.01104540506494347
523.0, 0.010268465539713906
524.0, 0.014239908781725322
525.0, 0.017021262707192866
526.0, 0.012022714831411277
527.0, 0.004215355360283222
528.0, 0.010944085274823358
529.0, 0.005737189803169299
530.0, 0.013321153100649892
531.0, 0.012268515823910482
532.0, 0.017058087255463376
533.0, 0.027639439218566802
534.0, 0.03242754259806897
535.0, 0.031223457285774955
536.0, 0.04297531785679293
537.0, 0.04304254994168055
538.0, 0.03869641020948001
539.0, 0.04187344006360463
540.0, 0.050272491374222926
541.0, 0.046368819914724045
542.0, 0.028239634973925204
543.0, 0.024042384779672753
544.0, 0.010415322507185742
545.0, 0.0046762661459234574
546.0, 0.00997957227914677
547.0, 0.016348206057824503
548.0, 0.011151825838073363
549.0, 0.010465372378770732
550.0, 0.006443768981602828
551.0, 0.007654622754156807
552.0, 0.006006091137141159
553.0, 0.0018919269757723953
554.0, 0.0017503313928660586
555.0, 0.0013545597999605878
556.0, 0.0011802157811340503
557.0, 0.003930802614729124
558.0, 0.002918670832846339
559.0, 0.0007503636328994476
560.0, 0.0008889184433748138
561.0, 0.0037483460784812346
562.0, 0.009193657779255102
563.0, 0.01386632276372544
564.0, 0.014202398705891572
565.0, 0.01480008820822197
566.0, 0.018692816109330167
567.0, 0.020991212925689035
568.0, 0.010801988579972653
569.0, 0.012557263757912208
570.0, 0.00704106664037648
571.0, 0.011019351163307206
572.0, 0.02758213760711687
573.0, 0.04158093406336535
574.0, 0.0438842465445214
575.0, 0.057238438595194216
576.0, 0.05413963989013481
577.0, 0.07966601309133847
578.0, 0.07904972101377455
579.0, 0.07084669458555479
580.0, 0.05761038759272095
581.0, 0.03394889728866745
582.0, 0.045582053817879324
583.0, 0.03593310409491558
584.0, 0.025163365025858524
585.0, 0.014695417307924556
586.0, 0.014951686374957173
587.0, 0.0199842781755209
588.0, 0.014125946275461094
589.0, 0.015636010071326773
590.0, 0.011520338374444652
591.0, 0.006410916631739259
592.0, 0.006585099570670537
593.0, 0.007422384256755529
594.0, 0.004793861988680931
595.0, 0.0015749833115149717
596.0, 0.0062309583482950655
597.0, 0.00435346390032227
598.0, 0.0026803698130334138
599.0, 0.004467054672912396
600.0, 0.007088466727870066
601.0, 0.007547529384286059
602.0, 0.00800429070363818
603.0, 0.02246643307889375
604.0, 0.01388308200307296
605.0, 0.010617531243703912
606.0, 0.009560772344773347
607.0, 0.0071304702899685985
608.0, 0.003679031193704339
609.0, 0.0032983641236567643
610.0, 0.007030939613944052
611.0, 0.004594046981372111
612.0, 0.005331676156472762
613.0, 0.008344712565381333
614.0, 0.011361859934332943
615.0, 0.013367322017641459
616.0, 0.015417725635709598
617.0, 0.017356109064769126
618.0, 0.018079648651866204
619.0, 0.018579239990301404
620.0, 0.020079693319485722
621.0, 0.021864677967866245
622.0, 0.023674547964662743
623.0, 0.026328861629496603
624.0, 0.020949480957899346
625.0, 0.015010029423010732
626.0, 0.023346044817980312
627.0, 0.019436129763747898
628.0, 0.014606696809118847
629.0, 0.017541734706574028
630.0, 0.0053041627770475
631.0, 0.002998456760901591
632.0, 0.011493696135888026
633.0, 0.0067749152837293675
634.0, 0.004177208706301787
635.0, 0.0064379177816719126
636.0, 0.0069020588951895665
637.0, 0.0012472993101769903
638.0, 0.004388787440575047
639.0, 0.013353466635341722
640.0, 0.011863262497100138
641.0, 0.018989275075200308
642.0, 0.020154513499345283
643.0, 0.009156629528486919
644.0, 0.008093012890666815
645.0, 0.016367683570744883
646.0, 0.006400479254583699
647.0, 0.00765762886120789
648.0, 0.01087892097307275
649.0, 0.008338194023740145
650.0, 0.005716048068259831
651.0, 0.013110034989861807
652.0, 0.006993207473890358
653.0, 0.005875796730692877
654.0, 0.0058150702302370485
655.0, 0.0052306083753299246
656.0, 0.004536069115618236
657.0, 0.0032771402373658618
658.0, 0.0025234173934138384
659.0, 0.011103034269320328
660.0, 0.0014648727464600855
661.0, 0.0025413091151279634
662.0, 0.008320256799218467
663.0, 0.010316637230320053
664.0, 0.006337665459336437
665.0, 0.004054376250541426
666.0, 0.017013549180660687
667.0, 0.01656148916675731
668.0, 0.0135904614833201
669.0, 0.005776181107501772
670.0, 0.008669859513728562
671.0, 0.012990838186284508
672.0, 0.006269991775757127
673.0, 0.0010986445529209128
674.0, 0.007262169266971271
675.0, 0.016666270946557385
676.0, 0.02589546525370946
677.0, 0.026535178292897015
678.0, 0.027931095328581245
679.0, 0.034444080991329784
680.0, 0.035467173553538574
681.0, 0.03343607332297183
682.0, 0.04192067035552536
683.0, 0.04606146729423738
684.0, 0.05319433692024809
685.0, 0.061800302913446487
686.0, 0.06963035461062997
687.0, 0.07557603580238723
688.0, 0.07595855416828448
689.0, 0.08947140102483121
690.0, 0.10742811027268385
691.0, 0.11097819974090649
692.0, 0.11576807626997726
693.0, 0.1261887596157422
694.0, 0.13231605267054897
695.0, 0.1250611227787767
696.0, 0.11794908592110093
697.0, 0.11138323685926121
698.0, 0.10002163886822853
699.0, 0.0989687843143985
700.0, 0.09489401268718256
701.0, 0.08091050377773769
702.0, 0.0744098759272178
703.0, 0.0892052068200697
704.0, 0.08999697229143515
705.0, 0.07279342211922663
706.0, 0.07504500243195036
707.0, 0.08256571046952996
708.0, 0.08066727655075956
709.0, 0.07182676377123025
710.0, 0.0684704032614381
711.0, 0.07572383299620133
712.0, 0.06919396150088014
713.0, 0.06401863808406306
714.0, 0.06253679268544707
715.0, 0.05673442340523925
716.0, 0.04688044774625312
717.0, 0.04447367821456827
718.0, 0.04046745648235561
719.0, 0.04696351661009847
720.0, 0.051905087932015266
721.0, 0.04669032478323446
722.0, 0.04929502586505909
723.0, 0.05782235398078317
724.0, 0.05892664926738685
725.0, 0.0591165485387361
726.0, 0.042802126354143905
727.0, 0.05008988650735399
728.0, 0.04102490427394764
729.0, 0.03495584450697712
730.0, 0.03416030553651244
731.0, 0.030992768415938544
732.0, 0.023031584368966754
733.0, 0.019091446938359215
734.0, 0.0197777019524108
735.0, 0.013909344196680707
736.0, 0.01166503639793095
737.0, 0.00876289129978668
738.0, 0.006569068366145744
739.0, 0.008404171394375527
740.0, 0.010617832001295253
741.0, 0.010757776703184514
742.0, 0.01013020816964897
743.0, 0.010238716684670834
744.0, 0.012096979584969976
745.0, 0.017762240983951214
746.0, 0.0229214969932614
747.0, 0.023510260198381212
748.0, 0.029295105513470296
749.0, 0.03709580783989149
750.0, 0.037769543017069085
751.0, 0.0467887988509071
752.0, 0.04994169097001112
753.0, 0.05432122854464606
754.0, 0.05881988543996571
755.0, 0.04878139583590116
756.0, 0.04395709120699304
757.0, 0.04921628171220801
758.0, 0.05352655569610796
759.0, 0.06661753917518022
760.0, 0.0690256083880722
761.0, 0.06549969185955609
762.0, 0.06740966780808742
763.0, 0.06755199790164433
764.0, 0.057173093288754244
765.0, 0.06550306427425333
766.0, 0.06040501222739579
767.0, 0.054830905825392046
768.0, 0.05446351074225884
769.0, 0.055882368910646366
770.0, 0.05483237913147037
771.0, 0.05434391834429857
772.0, 0.05656302508900952
773.0, 0.056850641183974544
774.0, 0.047951578246721645
775.0, 0.037905393577845205
776.0, 0.0345388127045337
777.0, 0.029684189890500853
778.0, 0.017650505993687986
779.0, 0.01802402164932842
780.0, 0.01616373620596329
781.0, 0.012660889118347916
782.0, 0.009180529196621157
783.0, 0.00771313175765148
784.0, 0.010601974237950371
785.0, 0.013944396181985523
786.0, 0.014704979794176771
787.0, 0.020098969022582153
788.0, 0.008433517247193769
789.0, 0.01639004465116801
790.0, 0.005561456173875618
791.0, 0.01189168727282375
792.0, 0.01621079190737726
793.0, 0.010145263540387724
794.0, 0.007953711673097733
795.0, 0.004170810261553111
796.0, 0.008813806633006255
797.0, 0.008139844746243435
798.0, 0.01069801502015686
799.0, 0.009057398883173107
800.0, 0.012350220340015948
801.0, 0.017280922111064835
802.0, 0.012648892617002342
803.0, 0.007989084340865966
804.0, 0.012967028101481214
805.0, 0.011801953251625502
806.0, 0.010406657812336564
807.0, 0.01254730550519528
808.0, 0.01440029126376226
809.0, 0.012855696680953484
810.0, 0.01338402238585265
811.0, 0.026444969599104987
812.0, 0.025862423282796965
813.0, 0.012940474089257576
814.0, 0.024356530876290437
815.0, 0.021542359505809856
816.0, 0.013806719831948894
817.0, 0.015463577101553444
818.0, 0.02130195021996171
819.0, 0.01496148944101718
820.0, 0.011378834645511204
821.0, 0.019142640439727934
822.0, 0.011901779963967036
823.0, 0.007279269147460877
824.0, 0.003454822048676278
825.0, 0.004106292554917679
826.0, 0.010178163031016242
827.0, 0.012324813764287465
828.0, 0.01797096617631568
829.0, 0.01579259118467883
830.0, 0.00900140943646593
831.0, 0.014806721959580525
832.0, 0.009532671826272605
833.0, 0.0028653258245322855
834.0, 0.0040552480014118516
835.0, 0.0015004661371889106
836.0, 0.0035907212462155066
837.0, 0.002973939989735925
838.0, 0.0014969421333627321
839.0, 0.008455788089873037
840.0, 0.010888922134047683
841.0, 0.014153115832550953
842.0, 0.017275321156308684
843.0, 0.015549953339252947
844.0, 0.021012649369371757
845.0, 0.0071227557945956
846.0, 0.011363633808143338
847.0, 0.024444887576165076
848.0, 0.018782864434587265
849.0, 0.018007810441545917
850.0, 0.023482162951360123
851.0, 0.020970034158938798
852.0, 0.015605375444684483
853.0, 0.016067176087488103
854.0, 0.024358491298989475
855.0, 0.034030312249883427
856.0, 0.02890763225647301
857.0, 0.018728904334638696
858.0, 0.012480939210456643
859.0, 0.009853412687846237
860.0, 0.007603124430758355
861.0, 0.010543381319523213
862.0, 0.007797445476370843
863.0, 0.011703074986603591
864.0, 0.01437193924311761
865.0, 0.010269754894966053
866.0, 0.010599057958125843
867.0, 0.011632555229621411
868.0, 0.010183413795374078
869.0, 0.01785637829525896
870.0, 0.009563234675782748
871.0, 0.014524278507845462
872.0, 0.006353172474149758
873.0, 0.011166069269775251
874.0, 0.011022196880276447
875.0, 0.005471814651304258
876.0, 0.005546713130051943
877.0, 0.010986516624133118
878.0, 0.004188298442991327
879.0, 0.0034437894719358724
880.0, 0.0160772618463242
881.0, 0.015901197165634925
882.0, 0.01420136170926138
883.0, 0.01076807427734198
884.0, 0.009484746977874447
885.0, 0.009336308383626823
886.0, 0.006131609671235559
887.0, 0.018880267635262713
888.0, 0.006119565057124564
889.0, 0.005022150228102122
890.0, 0.005963437210953767
891.0, 0.00821743293100598
892.0, 0.004940227107560004
893.0, 0.0033116724450894036
894.0, 0.006810035092954903
895.0, 0.0019674102555414285
896.0, 0.010810767367969824
897.0, 0.007314467617154212
898.0, 0.00726382392527803
899.0, 0.01032666582802749
900.0, 0.008367339387864806
901.0, 0.0038242799046806766
902.0, 0.0015814260545345149
903.0, 0.002800132584826748
904.0, 0.005222901921745435
905.0, 0.0011983179736327633
906.0, 0.0066120058505006254
907.0, 0.006526957399909269
908.0, 0.003306664578663167
909.0, 0.005398366441819052
910.0, 0.006366778932877008
911.0, 0.007823693910813759
912.0, 0.012718773327771181
913.0, 0.0026547252414665283
914.0, 0.0011146363424094355
915.0, 0.012738604264482655
916.0, 0.009429328092862694
917.0, 0.004384845158742563
918.0, 0.00748318733024043
919.0, 0.008964409735255424
920.0, 0.004995295889639833
921.0, 0.007403021963500134
922.0, 0.020343478984286695
923.0, 0.012105116342573628
924.0, 0.00822419594628901
925.0, 0.012076338207496824
926.0, 0.010736173816994014
927.0, 0.013826253344788595
928.0, 0.014818657822269292
929.0, 0.01015471325334636
930.0, 0.007621571922308638
931.0, 0.009505162175277143
932.0, 0.01337763490319237
933.0, 0.015492964893801779
934.0, 0.0042488434467846765
935.0, 0.015045600213224151
936.0, 0.017336293225267016
937.0, 0.007893568166235003
938.0, 0.005495065771620654
939.0, 0.014412394850424316
940.0, 0.01394309065005161
941.0, 0.012758613949526865
942.0, 0.02372776574086957
943.0, 0.014762718940076875
944.0, 0.01094967348503212
945.0, 0.025256877600981713
946.0, 0.036575833901203086
947.0, 0.03775008845879639
948.0, 0.03776233166479084
949.0, 0.037159784250829185
950.0, 0.03819237734582765
951.0, 0.028310049996959387
952.0, 0.033846937123347416
953.0, 0.027426553033251467
954.0, 0.02393217775575518
955.0, 0.01855097225469398
956.0, 0.015241553652721309
957.0, 0.018272262860453754
958.0, 0.019213700615566126
959.0, 0.014088145601359034
960.0, 0.012828186729353182
961.0, 0.02261411459435772
962.0, 0.026578389126390035
963.0, 0.019990993932057485
964.0, 0.011421404724921475
965.0, 0.013966948987462605
966.0, 0.01881569832795953
967.0, 0.010289606115478515
968.0, 0.0033472914599323228
969.0, 0.015198855117843689
970.0, 0.016363262353661756
971.0, 0.020046910244802603
972.0, 0.029864626548558166
973.0, 0.026838550682914172
974.0, 0.024880864815516372
975.0, 0.030949767447824978
976.0, 0.03507668851668256
977.0, 0.034256585121196455
978.0, 0.046726605621533475
979.0, 0.05256527865120814
980.0, 0.07045363401251195
981.0, 0.07177026609374525
982.0, 0.08679570695463817
983.0, 0.10428483447974472
984.0, 0.12504932329404933
985.0, 0.13838340212278769
986.0, 0.14165789776927415
987.0, 0.1629119823325179
988.0, 0.15714237193735434
989.0, 0.13319561438145944
990.0, 0.11715303928587364
991.0, 0.10678050537692954
992.0, 0.08989729808371526
993.0, 0.07667274120303588
994.0, 0.06529968005745329
995.0, 0.05210790451827286
996.0, 0.04166830260780938
997.0, 0.03406163348426696
998.0, 0.03861203614311295
999.0, 0.02750676321046611
1000.0, 0.0318585272142798
1001.0, 0.02952895822892276
1002.0, 0.024998318000436986
1003.0, 0.02307354679530433
1004.0, 0.021012203989877683
1005.0, 0.01736727803091828
1006.0, 0.015542386164295414
1007.0, 0.013120691834921362
1008.0, 0.008611377491461089
1009.0, 0.01127091391578968
1010.0, 0.01179370814954285
1011.0, 0.006929668826309823
1012.0, 0.009204869217106998
1013.0, 0.009887984999888416
1014.0, 0.009075183173422331
1015.0, 0.012430749483362149
1016.0, 0.01759395376641755
1017.0, 0.02594609233510736
1018.0, 0.02058118219940013
1019.0, 0.014319175715067647
1020.0, 0.024042089928623556
1021.0, 0.02486255932450698
1022.0, 0.016414040613090507
1023.0, 0.011209005683453543
1024.0, 0.0104273078741483
1025.0, 0.009383489804036112
1026.0, 0.01113333800186437
1027.0, 0.016770503338141896
1028.0, 0.0027214045134304945
1029.0, 0.014704964948768065
1030.0, 0.029036162249990994
1031.0, 0.01804768298232018
1032.0, 0.01670190443314049
1033.0, 0.0148609647131175
1034.0, 0.01110688296032026
1035.0, 0.008756319862496793
1036.0, 0.0024111931296709487
1037.0, 0.0018271047466936869
1038.0, 0.005061049698777834
1039.0, 0.017161057995281163
1040.0, 0.013026383653455762
1041.0, 0.013514310661099043
1042.0, 0.016860401129993426
1043.0, 0.01900375395802404
1044.0, 0.019971352376180272
1045.0, 0.019234767189674915
1046.0, 0.018507036158986183
1047.0, 0.020842036636428665
1048.0, 0.006847407794263585
1049.0, 0.009108355218686958
1050.0, 0.012211455281166867
1051.0, 0.011057944669036557
1052.0, 0.011136701279308329
1053.0, 0.005693246873235264
1054.0, 0.006707798081167339
1055.0, 0.013223534551849627
1056.0, 0.017268054672106334
1057.0, 0.023987372849744355
1058.0, 0.029978227846475195
1059.0, 0.024060364239881844
1060.0, 0.014580665613669646
1061.0, 0.008362573488539589
1062.0, 0.01368105590184241
1063.0, 0.017951914210395045
1064.0, 0.015751993502394427
1065.0, 0.012767387089160266
1066.0, 0.014656708730404613
1067.0, 0.024062676623664438
1068.0, 0.0394432095177377
1069.0, 0.03813360893786217
1070.0, 0.034534957108072264
1071.0, 0.046875413647292
1072.0, 0.0418785960375553
1073.0, 0.03725421450688938
1074.0, 0.02937598035301421
1075.0, 0.029872197345036506
1076.0, 0.03400853628545443
1077.0, 0.038377907360745304
1078.0, 0.044458372794138216
1079.0, 0.03041493837395617
1080.0, 0.027718736546852193
1081.0, 0.043118702543717594
1082.0, 0.043634890805488484
1083.0, 0.03961374579837749
1084.0, 0.04647146226249883
1085.0, 0.04833491838444462
1086.0, 0.04164541511836003
1087.0, 0.0346338567486239
1088.0, 0.030446251647426707
1089.0, 0.026706475815856588
1090.0, 0.027541678679711058
1091.0, 0.026881415789517846
1092.0, 0.028308425065024338
1093.0, 0.02997238863639226
1094.0, 0.034442513288120355
1095.0, 0.03772240222642799
1096.0, 0.04215440920975554
1097.0, 0.03633103358063138
1098.0, 0.02792529514724894
1099.0, 0.029897159632652603
1100.0, 0.031927557234185416
1101.0, 0.02315452980040401
1102.0, 0.023075057522387907
1103.0, 0.015984421935417194
1104.0, 0.01843971512190222
1105.0, 0.01674984981428119
1106.0, 0.01007401368163342
1107.0, 0.011457406022095927
1108.0, 0.02087942320940495
1109.0, 0.021204493705032256
1110.0, 0.016613205777476554
1111.0, 0.021515984372571597
1112.0, 0.01444279092338047
1113.0, 0.008282336031264019
1114.0, 0.011248608381193776
1115.0, 0.0032500854421217544
1116.0, 0.00551548895626595
1117.0, 0.014446975469947557
1118.0, 0.01888733543185077
1119.0, 0.014459875367668113
1120.0, 0.014642809665513462
1121.0, 0.02478500554858757
1122.0, 0.03564203032379919
1123.0, 0.03903737762448367
1124.0, 0.02604563437840648
1125.0, 0.029381623142361573
1126.0, 0.025131922421509034
1127.0, 0.010303442283390946
1128.0, 0.013971495875281056
1129.0, 0.005398100148423601
1130.0, 0.0037027833092784746
1131.0, 0.015556282714841538
1132.0, 0.01449350487748749
1133.0, 0.0059801725322842
1134.0, 0.01845851441999965
1135.0, 0.01988760464844248
1136.0, 0.016394517396550453
1137.0, 0.013924467150107235
1138.0, 0.012611955522801917
1139.0, 0.004207168549067315
1140.0, 0.007042877041753701
1141.0, 0.008362966195671827
1142.0, 0.00960756815404638
1143.0, 0.007637657171206724
1144.0, 0.007267632419299493
1145.0, 0.009128668501432662
1146.0, 0.0033506889785107183
1147.0, 0.0037276413524875273
1148.0, 0.011353885745646719
1149.0, 0.017603425192015465
1150.0, 0.015936730516599766
1151.0, 0.009352831878407271
1152.0, 0.007326224156375654
1153.0, 0.005015892718934607
1154.0, 0.004614924688885801
1155.0, 0.0040926860314335215
1156.0, 0.001914566573321736
1157.0, 0.0028515920693508966
1158.0, 0.0074034325573600285
1159.0, 0.006108672755470057
1160.0, 0.012840890365552544
1161.0, 0.01492667905583709
1162.0, 0.005647504715359137
1163.0, 0.01887545965472534
1164.0, 0.012580842629593301
1165.0, 0.010236523626721419
1166.0, 0.013786390980246793
1167.0, 0.015320387057818604
1168.0, 0.018570171500532476
1169.0, 0.02102265421757311
1170.0, 0.012931633466063568
1171.0, 0.008604837891732203
1172.0, 0.010176799979649452
1173.0, 0.023602730343806805
1174.0, 0.017400672916669083
1175.0, 0.00394103721891244
1176.0, 0.0118066284566829
1177.0, 0.012305945891772033
1178.0, 0.014274607314718614
1179.0, 0.016413711947499347
1180.0, 0.013285686890153671
1181.0, 0.008612420226990193
1182.0, 0.007189656307120646
1183.0, 0.007634718805217288
1184.0, 0.010049115141586197
1185.0, 0.0033064954839517923
1186.0, 0.016211971790986386
1187.0, 0.01660963588789025
1188.0, 0.023497460922137985
1189.0, 0.023642199786496763
1190.0, 0.019376619093063256
1191.0, 0.016019234397344467
1192.0, 0.013986231332248158
1193.0, 0.01090791031670847
1194.0, 0.006540349721491447
1195.0, 0.006021674969347502
1196.0, 0.012604284394828441
1197.0, 0.01028343022651828
1198.0, 0.0006249793870317768
1199.0, 0.00296906614094895
1200.0, 0.004100675846038702
1201.0, 0.003054401716370565
1202.0, 0.0034655540923541122
1203.0, 0.012047919450662725
1204.0, 0.013997260239552218
1205.0, 0.014716364187860848
1206.0, 0.018193128253636132
1207.0, 0.01930981174141863
1208.0, 0.018505230944641588
1209.0, 0.016828536210586706
1210.0, 0.025784716624880934
1211.0, 0.010811240924299255
1212.0, 0.019246466976131492
1213.0, 0.01890532740032551
1214.0, 0.008720879716898255
1215.0, 0.022490814154094357
1216.0, 0.02940485566094782
1217.0, 0.02608826882535138
1218.0, 0.01628510124824204
1219.0, 0.0087432433607924
1220.0, 0.0064388235080550405
1221.0, 0.003678441816827286
1222.0, 0.003593112281435685
1223.0, 0.003724526984821672
1224.0, 0.006491308150224397
1225.0, 0.010952856355458862
1226.0, 0.014536543313679151
1227.0, 0.014836822305717956
1228.0, 0.0159237031480166
1229.0, 0.017620957755765904
1230.0, 0.015692714198284014
1231.0, 0.01727337508960775
1232.0, 0.018818757681061962
1233.0, 0.019687337433779824
1234.0, 0.020571830965821387
1235.0, 0.014469714883626902
1236.0, 0.012748891720329203
1237.0, 0.016352017223461135
1238.0, 0.008802775606872027
1239.0, 0.012564163698137116
1240.0, 0.010882312843459875
1241.0, 0.015350133986614611
1242.0, 0.019577869649333567
1243.0, 0.024241141475109047
1244.0, 0.02820646115225996
1245.0, 0.03232606958018572
1246.0, 0.03398556642801585
1247.0, 0.029089773679909052
1248.0, 0.020832091812771507
1249.0, 0.01988980284152767
1250.0, 0.024574112956597463
1251.0, 0.004743345585727013
1252.0, 0.01647999184891414
1253.0, 0.003071471473910306
1254.0, 0.020083403733985965
1255.0, 0.027612625785112917
1256.0, 0.02654734405718319
1257.0, 0.02892172836843348
1258.0, 0.03031903152044867
1259.0, 0.030662432066020564
1260.0, 0.02664031407896623
1261.0, 0.019472333002237965
1262.0, 0.015528573951378064
1263.0, 0.012227118290923869
1264.0, 0.008094437646348216
1265.0, 0.018438002227025005
1266.0, 0.029058543359046632
1267.0, 0.025055328245408577
1268.0, 0.02248006451173135
1269.0, 0.019699155127135874
1270.0, 0.012184727545963192
1271.0, 0.028705973146868034
1272.0, 0.022528340457191032
1273.0, 0.02125741129895677
1274.0, 0.018311172099085993
1275.0, 0.00874116668866512
1276.0, 0.004990699017230924
1277.0, 0.005401153229120696
1278.0, 0.008926587333727616
1279.0, 0.012248141121196942
1280.0, 0.014552687343511275
1281.0, 0.015472148405152807
1282.0, 0.019006045178207122
1283.0, 0.015677473615657366
1284.0, 0.015973983563120773
1285.0, 0.010610279010497528
1286.0, 0.012269260542581348
1287.0, 0.012051676808952002
1288.0, 0.011126455104182727
1289.0, 0.010471004940658475
1290.0, 0.016324829719788048
1291.0, 0.016973046004959285
1292.0, 0.008631081420043249
1293.0, 0.019745113532401833
1294.0, 0.031505396629317436
1295.0, 0.029295898083211147
1296.0, 0.03790661749714809
1297.0, 0.02910213910932065
1298.0, 0.032317107238437656
1299.0, 0.028100646082940276
1300.0, 0.03245961819336541
1301.0, 0.02921699013189421
1302.0, 0.023935527356622105
1303.0, 0.022286316671642117
1304.0, 0.02614174825727821
1305.0, 0.019627657445209522
1306.0, 0.014368195000093549
1307.0, 0.024855400326597332
1308.0, 0.029459183086261272
1309.0, 0.02785695154094926
1310.0, 0.03684518986223282
1311.0, 0.03885716384749008
1312.0, 0.03312187153238897
1313.0, 0.04296150294599943
1314.0, 0.03529364520730296
1315.0, 0.02077540689357353
1316.0, 0.01920722820886841
1317.0, 0.030311147031439247
1318.0, 0.020587474367232857
1319.0, 0.017441688531266625
1320.0, 0.033286979227976424
1321.0, 0.03156673360052232
1322.0, 0.02498249066751038
1323.0, 0.039619516659393686
1324.0, 0.04175385195939774
1325.0, 0.0244282024953156
1326.0, 0.016810104846258476
1327.0, 0.012098190160670068
1328.0, 0.017176230076675673
1329.0, 0.027899572736651782
1330.0, 0.020185288804404556
1331.0, 0.030274592087084554
1332.0, 0.03293287610607263
1333.0, 0.03791373490349745
1334.0, 0.041537241148871876
1335.0, 0.036252475874714044
1336.0, 0.028758337545458493
1337.0, 0.022160168321213487
1338.0, 0.01709864157151704
1339.0, 0.01334306992844879
1340.0, 0.011971197067811105
1341.0, 0.013255219359819688
1342.0, 0.01225211955241679
1343.0, 0.020543063846983473
1344.0, 0.029548982738645823
1345.0, 0.01810214866181105
1346.0, 0.02006502165357682
1347.0, 0.02382598642695428
1348.0, 0.0160447783941331
1349.0, 0.03203848036800272
1350.0, 0.03488823744777815
1351.0, 0.03416061596837553
1352.0, 0.03572065153532702
1353.0, 0.0348685679567302
1354.0, 0.026455876486584595
1355.0, 0.024406863294911176
1356.0, 0.026488022869544735
1357.0, 0.023434533008922506
1358.0, 0.0240460752177632
1359.0, 0.02560068626969693
1360.0, 0.027479474876394846
1361.0, 0.02875222557045468
1362.0, 0.029571021058776487
1363.0, 0.030712432119555697
1364.0, 0.030671455071353344
1365.0, 0.02958786158873409
1366.0, 0.029798396729123152
1367.0, 0.0236939277674812
1368.0, 0.026184468541541224
1369.0, 0.011036704385833183
1370.0, 0.0018320931847211883
1371.0, 0.01027624539534277
1372.0, 0.023046880628007627
1373.0, 0.02643744853453673
1374.0, 0.02206577220688377
1375.0, 0.024360944190750456
1376.0, 0.02888811572417568
1377.0, 0.020437337720304555
1378.0, 0.026847036807851072
1379.0, 0.03939127302984982
1380.0, 0.025803396145971873
1381.0, 0.03128971486788248
1382.0, 0.024528583625753567
1383.0, 0.017075013034713368
1384.0, 0.011538031211605088
1385.0, 0.026681661003241576
1386.0, 0.01740813346008381
1387.0, 0.008314122806577494
1388.0, 0.026851391783072893
1389.0, 0.017493954436894114
1390.0, 0.012504147952734483
1391.0, 0.012931682902023869
1392.0, 0.018308925335673708
1393.0, 0.017961075573281967
1394.0, 0.01086714516834582
1395.0, 0.01616121260473324
1396.0, 0.0077107468317974374
1397.0, 0.0027092804728543482
1398.0, 0.009514184929974606
1399.0, 0.015586877595771403
1400.0, 0.007039505195516365
1401.0, 0.007940810325847985
1402.0, 0.03622880712961242
1403.0, 0.01970776860509689
1404.0, 0.021072730435244814
1405.0, 0.008080787886113506
1406.0, 0.0017034462230735294
1407.0, 0.0036624119326363128
1408.0, 0.0028590701949659887
1409.0, 0.009253014800625434
1410.0, 0.013882525192485933
1411.0, 0.01427484775098324
1412.0, 0.009938208361832809
1413.0, 0.0057787661974902415
1414.0, 0.013917842619682201
1415.0, 0.02132418706342474
1416.0, 0.01298800918689738
1417.0, 0.01559915388436196
1418.0, 0.019885311310764743
1419.0, 0.005700723876975417
1420.0, 0.01718338273744528
1421.0, 0.012334388469118676
1422.0, 0.006528975212271165
1423.0, 0.003559756787118301
1424.0, 0.0013321574254450798
1425.0, 0.015870734849884275
1426.0, 0.013831315624179313
1427.0, 0.009425462135242473
1428.0, 0.01643945898644062
1429.0, 0.015119997478559686
1430.0, 0.018871722866525335
1431.0, 0.019832835023227805
1432.0, 0.020328379426814307
1433.0, 0.024628517469312824
1434.0, 0.021506780878930345
1435.0, 0.014653085113474882
1436.0, 0.016944081390268602
1437.0, 0.019205995394545167
1438.0, 0.013446934054154897
1439.0, 0.012672441134273196
1440.0, 0.028445427843218754
1441.0, 0.035136049999895586
1442.0, 0.034510112526526214
1443.0, 0.034672604634430323
1444.0, 0.04406234823602488
1445.0, 0.05004144155012479
1446.0, 0.04246161251771941
1447.0, 0.04066659965490566
1448.0, 0.0376706422562729
1449.0, 0.02966247149404648
1450.0, 0.023507790653438762
1451.0, 0.026018292183873564
1452.0, 0.025788055871819662
1453.0, 0.03768491276040936
1454.0, 0.044279182830829496
1455.0, 0.040805397907729975
1456.0, 0.04710562626399483
1457.0, 0.04931970699187712
1458.0, 0.039929584902651805
1459.0, 0.03888857726257203
1460.0, 0.03336050119412089
1461.0, 0.023387136650350693
1462.0, 0.02986531296775645
1463.0, 0.018787578426833547
1464.0, 0.022895843845698458
1465.0, 0.027270342502438306
1466.0, 0.01656686938761004
1467.0, 0.03179554595130997
1468.0, 0.026702513296267504
1469.0, 0.01947740304478902
1470.0, 0.03323323642175767
1471.0, 0.01949305078908913
1472.0, 0.030043469741068345
1473.0, 0.0415094842494175
1474.0, 0.02937848500710033
1475.0, 0.023985043827292423
1476.0, 0.02231661180192884
1477.0, 0.024390124952997982
1478.0, 0.014063455903772547
1479.0, 0.020967423005531238
1480.0, 0.026340549830149707
1481.0, 0.02350086214520305
1482.0, 0.03464249103144621
1483.0, 0.03476047204383273
1484.0, 0.02237191198863423
1485.0, 0.0223232039320956
1486.0, 0.01780053145271883
1487.0, 0.014913356396797355
1488.0, 0.012772382897883587
1489.0, 0.007443547190569039
1490.0, 0.007051516872128751
1491.0, 0.0013396316920275817
1492.0, 0.0058420932356096755
1493.0, 0.011963573253584298
1494.0, 0.009375961439963186
1495.0, 0.005677517184721563
1496.0, 0.03383864506266528
1497.0, 0.026396928544416404
1498.0, 0.015928880298073864
1499.0, 0.01667753842911385
1500.0, 0.004359444509680742
1501.0, 0.0006734456763152062
1502.0, 0.0032388103049366132
1503.0, 0.005210318971710767
1504.0, 0.008984504186137447
1505.0, 0.01680079469775334
1506.0, 0.022382413520536354
1507.0, 0.01602882377210456
1508.0, 0.016151056072210283
1509.0, 0.02841415621317232
1510.0, 0.020199800244934295
1511.0, 0.012946097135245617
1512.0, 0.025769352324515337
1513.0, 0.011443519797253098
1514.0, 0.007659268957575758
1515.0, 0.0037589957630627074
1516.0, 0.007916630257828744
1517.0, 0.009629968843700635
1518.0, 0.008448064328768127
1519.0, 0.008529221999097229
1520.0, 0.008348766747465845
1521.0, 0.01082701862924601
1522.0, 0.02227451173662111
1523.0, 0.015515742003556099
1524.0, 0.026011224244549467
1525.0, 0.029183089241189796
1526.0, 0.004311611031441875
1527.0, 0.014166234255497678
1528.0, 0.020122732327825067
1529.0, 0.005424880684323615
1530.0, 0.007106536553074893
1531.0, 0.02158947009164136
1532.0, 0.017035035110706243
1533.0, 0.008468210878126232
1534.0, 0.02033896472777969
1535.0, 0.015109025090665654
1536.0, 0.01685970919973963
1537.0, 0.0298545561181113
1538.0, 0.03168715698679059
1539.0, 0.025808989153571438
1540.0, 0.023671439782899522
1541.0, 0.01898347745999999
1542.0, 0.011560038126260986
1543.0, 0.012980315938984808
1544.0, 0.0074505759348581614
1545.0, 0.007248661496191228
1546.0, 0.021615171494351416
1547.0, 0.021704986029125052
1548.0, 0.030802251789706418
1549.0, 0.017224881530399937
1550.0, 0.019910817821515558
1551.0, 0.040521134595253076
1552.0, 0.02905782835372829
1553.0, 0.030473811397415344
1554.0, 0.025462407114619022
1555.0, 0.008200747973916473
1556.0, 0.010207841485832923
1557.0, 0.012260221392860239
1558.0, 0.014539622331829507
1559.0, 0.024189378234884665
1560.0, 0.021406159223991705
1561.0, 0.02901253577243788
1562.0, 0.020086008756969333
1563.0, 0.034961069907159484
1564.0, 0.02912889895134768
1565.0, 0.02417075673936772
1566.0, 0.02354023026967878
1567.0, 0.01301471010248199
1568.0, 0.0029004869143882195
1569.0, 0.020140513906769734
1570.0, 0.011776691441410532
1571.0, 0.0016676066737767664
1572.0, 0.001068794846599368
1573, 0.0
1574, 0.0
1575, 0.0
1576, 0.0
1577, 0.0
1578, 0.0
1579, 0.0
1580, 0.0
1581, 0.0
1582, 0.0
1583, 0.0
1584, 0.0
1585, 0.0
1586, 0.0
1587, 0.0
1588, 0.0
1589, 0.0
1590, 0.0
1591, 0.0
1592, 0.0
1593, 0.0
1594, 0.0
1595, 0.0
1596, 0.0
1597, 0.0
1598, 0.0
1599, 0.0
