30, 0.0
31, 0.0
32, 0.0
33, 0.0
34, 0.0
35, 0.0
36, 0.0
37, 0.0
38, 0.0
39, 0.0
40, 0.0
41, 0.0
42, 0.0
43, 0.0
44, 0.0
45, 0.0
46, 0.0
47, 0.0
48, 0.0
49, 0.0
50, 0.0
51, 0.0
52, 0.0
53, 0.0
54, 0.0
55, 0.0
56, 0.0
57, 0.0
58, 0.0
59, 0.0
60, 0.0
61, 0.0
62, 0.0
63, 0.0
64, 0.0
65, 0.0
66, 0.0
67, 0.0
68, 0.0
69, 0.0
70, 0.0
71, 0.0
72, 0.0
73, 0.0
74, 0.0
75, 0.0
76, 0.0
77, 0.0
78, 0.0
79, 0.0
80, 0.0
81, 0.0
82, 0.0
83, 0.0
84, 0.0
85, 0.0
86, 0.0
87, 0.0
88, 0.0
89, 0.0
90, 0.0
91, 0.0
92, 0.0
93, 0.0
94, 0.0
95, 0.0
96, 0.0
97, 0.0
98, 0.0
99, 0.0
100, 0.0
101, 0.0
102, 0.0
103, 0.0
104, 0.0
105, 0.0
106, 0.0
107, 0.0
108, 0.0
109, 0.0
110, 0.0
111, 0.0
112, 0.0
113, 0.0
114, 0.0
115, 0.0
116, 0.0
117, 0.0
118, 0.0
119, 0.0
120, 0.0
121, 0.0
122, 0.0
123, 0.0
124, 0.0
125, 0.0
126, 0.0
127, 0.0
128, 0.0
129, 0.0
130, 0.0
131, 0.0
132, 0.0
133, 0.0
134, 0.0
135, 0.0
136, 0.0
137, 0.0
138, 0.0
139, 0.0
140, 0.0
141, 0.0
142, 0.0
143, 0.0
144, 0.0
145, 0.0
146, 0.0
147, 0.0
148, 0.0
149, 0.0
150, 0.0
151, 0.0
152, 0.0
153, 0.0
154, 0.0
155, 0.0
156, 0.0
157, 0.0
158, 0.0
159, 0.0
160, 0.0
161, 0.0
162, 0.0
163, 0.0
164, 0.0
165, 0.0
166, 0.0
167, 0.0
168, 0.0
169, 0.0
170, 0.0
171, 0.0
172, 0.0
173.0, 0.021896712188110838
174.0, 0.0693014473085013
175.0, 0.11210380116229834
176.0, 0.11966096969335424
177.0, 0.09719716303629018
178.0, 0.06622804088695468
179.0, 0.04184729954445198
180.0, 0.024848294852370563
181.0, 0.00464964574584417
182.0, 0.005317536727304515
183.0, 0.0012420957354453309
184.0, 0.013957235468072864
185.0, 0.0439356038829232
186.0, 0.03953628063351939
187.0, 0.043553628891542115
188.0, 0.07237492061662618
189.0, 0.08472503742269362
190.0, 0.09459395160497798
191.0, 0.09868320714533864
192.0, 0.09967755354157344
193.0, 0.10027348841486582
194.0, 0.08727860354064246
195.0, 0.08554529476059688
196.0, 0.104664750818344
197.0, 0.13584759949918734
198.0, 0.14530165761311778
199.0, 0.1327655072769915
200.0, 0.14505557163969504
201.0, 0.17101570108817638
202.0, 0.17341433359690128
203.0, 0.14549259688817986
204.0, 0.15038346362948024
205.0, 0.15323575345364174
206.0, 0.11839767040493453
207.0, 0.058612976964852126
208.0, 0.045518193204833246
209.0, 0.052974280287417554
210.0, 0.048995042592324366
211.0, 0.030764351781894246
212.0, 0.020928273492507077
213.0, 0.021248952130421623
214.0, 0.008663279226282159
215.0, 0.012031898626567285
216.0, 0.003067278804204817
217.0, 0.008231698890437796
218.0, 0.006104441286280224
219.0, 0.007824056424593107
220.0, 0.024644976499536356
221.0, 0.03152003196412385
222.0, 0.05091184390345492
223.0, 0.051654213635460286
224.0, 0.05798461359336545
225.0, 0.09174239477582319
226.0, 0.09441250409274243
227.0, 0.10608266448328138
228.0, 0.14567119905168288
229.0, 0.18349255805359235
230.0, 0.19075460827971016
231.0, 0.23557847536534107
232.0, 0.2622372665235596
233.0, 0.2719457062880712
234.0, 0.2767552004415735
235.0, 0.2752436303103515
236.0, 0.2700391439558159
237.0, 0.23990620962318523
238.0, 0.19744104672943896
239.0, 0.16908650189470234
240.0, 0.17388129362353555
241.0, 0.15313474196436938
242.0, 0.14676358583103746
243.0, 0.13887493615657764
244.0, 0.11360607880140379
245.0, 0.11003442246641804
246.0, 0.10273803133968021
247.0, 0.08848113963952126
248.0, 0.07185820817608606
249.0, 0.059668753948201786
250.0, 0.06778773139474237
251.0, 0.06019759882178836
252.0, 0.04415786040444576
253.0, 0.028837574599212365
254.0, 0.01635455840226897
255.0, 0.03075220875769457
256.0, 0.029031882028914904
257.0, 0.024726257535173445
258.0, 0.027910173655094517
259.0, 0.009721263137465937
260.0, 0.022834499171069195
261.0, 0.03846760556304813
262.0, 0.04968582714283496
263.0, 0.05976408158099077
264.0, 0.0551265255279655
265.0, 0.03482717211190557
266.0, 0.021327990247323552
267.0, 0.0065186118962489
268.0, 0.020043062445934626
269.0, 0.006700571239912218
270.0, 0.026478871592661133
271.0, 0.03790061421199849
272.0, 0.03331095423387165
273.0, 0.028924807032727304
274.0, 0.031721230445864876
275.0, 0.024145798405991424
276.0, 0.0038406300296225386
277.0, 0.020737365408993444
278.0, 0.00415412548002479
279.0, 0.02920081027069129
280.0, 0.028295920520009846
281.0, 0.02653971142978564
282.0, 0.03997306133782583
283.0, 0.03605110856322731
284.0, 0.02742787895268242
285.0, 0.03586632482352489
286.0, 0.06039432521649761
287.0, 0.08152813702061311
288.0, 0.08173812077347477
289.0, 0.06893236761585053
290.0, 0.07386349360337344
291.0, 0.08636259524626856
292.0, 0.08731104502691012
293.0, 0.07163040731861157
294.0, 0.07239420346776981
295.0, 0.08052083649564372
296.0, 0.07379156894710837
297.0, 0.07743972428626471
298.0, 0.07619362153694344
299.0, 0.09523363900768021
300.0, 0.09298726619304476
301.0, 0.11314978993002547
302.0, 0.08582853515449472
303.0, 0.09275909757170993
304.0, 0.07710188061569725
305.0, 0.07588737659051073
306.0, 0.08960466684176364
307.0, 0.09702180539844409
308.0, 0.09273625715619514
309.0, 0.11778570401626237
310.0, 0.14175077196237854
311.0, 0.14797581116994
312.0, 0.15328692620591283
313.0, 0.19191290777055464
314.0, 0.22381421040112148
315.0, 0.22013430976232867
316.0, 0.22661392826609272
317.0, 0.2666395530989793
318.0, 0.2645217761598219
319.0, 0.2950135945284337
320.0, 0.32887402739688676
321.0, 0.36742301864455124
322.0, 0.41517198635378283
323.0, 0.4452927853978121
324.0, 0.5041263940775603
325.0, 0.5435138125766491
326.0, 0.5611457987150285
327.0, 0.5898533152025048
328.0, 0.6298377235147156
329.0, 0.6435876175192485
330.0, 0.6648366879195532
331.0, 0.6842638194155435
332.0, 0.6878538958016625
333.0, 0.6886314417724881
334.0, 0.6594221926819133
335.0, 0.6019540222174188
336.0, 0.5438372199071783
337.0, 0.4978107659770852
338.0, 0.4505023408363289
339.0, 0.40249283287265425
340.0, 0.3799890919606782
341.0, 0.37707376997079384
342.0, 0.3664179992749986
343.0, 0.33193663783585947
344.0, 0.29864149443266363
345.0, 0.24969639451209272
346.0, 0.21115514349727607
347.0, 0.18279694809925523
348.0, 0.15156976904380345
349.0, 0.14832603310884837
350.0, 0.14806480915679654
351.0, 0.14830911927860482
352.0, 0.134728975946623
353.0, 0.10050776924904833
354.0, 0.08796179291252113
355.0, 0.06382260768801097
356.0, 0.0471896916111258
357.0, 0.042153371393750326
358.0, 0.039152851690607574
359.0, 0.03168688088607734
360.0, 0.008546896816929505
361.0, 0.008370089111521697
362.0, 0.007223055527568979
363.0, 0.01927028179977734
364.0, 0.020146142777067336
365.0, 0.006659654661789537
366.0, 0.0195948858385015
367.0, 0.02589313723182435
368.0, 0.00878448982086434
369.0, 0.0027162149434457605
370.0, 0.0061480962543226025
371.0, 0.004310765989544273
372.0, 0.02916462886663508
373.0, 0.05939735662506375
374.0, 0.07619479322389038
375.0, 0.06316925811635664
376.0, 0.0694565620733825
377.0, 0.09008050184309965
378.0, 0.1054006473059227
379.0, 0.10992959297064098
380.0, 0.1246075562914821
381.0, 0.09501279972582777
382.0, 0.10004286864863735
383.0, 0.12343108339186476
384.0, 0.11500669781720038
385.0, 0.0986635174458394
386.0, 0.08053417924410945
387.0, 0.05368310796753084
388.0, 0.054247219639470386
389.0, 0.07586997170686466
390.0, 0.05035669117812059
391.0, 0.054624346822858896
392.0, 0.0630732869791403
393.0, 0.0611501351014
394.0, 0.04982320001271787
395.0, 0.03784203342427801
396.0, 0.028249757157294247
397.0, 0.006865930338181477
398.0, 0.009390602278340283
399.0, 0.02295816018949104
400.0, 0.020672633597712792
401.0, 0.008279862980779037
402.0, 0.0091543154245965
403.0, 0.017792302712033616
404.0, 0.008831997265214357
405.0, 0.00645553018349477
406.0, 0.030099916983585516
407.0, 0.043734819006469916
408.0, 0.0992869095366075
409.0, 0.12170565671552229
410.0, 0.11794289445583528
411.0, 0.1470130826233505
412.0, 0.1872383048242264
413.0, 0.22711253882732257
414.0, 0.24970460526086846
415.0, 0.2750860259837613
416.0, 0.30679869861863535
417.0, 0.32348455065962317
418.0, 0.32007609751684063
419.0, 0.30139336019897967
420.0, 0.2661895527264045
421.0, 0.22132391416417901
422.0, 0.18633153128776325
423.0, 0.17464756848998864
424.0, 0.13393969847631929
425.0, 0.12245643306132406
426.0, 0.1254075030799232
427.0, 0.11552719704925751
428.0, 0.10671673717268398
429.0, 0.10680684253946357
430.0, 0.10471734340978014
431.0, 0.10088826228270122
432.0, 0.1069789627443842
433.0, 0.11776618292168337
434.0, 0.09439096668095
435.0, 0.08932035022410326
436.0, 0.10533328695019978
437.0, 0.11367331604625906
438.0, 0.1084365619690303
439.0, 0.11421742462358814
440.0, 0.12798381510536752
441.0, 0.11820441388470154
442.0, 0.12840845382147512
443.0, 0.14063071645161074
444.0, 0.12041745438065618
445.0, 0.0972963571549343
446.0, 0.13724160714013553
447.0, 0.12686106236355627
448.0, 0.115545568017053
449.0, 0.11447707617224434
450.0, 0.07834886566030015
451.0, 0.09237166764421338
452.0, 0.07694948071907838
453.0, 0.05450561681600238
454.0, 0.053691065967576335
455.0, 0.0730539971568639
456.0, 0.07597387365180859
457.0, 0.05599731932830441
458.0, 0.05986775659354261
459.0, 0.06164787124662787
460.0, 0.057234468464872346
461.0, 0.06271607731357294
462.0, 0.06996767277757246
463.0, 0.07996854904928588
464.0, 0.06837571841304535
465.0, 0.0679291985828371
466.0, 0.0923622827495581
467.0, 0.11468095813548215
468.0, 0.10758921676275912
469.0, 0.08771832175272486
470.0, 0.09627306222138998
471.0, 0.11142917359566641
472.0, 0.10736453681684394
473.0, 0.10332513321678324
474.0, 0.10382525351687934
475.0, 0.10168873139399598
476.0, 0.10363546599573138
477.0, 0.11489136848868967
478.0, 0.12494481084897131
479.0, 0.10356385837988158
480.0, 0.11148312288329026
481.0, 0.12045911815920869
482.0, 0.12112154974204634
483.0, 0.11324838173435606
484.0, 0.1344213250546945
485.0, 0.10532309670329106
486.0, 0.10161340212708725
487.0, 0.10431609482524722
488.0, 0.10368204019674193
489.0, 0.10364183355754006
490.0, 0.1159215432029484
491.0, 0.09487271238425696
492.0, 0.09580470401424267
493.0, 0.08106880707965614
494.0, 0.07183712585189002
495.0, 0.08768363960189862
496.0, 0.08975349019904116
497.0, 0.04386809577450907
498.0, 0.05651961988781937
499.0, 0.06786157074425204
500.0, 0.06009920374581985
501.0, 0.059174602287530374
502.0, 0.07609470787998843
503.0, 0.033204358590997664
504.0, 0.05990862571080512
505.0, 0.06827599542017261
506.0, 0.05540105884545011
507.0, 0.05259318185783249
508.0, 0.05269379342813256
509.0, 0.06571804983474813
510.0, 0.053164978647166794
511.0, 0.04071394000702284
512.0, 0.04461556454078987
513.0, 0.0489335372276731
514.0, 0.0322387196562078
515.0, 0.026609853518019606
516.0, 0.041942527973893994
517.0, 0.04778523037085316
518.0, 0.032268374360916154
519.0, 0.006968885589553636
520.0, 0.004811589706859559
521.0, 0.0002555277545959904
522.0, 0.0005106846393512342
523.0, 0.024700049541598566
524.0, 0.04404495065449025
525.0, 0.035548958973759225
526.0, 0.025494538363180278
527.0, 0.027186795764860553
528.0, 0.01530997688204996
529.0, 0.0016750547665544085
530.0, 0.025586794939719555
531.0, 0.06305201548560695
532.0, 0.0448056502180385
533.0, 0.04797702278258909
534.0, 0.0499206036758664
535.0, 0.05037444231756147
536.0, 0.03636441573107122
537.0, 0.014529825611887077
538.0, 0.028284509842288058
539.0, 0.027027386071383566
540.0, 0.017584186692860108
541.0, 0.018261575385837125
542.0, 0.0040956911609869185
543.0, 0.005611665034787285
544.0, 0.022952052028713754
545.0, 0.016278854266260988
546.0, 0.00550407976091249
547.0, 0.0028834723092669976
548.0, 0.015219642753845226
549.0, 0.024994060461718707
550.0, 0.015421660020751883
551.0, 0.002446987447937788
552.0, 0.019953595749491366
553.0, 0.008899081169144694
554.0, 0.009288254399527754
555.0, 0.010745473507545941
556.0, 0.02453348055926421
557.0, 0.010680742120181507
558.0, 0.0030458169423241304
559.0, 0.006642939974853239
560.0, 0.03608876695940612
561.0, 0.05296563276574724
562.0, 0.05246479462854524
563.0, 0.07930095625138023
564.0, 0.07606026868241077
565.0, 0.1126565957201045
566.0, 0.1293033407893578
567.0, 0.12593949592329928
568.0, 0.12878284821406305
569.0, 0.13580639195360059
570.0, 0.1537898398101975
571.0, 0.15760155236333834
572.0, 0.14505317614223218
573.0, 0.17530920632637575
574.0, 0.2149725668612108
575.0, 0.21190222628429997
576.0, 0.2360740524893729
577.0, 0.2598642090000961
578.0, 0.2676682796534787
579.0, 0.27342721081261917
580.0, 0.26933390684431774
581.0, 0.2556345329838541
582.0, 0.2533940888040847
583.0, 0.21582459409430232
584.0, 0.2087673950635261
585.0, 0.20222950738383727
586.0, 0.18881227283873603
587.0, 0.18239913963504883
588.0, 0.1857359656825837
589.0, 0.16929410942124276
590.0, 0.16891603490984475
591.0, 0.16809424966264916
592.0, 0.16301260163097825
593.0, 0.16047423996658686
594.0, 0.15697183161469136
595.0, 0.15848331833105395
596.0, 0.15484687559855426
597.0, 0.15646149810736687
598.0, 0.1511761954092978
599.0, 0.15075099399963232
600.0, 0.1510173069448143
601.0, 0.14763290900743337
602.0, 0.13289546888386916
603.0, 0.13181894271389555
604.0, 0.10314402508788642
605.0, 0.11518759360706839
606.0, 0.12566695273156617
607.0, 0.10922395113513327
608.0, 0.11658480805680686
609.0, 0.12083967925043597
610.0, 0.11617886950344221
611.0, 0.10848886503636195
612.0, 0.08448684280730966
613.0, 0.08065953972887542
614.0, 0.10762619025219958
615.0, 0.09947831292625942
616.0, 0.11078785135741791
617.0, 0.0906858234288082
618.0, 0.08917081915252668
619.0, 0.10257538919729783
620.0, 0.11292811281833424
621.0, 0.12143166629892505
622.0, 0.12992882478738155
623.0, 0.14622707048712696
624.0, 0.15303373512367427
625.0, 0.17937625921106007
626.0, 0.20025547833106985
627.0, 0.2093444060319608
628.0, 0.23757657773626914
629.0, 0.24640718330726014
630.0, 0.2584325159402412
631.0, 0.2790201721195351
632.0, 0.28737898796466455
633.0, 0.29368873437503656
634.0, 0.30702665297022164
635.0, 0.29863848902696993
636.0, 0.3081441854470708
637.0, 0.2982051944676052
638.0, 0.2885761681270576
639.0, 0.2748226172689153
640.0, 0.26807053523210056
641.0, 0.27747618024597337
642.0, 0.2756069142385258
643.0, 0.24672797006736427
644.0, 0.213142890875909
645.0, 0.18032231324879255
646.0, 0.18539159004004793
647.0, 0.20207328461654706
648.0, 0.17528525093522943
649.0, 0.13152534276818187
650.0, 0.1414293646952873
651.0, 0.10552046186996882
652.0, 0.09784206056453196
653.0, 0.08861368338870461
654.0, 0.07589667209445194
655.0, 0.08334254548608905
656.0, 0.08146490255623995
657.0, 0.07969880232270724
658.0, 0.05328177815561583
659.0, 0.04664428091787988
660.0, 0.0572393672993573
661.0, 0.061665911371390374
662.0, 0.05854096782348185
663.0, 0.06393309102188577
664.0, 0.0568015341429974
665.0, 0.03702063889559013
666.0, 0.03572636731337368
667.0, 0.04718389399194904
668.0, 0.05034412005631368
669.0, 0.04374786446911354
670.0, 0.03361186603704236
671.0, 0.04481178463893382
672.0, 0.06013459069259522
673.0, 0.04766057244604325
674.0, 0.03865141622814081
675.0, 0.04452246649215885
676.0, 0.04664397466216356
677.0, 0.04154953382032442
678.0, 0.016309777151227476
679.0, 0.016457329499681952
680.0, 0.026775106370354438
681.0, 0.018299093547453515
682.0, 0.017677857029712418
683.0, 0.02635290070654635
684.0, 0.00723098287972947
685.0, 0.03040973746699159
686.0, 0.010411017700824428
687.0, 0.023696649044389232
688.0, 0.013429242465220799
689.0, 0.009584677885347547
690.0, 0.019308972184600235
691.0, 0.011824462126023888
692.0, 0.013411776748432263
693.0, 0.0065733753562202445
694.0, 0.005583522350161284
695.0, 0.0035397181252986407
696.0, 0.007298229909829351
697.0, 0.0049777065624933906
698.0, 0.0015536962184135373
699.0, 0.008177029069176263
700.0, 0.004045864999769495
701.0, 0.008302733199838786
702.0, 0.00851105154890176
703.0, 0.010056224454984037
704.0, 0.012596696337787816
705.0, 0.021168365100838585
706.0, 0.002547541176994032
707.0, 0.0015749523140284928
708.0, 0.007388372236018296
709.0, 0.002529358844180934
710.0, 0.0033389371008527764
711.0, 0.01995244222918366
712.0, 0.019177278373869688
713.0, 0.00872531601677131
714.0, 0.00831930724956969
715.0, 0.014285636026727968
716.0, 0.010229733222751156
717.0, 0.015977613528266495
718.0, 0.009831628989516915
719.0, 0.007823851137837417
720.0, 0.015008916655335094
721.0, 0.00844125134308096
722.0, 0.003591527223783766
723.0, 0.010495629740965143
724.0, 0.01444819187396144
725.0, 0.012509995575086
726.0, 0.014581154303963981
727.0, 0.014150613128744778
728.0, 0.0035594478935504874
729.0, 0.017968487784930993
730.0, 0.01966765576158501
731.0, 0.03746573653036209
732.0, 0.03607477466156302
733.0, 0.01620956343890574
734.0, 0.0029397624238609466
735.0, 0.001838004902075017
736.0, 0.011493116243609674
737.0, 0.04106896882039858
738.0, 0.03479624084511142
739.0, 0.018649977580637432
740.0, 0.014237551493998708
741.0, 0.018012090644105208
742.0, 0.01065439125239618
743.0, 0.014458009139546205
744.0, 0.011333031859180956
745.0, 0.0355115433999997
746.0, 0.02758208543695733
747.0, 0.044988876142105796
748.0, 0.029615745669074142
749.0, 0.029955805583517944
750.0, 0.043315900651194755
751.0, 0.04396652877457645
752.0, 0.031093126322100036
753.0, 0.013399866846967009
754.0, 0.012472325506143614
755.0, 0.038549223881029
756.0, 0.03924428766382137
757.0, 0.03302322833914007
758.0, 0.03694710406010869
759.0, 0.020007928997385346
760.0, 0.003871088806869923
761.0, 0.042214719436628786
762.0, 0.02079226294884598
763.0, 0.02714517451223842
764.0, 0.023349660501210043
765.0, 0.047481353632877185
766.0, 0.062127975784074085
767.0, 0.03551228434679014
768.0, 0.013430150582293405
769.0, 0.0270666054293578
770.0, 0.0652581491079897
771.0, 0.04224698358991564
772.0, 0.027831232749986955
773.0, 0.04304389048840145
774.0, 0.048805486957025766
775.0, 0.03199986070258936
776.0, 0.02151450491122145
777.0, 0.033284552399827444
778.0, 0.04038389514611868
779.0, 0.025653919566454443
780.0, 0.020347573860806413
781.0, 0.005101561200177594
782.0, 0.013958533541286237
783.0, 0.02505492126429847
784.0, 0.014034465519039365
785.0, 0.031215036460835992
786.0, 0.025913284327636264
787.0, 0.044921183790965546
788.0, 0.016008787498145185
789.0, 0.025875955136269897
790.0, 0.03577135045107137
791.0, 0.017081568995442397
792.0, 0.008285238209656317
793.0, 0.03498187037747858
794.0, 0.04430311160147633
795.0, 0.03166301945123131
796.0, 0.014801446678340413
797.0, 0.01754223774751363
798.0, 0.017984046953350992
799.0, 0.01382414722618496
800.0, 0.009798327403699224
801.0, 0.01348527163612563
802.0, 0.01960685197287751
803.0, 0.004292718028024249
804.0, 0.020717561506107984
805.0, 0.017300763555575135
806.0, 0.017955465185673907
807.0, 0.024921281792399632
808.0, 0.018840025098643298
809.0, 0.0071020280286480065
810.0, 0.01879547340633084
811.0, 0.03419280476553204
812.0, 0.018954597069053097
813.0, 0.007097962674663318
814.0, 0.015601986704096179
815.0, 0.031452541225845725
816.0, 0.028250292301975337
817.0, 0.02530466608166496
818.0, 0.032566024684257545
819.0, 0.025105696343046296
820.0, 0.0022364084886984854
821.0, 0.0037799476574422956
822.0, 0.023571174547499865
823.0, 0.017103173972889348
824.0, 0.0115402602002965
825.0, 0.01167050697508118
826.0, 0.0046620932872661475
827.0, 0.005794215345029037
828.0, 0.021327847313609153
829.0, 0.01647407343074431
830.0, 0.010751928069897524
831.0, 0.0009881376767616726
832.0, 0.011012876408759333
833.0, 0.014626762977222506
834.0, 0.006796927952450749
835.0, 0.0068875614874906775
836.0, 0.014834372120898774
837.0, 0.013237875046512658
838.0, 0.007405428414627226
839.0, 0.016301241396787337
840.0, 0.027929301605724738
841.0, 0.016621713393353565
842.0, 0.004525560082453712
843.0, 0.004117429332002181
844.0, 0.020163239310534948
845.0, 0.03310470621168142
846.0, 0.020691390972679295
847.0, 0.006060979227654235
848.0, 0.0021608100434984795
849.0, 0.005748923748253345
850.0, 0.005086458564159755
851.0, 0.01212957487163991
852.0, 0.006032264512151816
853.0, 0.008018926881435443
854.0, 0.01061110822930304
855.0, 0.01224553223413994
856.0, 0.01864954457048708
857.0, 0.02226383709129402
858.0, 0.008080985278041805
859.0, 0.0052069370214490405
860.0, 0.014304855047080218
861.0, 0.018233087742555998
862.0, 0.007671769001372759
863.0, 0.011827171971445925
864.0, 0.020389942632935497
865.0, 0.005159523256061707
866.0, 0.03222534233868968
867.0, 0.037344177881269446
868.0, 0.028555181181417564
869.0, 0.033760923481803005
870.0, 0.03810787922833948
871.0, 0.035268120648684356
872.0, 0.04064447889595662
873.0, 0.03444654535796336
874.0, 0.021421020210286683
875.0, 0.02633219191903716
876.0, 0.013658279850976373
877.0, 0.025388834366344596
878.0, 0.022947410543936057
879.0, 0.03798528462183413
880.0, 0.03789820358765047
881.0, 0.03222202465569971
882.0, 0.03247991485689451
883.0, 0.03565312877055064
884.0, 0.035926931153308486
885.0, 0.027241078813024885
886.0, 0.03930753191103235
887.0, 0.027395643807788243
888.0, 0.027792968672899016
889.0, 0.03649303417985502
890.0, 0.03818871471657381
891.0, 0.030531135221123
892.0, 0.03560705037862331
893.0, 0.045210638676054495
894.0, 0.048245376974191824
895.0, 0.05634276659808984
896.0, 0.03903276649328128
897.0, 0.025935055278642562
898.0, 0.05318009132845794
899.0, 0.01850297784671525
900.0, 0.03217527757967448
901.0, 0.03794587722481531
902.0, 0.027287107478833287
903.0, 0.03557976460382824
904.0, 0.04146748851149752
905.0, 0.032156108679067964
906.0, 0.028671450607656395
907.0, 0.033760031912922706
908.0, 0.010598202697122817
909.0, 0.027013637003785854
910.0, 0.04293340999127509
911.0, 0.0441306749979402
912.0, 0.03163589170873004
913.0, 0.019278008753626036
914.0, 0.01525582127893718
915.0, 0.007614467801181583
916.0, 0.0031960705440688833
917.0, 0.014075000174405208
918.0, 0.02263064512458334
919.0, 0.011358870396616476
920.0, 0.016296091228415972
921.0, 0.0251809590363763
922.0, 0.004409615513759038
923.0, 0.005595618873042487
924.0, 0.02305136589471066
925.0, 0.03207579309270747
926.0, 0.00847485915114497
927.0, 0.027804824024147787
928.0, 0.023553778480397344
929.0, 0.0019989545127803393
930.0, 0.007322980665874645
931.0, 0.0038364691897069445
932.0, 0.0038689064515141642
933.0, 0.005663452910619637
934.0, 0.00500428939896529
935.0, 0.028764674276466447
936.0, 0.033208982301653395
937.0, 0.0015231443457613455
938.0, 0.005181322226380665
939.0, 0.019604638733862048
940.0, 0.003965124653107104
941.0, 0.011652267032149194
942.0, 0.0037008001619692693
943.0, 0.002332362530753045
944.0, 0.011132904852534568
945.0, 0.010160271969624206
946.0, 0.004065825565271686
947.0, 0.017153575819961926
948.0, 0.00797240068870016
949.0, 0.03103522896447219
950.0, 0.006916727448954149
951.0, 0.00395191073315827
952.0, 0.00023637558346407527
953.0, 0.01301019947452013
954.0, 0.01726297162254219
955.0, 0.01611103390096782
956.0, 0.017286503622708633
957.0, 0.012259216127121692
958.0, 0.010270853050808859
959.0, 0.01581579518891937
960.0, 0.00437221960213749
961.0, 0.0027469811024809325
962.0, 0.011763176430082982
963.0, 0.00886211774576435
964.0, 0.023865708969579475
965.0, 0.006736349470247589
966.0, 0.004512437062971122
967.0, 0.009877974439613147
968.0, 0.019384892998229673
969.0, 0.022879337903434733
970.0, 0.021014522441006593
971.0, 0.025286490495126133
972.0, 0.02347823783723057
973.0, 0.021328967893725157
974.0, 0.03143148354884424
975.0, 0.03389511818551898
976.0, 0.0246921267056253
977.0, 0.04105600936313061
978.0, 0.04611670855921831
979.0, 0.05335299370672996
980.0, 0.06365436668554114
981.0, 0.07037369009592513
982.0, 0.07966988742012449
983.0, 0.08508303101432625
984.0, 0.08347990785390538
985.0, 0.08949436288347465
986.0, 0.09135609479095784
987.0, 0.09381156880797087
988.0, 0.0986310979971741
989.0, 0.10727556635134176
990.0, 0.1136479952766229
991.0, 0.1199943804947029
992.0, 0.13261828326016184
993.0, 0.13571819459888568
994.0, 0.12556405574955248
995.0, 0.10733201728834718
996.0, 0.09592906410284037
997.0, 0.11805328127036728
998.0, 0.10738668275110153
999.0, 0.11467928786071797
1000.0, 0.09751289042717057
1001.0, 0.08467595107512552
1002.0, 0.09929860530781223
1003.0, 0.09218941203805966
1004.0, 0.08448795871700826
1005.0, 0.0913327364115153
1006.0, 0.09141616659976437
1007.0, 0.0861093154001969
1008.0, 0.08747090188397723
1009.0, 0.08248314591302966
1010.0, 0.07991302046310989
1011.0, 0.09878702819787881
1012.0, 0.10365576006406195
1013.0, 0.11929431069340961
1014.0, 0.13190678878262974
1015.0, 0.14104581526840645
1016.0, 0.1385907293947453
1017.0, 0.13518278364379266
1018.0, 0.15078790920050295
1019.0, 0.1751328683201332
1020.0, 0.19487994090722477
1021.0, 0.21152947600846422
1022.0, 0.22308202326664972
1023.0, 0.2485555482658989
1024.0, 0.2859597053187469
1025.0, 0.3158480915680315
1026.0, 0.3701189693517626
1027.0, 0.39603967724085753
1028.0, 0.4378949355437959
1029.0, 0.4721310026338212
1030.0, 0.5341436887115598
1031.0, 0.5909782090704315
1032.0, 0.6284473460627267
1033.0, 0.667754111428036
1034.0, 0.7249099314934937
1035.0, 0.796518782397029
1036.0, 0.8476054901573098
1037.0, 0.9027993582025411
1038.0, 0.938627555087825
1039.0, 0.9715991195984682
1040.0, 0.991174090919909
1041.0, 0.9996018147258457
1042.0, 0.9910686988254228
1043.0, 0.9820243453432086
1044.0, 0.9141920717693954
1045.0, 0.887225157253322
1046.0, 0.8400277820911054
1047.0, 0.7521051648695133
1048.0, 0.7022740284174226
1049.0, 0.65861817059708
1050.0, 0.5894814121993096
1051.0, 0.5328299602965576
1052.0, 0.5166616152804411
1053.0, 0.4620103830840021
1054.0, 0.43034345302515964
1055.0, 0.4016467189295523
1056.0, 0.38761742055218185
1057.0, 0.34048300428481737
1058.0, 0.33140634155993876
1059.0, 0.33635820745715544
1060.0, 0.3238143222358785
1061.0, 0.3056621779790561
1062.0, 0.2850001016575843
1063.0, 0.2616245308695991
1064.0, 0.2358465197997148
1065.0, 0.19685817276413323
1066.0, 0.16576808433527992
1067.0, 0.14711063931445562
1068.0, 0.13636547472822605
1069.0, 0.13492508550340107
1070.0, 0.10549101293036069
1071.0, 0.09100970841443604
1072.0, 0.08613184938606049
1073.0, 0.05660844014440737
1074.0, 0.051128689669024036
1075.0, 0.04373663504266388
1076.0, 0.029260002148311818
1077.0, 0.034585741750743824
1078.0, 0.02697521595845881
1079.0, 0.006035601445052948
1080.0, 0.013128907505637867
1081.0, 0.010022943889470457
1082.0, 0.0114936374899612
1083.0, 0.01930628258663938
1084.0, 0.001989243965677484
1085.0, 0.002051607463778005
1086.0, 0.01471047262063597
1087.0, 0.0017305593546857092
1088.0, 0.0236197568093236
1089.0, 0.02918463588734906
1090.0, 0.020182535572812257
1091.0, 0.0216112737462984
1092.0, 0.02788776514133168
1093.0, 0.031801417964446896
1094.0, 0.03791392235519563
1095.0, 0.0463179953181279
1096.0, 0.0458875038370813
1097.0, 0.0338336391553971
1098.0, 0.04111766013749237
1099.0, 0.03648507403710982
1100.0, 0.05360599240984904
1101.0, 0.040153056147190135
1102.0, 0.040953333500916504
1103.0, 0.062057482665001815
1104.0, 0.047813689094750006
1105.0, 0.04279957691698748
1106.0, 0.048730345745063526
1107.0, 0.03736552757596337
1108.0, 0.016912745916963713
1109.0, 0.02681712268096037
1110.0, 0.029072850620778187
1111.0, 0.019007486696592135
1112.0, 0.027438094047317164
1113.0, 0.014852726268517462
1114.0, 0.01706882703374938
1115.0, 0.0031889442123197915
1116.0, 0.0027107263985150336
1117.0, 0.010040588446906173
1118.0, 0.004819683492371851
1119.0, 0.009060175594222144
1120.0, 0.005905361892550457
1121.0, 0.016552310295215693
1122.0, 0.005179313434072871
1123.0, 0.014078788264232743
1124.0, 0.013645345640876706
1125.0, 0.016341793466057627
1126.0, 0.009931553432679057
1127.0, 0.015809962319590684
1128.0, 0.013049147598753547
1129.0, 0.00681908145481776
1130.0, 0.007408604474836017
1131.0, 0.006910977261008941
1132.0, 0.014751196381046416
1133.0, 0.009769110790452016
1134.0, 0.019433185217281858
1135.0, 0.004017254951124688
1136.0, 0.004889042676721043
1137.0, 0.008644609510534711
1138.0, 0.041280095147032375
1139.0, 0.031594877192841965
1140.0, 0.016722335243756097
1141.0, 0.008408555121251264
1142.0, 0.025059557878266393
1143.0, 0.02849680854333083
1144.0, 0.0055114178129109315
1145.0, 0.01561706427080892
1146.0, 0.01671227290903054
1147.0, 0.03169071017154281
1148.0, 0.05104192720023907
1149.0, 0.06349610446879209
1150.0, 0.07301231190492354
1151.0, 0.07046022318083385
1152.0, 0.07824333145786944
1153.0, 0.07283334531179284
1154.0, 0.07911415813234693
1155.0, 0.09658478387073585
1156.0, 0.09094770662732207
1157.0, 0.10646347464634924
1158.0, 0.09199762743923828
1159.0, 0.07234441385112068
1160.0, 0.08015618636753327
1161.0, 0.09053115584701045
1162.0, 0.09313460973349105
1163.0, 0.07273652444308394
1164.0, 0.04708443070269536
1165.0, 0.05393228413115326
1166.0, 0.04565096185592547
1167.0, 0.04429668450397219
1168.0, 0.0579257487066014
1169.0, 0.040895985456888224
1170.0, 0.03475624854343871
1171.0, 0.029014896068199215
1172.0, 0.044108604756783354
1173.0, 0.03372418780259735
1174.0, 0.03585278891458894
1175.0, 0.0351772005855569
1176.0, 0.007649713011308833
1177.0, 0.006783375476942813
1178.0, 0.002599157901766269
1179.0, 0.00053705251944691
1180.0, 0.0010896317992119802
1181.0, 0.011415490772121697
1182.0, 0.01194445449034694
1183.0, 0.020976795088969852
1184.0, 0.04822498094375967
1185.0, 0.025111716799486282
1186.0, 0.018616171476947135
1187.0, 0.03160935482459189
1188.0, 0.023159770703045732
1189.0, 0.03309776426446496
1190.0, 0.010443242559374517
1191.0, 0.007582041569478431
1192.0, 0.013891626931743905
1193.0, 0.0334015948166499
1194.0, 0.04086808898189295
1195.0, 0.036547235361228954
1196.0, 0.036682854863615874
1197.0, 0.031282454540294775
1198.0, 0.043332486645568
1199.0, 0.0404686568322473
1200.0, 0.025931346807040002
1201.0, 0.026800184020681985
1202.0, 0.001308790000482551
1203.0, 0.010157135320420963
1204.0, 0.011145275931225735
1205.0, 0.008346565296042125
1206.0, 0.047144190936660835
1207.0, 0.053457073238995345
1208.0, 0.03446358517153786
1209.0, 0.011151385496138914
1210.0, 0.017049548324460616
1211.0, 0.02477608362277599
1212.0, 0.024038304071212286
1213.0, 0.02055004844562187
1214.0, 0.017493239125381126
1215.0, 0.005179396263614393
1216.0, 0.015777044604961286
1217.0, 0.028886562100280785
1218.0, 0.019323931778738472
1219.0, 0.018865261686220658
1220.0, 0.003946151631142684
1221.0, 0.017153350764476927
1222.0, 0.028196236211513338
1223.0, 0.01790317629693101
1224.0, 0.01337639728310034
1225.0, 0.007044354508832264
1226.0, 0.012829301259340477
1227.0, 0.00843401422686942
1228.0, 0.005097362335751858
1229.0, 0.009379717003888946
1230.0, 0.011961837334373438
1231.0, 0.002286109115135433
1232.0, 0.00023021629140385793
1233.0, 0.011886045817390296
1234.0, 0.03125035698252164
1235.0, 0.011827644876803396
1236, 0.0
1237, 0.0
1238, 0.0
1239, 0.0
1240, 0.0
1241, 0.0
1242, 0.0
1243, 0.0
1244, 0.0
1245, 0.0
1246, 0.0
1247, 0.0
1248, 0.0
1249, 0.0
1250, 0.0
1251, 0.0
1252, 0.0
1253, 0.0
1254, 0.0
1255, 0.0
1256, 0.0
1257, 0.0
1258, 0.0
1259, 0.0
1260, 0.0
1261, 0.0
1262, 0.0
1263, 0.0
1264, 0.0
1265, 0.0
1266, 0.0
1267, 0.0
1268, 0.0
1269, 0.0
1270, 0.0
1271, 0.0
1272, 0.0
1273, 0.0
1274, 0.0
1275, 0.0
1276, 0.0
1277, 0.0
1278, 0.0
1279, 0.0
1280, 0.0
1281, 0.0
1282, 0.0
1283, 0.0
1284, 0.0
1285, 0.0
1286, 0.0
1287, 0.0
1288, 0.0
1289, 0.0
1290, 0.0
1291, 0.0
1292, 0.0
1293, 0.0
1294, 0.0
1295, 0.0
1296, 0.0
1297, 0.0
1298, 0.0
1299, 0.0
1300, 0.0
1301, 0.0
1302, 0.0
1303, 0.0
1304, 0.0
1305, 0.0
1306, 0.0
1307, 0.0
1308, 0.0
1309, 0.0
1310, 0.0
1311, 0.0
1312, 0.0
1313, 0.0
1314, 0.0
1315, 0.0
1316, 0.0
1317, 0.0
1318, 0.0
1319, 0.0
1320, 0.0
1321, 0.0
1322, 0.0
1323, 0.0
1324, 0.0
1325, 0.0
1326, 0.0
1327, 0.0
1328, 0.0
1329, 0.0
1330, 0.0
1331, 0.0
1332, 0.0
1333, 0.0
1334, 0.0
1335, 0.0
1336, 0.0
1337, 0.0
1338, 0.0
1339, 0.0
1340, 0.0
1341, 0.0
1342, 0.0
1343, 0.0
1344, 0.0
1345, 0.0
1346, 0.0
1347, 0.0
1348, 0.0
1349, 0.0
1350, 0.0
1351, 0.0
1352, 0.0
1353, 0.0
1354, 0.0
1355, 0.0
1356, 0.0
1357, 0.0
1358, 0.0
1359, 0.0
1360, 0.0
1361, 0.0
1362, 0.0
1363, 0.0
1364, 0.0
1365, 0.0
1366, 0.0
1367, 0.0
1368, 0.0
1369, 0.0
1370, 0.0
1371, 0.0
1372, 0.0
1373, 0.0
1374, 0.0
1375, 0.0
1376, 0.0
1377, 0.0
1378, 0.0
1379, 0.0
1380, 0.0
1381, 0.0
1382, 0.0
1383, 0.0
1384, 0.0
1385, 0.0
1386, 0.0
1387, 0.0
1388, 0.0
1389, 0.0
1390, 0.0
1391, 0.0
1392, 0.0
1393, 0.0
1394, 0.0
1395, 0.0
1396, 0.0
1397, 0.0
1398, 0.0
1399, 0.0
1400, 0.0
1401, 0.0
1402, 0.0
1403, 0.0
1404, 0.0
1405, 0.0
1406, 0.0
1407, 0.0
1408, 0.0
1409, 0.0
1410, 0.0
1411, 0.0
1412, 0.0
1413, 0.0
1414, 0.0
1415, 0.0
1416, 0.0
1417, 0.0
1418, 0.0
1419, 0.0
1420, 0.0
1421, 0.0
1422, 0.0
1423, 0.0
1424, 0.0
1425, 0.0
1426, 0.0
1427, 0.0
1428, 0.0
1429, 0.0
1430, 0.0
1431, 0.0
1432, 0.0
1433, 0.0
1434, 0.0
1435, 0.0
1436, 0.0
1437, 0.0
1438, 0.0
1439, 0.0
1440, 0.0
1441, 0.0
1442, 0.0
1443, 0.0
1444, 0.0
1445, 0.0
1446, 0.0
1447, 0.0
1448, 0.0
1449, 0.0
1450, 0.0
1451, 0.0
1452, 0.0
1453, 0.0
1454, 0.0
1455, 0.0
1456, 0.0
1457, 0.0
1458, 0.0
1459, 0.0
1460, 0.0
1461, 0.0
1462, 0.0
1463, 0.0
1464, 0.0
1465, 0.0
1466, 0.0
1467, 0.0
1468, 0.0
1469, 0.0
1470, 0.0
1471, 0.0
1472, 0.0
1473, 0.0
1474, 0.0
1475, 0.0
1476, 0.0
1477, 0.0
1478, 0.0
1479, 0.0
1480, 0.0
1481, 0.0
1482, 0.0
1483, 0.0
1484, 0.0
1485, 0.0
1486, 0.0
1487, 0.0
1488, 0.0
1489, 0.0
1490, 0.0
1491, 0.0
1492, 0.0
1493, 0.0
1494, 0.0
1495, 0.0
1496, 0.0
1497, 0.0
1498, 0.0
1499, 0.0
1500, 0.0
1501, 0.0
1502, 0.0
1503, 0.0
1504, 0.0
1505, 0.0
1506, 0.0
1507, 0.0
1508, 0.0
1509, 0.0
1510, 0.0
1511, 0.0
1512, 0.0
1513, 0.0
1514, 0.0
1515, 0.0
1516, 0.0
1517, 0.0
1518, 0.0
1519, 0.0
1520, 0.0
1521, 0.0
1522, 0.0
1523, 0.0
1524, 0.0
1525, 0.0
1526, 0.0
1527, 0.0
1528, 0.0
1529, 0.0
1530, 0.0
1531, 0.0
1532, 0.0
1533, 0.0
1534, 0.0
1535, 0.0
1536, 0.0
1537, 0.0
1538, 0.0
1539, 0.0
1540, 0.0
1541, 0.0
1542, 0.0
1543, 0.0
1544, 0.0
1545, 0.0
1546, 0.0
1547, 0.0
1548, 0.0
1549, 0.0
1550, 0.0
1551, 0.0
1552, 0.0
1553, 0.0
1554, 0.0
1555, 0.0
1556, 0.0
1557, 0.0
1558, 0.0
1559, 0.0
1560, 0.0
1561, 0.0
1562, 0.0
1563, 0.0
1564, 0.0
1565, 0.0
1566, 0.0
1567, 0.0
1568, 0.0
1569, 0.0
1570, 0.0
1571, 0.0
1572, 0.0
1573, 0.0
1574, 0.0
1575, 0.0
1576, 0.0
1577, 0.0
1578, 0.0
1579, 0.0
1580, 0.0
1581, 0.0
1582, 0.0
1583, 0.0
1584, 0.0
1585, 0.0
1586, 0.0
1587, 0.0
1588, 0.0
1589, 0.0
1590, 0.0
1591, 0.0
1592, 0.0
1593, 0.0
1594, 0.0
1595, 0.0
1596, 0.0
1597, 0.0
1598, 0.0
1599, 0.0
