30, 0.0
31, 0.0
32, 0.0
33, 0.0
34, 0.0
35, 0.0
36, 0.0
37, 0.0
38, 0.0
39, 0.0
40, 0.0
41, 0.0
42, 0.0
43, 0.0
44, 0.0
45, 0.0
46, 0.0
47, 0.0
48, 0.0
49, 0.0
50, 0.0
51, 0.0
52, 0.0
53, 0.0
54, 0.0
55, 0.0
56, 0.0
57, 0.0
58, 0.0
59, 0.0
60, 0.0
61, 0.0
62, 0.0
63, 0.0
64, 0.0
65, 0.0
66, 0.0
67, 0.0
68, 0.0
69, 0.0
70, 0.0
71, 0.0
72, 0.0
73, 0.0
74, 0.0
75, 0.0
76, 0.0
77, 0.0
78, 0.0
79, 0.0
80, 0.0
81, 0.0
82, 0.0
83, 0.0
84, 0.0
85, 0.0
86, 0.0
87, 0.0
88, 0.0
89, 0.0
90, 0.0
91, 0.0
92, 0.0
93, 0.0
94, 0.0
95, 0.0
96, 0.0
97, 0.0
98, 0.0
99, 0.0
100, 0.0
101, 0.0
102, 0.0
103, 0.0
104, 0.0
105, 0.0
106, 0.0
107, 0.0
108, 0.0
109, 0.0
110, 0.0
111, 0.0
112, 0.0
113, 0.0
114, 0.0
115, 0.0
116, 0.0
117, 0.0
118, 0.0
119, 0.0
120, 0.0
121, 0.0
122, 0.0
123, 0.0
124, 0.0
125, 0.0
126, 0.0
127, 0.0
128, 0.0
129, 0.0
130, 0.0
131, 0.0
132, 0.0
133.0, 0.0015928351810099162
134.0, 0.006887760757991064
135.0, 0.009740301335120381
136.0, 0.010903635756143164
137.0, 0.00923229857979349
138.0, 0.010122457683732098
139.0, 0.009969559457548034
140.0, 0.007734052596314607
141.0, 0.00631876106701001
142.0, 0.0039752427448494455
143.0, 0.0023617516280769455
144.0, 0.001695886379444795
145.0, 0.0013441343298738833
146.0, 0.0003788874607856969
147.0, 0.00016865523425646156
148.0, 0.000506769612045791
149.0, 0.000818054040312771
150.0, 0.00023187052317657144
151.0, 0.000627357437528107
152.0, 0.0010803389028444651
153.0, 0.00112382311877335
154.0, 0.0013342005021144945
155.0, 0.0032114970309756676
156.0, 0.002811840709129528
157.0, 0.0009114705923721674
158.0, 0.0004185423157019108
159.0, 0.001647355289733468
160.0, 0.0012074340438627546
161.0, 0.0011847665917423661
162.0, 0.002538580462314801
163.0, 0.0008773518382692175
164.0, 0.001524923459362163
165.0, 0.002056974940342166
166.0, 0.0015758507931986129
167.0, 0.0018171798075789683
168.0, 0.002093499049703553
169.0, 0.002781080040490056
170.0, 0.003625669266913824
171.0, 0.00396599108449883
172.0, 0.0031377011353400453
173.0, 0.002315115256077345
174.0, 0.0026673070512159757
175.0, 0.004081835385494145
176.0, 0.004704308217522558
177.0, 0.004605274355588904
178.0, 0.005030741254343429
179.0, 0.005791970440701323
180.0, 0.005356805880720808
181.0, 0.005436848389204705
182.0, 0.00462959130871678
183.0, 0.0036147607088360795
184.0, 0.0038293710262510294
185.0, 0.004564610038359158
186.0, 0.004009337373061778
187.0, 0.003740008201390195
188.0, 0.004520343158954941
189.0, 0.004643020577875168
190.0, 0.005360546837208441
191.0, 0.0065769904419928716
192.0, 0.00768844733838459
193.0, 0.008541196545457458
194.0, 0.0106676851472792
195.0, 0.012019007479506946
196.0, 0.012522654656746872
197.0, 0.013199230925594645
198.0, 0.01477419947629437
199.0, 0.015305587583339835
200.0, 0.016981369665638502
201.0, 0.019498722546644177
202.0, 0.020369514282124204
203.0, 0.023478714010981006
204.0, 0.02634965703011267
205.0, 0.030203115797031325
206.0, 0.03670185020575102
207.0, 0.04403565099473492
208.0, 0.05581839402523001
209.0, 0.06653410269908594
210.0, 0.07067512088926596
211.0, 0.06648690555038889
212.0, 0.05804427143827954
213.0, 0.04774071771968476
214.0, 0.03683747348281284
215.0, 0.026224301728251617
216.0, 0.018252945121283556
217.0, 0.01343952380112527
218.0, 0.010092242407947042
219.0, 0.007527522455098462
220.0, 0.006483932624248823
221.0, 0.004314461704949635
222.0, 0.0030084069222769583
223.0, 0.0021123952798039057
224.0, 0.0004082217678035275
225.0, 9.505621448372369e-05
226.0, 0.00025598751933797275
227.0, 0.00044836617232888083
228.0, 0.00032984277094472527
229.0, 0.0006144466177776109
230.0, 0.00019629559514240907
231.0, 0.00048032933240492535
232.0, 0.0009115604178296492
233.0, 0.0003300599826391712
234.0, 0.0010815754917842394
235.0, 0.001323451129022471
236.0, 0.0009823863823043622
237.0, 0.0006034583847200277
238.0, 0.0006816705966242903
239.0, 0.0008439861963009338
240.0, 0.000691071935656561
241.0, 0.0005902815716450136
242.0, 0.0008918915054747793
243.0, 0.0003769176393183589
244.0, 0.00046072744397467335
245.0, 0.00035041984184010314
246.0, 9.443859216196461e-05
247.0, 0.0006266330011208384
248.0, 0.0007638846148190359
249.0, 0.0002409491168230467
250.0, 0.0002693556762007419
251.0, 0.00021013816615797178
252.0, 5.453593098645408e-05
253.0, 0.0006343669098463755
254.0, 0.0010799330477357615
255.0, 0.0011092231534197178
256.0, 0.001181872574209642
257.0, 0.0025261413165777206
258.0, 0.002578428917004395
259.0, 0.001981981666431673
260.0, 0.0020122758527758183
261.0, 0.002864003571213322
262.0, 0.0037109003382233227
263.0, 0.0038830309256601323
264.0, 0.003528513238198666
265.0, 0.00337788430022682
266.0, 0.0040820652281386965
267.0, 0.0044598031163085965
268.0, 0.005095887793406347
269.0, 0.006357802509742373
270.0, 0.007574244498400344
271.0, 0.008034873561171187
272.0, 0.007746279194944824
273.0, 0.007802583751830958
274.0, 0.00893818436891763
275.0, 0.009581881648426242
276.0, 0.010154356503542537
277.0, 0.01016924809227462
278.0, 0.010041090528971813
279.0, 0.010763805686748762
280.0, 0.011030185462790443
281.0, 0.011328194577638888
282.0, 0.011662350054177695
283.0, 0.011889463048757962
284.0, 0.011913648269418289
285.0, 0.01112828314733198
286.0, 0.010743702729399144
287.0, 0.010982782401410205
288.0, 0.011225541034300672
289.0, 0.010456052011999797
290.0, 0.009826127712381989
291.0, 0.009931801569984071
292.0, 0.009795852562934014
293.0, 0.00854885848819682
294.0, 0.00866636440385392
295.0, 0.008636878188679567
296.0, 0.007921975073893538
297.0, 0.006986360303480585
298.0, 0.006822392000579806
299.0, 0.007052577676583357
300.0, 0.007545750831839276
301.0, 0.00809997707420809
302.0, 0.008824733865935316
303.0, 0.010690585161055824
304.0, 0.010097543093439834
305.0, 0.009957665376777659
306.0, 0.011299710044111195
307.0, 0.01221621105226605
308.0, 0.011461097690520911
309.0, 0.011870492534185628
310.0, 0.012773869629277016
311.0, 0.01337103186606467
312.0, 0.0140443064373655
313.0, 0.014849710382441516
314.0, 0.015694331791413146
315.0, 0.016476618353626297
316.0, 0.01781687019093002
317.0, 0.021346836371806066
318.0, 0.02555378735292458
319.0, 0.028952116002440437
320.0, 0.03130043618651138
321.0, 0.03268430792892933
322.0, 0.03225865751566751
323.0, 0.0295998885560396
324.0, 0.02632182863169342
325.0, 0.02395264085644738
326.0, 0.023450303320179337
327.0, 0.023787317367600046
328.0, 0.024606639440297742
329.0, 0.02640378838871326
330.0, 0.028656515463610734
331.0, 0.029355779863786968
332.0, 0.031051389454545313
333.0, 0.03272535996416533
334.0, 0.034504283744564684
335.0, 0.03670288308464617
336.0, 0.03876978886119504
337.0, 0.04258095401840826
338.0, 0.046127270904609795
339.0, 0.048691859335884144
340.0, 0.05071443672107681
341.0, 0.053540634046709654
342.0, 0.056368241582272875
343.0, 0.058334030826619414
344.0, 0.06013425663369383
345.0, 0.0626813087809885
346.0, 0.06416909224964938
347.0, 0.06633003649934581
348.0, 0.0693662787329961
349.0, 0.07445358658968378
350.0, 0.08247269352280852
351.0, 0.08619367864103705
352.0, 0.09064915476499853
353.0, 0.09594093027586399
354.0, 0.10167183309927202
355.0, 0.10853768472707542
356.0, 0.11496493626111491
357.0, 0.12449039158990052
358.0, 0.13654767913171068
359.0, 0.1488754290541092
360.0, 0.16046144004584756
361.0, 0.1746415231426566
362.0, 0.18914914802365806
363.0, 0.20074065536114621
364.0, 0.20703365479622715
365.0, 0.20776331029438552
366.0, 0.20281106762254547
367.0, 0.18916080636228588
368.0, 0.17109980617737483
369.0, 0.153230567099737
370.0, 0.1347198091265862
371.0, 0.11594307686895279
372.0, 0.10103085348905423
373.0, 0.08925499112707017
374.0, 0.07882532659942172
375.0, 0.07227007951240215
376.0, 0.06480093325301042
377.0, 0.06057133209595187
378.0, 0.05883766661670064
379.0, 0.056642208506296345
380.0, 0.05535806096365532
381.0, 0.05381374593387516
382.0, 0.05316396294247873
383.0, 0.051472381084217686
384.0, 0.04594832737699926
385.0, 0.03885632306734524
386.0, 0.029652910165785966
387.0, 0.02281657838658614
388.0, 0.01845018922287394
389.0, 0.01403985238961327
390.0, 0.010853138991725924
391.0, 0.008647846310856914
392.0, 0.006724498516721199
393.0, 0.004947932592167013
394.0, 0.0037858525780272317
395.0, 0.003367155066043769
396.0, 0.0023270897307083502
397.0, 0.0016302086122588109
398.0, 0.0014299506732726346
399.0, 0.0009451037963691777
400.0, 0.00010312081217371824
401.0, 0.00037645924551637296
402.0, 8.795930265110676e-05
403.0, 0.0005769660123521983
404.0, 7.44073284803883e-05
405.0, 0.00035623591493752146
406.0, 0.0005943816395622247
407.0, 0.0007519495665171515
408.0, 0.00047933433821375354
409.0, 0.00020560530033613593
410.0, 0.00042573350238330344
411.0, 0.00033367957977831545
412.0, 0.0006020231087281123
413.0, 0.000723454383991132
414.0, 0.0004070321263342202
415.0, 0.00039311021726938907
416.0, 0.0002708875145283034
417.0, 3.799453385374275e-05
418.0, 0.00015985149243262297
419.0, 0.001054224636426992
420.0, 0.00010726623415066882
421.0, 0.00015110062407505117
422.0, 0.0001932733947684231
423.0, 0.00025758896164577413
424.0, 0.0003558975191479843
425.0, 0.00020400996275339294
426.0, 3.648993463966031e-05
427.0, 0.0002581443195109118
428.0, 0.0009920996135083734
429.0, 0.0019000763528939397
430.0, 0.001573572917568584
431.0, 0.00033676203901060063
432.0, 0.00048588232554258115
433.0, 0.0004007691636961964
434.0, 8.839185564129451e-05
435.0, 0.00035854099848024257
436.0, 0.00010419745149013867
437.0, 0.00025097415570164727
438.0, 0.0003232098379278273
439.0, 0.0004142640137588181
440.0, 0.0004494295458006328
441.0, 6.812581486847049e-05
442.0, 0.00047550236756722876
443.0, 0.00034708034580081186
444.0, 0.0007828709936564109
445.0, 0.0011012279521778728
446.0, 0.0006693814204776004
447.0, 0.00023015213061817436
448.0, 0.0005019604178222808
449.0, 0.0002771944972720038
450.0, 0.0007742717713067631
451.0, 0.0010779003563157073
452.0, 0.0002988393400384721
453.0, 0.0005246671069014926
454.0, 0.0012913936902771439
455.0, 0.00026873629653420626
456.0, 0.0004792672747127377
457.0, 0.0006092372281408302
458.0, 0.0006474962723970203
459.0, 0.0010208110587899505
460.0, 0.0013953371050135941
461.0, 0.00021384970469862083
462.0, 0.0005465715739597658
463.0, 0.00023666152516175953
464.0, 0.0005034859865442223
465.0, 0.00031878024665227766
466.0, 0.0006091380485043991
467.0, 0.0005585633647269954
468.0, 0.00026308827422982724
469.0, 0.0005168210113509623
470.0, 0.00020151365671523184
471.0, 0.00016213842542780972
472.0, 0.0004648126850064863
473.0, 0.0014399919067032783
474.0, 0.0017333301994792865
475.0, 0.0012792676292131468
476.0, 0.001628956490451758
477.0, 0.0020926835070273937
478.0, 0.002827582804279205
479.0, 0.004012872112139517
480.0, 0.005020966193321494
481.0, 0.005437078744346939
482.0, 0.006284004062242538
483.0, 0.0064132053981828625
484.0, 0.007162855918928747
485.0, 0.00868991109571834
486.0, 0.010517485280850513
487.0, 0.01248351380244966
488.0, 0.013850713930284222
489.0, 0.015780521223539675
490.0, 0.018169857106295317
491.0, 0.020105571245228448
492.0, 0.020710358993871435
493.0, 0.02058165269302259
494.0, 0.019033247526940023
495.0, 0.016958625796109305
496.0, 0.014376555868680384
497.0, 0.01098252077975926
498.0, 0.008590586956113654
499.0, 0.00694335961518178
500.0, 0.007502006776905596
501.0, 0.008538444923909207
502.0, 0.008353581149501934
503.0, 0.007954697034451442
504.0, 0.008164319791693471
505.0, 0.008536507105987119
506.0, 0.009876072222916164
507.0, 0.012133889700485977
508.0, 0.01459252150122056
509.0, 0.01763070852755348
510.0, 0.019699716816125055
511.0, 0.021788161689308347
512.0, 0.022936658655059998
513.0, 0.02192987459914832
514.0, 0.021067331760114195
515.0, 0.017633425714829534
516.0, 0.015203540923404386
517.0, 0.012976942866504618
518.0, 0.010274664702771021
519.0, 0.009118458515669121
520.0, 0.007349067750712066
521.0, 0.007555800356877545
522.0, 0.007929983495494307
523.0, 0.007608498597795355
524.0, 0.007477818454106531
525.0, 0.008011843589423603
526.0, 0.007169313373264132
527.0, 0.0070494134821781585
528.0, 0.006812461123105076
529.0, 0.00602251362165814
530.0, 0.0067702207374928085
531.0, 0.006837529679124072
532.0, 0.00698958376359109
533.0, 0.007780800986586399
534.0, 0.008794796219639382
535.0, 0.009293289832023504
536.0, 0.008995417008815848
537.0, 0.0102994052312025
538.0, 0.01202534162392207
539.0, 0.013730296027459638
540.0, 0.015562201942179062
541.0, 0.01762332247456825
542.0, 0.020114400789722736
543.0, 0.02394947049451975
544.0, 0.02871021385910192
545.0, 0.03319863438193152
546.0, 0.0372482107138131
547.0, 0.04342406227111636
548.0, 0.049024490091720295
549.0, 0.05618243371342724
550.0, 0.06400257729827663
551.0, 0.07208095608505459
552.0, 0.0824819395022841
553.0, 0.09376277708240686
554.0, 0.10539025766143047
555.0, 0.11967566575209566
556.0, 0.13646455849225356
557.0, 0.15424124038482528
558.0, 0.17422027105466792
559.0, 0.1935430129669912
560.0, 0.2116564956960152
561.0, 0.22774457150064484
562.0, 0.23858642582091785
563.0, 0.23954806855692323
564.0, 0.23179461597247597
565.0, 0.21079493018222611
566.0, 0.18471857839289108
567.0, 0.1574505531555734
568.0, 0.12983860222759785
569.0, 0.10499456639962622
570.0, 0.08509230139466448
571.0, 0.07011433893507187
572.0, 0.05780248950417249
573.0, 0.047969494416726224
574.0, 0.04107101459460097
575.0, 0.03393201092856694
576.0, 0.029458451504380184
577.0, 0.0254727729902737
578.0, 0.02204949540682978
579.0, 0.019709430989702306
580.0, 0.0178860782603004
581.0, 0.015477550612998079
582.0, 0.014260709801841161
583.0, 0.012969241915536374
584.0, 0.011367458884263007
585.0, 0.01045690496045911
586.0, 0.010327413676831088
587.0, 0.008760775710965443
588.0, 0.007234555944324408
589.0, 0.007064179058474803
590.0, 0.006477369156857425
591.0, 0.0043803994917558245
592.0, 0.005461079030522155
593.0, 0.0047843485986077995
594.0, 0.00559934119648842
595.0, 0.0059811921877084
596.0, 0.005257047855348588
597.0, 0.005485604083920425
598.0, 0.005098623563279686
599.0, 0.005172499569544368
600.0, 0.00552578424251923
601.0, 0.005453641816008315
602.0, 0.004601344786138941
603.0, 0.003178528918257616
604.0, 0.0017426631431351845
605.0, 0.0017282775335560015
606.0, 0.0020368059859940204
607.0, 0.00183970481693791
608.0, 0.001143333692264117
609.0, 0.000587010132419992
610.0, 0.001073047404099623
611.0, 0.0008737137957071095
612.0, 0.0006396656164653041
613.0, 0.0004424397747740163
614.0, 0.0010957613073590993
615.0, 0.0002930063724435434
616.0, 0.0001947484757618001
617.0, 0.0011764574022864285
618.0, 0.0016599658945056278
619.0, 0.0013481348744906066
620.0, 0.0010475663853405318
621.0, 0.0007869739343995753
622.0, 0.0006346987250031999
623.0, 0.0004252540456448459
624.0, 0.00011830724670720655
625.0, 0.0004317332591218593
626.0, 0.0011341260266054482
627.0, 0.0020499574298346148
628.0, 0.001274745036724984
629.0, 0.0015125496250304076
630.0, 0.0029002702281665078
631.0, 0.004604795615671049
632.0, 0.006111485954139236
633.0, 0.006843398623627545
634.0, 0.00749926597770212
635.0, 0.008645136761824816
636.0, 0.010582227725560164
637.0, 0.012860346544330532
638.0, 0.014837584627965535
639.0, 0.017291359085708218
640.0, 0.019307828088128552
641.0, 0.021844499843300287
642.0, 0.025436892806356425
643.0, 0.029609576578534823
644.0, 0.034083729729955076
645.0, 0.040161479820231646
646.0, 0.04492521065012842
647.0, 0.050618290186802486
648.0, 0.054933966959860886
649.0, 0.05685043691504227
650.0, 0.05719624586064198
651.0, 0.05298714176941635
652.0, 0.044416209629250844
653.0, 0.03543415684406852
654.0, 0.028025558629423318
655.0, 0.021564910237777943
656.0, 0.015827189552441036
657.0, 0.013962543265483275
658.0, 0.010873168795092638
659.0, 0.008650616370880332
660.0, 0.007403348273216064
661.0, 0.006652028414025041
662.0, 0.005977386855637782
663.0, 0.004510222166241369
664.0, 0.00370731821535894
665.0, 0.0036091239899391273
666.0, 0.0038342057851836076
667.0, 0.003751879247667984
668.0, 0.0030862343052517204
669.0, 0.0025680886323040295
670.0, 0.0025561927220741692
671.0, 0.0020487463821510176
672.0, 0.0016630676915773018
673.0, 0.0015419450663233197
674.0, 0.001172860048961818
675.0, 0.000938088532994403
676.0, 0.0015804282261908094
677.0, 0.0014377664444682895
678.0, 0.0007188975742339705
679.0, 0.0009154112959502611
680.0, 0.0017305415370184826
681.0, 0.0006195017779353426
682.0, 0.0012132780107172224
683.0, 0.0012179263573235631
684.0, 0.001012022834707655
685.0, 0.0006326919659465809
686.0, 0.00017841317487014193
687.0, 0.0004234790459940298
688.0, 0.0006928921691741834
689.0, 0.0012262683108834583
690.0, 0.00034790302822109234
691.0, 0.0010037549420805305
692.0, 0.0005079397906034726
693.0, 0.0004661098309755999
694.0, 0.0006319508783282316
695.0, 0.0007474399026003633
696.0, 0.000618401822647134
697.0, 0.0003941036207605883
698.0, 0.0011481220739125116
699.0, 0.0017805983274634164
700.0, 0.0010622684622366018
701.0, 0.0015591067202102976
702.0, 0.0015263560408919723
703.0, 0.00140863839988965
704.0, 0.0013690702071700194
705.0, 0.0014067573078679094
706.0, 0.0020018188860226986
707.0, 0.0015777593883984215
708.0, 0.001096435019339477
709.0, 0.0009003098210366083
710.0, 0.00083885633233507
711.0, 0.0007460322067434414
712.0, 0.000707478743394014
713.0, 0.0009507012556457821
714.0, 0.002091122061111458
715.0, 0.0015674120561723407
716.0, 0.0015170720602495614
717.0, 0.001872509601130213
718.0, 0.001264770235199425
719.0, 0.0019881202353125207
720.0, 0.0014887911627000532
721.0, 0.0017967586434969377
722.0, 0.002167270565575579
723.0, 0.0024868621701611346
724.0, 0.0027610572422534104
725.0, 0.0020271983054554825
726.0, 0.002688274206569134
727.0, 0.0025426487575437888
728.0, 0.0023211717421108505
729.0, 0.0029721534771220267
730.0, 0.003642099518080744
731.0, 0.0032489505281064956
732.0, 0.003377768873233652
733.0, 0.0016974435136481167
734.0, 0.0030898947581522594
735.0, 0.003443238430094398
736.0, 0.0031109897415145223
737.0, 0.004033058518581564
738.0, 0.0036560087681208656
739.0, 0.002733119970161557
740.0, 0.002589379898316565
741.0, 0.003750678729195922
742.0, 0.004168180324411999
743.0, 0.003435405106930533
744.0, 0.0031949139265581446
745.0, 0.004233517023317526
746.0, 0.0038649282639038655
747.0, 0.002530326636439263
748.0, 0.002645978084943667
749.0, 0.003119065171372026
750.0, 0.0027177108333348403
751.0, 0.002558185224316528
752.0, 0.0018079779179594826
753.0, 0.002267184635573726
754.0, 0.003026429260759557
755.0, 0.0025969354101060727
756.0, 0.0016366427872571477
757.0, 0.0019854838586058944
758.0, 0.0037200287213590626
759.0, 0.0035602239839363187
760.0, 0.0033670155871033665
761.0, 0.0035731179585096772
762.0, 0.003731025872550465
763.0, 0.0035819089850315225
764.0, 0.0038808923317128004
765.0, 0.004491494654483681
766.0, 0.004159309903679525
767.0, 0.003827076599802911
768.0, 0.004473077591141388
769.0, 0.004571939627214848
770.0, 0.003723745113375187
771.0, 0.004243731884301958
772.0, 0.003764898239191162
773.0, 0.0026728895695363854
774.0, 0.002358971686961256
775.0, 0.0028893249547916697
776.0, 0.0030207019411956763
777.0, 0.0025301358878635593
778.0, 0.0026327230739015125
779.0, 0.000944772003602801
780.0, 0.0020978937161518583
781.0, 0.0028082957265966988
782.0, 0.002182519937649429
783.0, 0.0016032074059204285
784.0, 0.0020565504631485845
785.0, 0.0026954607942566784
786.0, 0.002304544394913373
787.0, 0.0026364242164282274
788.0, 0.0031383379265696285
789.0, 0.0032044116772646913
790.0, 0.0024582434540952993
791.0, 0.00127629166269087
792.0, 0.0017763456036896455
793.0, 0.003158402363076356
794.0, 0.0023823364546009932
795.0, 0.0013776745437656553
796.0, 0.001000392151950891
797.0, 0.0013666331114143115
798.0, 0.002417975945840633
799.0, 0.0017814143308799975
800.0, 0.0013445934644050128
801.0, 0.0011148477200324499
802.0, 0.00030068240210772616
803.0, 0.0003712129317544209
804.0, 0.0010959212033103537
805.0, 0.0005509470157654055
806.0, 0.00033810334242686066
807.0, 0.0003080658197331327
808.0, 0.001418969580210086
809.0, 0.0005339344128307702
810.0, 0.0005367507997483834
811.0, 0.0001842549768524638
812.0, 0.000783709141338818
813.0, 0.0012289698158778834
814.0, 0.00102091073378189
815.0, 0.0012266391843631732
816.0, 0.0008456175355898378
817.0, 0.00041515287034976216
818.0, 0.0004118995824313249
819.0, 0.0019342420319560668
820.0, 0.000408769125490355
821.0, 5.325585214352227e-05
822.0, 0.00032249394857161815
823.0, 8.903930701660174e-05
824.0, 0.0005848938665525759
825.0, 0.0007331154009395084
826.0, 0.00020183417069718454
827.0, 0.0003192838355036653
828.0, 0.00023688329810187534
829.0, 0.0011023703931588883
830.0, 0.0017805846973532595
831.0, 0.0016830466594540084
832.0, 0.0010407339799240166
833.0, 0.0004585131398432141
834.0, 9.36374050119048e-05
835.0, 0.0009003212155683851
836.0, 0.00012199280411806084
837.0, 0.0010357215918186933
838.0, 0.0012294365515705548
839.0, 0.0009149321365895852
840.0, 0.0008117093981777037
841.0, 0.0017515889496666102
842.0, 0.0028510019973696653
843.0, 0.00342722576572628
844.0, 0.00447398198080491
845.0, 0.005040396510818449
846.0, 0.0058173724050709355
847.0, 0.007632218998585695
848.0, 0.009234512464505016
849.0, 0.01053610569725907
850.0, 0.014373745794522772
851.0, 0.01804489406243509
852.0, 0.02180262001573505
853.0, 0.026113952119732324
854.0, 0.03168671444493045
855.0, 0.03842928148128295
856.0, 0.04351220228925873
857.0, 0.050607815414569775
858.0, 0.0577388506678148
859.0, 0.06582322968592345
860.0, 0.07504933177224615
861.0, 0.08501381318078244
862.0, 0.09572089790354919
863.0, 0.10781502416683111
864.0, 0.12475677001984467
865.0, 0.13974285100202524
866.0, 0.1555830385656388
867.0, 0.16946150665562923
868.0, 0.17919986723323306
869.0, 0.183657203583255
870.0, 0.17973940162651952
871.0, 0.1672754527831704
872.0, 0.15070163402864287
873.0, 0.131188388480696
874.0, 0.10830855334398345
875.0, 0.08865241917670216
876.0, 0.07374110302329305
877.0, 0.06013885303842506
878.0, 0.0500262465387167
879.0, 0.04259356872839072
880.0, 0.03513654976885845
881.0, 0.029374961902299324
882.0, 0.026259196597117156
883.0, 0.023609790740837095
884.0, 0.021024415911461786
885.0, 0.02026355136775574
886.0, 0.01859100729441796
887.0, 0.018455699549512858
888.0, 0.018155249459217843
889.0, 0.017916901850202078
890.0, 0.018688582136667367
891.0, 0.01980783966937417
892.0, 0.020478788776211
893.0, 0.022040197236626164
894.0, 0.02473009363323796
895.0, 0.027015692437125156
896.0, 0.029001386048812805
897.0, 0.03256836995573464
898.0, 0.03625950245758671
899.0, 0.04027295940961956
900.0, 0.045506857688063986
901.0, 0.04859034645416147
902.0, 0.054297720789389485
903.0, 0.058960023636582114
904.0, 0.06288906142425746
905.0, 0.0673299665770738
906.0, 0.07289095332211054
907.0, 0.08022410180348863
908.0, 0.08972873224810879
909.0, 0.10048157584680886
910.0, 0.11341457349449287
911.0, 0.13192477210681597
912.0, 0.15255886249090775
913.0, 0.1770234363989599
914.0, 0.20591180782017013
915.0, 0.23803718834779086
916.0, 0.27440142097167375
917.0, 0.3143111440396833
918.0, 0.3612508935617911
919.0, 0.41377855062487984
920.0, 0.4762610849386809
921.0, 0.5463448471407972
922.0, 0.6248887805739001
923.0, 0.7133425411229789
924.0, 0.8039033987732375
925.0, 0.8884039915528053
926.0, 0.9586344939706178
927.0, 0.9967687348268849
928.0, 0.9906317943249019
929.0, 0.9374399157960942
930.0, 0.8487851496687387
931.0, 0.7399577005005565
932.0, 0.6270363242619618
933.0, 0.5272066865430386
934.0, 0.443258308666558
935.0, 0.3726346393320039
936.0, 0.31512033286128627
937.0, 0.26810369385439914
938.0, 0.22894071076332717
939.0, 0.19740443019695747
940.0, 0.1721087470518927
941.0, 0.14871818758087962
942.0, 0.13046784532259675
943.0, 0.11371995619565455
944.0, 0.09926322204119517
945.0, 0.0859404966127476
946.0, 0.07499350849749706
947.0, 0.06674825888966956
948.0, 0.058465190705057166
949.0, 0.05170054227408493
950.0, 0.04574828930060482
951.0, 0.03815582975758467
952.0, 0.03486674499274141
953.0, 0.03155897566043316
954.0, 0.027659609434423495
955.0, 0.024802816546783516
956.0, 0.021752614798265305
957.0, 0.018926667852418824
958.0, 0.018071670290335563
959.0, 0.013981306090227439
960.0, 0.012233844221969315
961.0, 0.010898668138535515
962.0, 0.009601527178017396
963.0, 0.008472570915373855
964.0, 0.006597102669977239
965.0, 0.005103684549608388
966.0, 0.004809209543910975
967.0, 0.003930767245802501
968.0, 0.0033467198057718335
969.0, 0.0014903804240441708
970.0, 0.0020473617737021034
971.0, 0.0022789864370419115
972.0, 0.00017374039539723213
973.0, 0.00023258100397141558
974.0, 0.0006197415798190752
975.0, 0.0011213143116535452
976.0, 0.0009275464137258427
977.0, 0.0013048813793978546
978.0, 0.0008842193054865076
979.0, 0.0008895254314558552
980.0, 0.0008324414320165119
981.0, 0.0001035264030877924
982.0, 0.0008245631659892973
983.0, 0.0003350902053405143
984.0, 0.00018629341834307784
985.0, 0.0005582847454484748
986.0, 0.0007549882627149324
987.0, 0.0004343739348189582
988.0, 0.00046235348615587205
989.0, 0.0006863095092375226
990.0, 0.0002898691591615137
991.0, 0.00014762253003966884
992.0, 0.0008414954465536914
993.0, 0.0002280429323357479
994.0, 0.0007503536381226994
995.0, 0.0009223418291512394
996.0, 0.0006553799063200015
997.0, 0.0005228849500097293
998.0, 0.0004903694238668446
999.0, 0.0002452591112504506
1000.0, 0.0006522070269260863
1001.0, 0.0015142283061506865
1002.0, 0.0004390765295567002
1003.0, 0.0009151682979066442
1004.0, 0.0004410767580846292
1005.0, 0.00048056137238372353
1006.0, 0.0005561644628199948
1007.0, 0.00010220985775092764
1008.0, 0.0005469864115486106
1009.0, 0.0008921932532563316
1010.0, 0.0016643435483232063
1011.0, 0.0006148410693291594
1012.0, 0.00014986653914857102
1013.0, 0.0007405698354637887
1014.0, 0.0016528791748581673
1015.0, 0.0019474177085949443
1016.0, 0.0016547119176765638
1017.0, 0.0018856730457601071
1018.0, 0.0018232473547397912
1019.0, 0.0020412629646088492
1020.0, 0.0025272242134443523
1021.0, 0.0021580905097980606
1022.0, 0.0019378730393528228
1023.0, 0.0027884501742178706
1024.0, 0.003713962761188
1025.0, 0.0036535850627178387
1026.0, 0.003469643856983395
1027.0, 0.003221695234243466
1028.0, 0.0037706958546439716
1029.0, 0.0051211137081986335
1030.0, 0.0056624818111451185
1031.0, 0.005836639117805996
1032.0, 0.005809544248086271
1033.0, 0.005355283596907526
1034.0, 0.0058995217572389005
1035.0, 0.006760732563111649
1036.0, 0.006110536761387591
1037.0, 0.007846864114097981
1038.0, 0.00940026057948999
1039.0, 0.008886091893719191
1040.0, 0.008650473577200187
1041.0, 0.009600833435964101
1042.0, 0.01031790308981592
1043.0, 0.010702012456375082
1044.0, 0.011609474391927324
1045.0, 0.011932514994106172
1046.0, 0.013957331569891734
1047.0, 0.01313501080019862
1048.0, 0.01449936218898482
1049.0, 0.016653440692659727
1050.0, 0.018319467408335278
1051.0, 0.01970459801432337
1052.0, 0.022016898581118688
1053.0, 0.025428628204160107
1054.0, 0.027907211603594474
1055.0, 0.03199631756891443
1056.0, 0.03504928782198411
1057.0, 0.039117774832864424
1058.0, 0.04305955528767677
1059.0, 0.04684415261203534
1060.0, 0.05103481776180577
1061.0, 0.05533276853202919
1062.0, 0.058819994420414426
1063.0, 0.061043530116466536
1064.0, 0.06256228057385825
1065.0, 0.06298396064730927
1066.0, 0.06143068268238798
1067.0, 0.0568604548537901
1068.0, 0.0503930884672328
1069.0, 0.044294439553787514
1070.0, 0.039233331443393936
1071.0, 0.03484224255181523
1072.0, 0.030608197717922624
1073.0, 0.026521518429876163
1074.0, 0.024297901856511536
1075.0, 0.021963516029986505
1076.0, 0.020723862605241342
1077.0, 0.020398284651571518
1078.0, 0.018556519820868606
1079.0, 0.01701836928475846
1080.0, 0.016065332536059556
1081.0, 0.015950588077567943
1082.0, 0.016589356729767718
1083.0, 0.015082167033498437
1084.0, 0.015313024547530607
1085.0, 0.017060641613956904
1086.0, 0.015694176884447363
1087.0, 0.014394955732698831
1088.0, 0.014552576261530928
1089.0, 0.013746250914946674
1090.0, 0.01303477010844794
1091.0, 0.013669684181223931
1092.0, 0.013712676641148527
1093.0, 0.012661440839061759
1094.0, 0.013463732141474543
1095.0, 0.013074426052509072
1096.0, 0.014099363019719284
1097.0, 0.014341145711213006
1098.0, 0.013967345401294847
1099.0, 0.014463182895711212
1100.0, 0.013580985113108436
1101.0, 0.012983885893569596
1102.0, 0.01503413987273309
1103.0, 0.014886116454069901
1104.0, 0.012019696692128058
1105.0, 0.012893596603419653
1106.0, 0.012442883655401676
1107.0, 0.011304228951325499
1108.0, 0.011647907882047531
1109.0, 0.010798135443639008
1110.0, 0.009901227788644324
1111.0, 0.010024680108087011
1112.0, 0.01047220574008427
1113.0, 0.01177173786957433
1114.0, 0.011128794694109859
1115.0, 0.009171945817807173
1116.0, 0.010081241317686212
1117.0, 0.009110917776767192
1118.0, 0.00907619507223944
1119.0, 0.008774200637916996
1120.0, 0.007796034206044105
1121.0, 0.007576705746179385
1122.0, 0.007807433552848198
1123.0, 0.006917155325261309
1124.0, 0.006290045749392127
1125.0, 0.0070643836551196135
1126.0, 0.0052269839272622845
1127.0, 0.005657757594593852
1128.0, 0.004837006755758045
1129.0, 0.005207447124402873
1130.0, 0.005867114448441546
1131.0, 0.005295495573443393
1132.0, 0.004323835715907165
1133.0, 0.003890442404486481
1134.0, 0.004339713838443866
1135.0, 0.005976690182380175
1136.0, 0.003851025128480916
1137.0, 0.0029837092865830552
1138.0, 0.0024904985734142066
1139.0, 0.0027224468808220927
1140.0, 0.00293738031914807
1141.0, 0.0026368561000049795
1142.0, 0.002619687975923562
1143.0, 0.002701116759792087
1144.0, 0.002551335110642332
1145.0, 0.0027712833190127535
1146.0, 0.0026013877115329607
1147.0, 0.0013692245258751549
1148.0, 0.0011992727551439898
1149.0, 0.0020254645258820634
1150.0, 0.0011066343770887548
1151.0, 0.00020595002870575865
1152.0, 0.0004184371418584138
1153.0, 0.0006909719141913234
1154.0, 0.0006319269751015657
1155.0, 3.978412443473761e-05
1156.0, 0.00023802071053520004
1157.0, 3.2973728785429124e-05
1158.0, 6.730606287353995e-05
1159.0, 0.000265364579526336
1160.0, 0.0017921207819782932
1161.0, 0.0002669451076703245
1162.0, 0.0005690990112264885
1163.0, 0.0005986491704735865
1164.0, 0.0009394367700678813
1165.0, 0.00182028264188825
1166.0, 0.0012110610025441318
1167.0, 0.0006561669045936382
1168.0, 0.001391791134401904
1169.0, 0.0017861533738952695
1170.0, 0.0007278737154363036
1171.0, 0.00028275928534457863
1172.0, 0.0001706605262882772
1173.0, 0.0006856432929599522
1174.0, 0.0018684414155002898
1175.0, 0.0014204886179403084
1176.0, 0.0013787827563691544
1177.0, 0.001999991912779524
1178.0, 0.0015715469654962442
1179.0, 0.0012490794735668205
1180.0, 0.0011050669021036733
1181.0, 0.002310282520133937
1182.0, 0.0014538178440545357
1183.0, 0.0017100952493442224
1184.0, 0.002894457386923158
1185.0, 0.003065370331223602
1186.0, 0.003951966131542115
1187.0, 0.0037364267751395434
1188.0, 0.0032568230736471507
1189.0, 0.003687587050884456
1190.0, 0.004596615522778721
1191.0, 0.005932007286300307
1192.0, 0.005701251266110871
1193.0, 0.00656066363492699
1194.0, 0.008477201523293634
1195.0, 0.00879104392129913
1196.0, 0.008845109409896135
1197.0, 0.008793842455267549
1198.0, 0.009522720127322696
1199.0, 0.010316337312630866
1200.0, 0.01148440578584209
1201.0, 0.011912916157290454
1202.0, 0.01176543400976359
1203.0, 0.013523449345218597
1204.0, 0.014083581494463855
1205.0, 0.012900010448166731
1206.0, 0.01328614282993472
1207.0, 0.01359439000579171
1208.0, 0.012949644087767059
1209.0, 0.01369641086603259
1210.0, 0.010949772164952649
1211.0, 0.010420783136620046
1212.0, 0.010418191212599506
1213.0, 0.009494184620255237
1214.0, 0.008967973356945706
1215.0, 0.008773758869716899
1216.0, 0.009512396461314184
1217.0, 0.008425497191314964
1218.0, 0.005992693088605967
1219.0, 0.006111163960475066
1220.0, 0.0061153438778623415
1221.0, 0.005987368899583967
1222.0, 0.004205442527469962
1223.0, 0.00436119499914342
1224.0, 0.003853567555477279
1225.0, 0.0028863097446104875
1226.0, 0.003277685532392917
1227.0, 0.0038117169433084636
1228.0, 0.0035741075320024837
1229.0, 0.003586211669142498
1230.0, 0.00341953346690731
1231.0, 0.0041694188595345
1232.0, 0.00398016827014321
1233.0, 0.00267498470244813
1234.0, 0.00175080211694997
1235.0, 0.0029433319463034523
1236.0, 0.0029766136105711114
1237.0, 0.0013073737952778294
1238.0, 0.00029157186171840065
1239.0, 0.0005044499458466957
1240.0, 0.0006344286299549309
1241.0, 8.854503031878791e-05
1242.0, 0.0004619631210515048
1243.0, 0.0007090799783193039
1244.0, 0.0001854742372328581
1245.0, 0.001276747629944995
1246.0, 0.0006654700171886066
1247.0, 0.0006144055665541649
1248.0, 0.00020103309583147382
1249.0, 0.0007217392311764036
1250.0, 0.001235124772952452
1251.0, 0.0006364782128936971
1252.0, 0.0006371425407139601
1253.0, 0.0009022337397396707
1254.0, 0.0010171623620812292
1255.0, 0.0013909864162553309
1256.0, 0.00017084967020708258
1257.0, 0.0007201577882482005
1258.0, 0.0014721994385406385
1259.0, 0.0010012476476441304
1260.0, 0.00028839125038612344
1261.0, 0.0010858628496030825
1262.0, 0.0005848560829564443
1263.0, 0.00024742484575348894
1264.0, 0.0007030797071686281
1265.0, 0.0013862904219007482
1266.0, 0.00022055060363579773
1267.0, 0.000399317977861385
1268.0, 0.00040658872410944573
1269.0, 0.00018823848442627077
1270.0, 0.00025266182934846073
1271.0, 0.0010335017070833854
1272.0, 0.0007066282545069276
1273.0, 0.0005001819075276332
1274.0, 5.43652237684078e-05
1275.0, 0.0007722246864693101
1276.0, 0.0010436547429015664
1277.0, 0.0009681609016370983
1278.0, 0.0005308419610781795
1279.0, 0.001206197469873549
1280.0, 0.0024098662708409106
1281.0, 0.002504987204195121
1282.0, 0.0025605055730568943
1283.0, 0.0032067635850351736
1284.0, 0.0028864730771979968
1285.0, 0.0023458760129483397
1286.0, 0.0029677258147715467
1287.0, 0.0027784652894636813
1288.0, 0.001998241558577586
1289.0, 0.0022334796657569435
1290.0, 0.0032839062910284345
1291.0, 0.0028260429317925385
1292.0, 0.0019614914059545275
1293.0, 0.00309647690454121
1294.0, 0.002435433311089534
1295.0, 0.001410315967136919
1296.0, 0.0012385655259258281
1297.0, 0.0010517037124676465
1298.0, 0.0014405303050842846
1299.0, 0.0016937552487559428
1300.0, 0.0021720598464134992
1301.0, 0.0022841097514118927
1302.0, 0.0007204124305898042
1303.0, 2.247148270395706e-05
1304.0, 0.000785294158730889
1305.0, 7.077274484779114e-05
1306, 0.0
1307, 0.0
1308, 0.0
1309, 0.0
1310, 0.0
1311, 0.0
1312, 0.0
1313, 0.0
1314, 0.0
1315, 0.0
1316, 0.0
1317, 0.0
1318, 0.0
1319, 0.0
1320, 0.0
1321, 0.0
1322, 0.0
1323, 0.0
1324, 0.0
1325, 0.0
1326, 0.0
1327, 0.0
1328, 0.0
1329, 0.0
1330, 0.0
1331, 0.0
1332, 0.0
1333, 0.0
1334, 0.0
1335, 0.0
1336, 0.0
1337, 0.0
1338, 0.0
1339, 0.0
1340, 0.0
1341, 0.0
1342, 0.0
1343, 0.0
1344, 0.0
1345, 0.0
1346, 0.0
1347, 0.0
1348, 0.0
1349, 0.0
1350, 0.0
1351, 0.0
1352, 0.0
1353, 0.0
1354, 0.0
1355, 0.0
1356, 0.0
1357, 0.0
1358, 0.0
1359, 0.0
1360, 0.0
1361, 0.0
1362, 0.0
1363, 0.0
1364, 0.0
1365, 0.0
1366, 0.0
1367, 0.0
1368, 0.0
1369, 0.0
1370, 0.0
1371, 0.0
1372, 0.0
1373, 0.0
1374, 0.0
1375, 0.0
1376, 0.0
1377, 0.0
1378, 0.0
1379, 0.0
1380, 0.0
1381, 0.0
1382, 0.0
1383, 0.0
1384, 0.0
1385, 0.0
1386, 0.0
1387, 0.0
1388, 0.0
1389, 0.0
1390, 0.0
1391, 0.0
1392, 0.0
1393, 0.0
1394, 0.0
1395, 0.0
1396, 0.0
1397, 0.0
1398, 0.0
1399, 0.0
1400, 0.0
1401, 0.0
1402, 0.0
1403, 0.0
1404, 0.0
1405, 0.0
1406, 0.0
1407, 0.0
1408, 0.0
1409, 0.0
1410, 0.0
1411, 0.0
1412, 0.0
1413, 0.0
1414, 0.0
1415, 0.0
1416, 0.0
1417, 0.0
1418, 0.0
1419, 0.0
1420, 0.0
1421, 0.0
1422, 0.0
1423, 0.0
1424, 0.0
1425, 0.0
1426, 0.0
1427, 0.0
1428, 0.0
1429, 0.0
1430, 0.0
1431, 0.0
1432, 0.0
1433, 0.0
1434, 0.0
1435, 0.0
1436, 0.0
1437, 0.0
1438, 0.0
1439, 0.0
1440, 0.0
1441, 0.0
1442, 0.0
1443, 0.0
1444, 0.0
1445, 0.0
1446, 0.0
1447, 0.0
1448, 0.0
1449, 0.0
1450, 0.0
1451, 0.0
1452, 0.0
1453, 0.0
1454, 0.0
1455, 0.0
1456, 0.0
1457, 0.0
1458, 0.0
1459, 0.0
1460, 0.0
1461, 0.0
1462, 0.0
1463, 0.0
1464, 0.0
1465, 0.0
1466, 0.0
1467, 0.0
1468, 0.0
1469, 0.0
1470, 0.0
1471, 0.0
1472, 0.0
1473, 0.0
1474, 0.0
1475, 0.0
1476, 0.0
1477, 0.0
1478, 0.0
1479, 0.0
1480, 0.0
1481, 0.0
1482, 0.0
1483, 0.0
1484, 0.0
1485, 0.0
1486, 0.0
1487, 0.0
1488, 0.0
1489, 0.0
1490, 0.0
1491, 0.0
1492, 0.0
1493, 0.0
1494, 0.0
1495, 0.0
1496, 0.0
1497, 0.0
1498, 0.0
1499, 0.0
1500, 0.0
1501, 0.0
1502, 0.0
1503, 0.0
1504, 0.0
1505, 0.0
1506, 0.0
1507, 0.0
1508, 0.0
1509, 0.0
1510, 0.0
1511, 0.0
1512, 0.0
1513, 0.0
1514, 0.0
1515, 0.0
1516, 0.0
1517, 0.0
1518, 0.0
1519, 0.0
1520, 0.0
1521, 0.0
1522, 0.0
1523, 0.0
1524, 0.0
1525, 0.0
1526, 0.0
1527, 0.0
1528, 0.0
1529, 0.0
1530, 0.0
1531, 0.0
1532, 0.0
1533, 0.0
1534, 0.0
1535, 0.0
1536, 0.0
1537, 0.0
1538, 0.0
1539, 0.0
1540, 0.0
1541, 0.0
1542, 0.0
1543, 0.0
1544, 0.0
1545, 0.0
1546, 0.0
1547, 0.0
1548, 0.0
1549, 0.0
1550, 0.0
1551, 0.0
1552, 0.0
1553, 0.0
1554, 0.0
1555, 0.0
1556, 0.0
1557, 0.0
1558, 0.0
1559, 0.0
1560, 0.0
1561, 0.0
1562, 0.0
1563, 0.0
1564, 0.0
1565, 0.0
1566, 0.0
1567, 0.0
1568, 0.0
1569, 0.0
1570, 0.0
1571, 0.0
1572, 0.0
1573, 0.0
1574, 0.0
1575, 0.0
1576, 0.0
1577, 0.0
1578, 0.0
1579, 0.0
1580, 0.0
1581, 0.0
1582, 0.0
1583, 0.0
1584, 0.0
1585, 0.0
1586, 0.0
1587, 0.0
1588, 0.0
1589, 0.0
1590, 0.0
1591, 0.0
1592, 0.0
1593, 0.0
1594, 0.0
1595, 0.0
1596, 0.0
1597, 0.0
1598, 0.0
1599, 0.0
