30, 0.0
31, 0.0
32, 0.0
33, 0.0
34, 0.0
35, 0.0
36, 0.0
37, 0.0
38, 0.0
39, 0.0
40, 0.0
41, 0.0
42, 0.0
43, 0.0
44, 0.0
45, 0.0
46, 0.0
47, 0.0
48, 0.0
49, 0.0
50, 0.0
51, 0.0
52, 0.0
53, 0.0
54, 0.0
55, 0.0
56, 0.0
57, 0.0
58, 0.0
59, 0.0
60, 0.0
61, 0.0
62, 0.0
63, 0.0
64, 0.0
65, 0.0
66, 0.0
67, 0.0
68, 0.0
69, 0.0
70, 0.0
71, 0.0
72, 0.0
73, 0.0
74, 0.0
75, 0.0
76, 0.0
77, 0.0
78, 0.0
79, 0.0
80, 0.0
81, 0.0
82, 0.0
83, 0.0
84, 0.0
85, 0.0
86, 0.0
87, 0.0
88, 0.0
89, 0.0
90, 0.0
91, 0.0
92, 0.0
93, 0.0
94, 0.0
95, 0.0
96, 0.0
97, 0.0
98, 0.0
99, 0.0
100, 0.0
101, 0.0
102, 0.0
103, 0.0
104, 0.0
105, 0.0
106, 0.0
107, 0.0
108, 0.0
109, 0.0
110, 0.0
111, 0.0
112, 0.0
113, 0.0
114, 0.0
115, 0.0
116, 0.0
117, 0.0
118, 0.0
119, 0.0
120, 0.0
121, 0.0
122, 0.0
123, 0.0
124, 0.0
125, 0.0
126, 0.0
127, 0.0
128, 0.0
129, 0.0
130, 0.0
131, 0.0
132.0, 3.4769119217570114e-05
133.0, 1.0762746814928586e-05
134.0, 0.00013419922623632562
135.0, 0.0012717459679875624
136.0, 0.0019293604587849252
137.0, 0.002530081673620633
138.0, 0.0033141975673002598
139.0, 0.004246275773322839
140.0, 0.004986719886247554
141.0, 0.005465710456117319
142.0, 0.006151952982444222
143.0, 0.007124322640345695
144.0, 0.007444427046234227
145.0, 0.007002602316448579
146.0, 0.007066688273363525
147.0, 0.007768110404527843
148.0, 0.007538432020839203
149.0, 0.006790147877023238
150.0, 0.00680404257147231
151.0, 0.007397443375806951
152.0, 0.00719506019464634
153.0, 0.007244081878408707
154.0, 0.00749932709500541
155.0, 0.007031912062370832
156.0, 0.005749580834246086
157.0, 0.00568559334205281
158.0, 0.006078924260462547
159.0, 0.005977405102781846
160.0, 0.005402061154055488
161.0, 0.005121870216870898
162.0, 0.004215440766408954
163.0, 0.0033831059702404357
164.0, 0.002571138320146524
165.0, 0.00127453102521945
166.0, 0.0010941312817101124
167.0, 0.0010071361631216046
168.0, 0.0008180669084443201
169.0, 0.0006508740546560966
170.0, 0.00030841842093654417
171.0, 0.0009132050269981032
172.0, 0.00025050753894112834
173.0, 0.001290823381462268
174.0, 0.0012847027724123689
175.0, 0.0018645509893792341
176.0, 0.0028733892342832825
177.0, 0.003585911505946864
178.0, 0.0035325679375642614
179.0, 0.003680193059401214
180.0, 0.0026043092151405065
181.0, 0.0015119850345717107
182.0, 0.0015407394988537822
183.0, 0.00026389692459117707
184.0, 0.000649947685583068
185.0, 0.001144661269433125
186.0, 0.0008242571138061261
187.0, 0.0014650422121931066
188.0, 0.0023680083091619543
189.0, 0.0028562603871805036
190.0, 0.003306464879732968
191.0, 0.004873362705795544
192.0, 0.0061047318355242595
193.0, 0.007760371876742323
194.0, 0.00970574986835667
195.0, 0.011616485002899385
196.0, 0.014011286160043563
197.0, 0.015976656271623015
198.0, 0.018851059827183384
199.0, 0.022873816799269347
200.0, 0.02655578192151769
201.0, 0.029474012508038393
202.0, 0.03233119508390245
203.0, 0.03634038397093374
204.0, 0.041757523522320324
205.0, 0.045003483431186916
206.0, 0.046947751740733706
207.0, 0.0492419935236233
208.0, 0.05191704503732617
209.0, 0.052715056875745805
210.0, 0.05150289138775674
211.0, 0.04915229020365026
212.0, 0.04581091267769716
213.0, 0.04153480318406404
214.0, 0.03744981329183641
215.0, 0.03353540833115252
216.0, 0.02920515585242002
217.0, 0.024648217031194374
218.0, 0.020583888733554857
219.0, 0.017092490682153825
220.0, 0.01402258858507046
221.0, 0.011441130339055364
222.0, 0.009410041707530058
223.0, 0.007810271891459508
224.0, 0.005854191930476464
225.0, 0.005101056655253783
226.0, 0.005275548106922051
227.0, 0.0017290209691890562
228.0, 0.0014239322947603079
229.0, 0.001518028586419236
230.0, 0.0011861241376348447
231.0, 0.0011851217515259256
232.0, 0.00024519262928953653
233.0, 0.000217384340425975
234.0, 0.0009587005373281604
235.0, 0.0014537522669403737
236.0, 0.0011125076773459079
237.0, 0.0013701531386944897
238.0, 0.0010427196532796243
239.0, 0.0005675523947411225
240.0, 0.0009257365179531982
241.0, 0.001039009978385137
242.0, 0.0011196506638196915
243.0, 0.0010582256652936525
244.0, 0.0009435107300180338
245.0, 0.0011940274113320948
246.0, 0.0014058303350044231
247.0, 0.001170783447432314
248.0, 0.0009632661663818735
249.0, 0.001235039929653525
250.0, 0.0011157148127469106
251.0, 0.0002886606663035011
252.0, 0.0001311954884194192
253.0, 7.512716486997817e-05
254.0, 0.0003822173307801208
255.0, 9.495173094818512e-05
256.0, 5.7686711533359904e-05
257.0, 0.0005383925515648761
258.0, 0.0006848789186980302
259.0, 0.00044808018337444026
260.0, 0.0005704747825147806
261.0, 0.0008419654941577713
262.0, 0.0007601488560140354
263.0, 0.00013904746671910108
264.0, 0.00022015258552221127
265.0, 7.495480175138047e-05
266.0, 0.0004525396223696291
267.0, 0.0007275667059006742
268.0, 0.0003719611111222032
269.0, 0.0006721700255155967
270.0, 0.000416388117597513
271.0, 0.000654395551856906
272.0, 0.0009140658985189744
273.0, 0.00028754149184147384
274.0, 0.0007486248747062156
275.0, 0.0005477664563868498
276.0, 0.0007125636473138308
277.0, 0.00014322197927364234
278.0, 0.0005979804412408307
279.0, 0.0009812090652138864
280.0, 0.0009977429130116138
281.0, 0.0010019692409917176
282.0, 0.0012335742387643348
283.0, 0.0006166173082604234
284.0, 0.0010568950769293767
285.0, 0.001807500720095696
286.0, 0.0018356259800361798
287.0, 0.0015717457242560972
288.0, 0.0026725766620714834
289.0, 0.002511252031193431
290.0, 0.001880175082329662
291.0, 0.00285403476347662
292.0, 0.0029823099990142227
293.0, 0.003800339635947042
294.0, 0.004443344976986979
295.0, 0.004610851106631478
296.0, 0.005460326004885321
297.0, 0.005914833562252815
298.0, 0.006486156334973949
299.0, 0.006996024898410256
300.0, 0.007551269951957882
301.0, 0.009288480708438079
302.0, 0.00936053232336508
303.0, 0.01033642910252758
304.0, 0.011477519270725486
305.0, 0.011518427916423109
306.0, 0.014210358957550817
307.0, 0.016625851100974393
308.0, 0.018699603469258468
309.0, 0.021948317666209333
310.0, 0.0267467772878592
311.0, 0.02971882481624788
312.0, 0.03385282523435875
313.0, 0.03800838145065023
314.0, 0.041094061301336
315.0, 0.043325195531792836
316.0, 0.04545764365610136
317.0, 0.043392238858318916
318.0, 0.04061260605078005
319.0, 0.03916625514863441
320.0, 0.03635394466220095
321.0, 0.03442090519551571
322.0, 0.03377122030810863
323.0, 0.033793776527562595
324.0, 0.033877715867915506
325.0, 0.03427409114411132
326.0, 0.03630659442409669
327.0, 0.039218928476308194
328.0, 0.042475987163066664
329.0, 0.046164516597987454
330.0, 0.050830479176330934
331.0, 0.05599507830644682
332.0, 0.060910239604771446
333.0, 0.06685512132129126
334.0, 0.07445302384436588
335.0, 0.08050390526735371
336.0, 0.08714822212322922
337.0, 0.0957272302916925
338.0, 0.10433579803685193
339.0, 0.11131520823333337
340.0, 0.11952502510975169
341.0, 0.1295021413399163
342.0, 0.14082631231354453
343.0, 0.1537353271259285
344.0, 0.16884288032034414
345.0, 0.18671621884783823
346.0, 0.20856293865269088
347.0, 0.23202375485370605
348.0, 0.2567805707852029
349.0, 0.28540804512519724
350.0, 0.3129671569293184
351.0, 0.3393421658314897
352.0, 0.36017546460247807
353.0, 0.37148937582455077
354.0, 0.3715550447539519
355.0, 0.3588182380150281
356.0, 0.33781411902228603
357.0, 0.30858443815428754
358.0, 0.2733463549520057
359.0, 0.24030735098128442
360.0, 0.21142089862260569
361.0, 0.1855577286991237
362.0, 0.16383935233490182
363.0, 0.14616363095374713
364.0, 0.13086164637106543
365.0, 0.1191317993509325
366.0, 0.11123281046972218
367.0, 0.10466636517120928
368.0, 0.09858882765362557
369.0, 0.0944130619210128
370.0, 0.09125358642722109
371.0, 0.08682963324310926
372.0, 0.08295712468183808
373.0, 0.07968688828617518
374.0, 0.07403146041005969
375.0, 0.06824525643653444
376.0, 0.0629843261166704
377.0, 0.05695765932147743
378.0, 0.05031070431620669
379.0, 0.04576207315821336
380.0, 0.04082053656321933
381.0, 0.035880876535470445
382.0, 0.031670241234084275
383.0, 0.028140783904994825
384.0, 0.024532452001886473
385.0, 0.021402672037665316
386.0, 0.018979513422294748
387.0, 0.016702603125164635
388.0, 0.014894455418419925
389.0, 0.014365092993052391
390.0, 0.01238251344547199
391.0, 0.010697972949487775
392.0, 0.009183695152180333
393.0, 0.00791388931153385
394.0, 0.007478713847644159
395.0, 0.006806113580796
396.0, 0.005913185756908402
397.0, 0.0046892126464555236
398.0, 0.003841739591212843
399.0, 0.003938807673104654
400.0, 0.0031012627661635775
401.0, 0.002812912948961643
402.0, 0.002571380826700896
403.0, 0.0018472203084679553
404.0, 0.0011041918398647448
405.0, 0.0014389975294283033
406.0, 0.0016124551886118367
407.0, 0.0014358268167104008
408.0, 0.0012572235058665852
409.0, 0.0012235857952814589
410.0, 0.0010415971490063093
411.0, 0.0010945219306653692
412.0, 0.0009672180336828168
413.0, 0.0005979129398339283
414.0, 0.00020388789551044147
415.0, 7.176081842626662e-05
416.0, 0.00010007799544451166
417.0, 0.00044258500661190135
418.0, 0.0007040591893786617
419.0, 0.0005626581486854233
420.0, 2.8661472634143467e-05
421.0, 0.0003832164118231029
422.0, 0.0008688387614542174
423.0, 0.0007714398520090431
424.0, 0.0002536173565369768
425.0, 0.00020648353455722125
426.0, 0.0011427365603532457
427.0, 0.000898856316750372
428.0, 0.0003769135814640081
429.0, 0.0005563463928392302
430.0, 0.0011605628060998758
431.0, 0.00027103095272269654
432.0, 0.0002007974395364901
433.0, 6.97716231126523e-05
434.0, 4.5264364596097846e-05
435.0, 0.00014916353401838714
436.0, 0.0005366030731789276
437.0, 0.000562919986054997
438.0, 0.00020478081117944203
439.0, 0.00029105737277996787
440.0, 9.462373752962521e-05
441.0, 0.000308793043729666
442.0, 0.0004414319470104586
443.0, 0.00020862347729592285
444.0, 9.864370473684001e-05
445.0, 0.0005482865978412477
446.0, 0.0006241485545140032
447.0, 0.000615820919278848
448.0, 0.00046305136101105815
449.0, 0.00013478295198267624
450.0, 0.00042232901149733367
451.0, 0.00024978518937859054
452.0, 0.0005366750153392723
453.0, 0.00024246895893877257
454.0, 0.0007907507148987712
455.0, 0.0010479967342654937
456.0, 0.0010403699282119535
457.0, 0.0011643011328008243
458.0, 0.0016099287106452831
459.0, 0.0026035611171930885
460.0, 0.002472253020203986
461.0, 0.0018246662711513004
462.0, 0.0022693830722064277
463.0, 0.003048998498309166
464.0, 0.003576480344507351
465.0, 0.004057054288924739
466.0, 0.004497915846624216
467.0, 0.004843667462735684
468.0, 0.005179567653448163
469.0, 0.005914008811687928
470.0, 0.00785652379775228
471.0, 0.00899261666844258
472.0, 0.008718606930762271
473.0, 0.009021235813965942
474.0, 0.011616893200581919
475.0, 0.013469590882769382
476.0, 0.01531457202149629
477.0, 0.017384983058970075
478.0, 0.019788998374524205
479.0, 0.02357163604323896
480.0, 0.027401535983781245
481.0, 0.03091185052088427
482.0, 0.03450953800007602
483.0, 0.0371989372117713
484.0, 0.03687162447152709
485.0, 0.03439886773070635
486.0, 0.03100592033562571
487.0, 0.02796380448122801
488.0, 0.025104107613293875
489.0, 0.022078923194228852
490.0, 0.019956657931421533
491.0, 0.0190250335405394
492.0, 0.01929546675668292
493.0, 0.020022606786014783
494.0, 0.021422723526790262
495.0, 0.024482241945411404
496.0, 0.028589520050794338
497.0, 0.033512274597772077
498.0, 0.04083333907311431
499.0, 0.04925098192319883
500.0, 0.058095939003393174
501.0, 0.06988950387562186
502.0, 0.07983012595224603
503.0, 0.08808372481846509
504.0, 0.09196054335331036
505.0, 0.08893561335195624
506.0, 0.08043269905886156
507.0, 0.07028624220792262
508.0, 0.05762180848030245
509.0, 0.046348668221165144
510.0, 0.03653310356836985
511.0, 0.02864441936448245
512.0, 0.02414642606319971
513.0, 0.019449839732344404
514.0, 0.01656037289076165
515.0, 0.014571122834740349
516.0, 0.012922617531263567
517.0, 0.011587179077639682
518.0, 0.01028939217341887
519.0, 0.009576007725904112
520.0, 0.009362991779826337
521.0, 0.008626983171514935
522.0, 0.00786301263673861
523.0, 0.007938943078394581
524.0, 0.007692131219699887
525.0, 0.007487167287762143
526.0, 0.008475114789457125
527.0, 0.008492066009921783
528.0, 0.00764862030454909
529.0, 0.007944087621639416
530.0, 0.00854289754937778
531.0, 0.008797230762002178
532.0, 0.008705689447209564
533.0, 0.009667995192121814
534.0, 0.01123977493231426
535.0, 0.011098745391672472
536.0, 0.011718606318158504
537.0, 0.013564458080532792
538.0, 0.01644260191362167
539.0, 0.019283670416234407
540.0, 0.021890629777496385
541.0, 0.025351440453433717
542.0, 0.028361495470601954
543.0, 0.03140508802341775
544.0, 0.035648049591988834
545.0, 0.04024868410762598
546.0, 0.044697604179490626
547.0, 0.05115316088484658
548.0, 0.057669003801591234
549.0, 0.06525212285777889
550.0, 0.07429810715583314
551.0, 0.08515326691607221
552.0, 0.09834746789562548
553.0, 0.11351679129348814
554.0, 0.12884908364667597
555.0, 0.14549046740127558
556.0, 0.1597315171335288
557.0, 0.16989234159723068
558.0, 0.17539706085903148
559.0, 0.1718142071910641
560.0, 0.16047657319966213
561.0, 0.14441772075598147
562.0, 0.12482051082533513
563.0, 0.1036514151434794
564.0, 0.08466358124269802
565.0, 0.07046646612760159
566.0, 0.05725305427667481
567.0, 0.04599104274173975
568.0, 0.03738873955741412
569.0, 0.030767608393628774
570.0, 0.025045614417843143
571.0, 0.020567544176308475
572.0, 0.017074320924254576
573.0, 0.014323495623521193
574.0, 0.011338085883362247
575.0, 0.00891537258889208
576.0, 0.008632574701949126
577.0, 0.007762325943529475
578.0, 0.006235047869796705
579.0, 0.0057376049141827845
580.0, 0.006209223883671312
581.0, 0.006443735648653518
582.0, 0.006157419418816078
583.0, 0.007635728007445856
584.0, 0.009300459150865109
585.0, 0.009534097668524354
586.0, 0.009717823384974409
587.0, 0.010825100984220985
588.0, 0.01191048623671208
589.0, 0.010720522683918019
590.0, 0.009081941763080423
591.0, 0.007826122589577218
592.0, 0.006646559876884412
593.0, 0.005259796623407331
594.0, 0.003866977943204419
595.0, 0.00283454763241246
596.0, 0.0012239700714515626
597.0, 0.00026224396312581527
598.0, 0.0001689551606188562
599.0, 0.0004066647448916571
600.0, 0.0005256078969990419
601.0, 0.0006226230064564841
602.0, 0.0009186368248484846
603.0, 0.0006261464060512526
604.0, 0.0007798780617702903
605.0, 0.0006338401809949836
606.0, 0.00019689730669892778
607.0, 0.0004661767108987161
608.0, 0.0009957898276245888
609.0, 0.0009504296691427612
610.0, 0.0003047893702522344
611.0, 0.00017065460642250697
612.0, 8.17009018236622e-05
613.0, 0.0001984129883216462
614.0, 0.0006910894768145069
615.0, 0.00036418767885456157
616.0, 0.0003885885427741651
617.0, 0.00011219899991013669
618.0, 0.0006014878885843996
619.0, 0.0005375245496356589
620.0, 0.0017374770711928987
621.0, 0.002191932067852379
622.0, 0.0028313030932474344
623.0, 0.0036444130882953155
624.0, 0.0048717348314916515
625.0, 0.00660456693500597
626.0, 0.008011591113821598
627.0, 0.009803456905640908
628.0, 0.012405310990277979
629.0, 0.01469941527097826
630.0, 0.01747302730124361
631.0, 0.021525944432477163
632.0, 0.025673311585903878
633.0, 0.03086009726126081
634.0, 0.03626138814926427
635.0, 0.04133850973301579
636.0, 0.04674740451114091
637.0, 0.05195855312512936
638.0, 0.055186087129276785
639.0, 0.05545723073184609
640.0, 0.052802600417377006
641.0, 0.04841074362896154
642.0, 0.04267475498641694
643.0, 0.03667101796040768
644.0, 0.031634060046481366
645.0, 0.026861512207099092
646.0, 0.020659206601601643
647.0, 0.017896212339918963
648.0, 0.01572723015503789
649.0, 0.013178587619682625
650.0, 0.011259342133799768
651.0, 0.01039123831023891
652.0, 0.009416394912799698
653.0, 0.008490544912287104
654.0, 0.007268067151217159
655.0, 0.00626394735554266
656.0, 0.00575889649336367
657.0, 0.0051619573661011164
658.0, 0.004231640617271088
659.0, 0.004290771934777738
660.0, 0.0040050440730071924
661.0, 0.003517618454751291
662.0, 0.0031123014497794156
663.0, 0.0026633622549454023
664.0, 0.0018428589945175236
665.0, 0.0014468770488220639
666.0, 0.0014790542328351067
667.0, 0.0011740280981594748
668.0, 0.0012341248558002554
669.0, 0.0015142544594123277
670.0, 0.0014660365842345722
671.0, 0.0014623657737045874
672.0, 0.0017149120164784962
673.0, 0.0015369686486323554
674.0, 0.0006359877287307976
675.0, 0.00036142913669795637
676.0, 0.0006733546008356755
677.0, 0.000422398111282799
678.0, 0.00034443077939497587
679.0, 6.199024145466625e-05
680.0, 0.000992118912174292
681.0, 0.0006811910646446335
682.0, 0.0003482072212372665
683.0, 0.0004985146961420398
684.0, 2.5028443013388633e-05
685.0, 0.0007752301044687442
686.0, 0.0007439884242982074
687.0, 0.00015137265308618367
688.0, 0.0006185013726879321
689.0, 0.000814902039063835
690.0, 0.0009337761740704062
691.0, 0.0009282889346438783
692.0, 0.0011000081115517001
693.0, 0.0005725540300698282
694.0, 0.0003824143025401153
695.0, 0.0002582582996710128
696.0, 4.050187565641164e-05
697.0, 0.0003630013526438598
698.0, 0.0015312229610156456
699.0, 0.0011856665197139127
700.0, 0.0007063297064464464
701.0, 0.00035259051791016935
702.0, 0.0012914516010796419
703.0, 0.001949915206423792
704.0, 0.0016024834205389086
705.0, 0.001892351131058591
706.0, 0.0017739037757504388
707.0, 0.0017471117229332792
708.0, 0.0015844737055802434
709.0, 0.0019657115188164093
710.0, 0.002314656251559305
711.0, 0.002241429997824237
712.0, 0.002412184245205064
713.0, 0.001507142407349059
714.0, 0.0024346589639549924
715.0, 0.0025266127758513997
716.0, 0.002810347360320159
717.0, 0.0030713367067534353
718.0, 0.0018756750611425568
719.0, 0.00046695393262021216
720.0, 0.001666549127426857
721.0, 0.002011020937861437
722.0, 0.0023937475149812208
723.0, 0.00319433303157149
724.0, 0.002905964400821488
725.0, 0.0023737515286330465
726.0, 0.004159866572567632
727.0, 0.0036919568642684816
728.0, 0.0031831995787152626
729.0, 0.001986244916937186
730.0, 0.0026817665438070228
731.0, 0.0036592039792165292
732.0, 0.0030145946800153997
733.0, 0.0034345850336396713
734.0, 0.0038447704715077195
735.0, 0.004226159502946377
736.0, 0.004102797833700942
737.0, 0.0035882142748559684
738.0, 0.003697872725245817
739.0, 0.004195687985181273
740.0, 0.003952564225189633
741.0, 0.0037587700305082854
742.0, 0.0040875924345091155
743.0, 0.004008027440640175
744.0, 0.003652601922279863
745.0, 0.003581584554645623
746.0, 0.0035548417035654897
747.0, 0.0035076649069952256
748.0, 0.004305506192678687
749.0, 0.004227420686279908
750.0, 0.003949418406517641
751.0, 0.0036879650334730044
752.0, 0.0038020373236859746
753.0, 0.0040520028977355585
754.0, 0.0040400566814687055
755.0, 0.003700641197156248
756.0, 0.0036802859987322225
757.0, 0.004174217602745415
758.0, 0.0037880261680920705
759.0, 0.003628724936052964
760.0, 0.00376920203375873
761.0, 0.003903893989753381
762.0, 0.004256337280015182
763.0, 0.004103285085549012
764.0, 0.004276064634131859
765.0, 0.004210893705529141
766.0, 0.003901409672621269
767.0, 0.0036931168962406175
768.0, 0.003714669724193966
769.0, 0.003914220395066525
770.0, 0.004353414207647482
771.0, 0.003679552204733043
772.0, 0.0028904943290580533
773.0, 0.003367103626698739
774.0, 0.0031057376378382322
775.0, 0.002971544643455335
776.0, 0.003142533398300856
777.0, 0.0025159226530753974
778.0, 0.002676748222511834
779.0, 0.0019154011244577262
780.0, 0.0018479352539984295
781.0, 0.0024750532529993173
782.0, 0.002112694064535588
783.0, 0.0018133573311270316
784.0, 0.002119905785317763
785.0, 0.0015570519121219366
786.0, 0.0008846447379377826
787.0, 0.0010126442340647336
788.0, 0.0008678782160158496
789.0, 0.0007701655306538148
790.0, 0.0010151139937477052
791.0, 0.0014628919411754121
792.0, 0.0015583565349054083
793.0, 0.0009223594414654063
794.0, 0.0002464985298579515
795.0, 0.0002738288436498894
796.0, 0.0006481119818141049
797.0, 0.0008254366375365472
798.0, 0.0004314660995599391
799.0, 6.53868280755207e-05
800.0, 6.19635713452614e-05
801.0, 0.00022452612550185734
802.0, 0.00028394461796910206
803.0, 0.00011179550173168115
804.0, 0.0002272746941971992
805.0, 6.44520081242544e-05
806.0, 7.155796182708612e-05
807.0, 0.00020713160716137152
808.0, 0.00032443208173733103
809.0, 0.00021133474259938214
810.0, 0.0003121954164041135
811.0, 0.0015131414100521675
812.0, 0.0008614193844245675
813.0, 0.0006729751768254874
814.0, 0.000598487175489707
815.0, 0.0005140628589562832
816.0, 0.0011258354443866622
817.0, 0.0010999079806767245
818.0, 0.0006897208091774482
819.0, 0.0011295696238744744
820.0, 0.0011212547733189387
821.0, 0.00011976526241590522
822.0, 0.000454009655966543
823.0, 0.0011370933383055438
824.0, 0.0003480488479850377
825.0, 0.0005922713066882498
826.0, 0.0010306810978088308
827.0, 0.0001714026662091173
828.0, 0.0004211371388198639
829.0, 0.0003947148778515639
830.0, 6.773050848215906e-05
831.0, 0.00022037678717921688
832.0, 0.00033106192532841557
833.0, 0.0010081016579185286
834.0, 0.0014061150730663209
835.0, 0.0017388845996678863
836.0, 0.002011134330365889
837.0, 0.0026547161713230084
838.0, 0.0034973109491728445
839.0, 0.00442289665381753
840.0, 0.005849976458641859
841.0, 0.007688831933596457
842.0, 0.008795148977491684
843.0, 0.010152334054215074
844.0, 0.011992535761285823
845.0, 0.014866256390536965
846.0, 0.01753273076550212
847.0, 0.02040819943958482
848.0, 0.023941806589942268
849.0, 0.027647464628385025
850.0, 0.03182487763816377
851.0, 0.03696071558625476
852.0, 0.042600082329869754
853.0, 0.04906853192600932
854.0, 0.054556661749028505
855.0, 0.06161335189960255
856.0, 0.07031802248365066
857.0, 0.07900470733526267
858.0, 0.08969470182880955
859.0, 0.10139719061166921
860.0, 0.1112278917668231
861.0, 0.12047061105954907
862.0, 0.1263437683783168
863.0, 0.12885514817438007
864.0, 0.1280922895331059
865.0, 0.12282180481747745
866.0, 0.1144650563242258
867.0, 0.1061546787728617
868.0, 0.09430217071599156
869.0, 0.08356146732755179
870.0, 0.0754844332209557
871.0, 0.0668068487480889
872.0, 0.060105688440834845
873.0, 0.05475457779953416
874.0, 0.049122257404801944
875.0, 0.04452055371365009
876.0, 0.04040001049311632
877.0, 0.03862187346662359
878.0, 0.03677816176873934
879.0, 0.035547798917212096
880.0, 0.03494555201475086
881.0, 0.03520221143731985
882.0, 0.03658314610599682
883.0, 0.03765637672281819
884.0, 0.038093780405003955
885.0, 0.040617515567741604
886.0, 0.04355496770249725
887.0, 0.047259459638520795
888.0, 0.05104540879695394
889.0, 0.05454433219377457
890.0, 0.059149910581912775
891.0, 0.06506504239233532
892.0, 0.07128609605493026
893.0, 0.07823057459184785
894.0, 0.08717053761885893
895.0, 0.09439992457512701
896.0, 0.10165215374254861
897.0, 0.11091227249695294
898.0, 0.11915956120799573
899.0, 0.1273382776983469
900.0, 0.13615832714225587
901.0, 0.1454867480272376
902.0, 0.15731050691663845
903.0, 0.17407265007993497
904.0, 0.189662182436038
905.0, 0.21270223370866917
906.0, 0.23952111893107578
907.0, 0.2706668940665966
908.0, 0.3047714730670484
909.0, 0.34320163166150924
910.0, 0.3904319848244974
911.0, 0.44600742867068216
912.0, 0.5064142340894426
913.0, 0.5774974002513498
914.0, 0.6593389757920176
915.0, 0.7448387099106514
916.0, 0.8275525108483655
917.0, 0.9050302123168171
918.0, 0.9654371381456961
919.0, 0.9963646060836632
920.0, 0.9902407412111919
921.0, 0.9436059220091207
922.0, 0.8657546205452548
923.0, 0.771698085288875
924.0, 0.671909115369443
925.0, 0.5756067507985518
926.0, 0.48803671379756725
927.0, 0.41330583248581526
928.0, 0.35008641225278975
929.0, 0.2963571942475502
930.0, 0.25271853667721406
931.0, 0.2180842213627372
932.0, 0.1874253600931125
933.0, 0.16109812427180803
934.0, 0.13877565796629482
935.0, 0.11970803736428011
936.0, 0.10493256560623865
937.0, 0.09203011259943919
938.0, 0.08051889025176762
939.0, 0.07022409589570976
940.0, 0.06088779975647948
941.0, 0.054954997717004225
942.0, 0.046637789080569834
943.0, 0.0421678240701197
944.0, 0.0359500660473257
945.0, 0.03175233932852428
946.0, 0.028247033973097985
947.0, 0.024258554869136955
948.0, 0.02055637013734718
949.0, 0.01825231071128773
950.0, 0.016186272228355763
951.0, 0.01258366504003075
952.0, 0.011488041174929508
953.0, 0.010104881912424665
954.0, 0.007776855061210938
955.0, 0.0064751757875120995
956.0, 0.006064473476205246
957.0, 0.004190700097358788
958.0, 0.003157989340673968
959.0, 0.003628401842466205
960.0, 0.002652794530121827
961.0, 0.0021750731331816133
962.0, 0.0009245206152079811
963.0, 0.00011975585054719952
964.0, 0.000139195899034526
965.0, 0.0004732703900477534
966.0, 0.0005360243578841291
967.0, 0.0004024580824582985
968.0, 0.0006731217714811072
969.0, 0.0010309027444415054
970.0, 0.0010099897512659069
971.0, 0.0008988342081176898
972.0, 0.0013048579934501997
973.0, 0.0016333893331150248
974.0, 0.0014168001240907886
975.0, 0.0005066078822868698
976.0, 0.000901743237240765
977.0, 0.0007042913554950906
978.0, 0.00035715216431161337
979.0, 0.000563251552954122
980.0, 0.000169514542193016
981.0, 0.0006721611866372903
982.0, 0.0004930099227313486
983.0, 0.0004503691848145848
984.0, 0.0012116116186903295
985.0, 0.0015743486009064933
986.0, 0.0015640731699031237
987.0, 0.0008316609689124532
988.0, 0.000895301409770724
989.0, 0.0010339245561836494
990.0, 0.0004553490185748828
991.0, 0.000641397274926852
992.0, 0.0012257263456115879
993.0, 0.0001472631416325713
994.0, 5.131814949298293e-05
995.0, 0.000550050603992298
996.0, 0.0003336316453924969
997.0, 0.00038755265310353815
998.0, 0.0006280917331262784
999.0, 0.0008546871891139247
1000.0, 0.0007273278928217842
1001.0, 0.00020330189681652208
1002.0, 0.00019711849732669863
1003.0, 0.0002775935781346986
1004.0, 0.00042943199720555275
1005.0, 0.0002600994673912998
1006.0, 0.0005791125221234617
1007.0, 4.309790369352072e-05
1008.0, 0.0018630893393995112
1009.0, 0.002547409942987868
1010.0, 0.0019496963211443632
1011.0, 0.0021291090098403643
1012.0, 0.0027838867004987104
1013.0, 0.0030783687508893283
1014.0, 0.003433770890830852
1015.0, 0.004080695932220472
1016.0, 0.00527165739749359
1017.0, 0.006155015605356477
1018.0, 0.007243863380869078
1019.0, 0.007196831950499803
1020.0, 0.007971880890761935
1021.0, 0.009013312761328085
1022.0, 0.009765881383783565
1023.0, 0.01025350948878208
1024.0, 0.011130278812049475
1025.0, 0.012499026962183612
1026.0, 0.0135432882724349
1027.0, 0.014970680280680963
1028.0, 0.016763582856875604
1029.0, 0.018133674990340017
1030.0, 0.019783151429709267
1031.0, 0.02071853493830664
1032.0, 0.022715729026155117
1033.0, 0.02381700660659887
1034.0, 0.02604356224382747
1035.0, 0.029211226710596398
1036.0, 0.03146101230367294
1037.0, 0.033662099614338546
1038.0, 0.03683376626810321
1039.0, 0.03965586146096202
1040.0, 0.04342553877896426
1041.0, 0.04668112966621648
1042.0, 0.04910506723136302
1043.0, 0.053601387179399766
1044.0, 0.05683300064571354
1045.0, 0.05964203822369855
1046.0, 0.06299872823613135
1047.0, 0.06581865811384789
1048.0, 0.06807332740563644
1049.0, 0.06914926213955956
1050.0, 0.06850853617903463
1051.0, 0.06806484322677847
1052.0, 0.06790866835991057
1053.0, 0.06459896929684734
1054.0, 0.06094331716687551
1055.0, 0.05639429658304108
1056.0, 0.05218759466729429
1057.0, 0.04731439038726886
1058.0, 0.041430990810713386
1059.0, 0.03696133903730686
1060.0, 0.03266533103957671
1061.0, 0.027292711331007958
1062.0, 0.02338954474084792
1063.0, 0.020809576073982622
1064.0, 0.01693837704201563
1065.0, 0.014935219799640912
1066.0, 0.012594282837570392
1067.0, 0.011108667414087494
1068.0, 0.009635430121067766
1069.0, 0.00898306351177465
1070.0, 0.008070311277716688
1071.0, 0.0074813366569330495
1072.0, 0.006626364485167713
1073.0, 0.0052624833336063406
1074.0, 0.004416721218986502
1075.0, 0.0044166136510270316
1076.0, 0.0044685164534271045
1077.0, 0.004103218948025873
1078.0, 0.0034458309877728435
1079.0, 0.003796043359747313
1080.0, 0.0037199733416735017
1081.0, 0.002449406987803209
1082.0, 0.002350803203839458
1083.0, 0.002263729010655913
1084.0, 0.002346172817963804
1085.0, 0.0017894379370343109
1086.0, 0.0018409894539286073
1087.0, 0.002073317556602235
1088.0, 0.0018300975327341686
1089.0, 0.0017132661455298481
1090.0, 0.0014500142465123911
1091.0, 0.001512343663832759
1092.0, 0.0015431624171840577
1093.0, 0.0008529555800869148
1094.0, 0.0014722588017737593
1095.0, 0.0007420861785194285
1096.0, 4.1859297325740424e-05
1097.0, 0.0009275186816668547
1098.0, 0.00104784919487515
1099.0, 0.0011295536588066767
1100.0, 0.0012156177716191566
1101.0, 0.0007181886954551502
1102.0, 0.0005126985280307873
1103.0, 0.0004874293896842297
1104.0, 0.0001550757844285112
1105.0, 0.0008621395712124078
1106.0, 0.0011143792345686913
1107.0, 0.00037070220416345295
1108.0, 0.0005265674692153048
1109.0, 4.1707645589914934e-05
1110.0, 0.00047709470415140516
1111.0, 0.00014920961442352757
1112.0, 5.4444688897801335e-05
1113.0, 8.731383103908235e-05
1114.0, 0.0002481210533378781
1115.0, 0.00046673699337428386
1116.0, 0.0001357096363641239
1117.0, 0.00021786533953625976
1118.0, 0.0003760249675110948
1119.0, 0.00037947299713622483
1120.0, 0.00013058102396994024
1121.0, 0.0003801295218190455
1122.0, 0.0001813699166128437
1123.0, 0.0010643056480053737
1124.0, 0.0001362187416631983
1125.0, 0.0007522561733954647
1126.0, 0.00036311713067485813
1127.0, 0.0003533064638217778
1128.0, 0.0005666918727973928
1129.0, 0.00048737507585665127
1130.0, 0.0006637965418743267
1131.0, 0.0004760677644730205
1132.0, 1.3048934520713507e-05
1133.0, 0.00037401806708271216
1134.0, 0.0005171546493208075
1135.0, 0.00011454779171113702
1136.0, 0.0005355202449166339
1137.0, 0.000229553164004663
1138.0, 0.00019677664924882128
1139.0, 6.770023727241961e-05
1140.0, 0.0002046064958198017
1141.0, 0.000855757643431663
1142.0, 0.00030819393744462676
1143.0, 0.0003755192722427686
1144.0, 0.0002990784240880067
1145.0, 0.00041344868816052896
1146.0, 0.0006336029372678395
1147.0, 0.0006092319986023287
1148.0, 0.0007838611440479001
1149.0, 0.0009101731550365239
1150.0, 0.0007554217924622174
1151.0, 0.0007312216211862626
1152.0, 0.00043790174298718787
1153.0, 0.00022983741829372907
1154.0, 0.0011076830846353867
1155.0, 0.0009751824743067844
1156.0, 0.00200597161601715
1157.0, 0.0013426002850833532
1158.0, 0.001233186446882623
1159.0, 0.0018139425425760815
1160.0, 0.0013992650108255547
1161.0, 0.0006143830989744532
1162.0, 0.0008324423472364485
1163.0, 0.0014846256593205153
1164.0, 0.0016621751131160071
1165.0, 0.0012545383732932105
1166.0, 0.0012348478002548104
1167.0, 0.001957062739567404
1168.0, 0.0019236361820558071
1169.0, 0.001984872885614222
1170.0, 0.0021919399897970438
1171.0, 0.0021059644723340955
1172.0, 0.002021728598857535
1173.0, 0.0021168058546720404
1174.0, 0.0022152110699525528
1175.0, 0.0028880921496211255
1176.0, 0.0027694900440740472
1177.0, 0.0027706216182003863
1178.0, 0.0027381260652932253
1179.0, 0.0026078098259125914
1180.0, 0.0023321777893533474
1181.0, 0.002474631399231797
1182.0, 0.002712887917337257
1183.0, 0.0025476731510327214
1184.0, 0.0024610222714688255
1185.0, 0.002489868675319787
1186.0, 0.002452526328635234
1187.0, 0.0026473304608139446
1188.0, 0.0024709216903466375
1189.0, 0.002822860192737944
1190.0, 0.002979604198911017
1191.0, 0.0019480226975559858
1192.0, 0.00244697530944645
1193.0, 0.002985652372150544
1194.0, 0.002965624347140596
1195.0, 0.0026125162914964516
1196.0, 0.0025017651806784206
1197.0, 0.0028598334561103908
1198.0, 0.003509343512255691
1199.0, 0.0026628658471710854
1200.0, 0.0018845135403889905
1201.0, 0.0023752367608879856
1202.0, 0.0025489579338718845
1203.0, 0.002341791074775982
1204.0, 0.0024307244641388883
1205.0, 0.0022420518418808265
1206.0, 0.0018311142416633655
1207.0, 0.0017507564033484916
1208.0, 0.002632961214007747
1209.0, 0.0018996821659384585
1210.0, 0.0005925810535290539
1211.0, 0.0018682084623687883
1212.0, 0.0018539845540326318
1213.0, 0.0014398201646164566
1214.0, 0.001411892742798649
1215.0, 0.0012880408420433268
1216.0, 0.001036911466343686
1217.0, 0.001035590515536987
1218.0, 0.0016509267604137374
1219.0, 0.0018480468426043328
1220.0, 0.0017174881294419514
1221.0, 0.0012408831628036277
1222.0, 0.0006194627917543569
1223.0, 0.0009368595420832382
1224.0, 0.0012674074444769077
1225.0, 0.0007513331357481267
1226.0, 0.0006399475032334413
1227.0, 0.0008890664904785965
1228.0, 0.0009111027214081786
1229.0, 0.0013294051198268297
1230.0, 0.0007517699092717794
1231.0, 0.00027983298170318455
1232.0, 0.0005049366514704599
1233.0, 0.00024553400677888637
1234.0, 0.0007074555227177296
1235.0, 0.00058620960935281
1236.0, 0.00023365163864507858
1237.0, 0.0003225008993062979
1238.0, 0.0006866849803448094
1239.0, 0.0006456142913245438
1240.0, 0.0007315436137477453
1241.0, 0.0006829840963646793
1242.0, 0.0006586545870889359
1243.0, 0.0007479048858014658
1244.0, 0.0002463615902328137
1245.0, 0.00014916682933713215
1246.0, 0.00020107596495327903
1247.0, 0.00036050181798876976
1248.0, 0.0005593980565332979
1249.0, 0.0006835321629019912
1250.0, 0.0009020094429437844
1251.0, 0.00033344499101822204
1252.0, 0.0003479376388241065
1253.0, 0.0005268141942593073
1254.0, 0.0005343270919630833
1255.0, 0.0002610765813085407
1256.0, 0.0006390079025101334
1257.0, 4.863097862919886e-05
1258.0, 0.000559388571268348
1259.0, 0.0004139839801122125
1260.0, 0.0005776195865420975
1261.0, 0.0011073420601875922
1262.0, 0.0011178965530361654
1263.0, 0.0008357921692971666
1264.0, 0.0009582918113407434
1265.0, 0.0008672492390749908
1266.0, 0.00040522001016591046
1267.0, 0.0009760006707093947
1268.0, 0.0011122245870989486
1269.0, 0.001279514562168644
1270.0, 0.0008449398187856403
1271.0, 0.0007076723058967799
1272.0, 0.000562740007311228
1273.0, 0.0005755030434025141
1274.0, 0.0005070604117725471
1275.0, 0.0006019981475644816
1276.0, 0.0010712515555939559
1277.0, 0.0003606053147759264
1278.0, 0.0001203446727359366
1279.0, 0.0005863595911412202
1280.0, 0.0002251880532369448
1281.0, 0.0007774888055257806
1282.0, 0.0007010496618276464
1283.0, 6.95630195299013e-05
1284.0, 0.00041861492273738177
1285, 0.0
1286, 0.0
1287, 0.0
1288, 0.0
1289, 0.0
1290, 0.0
1291, 0.0
1292, 0.0
1293, 0.0
1294, 0.0
1295, 0.0
1296, 0.0
1297, 0.0
1298, 0.0
1299, 0.0
1300, 0.0
1301, 0.0
1302, 0.0
1303, 0.0
1304, 0.0
1305, 0.0
1306, 0.0
1307, 0.0
1308, 0.0
1309, 0.0
1310, 0.0
1311, 0.0
1312, 0.0
1313, 0.0
1314, 0.0
1315, 0.0
1316, 0.0
1317, 0.0
1318, 0.0
1319, 0.0
1320, 0.0
1321, 0.0
1322, 0.0
1323, 0.0
1324, 0.0
1325, 0.0
1326, 0.0
1327, 0.0
1328, 0.0
1329, 0.0
1330, 0.0
1331, 0.0
1332, 0.0
1333, 0.0
1334, 0.0
1335, 0.0
1336, 0.0
1337, 0.0
1338, 0.0
1339, 0.0
1340, 0.0
1341, 0.0
1342, 0.0
1343, 0.0
1344, 0.0
1345, 0.0
1346, 0.0
1347, 0.0
1348, 0.0
1349, 0.0
1350, 0.0
1351, 0.0
1352, 0.0
1353, 0.0
1354, 0.0
1355, 0.0
1356, 0.0
1357, 0.0
1358, 0.0
1359, 0.0
1360, 0.0
1361, 0.0
1362, 0.0
1363, 0.0
1364, 0.0
1365, 0.0
1366, 0.0
1367, 0.0
1368, 0.0
1369, 0.0
1370, 0.0
1371, 0.0
1372, 0.0
1373, 0.0
1374, 0.0
1375, 0.0
1376, 0.0
1377, 0.0
1378, 0.0
1379, 0.0
1380, 0.0
1381, 0.0
1382, 0.0
1383, 0.0
1384, 0.0
1385, 0.0
1386, 0.0
1387, 0.0
1388, 0.0
1389, 0.0
1390, 0.0
1391, 0.0
1392, 0.0
1393, 0.0
1394, 0.0
1395, 0.0
1396, 0.0
1397, 0.0
1398, 0.0
1399, 0.0
1400, 0.0
1401, 0.0
1402, 0.0
1403, 0.0
1404, 0.0
1405, 0.0
1406, 0.0
1407, 0.0
1408, 0.0
1409, 0.0
1410, 0.0
1411, 0.0
1412, 0.0
1413, 0.0
1414, 0.0
1415, 0.0
1416, 0.0
1417, 0.0
1418, 0.0
1419, 0.0
1420, 0.0
1421, 0.0
1422, 0.0
1423, 0.0
1424, 0.0
1425, 0.0
1426, 0.0
1427, 0.0
1428, 0.0
1429, 0.0
1430, 0.0
1431, 0.0
1432, 0.0
1433, 0.0
1434, 0.0
1435, 0.0
1436, 0.0
1437, 0.0
1438, 0.0
1439, 0.0
1440, 0.0
1441, 0.0
1442, 0.0
1443, 0.0
1444, 0.0
1445, 0.0
1446, 0.0
1447, 0.0
1448, 0.0
1449, 0.0
1450, 0.0
1451, 0.0
1452, 0.0
1453, 0.0
1454, 0.0
1455, 0.0
1456, 0.0
1457, 0.0
1458, 0.0
1459, 0.0
1460, 0.0
1461, 0.0
1462, 0.0
1463, 0.0
1464, 0.0
1465, 0.0
1466, 0.0
1467, 0.0
1468, 0.0
1469, 0.0
1470, 0.0
1471, 0.0
1472, 0.0
1473, 0.0
1474, 0.0
1475, 0.0
1476, 0.0
1477, 0.0
1478, 0.0
1479, 0.0
1480, 0.0
1481, 0.0
1482, 0.0
1483, 0.0
1484, 0.0
1485, 0.0
1486, 0.0
1487, 0.0
1488, 0.0
1489, 0.0
1490, 0.0
1491, 0.0
1492, 0.0
1493, 0.0
1494, 0.0
1495, 0.0
1496, 0.0
1497, 0.0
1498, 0.0
1499, 0.0
1500, 0.0
1501, 0.0
1502, 0.0
1503, 0.0
1504, 0.0
1505, 0.0
1506, 0.0
1507, 0.0
1508, 0.0
1509, 0.0
1510, 0.0
1511, 0.0
1512, 0.0
1513, 0.0
1514, 0.0
1515, 0.0
1516, 0.0
1517, 0.0
1518, 0.0
1519, 0.0
1520, 0.0
1521, 0.0
1522, 0.0
1523, 0.0
1524, 0.0
1525, 0.0
1526, 0.0
1527, 0.0
1528, 0.0
1529, 0.0
1530, 0.0
1531, 0.0
1532, 0.0
1533, 0.0
1534, 0.0
1535, 0.0
1536, 0.0
1537, 0.0
1538, 0.0
1539, 0.0
1540, 0.0
1541, 0.0
1542, 0.0
1543, 0.0
1544, 0.0
1545, 0.0
1546, 0.0
1547, 0.0
1548, 0.0
1549, 0.0
1550, 0.0
1551, 0.0
1552, 0.0
1553, 0.0
1554, 0.0
1555, 0.0
1556, 0.0
1557, 0.0
1558, 0.0
1559, 0.0
1560, 0.0
1561, 0.0
1562, 0.0
1563, 0.0
1564, 0.0
1565, 0.0
1566, 0.0
1567, 0.0
1568, 0.0
1569, 0.0
1570, 0.0
1571, 0.0
1572, 0.0
1573, 0.0
1574, 0.0
1575, 0.0
1576, 0.0
1577, 0.0
1578, 0.0
1579, 0.0
1580, 0.0
1581, 0.0
1582, 0.0
1583, 0.0
1584, 0.0
1585, 0.0
1586, 0.0
1587, 0.0
1588, 0.0
1589, 0.0
1590, 0.0
1591, 0.0
1592, 0.0
1593, 0.0
1594, 0.0
1595, 0.0
1596, 0.0
1597, 0.0
1598, 0.0
1599, 0.0
