30, 0.0
31, 0.0
32, 0.0
33, 0.0
34, 0.0
35, 0.0
36, 0.0
37, 0.0
38, 0.0
39, 0.0
40, 0.0
41, 0.0
42, 0.0
43, 0.0
44, 0.0
45, 0.0
46, 0.0
47, 0.0
48, 0.0
49, 0.0
50, 0.0
51, 0.0
52, 0.0
53, 0.0
54, 0.0
55, 0.0
56, 0.0
57, 0.0
58, 0.0
59, 0.0
60, 0.0
61, 0.0
62, 0.0
63, 0.0
64, 0.0
65, 0.0
66, 0.0
67, 0.0
68, 0.0
69, 0.0
70, 0.0
71, 0.0
72, 0.0
73, 0.0
74, 0.0
75, 0.0
76, 0.0
77, 0.0
78, 0.0
79, 0.0
80, 0.0
81, 0.0
82, 0.0
83, 0.0
84, 0.0
85, 0.0
86, 0.0
87, 0.0
88, 0.0
89, 0.0
90, 0.0
91, 0.0
92, 0.0
93, 0.0
94, 0.0
95, 0.0
96, 0.0
97, 0.0
98, 0.0
99, 0.0
100, 0.0
101, 0.0
102, 0.0
103, 0.0
104, 0.0
105, 0.0
106, 0.0
107, 0.0
108, 0.0
109, 0.0
110, 0.0
111, 0.0
112, 0.0
113, 0.0
114, 0.0
115, 0.0
116, 0.0
117, 0.0
118, 0.0
119, 0.0
120, 0.0
121, 0.0
122, 0.0
123, 0.0
124, 0.0
125, 0.0
126, 0.0
127, 0.0
128, 0.0
129, 0.0
130, 0.0
131, 0.0
132, 0.0
133, 0.0
134, 0.0
135, 0.0
136, 0.0
137, 0.0
138, 0.0
139, 0.0
140, 0.0
141, 0.0
142, 0.0
143, 0.0
144, 0.0
145, 0.0
146, 0.0
147, 0.0
148, 0.0
149, 0.0
150, 0.0
151, 0.0
152, 0.0
153, 0.0
154.0, 0.001999784078624675
155.0, 0.0018204428268505852
156.0, 0.010668810702839093
157.0, 0.010174336714727963
158.0, 0.0014508940056655788
159.0, 0.002759315894589543
160.0, 0.01671747333559418
161.0, 0.03016846446088911
162.0, 0.015016630220129574
163.0, 0.026961372993289445
164.0, 0.03999960948460966
165.0, 0.036396718640918715
166.0, 0.03598481224806658
167.0, 0.030011380782539607
168.0, 0.028259553602559193
169.0, 0.029257538945086103
170.0, 0.023720917254404544
171.0, 0.02448342420936317
172.0, 0.02276148089252851
173.0, 0.022071316865982918
174.0, 0.025624822958295185
175.0, 0.03188523608088501
176.0, 0.03851738353978669
177.0, 0.03542048158292836
178.0, 0.02867077871625988
179.0, 0.027081782463060172
180.0, 0.022538766758733262
181.0, 0.03305104581286974
182.0, 0.03581764152195995
183.0, 0.028592147008229988
184.0, 0.025131387998216015
185.0, 0.02683748772095533
186.0, 0.03006429907586222
187.0, 0.030160101277712407
188.0, 0.02785066003094191
189.0, 0.032787665958581735
190.0, 0.0328819933663834
191.0, 0.025057665200778716
192.0, 0.017476549190768412
193.0, 0.02236435794835793
194.0, 0.01533399465052724
195.0, 0.024400100938658704
196.0, 0.031054827410411406
197.0, 0.014359802102135982
198.0, 0.018364604599635827
199.0, 0.019831469164055072
200.0, 0.01573702560515299
201.0, 0.00930866035232967
202.0, 0.0071021054016338035
203.0, 0.011709018216031224
204.0, 0.01639082297749227
205.0, 0.006927199687291644
206.0, 0.010464868029139133
207.0, 0.007332162072304684
208.0, 0.003494602507931748
209.0, 0.00473364524001653
210.0, 0.007974103060972078
211.0, 0.0009144086646985231
212.0, 0.0031646668345594983
213.0, 0.004251881013682038
214.0, 0.002474422991877905
215.0, 0.001334749391300812
216.0, 0.002922718142662187
217.0, 0.00809439311715812
218.0, 0.005217780556479808
219.0, 0.006007228116447924
220.0, 0.016069141467200836
221.0, 0.016208377963769026
222.0, 0.0030499345240372414
223.0, 0.0082345162596663
224.0, 0.02487898040440524
225.0, 0.02520617635941299
226.0, 0.03590806461719195
227.0, 0.039718205724266174
228.0, 0.03866980690731736
229.0, 0.03909556392330496
230.0, 0.0417208977583789
231.0, 0.031762663376375816
232.0, 0.03763537244840015
233.0, 0.05468967751560543
234.0, 0.06500715514730107
235.0, 0.06653055046639834
236.0, 0.05925237984868042
237.0, 0.058251637579093386
238.0, 0.06025599070968784
239.0, 0.05490895018578882
240.0, 0.0395691896805575
241.0, 0.023039679920542656
242.0, 0.013712320974063968
243.0, 0.009847291844922546
244.0, 0.006814672429144363
245.0, 0.014088480966546331
246.0, 0.008860508606538888
247.0, 0.005422418143056076
248.0, 0.010396685813607164
249.0, 0.01220756096351226
250.0, 0.007907100454410492
251.0, 0.00955243708061068
252.0, 0.0079298773086688
253.0, 0.0038060577109625643
254.0, 0.002972927559531286
255.0, 0.008887212314264956
256.0, 0.0191584407321256
257.0, 0.015984049204017827
258.0, 0.004618438947491924
259.0, 0.018327305502861508
260.0, 0.010986283803938034
261.0, 0.007781091118181009
262.0, 0.018063538311955323
263.0, 0.021328193039871348
264.0, 0.010673280401246276
265.0, 0.01164050522992059
266.0, 0.011031725953507448
267.0, 0.010161831035702451
268.0, 0.01800050728097122
269.0, 0.007103147005404818
270.0, 0.011469285178290009
271.0, 0.005558475065608459
272.0, 0.008935475930633301
273.0, 0.004119825684610168
274.0, 0.002932497711903688
275.0, 0.005938633367802481
276.0, 0.0021980822508417654
277.0, 0.0025616672312734727
278.0, 0.0033187189516246177
279.0, 0.01161930590423733
280.0, 0.01145142524070943
281.0, 0.005949258602911632
282.0, 0.011751197431665632
283.0, 0.012435154449307489
284.0, 0.017016284744766148
285.0, 0.0288537352223273
286.0, 0.03737609339537188
287.0, 0.03627257905684822
288.0, 0.04055203436134422
289.0, 0.057055068511716
290.0, 0.055583541719187037
291.0, 0.04645786291094714
292.0, 0.05241250222202379
293.0, 0.052634977284907195
294.0, 0.06388774274282921
295.0, 0.06041510361443906
296.0, 0.050608030534382696
297.0, 0.059019827710674315
298.0, 0.05904020919174373
299.0, 0.06462758744207397
300.0, 0.06840672475675841
301.0, 0.06526326555433447
302.0, 0.059651602739869684
303.0, 0.057157230269208686
304.0, 0.06370919515682061
305.0, 0.07121266955408151
306.0, 0.0706315943879694
307.0, 0.06307925564208307
308.0, 0.06587165480558574
309.0, 0.07737165759922474
310.0, 0.09104325071963332
311.0, 0.10113540512764763
312.0, 0.10846444538738002
313.0, 0.1273540203617968
314.0, 0.14174856106810457
315.0, 0.1461501246648151
316.0, 0.14959095904419156
317.0, 0.16274034160123493
318.0, 0.16575407350521626
319.0, 0.16474979570027284
320.0, 0.18048489615678343
321.0, 0.20494261328657454
322.0, 0.21453334517069464
323.0, 0.23307360052331552
324.0, 0.25612390239815525
325.0, 0.28079322133337636
326.0, 0.29852197070295383
327.0, 0.312739405919786
328.0, 0.3542653300203244
329.0, 0.3626928430475207
330.0, 0.35544720860469614
331.0, 0.3473710200842707
332.0, 0.33469271781585397
333.0, 0.3146576092120834
334.0, 0.27902147980682535
335.0, 0.23824868850807715
336.0, 0.2045039404629902
337.0, 0.1837169753269433
338.0, 0.1661836193646251
339.0, 0.1475054521501542
340.0, 0.13287935705682655
341.0, 0.1234170526245362
342.0, 0.11008671036618065
343.0, 0.08842677384253861
344.0, 0.10275878824326608
345.0, 0.11486585369500917
346.0, 0.11419670507755633
347.0, 0.11250908036164026
348.0, 0.11669718655508055
349.0, 0.12764928288158553
350.0, 0.13872379980538876
351.0, 0.14317642719347567
352.0, 0.14704569151939395
353.0, 0.16243430774522893
354.0, 0.16674919827440368
355.0, 0.18343463594648332
356.0, 0.19132401672740432
357.0, 0.1891222959948839
358.0, 0.1995121422158315
359.0, 0.19728952581056075
360.0, 0.19533565865628966
361.0, 0.1826029842142635
362.0, 0.1628181426045622
363.0, 0.14677159362433484
364.0, 0.11823854908422252
365.0, 0.09886417455327347
366.0, 0.07717487401037605
367.0, 0.06189939468068145
368.0, 0.05995019754638193
369.0, 0.04769954160919331
370.0, 0.040062156979787863
371.0, 0.03705716764534803
372.0, 0.038935575564284126
373.0, 0.04352836170410578
374.0, 0.03486167935494266
375.0, 0.03974149886903201
376.0, 0.03404535156802439
377.0, 0.03048184376293382
378.0, 0.03587854192103483
379.0, 0.031201664160762806
380.0, 0.029307505650493573
381.0, 0.031543471254282446
382.0, 0.023079727781128715
383.0, 0.013233039480006854
384.0, 0.020012202374285058
385.0, 0.018417134463793002
386.0, 0.01765209827969626
387.0, 0.017421785032853302
388.0, 0.01832294376396175
389.0, 0.02235257531867885
390.0, 0.028713713016550114
391.0, 0.027638782715014278
392.0, 0.02039633221256828
393.0, 0.019154613139097817
394.0, 0.025456833225331522
395.0, 0.023277859333844915
396.0, 0.015487561353226766
397.0, 0.012897581304452366
398.0, 0.012909118941863598
399.0, 0.013908818206678346
400.0, 0.01778515355591555
401.0, 0.023236464274008453
402.0, 0.014273597200596498
403.0, 0.02074340865717356
404.0, 0.027665498826151727
405.0, 0.01647158038757365
406.0, 0.0180125490663567
407.0, 0.021183455257745603
408.0, 0.017976774777364164
409.0, 0.011790930349550328
410.0, 0.013476575134479465
411.0, 0.021774248531701998
412.0, 0.008968930384829283
413.0, 0.00033817714814038
414.0, 0.0027495553156456714
415.0, 0.0012244661890517415
416.0, 0.0018476471038588113
417.0, 0.0019363833313129238
418.0, 0.0021399940125775238
419.0, 0.003369301435283379
420.0, 0.007499301278520842
421.0, 0.00638939804762678
422.0, 0.0038451329669921606
423.0, 0.007742927579264505
424.0, 0.013822421438909424
425.0, 0.008618258696658786
426.0, 0.0020742259037550273
427.0, 0.006890249536080088
428.0, 0.012457799429223622
429.0, 0.004927799368291272
430.0, 0.0054724484257060646
431.0, 0.00879323612588327
432.0, 0.00801489605946571
433.0, 0.013579591272115683
434.0, 0.02756622405935242
435.0, 0.04187070085724764
436.0, 0.047762051323506687
437.0, 0.059336781938630845
438.0, 0.08089906366773379
439.0, 0.08181100570338568
440.0, 0.09065605271777731
441.0, 0.10023915903840874
442.0, 0.12472539688644918
443.0, 0.1515696915323987
444.0, 0.15679238975862472
445.0, 0.16776903882735042
446.0, 0.17932059499810124
447.0, 0.17764881618256817
448.0, 0.16486059161004396
449.0, 0.1493801517448203
450.0, 0.13557176678137206
451.0, 0.11323668568777992
452.0, 0.08040439627545279
453.0, 0.05862937726041165
454.0, 0.048604847763828896
455.0, 0.03270340595957726
456.0, 0.00817972851356167
457.0, 0.004846427626440952
458.0, 0.0042708726730523155
459.0, 0.0008350496455210725
460.0, 0.003714019027533402
461.0, 0.008667978060198615
462.0, 0.012054965733666066
463.0, 0.01544179320338254
464.0, 0.020534738771293984
465.0, 0.026852704800156363
466.0, 0.031485051901933264
467.0, 0.031013527591355203
468.0, 0.04234025005116992
469.0, 0.05046290144349006
470.0, 0.06784169374264483
471.0, 0.08951860894705145
472.0, 0.10132532894130192
473.0, 0.10976298177485748
474.0, 0.13749916478407542
475.0, 0.16794586678962634
476.0, 0.18760946503055762
477.0, 0.20018792163589427
478.0, 0.21420142837488698
479.0, 0.21471225738054392
480.0, 0.21693596720661795
481.0, 0.23699609977551922
482.0, 0.2480641614276176
483.0, 0.23922737809507386
484.0, 0.23229817973132738
485.0, 0.21999937171383557
486.0, 0.19745771043731417
487.0, 0.1845358978601017
488.0, 0.16394200620566277
489.0, 0.13044849335079592
490.0, 0.11290922555369175
491.0, 0.09161170947561482
492.0, 0.07701495439874008
493.0, 0.06410370538131314
494.0, 0.051830099033729676
495.0, 0.043354619011816954
496.0, 0.03872933461997355
497.0, 0.03108456809338776
498.0, 0.02477920743018873
499.0, 0.02242102736806933
500.0, 0.018167337414536303
501.0, 0.010325697993500246
502.0, 0.008554511906376775
503.0, 0.004487422619433112
504.0, 0.010611440791026699
505.0, 0.016929907166325003
506.0, 0.015384938189437793
507.0, 0.009567130317302533
508.0, 0.013346388317634138
509.0, 0.019436902310429327
510.0, 0.013888927142577653
511.0, 0.011692147722357039
512.0, 0.01316088292239644
513.0, 0.009306820842788886
514.0, 0.006418547273779947
515.0, 0.013832790620022484
516.0, 0.030146861831577717
517.0, 0.04062386876544267
518.0, 0.043448858254804865
519.0, 0.04614268442722807
520.0, 0.04944496699062349
521.0, 0.05127793550589799
522.0, 0.061152454723858975
523.0, 0.05779691594979483
524.0, 0.04428849346245393
525.0, 0.035421666181047126
526.0, 0.02716913814712886
527.0, 0.030039214576143006
528.0, 0.01718769818593632
529.0, 0.004776699822682664
530.0, 0.001015490333731007
531.0, 0.0012256142477980996
532.0, 0.004881666542419199
533.0, 0.0025509758437010596
534.0, 0.0026495942560714296
535.0, 0.0016620665745295609
536.0, 0.0008240577549580868
537.0, 0.002120371598420177
538.0, 0.015460690691838195
539.0, 0.022463597266063968
540.0, 0.030059832290425813
541.0, 0.03831313496314485
542.0, 0.05382509384904838
543.0, 0.07107979500343449
544.0, 0.07547678278847608
545.0, 0.1043176386881393
546.0, 0.1418770349303399
547.0, 0.1650585424712521
548.0, 0.18636017956518436
549.0, 0.21497181113315256
550.0, 0.24071200318994349
551.0, 0.25941920586931744
552.0, 0.28599806081759366
553.0, 0.32240260544914734
554.0, 0.34707999319216676
555.0, 0.357976395328687
556.0, 0.36913970580720457
557.0, 0.36377899436613564
558.0, 0.36620986579443865
559.0, 0.36823844166150027
560.0, 0.34292213383752945
561.0, 0.3095530365907105
562.0, 0.2963051637521435
563.0, 0.2798220324603957
564.0, 0.24189641202205536
565.0, 0.21988102134100151
566.0, 0.21401227053231045
567.0, 0.21565248562827857
568.0, 0.22053613731220023
569.0, 0.21482633782760344
570.0, 0.2082155563486351
571.0, 0.20172597972095777
572.0, 0.19818995810833442
573.0, 0.19879267130726994
574.0, 0.19931338882814192
575.0, 0.19529903331130785
576.0, 0.20806276864366474
577.0, 0.2177145986280356
578.0, 0.22497322895439895
579.0, 0.23865948443104942
580.0, 0.2658979151903109
581.0, 0.30409072861507785
582.0, 0.33823555364071806
583.0, 0.34760632917617035
584.0, 0.3999943198516703
585.0, 0.44341404489299174
586.0, 0.47966116944996856
587.0, 0.5342660404451429
588.0, 0.5990871622409268
589.0, 0.6468448477871854
590.0, 0.7263954621394466
591.0, 0.8076548216847831
592.0, 0.8947109391489121
593.0, 0.9688476131266411
594.0, 0.9966457486506448
595.0, 0.9943272259901904
596.0, 0.9556669185263633
597.0, 0.8490589873823662
598.0, 0.704287308034706
599.0, 0.5552498104394024
600.0, 0.4258624683104749
601.0, 0.32636306780989643
602.0, 0.2339555239970806
603.0, 0.17497086982540283
604.0, 0.13247162408763094
605.0, 0.10627792637212086
606.0, 0.08753310042544056
607.0, 0.06488870286408893
608.0, 0.044443071432584094
609.0, 0.036263826782235636
610.0, 0.02700956173403811
611.0, 0.01993578256524049
612.0, 0.020186991725172614
613.0, 0.021060909374308396
614.0, 0.012873391983009696
615.0, 0.0051027339908547385
616.0, 0.01589216428625193
617.0, 0.014285909088349893
618.0, 0.007839175346755628
619.0, 0.013723583478981312
620.0, 0.024585553565116703
621.0, 0.017877814390676795
622.0, 0.007827251997671744
623.0, 0.014933085310248397
624.0, 0.005421909459346779
625.0, 0.004167181676305724
626.0, 0.0018013537421871172
627.0, 0.0030095733058989934
628.0, 0.008305918272331137
629.0, 0.006669178825494965
630.0, 0.007561463332213789
631.0, 0.0022102053973817306
632.0, 0.008510507233262457
633.0, 0.000730995100225473
634.0, 0.0023695322796061765
635.0, 0.0029679336216729894
636.0, 0.008936597657486407
637.0, 0.0020137263452843918
638.0, 0.0030291718748283194
639.0, 0.0036775275791446384
640.0, 0.0016247324457928287
641.0, 0.009693436268285645
642.0, 0.00808294664013337
643.0, 0.004430595923645143
644.0, 0.0030521494934202345
645.0, 0.0014773524889057305
646.0, 0.0014357749827561671
647.0, 0.003724762002665441
648.0, 0.0009406221913134953
649.0, 0.006450528023815207
650.0, 0.020821426472530387
651.0, 0.010612548471795075
652.0, 0.006226190114252322
653.0, 0.006749757666837968
654.0, 0.0056903566165586224
655.0, 0.01284700790222821
656.0, 0.021537216127541076
657.0, 0.014894152443433756
658.0, 0.005798257844820449
659.0, 0.0033652709010879695
660.0, 0.008594495959200858
661.0, 0.028283108442118045
662.0, 0.021106448825375868
663.0, 0.014854057457094809
664.0, 0.019377118867508224
665.0, 0.0125942305921333
666.0, 0.01154779684239345
667.0, 0.010949572536568796
668.0, 0.0070156527723076526
669.0, 0.013205469206276736
670.0, 0.025254126443361398
671.0, 0.017264890244684684
672.0, 0.005724838528653646
673.0, 0.013547898017740827
674.0, 0.019140371504058343
675.0, 0.013092474127929795
676.0, 0.01814108529683071
677.0, 0.023179980426735032
678.0, 0.026706069040443554
679.0, 0.025652999547489303
680.0, 0.022007947337808354
681.0, 0.02406572139208913
682.0, 0.025741967577135098
683.0, 0.020019490149157212
684.0, 0.028101676420026728
685.0, 0.024560719146525547
686.0, 0.020225079563117757
687.0, 0.01991454238434283
688.0, 0.01876161993248458
689.0, 0.02416068180424522
690.0, 0.024617914741714087
691.0, 0.003274194301277135
692.0, 0.007986839661255657
693.0, 0.018287143334662647
694.0, 0.01546903033747856
695.0, 0.02764921018496968
696.0, 0.02831545207363645
697.0, 0.019213490939647988
698.0, 0.026416150143143413
699.0, 0.02253410740418171
700.0, 0.026784322936539703
701.0, 0.02321185727944416
702.0, 0.019744681498414574
703.0, 0.022352732257464432
704.0, 0.021939988505758175
705.0, 0.020639388374035804
706.0, 0.03249185371588274
707.0, 0.02884474707561037
708.0, 0.03079115394509308
709.0, 0.030465100677701716
710.0, 0.03640183210168729
711.0, 0.04311008376088775
712.0, 0.04002320939142062
713.0, 0.03474114466229015
714.0, 0.045376294991003735
715.0, 0.06152830590809804
716.0, 0.05654799570329878
717.0, 0.043119850857976386
718.0, 0.0514582219904757
719.0, 0.06987950732672488
720.0, 0.07329907900004995
721.0, 0.06788164753450879
722.0, 0.07155478004307726
723.0, 0.07557292600460827
724.0, 0.07196679968938027
725.0, 0.061781241716454806
726.0, 0.05880053534346987
727.0, 0.059349688068994336
728.0, 0.05590401145430995
729.0, 0.06158034767454393
730.0, 0.05249205613620062
731.0, 0.04265458605227903
732.0, 0.04421888968647257
733.0, 0.045311686033051767
734.0, 0.04314385727539949
735.0, 0.038607764421807585
736.0, 0.03025512276958863
737.0, 0.03947877551400066
738.0, 0.03306891675983594
739.0, 0.030190706771139657
740.0, 0.0292238242295496
741.0, 0.02285368603793286
742.0, 0.021960787537997985
743.0, 0.03132462836103855
744.0, 0.03290459917246159
745.0, 0.019799475659418194
746.0, 0.022247903122228702
747.0, 0.014613057646276965
748.0, 0.012518717239574323
749.0, 0.01584240643265102
750.0, 0.018667307147946476
751.0, 0.01745301439395042
752.0, 0.012437585932450321
753.0, 0.010674873777962376
754.0, 0.006553509338010126
755.0, 0.01793664954865559
756.0, 0.007746384900736611
757.0, 0.005078840020209127
758.0, 0.006596624634558442
759.0, 0.018510776874458703
760.0, 0.010909088813651078
761.0, 0.00092802937222478
762.0, 0.0032582556676854137
763.0, 0.0061918755089249294
764.0, 0.009775549943424224
765.0, 0.004888004731297404
766.0, 0.007888428135347927
767.0, 0.013265615179027848
768.0, 0.002374935649607981
769.0, 0.009653409401545155
770.0, 0.006860688942781915
771.0, 0.004060374654911084
772.0, 0.0074251454253144965
773.0, 0.0016163228866079835
774.0, 0.005346002724604675
775.0, 0.004413785588190904
776.0, 0.003019980971257179
777.0, 0.00775637704785098
778.0, 0.007048716588980059
779.0, 0.004970729144483318
780.0, 0.0021449792162755465
781.0, 0.0056060988225885055
782.0, 0.005248025064226719
783.0, 0.010587500974113113
784.0, 0.019404969604052476
785.0, 0.009390693935687536
786.0, 0.0029673565025724385
787.0, 0.0007818297673555293
788.0, 0.004485134504365749
789.0, 0.009324509999053042
790.0, 0.015200388327604205
791.0, 0.015828766526038863
792.0, 0.008336524855812473
793.0, 0.0057404329364294324
794.0, 0.013123873782643316
795.0, 0.01735774548387448
796.0, 0.009587116277636696
797.0, 0.013560426184958578
798.0, 0.010829227619557937
799.0, 0.011598151948717885
800.0, 0.01954926950069932
801.0, 0.016840591330778826
802.0, 0.015616201996310449
803.0, 0.019515991350375718
804.0, 0.017246094920601713
805.0, 0.02534197567979217
806.0, 0.024276234687445598
807.0, 0.02422617250172801
808.0, 0.023177143890437187
809.0, 0.021375365392757324
810.0, 0.034127386529595696
811.0, 0.03034348765410906
812.0, 0.024797660063366145
813.0, 0.026286206561596193
814.0, 0.04078739153522571
815.0, 0.041639123672134924
816.0, 0.04071030168779735
817.0, 0.047915488485780366
818.0, 0.04636206318747588
819.0, 0.033898911530256266
820.0, 0.043264193206932956
821.0, 0.047290134367615616
822.0, 0.052816521536317156
823.0, 0.0647149196187778
824.0, 0.07324301558011309
825.0, 0.0757689439547128
826.0, 0.08259285942638661
827.0, 0.09432315692098488
828.0, 0.10512273482561516
829.0, 0.13630082481299835
830.0, 0.12617893490309148
831.0, 0.14178920479281315
832.0, 0.16637696284245967
833.0, 0.18761995199572742
834.0, 0.20832690634767423
835.0, 0.22757356532130962
836.0, 0.2434174594973925
837.0, 0.26209249222908165
838.0, 0.28702021473729256
839.0, 0.3067667601111256
840.0, 0.3110843948389349
841.0, 0.322754927668608
842.0, 0.3223458478920664
843.0, 0.3102639159458284
844.0, 0.28926016949280803
845.0, 0.2591188285917951
846.0, 0.2284040840748381
847.0, 0.1813360740666334
848.0, 0.16891088433334064
849.0, 0.1359674544559438
850.0, 0.11047384930402525
851.0, 0.09441817089204445
852.0, 0.07484691422698816
853.0, 0.06476628347427492
854.0, 0.06864369862812755
855.0, 0.06505527584675073
856.0, 0.05024548793124761
857.0, 0.047748394342755254
858.0, 0.05406254892105653
859.0, 0.04135711582794882
860.0, 0.04094445066629693
861.0, 0.039527838145389044
862.0, 0.04256400565903899
863.0, 0.04578691486232266
864.0, 0.03511616614485438
865.0, 0.03833318442165323
866.0, 0.03282955752817437
867.0, 0.04256792040409422
868.0, 0.02986592476997653
869.0, 0.03199903450758867
870.0, 0.03422816044646558
871.0, 0.035384381538756775
872.0, 0.025935190687848404
873.0, 0.02147203246903361
874.0, 0.030116673768417673
875.0, 0.015377182746605825
876.0, 0.019551149153661622
877.0, 0.018808761720637876
878.0, 0.018544291483552067
879.0, 0.014777844957461775
880.0, 0.02375010439318874
881.0, 0.023456067767210625
882.0, 0.01422225324191975
883.0, 0.01180910180180985
884.0, 0.005402172721474233
885.0, 0.001918900836194086
886.0, 0.0009553271008307229
887.0, 0.0017913176387280218
888.0, 0.005369681954490778
889.0, 0.0023036176230890304
890.0, 0.0026680747396518054
891.0, 0.00973552224718715
892.0, 0.01344268681822925
893.0, 0.008260934703422292
894.0, 0.0029596907173142038
895.0, 0.004999370699098825
896.0, 0.010120967323238547
897.0, 0.002369339143280238
898.0, 0.009270791219340607
899.0, 0.011605500595961528
900.0, 0.010515711855884988
901.0, 0.0011956168770534085
902.0, 0.00854935685686234
903.0, 0.010511907770898797
904.0, 0.0022616020092700037
905.0, 0.008124676791068534
906.0, 0.007769377051690954
907.0, 0.020624749213857176
908.0, 0.020522145811462243
909.0, 0.019858513995436016
910.0, 0.020054269557263766
911.0, 0.018980301709150722
912.0, 0.010924817517764559
913.0, 0.0055451473700949385
914.0, 0.013886630517967988
915.0, 0.015465087265088882
916.0, 0.014393630023001884
917.0, 0.02613064350362347
918.0, 0.018273176239699943
919.0, 0.01301456191493728
920.0, 0.012949200372310109
921.0, 0.010372259035880623
922.0, 0.0028373872990090166
923.0, 0.005265771171161429
924.0, 0.01697061329969454
925.0, 0.013047096477690194
926.0, 0.01072447574194312
927.0, 0.00913395595603091
928.0, 0.010984740824148628
929.0, 0.00831346767323805
930.0, 0.00474572470768639
931.0, 0.006216776257172869
932.0, 0.009498112164025798
933.0, 0.005856241809651538
934.0, 0.005929869165163205
935.0, 0.012105404983673173
936.0, 0.012629360825844094
937.0, 0.01456891274395655
938.0, 0.012407827976428892
939.0, 0.018918601198873237
940.0, 0.020392868086289227
941.0, 0.01909796704448713
942.0, 0.01832773463709241
943.0, 0.008981663022863686
944.0, 0.005758766256933898
945.0, 0.00980659457598918
946.0, 0.011487757954214988
947.0, 0.015217098277344018
948.0, 0.011325560010448371
949.0, 0.017949271114113038
950.0, 0.008191497317164533
951.0, 0.018837646926755117
952.0, 0.024590868056617844
953.0, 0.027041821062154355
954.0, 0.031204838919082583
955.0, 0.028334507633304837
956.0, 0.03264826766949371
957.0, 0.047945909855091715
958.0, 0.04848115374124545
959.0, 0.05214763717828864
960.0, 0.06192682702677668
961.0, 0.05150838834786012
962.0, 0.054618213077872846
963.0, 0.05346234661142203
964.0, 0.05064547974297708
965.0, 0.04974552853150387
966.0, 0.04758198829963177
967.0, 0.05027915330575306
968.0, 0.05705243635383825
969.0, 0.058373664047722665
970.0, 0.05197177508767382
971.0, 0.053477159955183734
972.0, 0.06892686524025317
973.0, 0.059652437404638804
974.0, 0.0743134930002253
975.0, 0.07164872151913436
976.0, 0.0668617520094523
977.0, 0.055565400900618934
978.0, 0.06152289186769157
979.0, 0.0646804901107268
980.0, 0.059416749915704
981.0, 0.061695754205045514
982.0, 0.0625192471357292
983.0, 0.055673512758601496
984.0, 0.05896776360999591
985.0, 0.054940423402572526
986.0, 0.05011485596857796
987.0, 0.04645283009086801
988.0, 0.04308219369155302
989.0, 0.040585254214516774
990.0, 0.04694129140913473
991.0, 0.046060219161610634
992.0, 0.043071558580316596
993.0, 0.04556271477756058
994.0, 0.049064496071413916
995.0, 0.05734337670044432
996.0, 0.05993554239347306
997.0, 0.07070482056832107
998.0, 0.08417852798154808
999.0, 0.08377242223458688
1000.0, 0.09600444945066249
1001.0, 0.12321834215173495
1002.0, 0.1356202144516795
1003.0, 0.14514182170609158
1004.0, 0.17215542759459707
1005.0, 0.20105530785434647
1006.0, 0.227216156507756
1007.0, 0.2622429372601123
1008.0, 0.2937123891879802
1009.0, 0.3328723224027671
1010.0, 0.3859963254180764
1011.0, 0.41742547175131595
1012.0, 0.47815037364130014
1013.0, 0.527670989402226
1014.0, 0.561055760553547
1015.0, 0.5833217287404809
1016.0, 0.5829675836075867
1017.0, 0.5578542856935192
1018.0, 0.5183487040567931
1019.0, 0.4618196712601687
1020.0, 0.39079232227671773
1021.0, 0.3293587566665482
1022.0, 0.27699967652399937
1023.0, 0.22673181838853754
1024.0, 0.16961395478080776
1025.0, 0.13718778565699008
1026.0, 0.12565550310069565
1027.0, 0.10803448234649914
1028.0, 0.08793578738633769
1029.0, 0.07339813593267278
1030.0, 0.07519111745198119
1031.0, 0.06812398065292291
1032.0, 0.04766040694012979
1033.0, 0.035362788366943794
1034.0, 0.02901914311487024
1035.0, 0.023815177784315255
1036.0, 0.030024751596635677
1037.0, 0.040932512024163474
1038.0, 0.017688098599981186
1039.0, 0.018486379510411932
1040.0, 0.02714159488169199
1041.0, 0.03490006681742464
1042.0, 0.020256127869472354
1043.0, 0.015175210995132086
1044.0, 0.02344417637886298
1045.0, 0.020002076159402166
1046.0, 0.00840297785129342
1047.0, 0.010177225637879709
1048.0, 0.020443150004168256
1049.0, 0.014872538424614758
1050.0, 0.015958864542514727
1051.0, 0.014129525117889298
1052.0, 0.015745748897632323
1053.0, 0.001034591740218678
1054.0, 0.01427691611165654
1055.0, 0.015442561859186719
1056.0, 0.008465210894862763
1057.0, 0.008071581695389032
1058.0, 0.007593371940208845
1059.0, 0.00957919164379812
1060.0, 0.005827360393008314
1061.0, 0.006288095122717427
1062.0, 0.014453379749644748
1063.0, 0.0034242921605969244
1064.0, 0.0015078747697591232
1065.0, 0.00424042771335684
1066.0, 0.004996436111490493
1067.0, 0.00626605029371782
1068.0, 0.0015495447722940693
1069.0, 0.0036403706800384587
1070.0, 0.0006765811597850484
1071.0, 0.0009892985236068614
1072.0, 0.010927053058148836
1073.0, 0.0028308055281702125
1074.0, 0.0015994343018387626
1075.0, 0.003416236139139424
1076.0, 0.005547257633314863
1077.0, 0.003237695409082126
1078.0, 0.005548801227400914
1079.0, 0.006287499440503795
1080.0, 0.005119149658714768
1081.0, 0.0022561135229725205
1082.0, 0.00760465606364281
1083.0, 0.011892654846091933
1084.0, 0.007974564266506372
1085.0, 0.0037604797650555768
1086.0, 0.003991186391321519
1087.0, 0.001662877374241987
1088.0, 0.004137132719830309
1089.0, 0.010929529374970482
1090.0, 0.006421754546230549
1091.0, 0.004937772115320675
1092.0, 0.01442060272692238
1093.0, 0.009692323863443854
1094.0, 0.003134536153018183
1095.0, 0.014096225774225377
1096.0, 0.012738772664654075
1097.0, 0.01256936786336963
1098.0, 0.014095930135286932
1099.0, 0.01816412154997205
1100.0, 0.020416208127565325
1101.0, 0.027083435906565968
1102.0, 0.029862264747139065
1103.0, 0.03203990137765542
1104.0, 0.034381227926623875
1105.0, 0.02791521513690204
1106.0, 0.012912273065764012
1107.0, 0.024020373561536353
1108.0, 0.03438959012252286
1109.0, 0.03109630551097846
1110.0, 0.04042853987619664
1111.0, 0.04095502008952862
1112.0, 0.024711227412379855
1113.0, 0.03146973733675454
1114.0, 0.03942535487189165
1115.0, 0.014764396649416395
1116.0, 0.021606082830655297
1117.0, 0.027089614607470364
1118.0, 0.022362469985015027
1119.0, 0.018379117289308702
1120.0, 0.013949369059587047
1121.0, 0.0070692202823998415
1122.0, 0.005436716418555114
1123.0, 0.007373972939934442
1124.0, 0.009321806452902781
1125.0, 0.006592685673282036
1126.0, 0.002768223986157602
1127.0, 0.011391802388629274
1128.0, 0.016950702158849584
1129.0, 0.007014882998987263
1130.0, 0.011572762753373886
1131.0, 0.015890825695671334
1132.0, 0.01199054633665252
1133.0, 0.007619061618543727
1134.0, 0.020398828495306744
1135.0, 0.009179465121118164
1136.0, 0.010560092672004431
1137.0, 0.024785107230700983
1138.0, 0.005530540287622963
1139.0, 0.017790069735039576
1140.0, 0.008522352410331878
1141.0, 0.013796886753784663
1142.0, 0.002696685188459546
1143.0, 0.009660402004769633
1144.0, 0.01153478712734213
1145.0, 0.018463308072374774
1146.0, 0.015732806251055203
1147.0, 0.01021134745378972
1148.0, 0.010795113270840647
1149.0, 0.0027187352303623784
1150.0, 0.0022406468539746776
1151.0, 7.859938656717855e-05
1152, 0.0
1153, 0.0
1154, 0.0
1155, 0.0
1156, 0.0
1157, 0.0
1158, 0.0
1159, 0.0
1160, 0.0
1161, 0.0
1162, 0.0
1163, 0.0
1164, 0.0
1165, 0.0
1166, 0.0
1167, 0.0
1168, 0.0
1169, 0.0
1170, 0.0
1171, 0.0
1172, 0.0
1173, 0.0
1174, 0.0
1175, 0.0
1176, 0.0
1177, 0.0
1178, 0.0
1179, 0.0
1180, 0.0
1181, 0.0
1182, 0.0
1183, 0.0
1184, 0.0
1185, 0.0
1186, 0.0
1187, 0.0
1188, 0.0
1189, 0.0
1190, 0.0
1191, 0.0
1192, 0.0
1193, 0.0
1194, 0.0
1195, 0.0
1196, 0.0
1197, 0.0
1198, 0.0
1199, 0.0
1200, 0.0
1201, 0.0
1202, 0.0
1203, 0.0
1204, 0.0
1205, 0.0
1206, 0.0
1207, 0.0
1208, 0.0
1209, 0.0
1210, 0.0
1211, 0.0
1212, 0.0
1213, 0.0
1214, 0.0
1215, 0.0
1216, 0.0
1217, 0.0
1218, 0.0
1219, 0.0
1220, 0.0
1221, 0.0
1222, 0.0
1223, 0.0
1224, 0.0
1225, 0.0
1226, 0.0
1227, 0.0
1228, 0.0
1229, 0.0
1230, 0.0
1231, 0.0
1232, 0.0
1233, 0.0
1234, 0.0
1235, 0.0
1236, 0.0
1237, 0.0
1238, 0.0
1239, 0.0
1240, 0.0
1241, 0.0
1242, 0.0
1243, 0.0
1244, 0.0
1245, 0.0
1246, 0.0
1247, 0.0
1248, 0.0
1249, 0.0
1250, 0.0
1251, 0.0
1252, 0.0
1253, 0.0
1254, 0.0
1255, 0.0
1256, 0.0
1257, 0.0
1258, 0.0
1259, 0.0
1260, 0.0
1261, 0.0
1262, 0.0
1263, 0.0
1264, 0.0
1265, 0.0
1266, 0.0
1267, 0.0
1268, 0.0
1269, 0.0
1270, 0.0
1271, 0.0
1272, 0.0
1273, 0.0
1274, 0.0
1275, 0.0
1276, 0.0
1277, 0.0
1278, 0.0
1279, 0.0
1280, 0.0
1281, 0.0
1282, 0.0
1283, 0.0
1284, 0.0
1285, 0.0
1286, 0.0
1287, 0.0
1288, 0.0
1289, 0.0
1290, 0.0
1291, 0.0
1292, 0.0
1293, 0.0
1294, 0.0
1295, 0.0
1296, 0.0
1297, 0.0
1298, 0.0
1299, 0.0
1300, 0.0
1301, 0.0
1302, 0.0
1303, 0.0
1304, 0.0
1305, 0.0
1306, 0.0
1307, 0.0
1308, 0.0
1309, 0.0
1310, 0.0
1311, 0.0
1312, 0.0
1313, 0.0
1314, 0.0
1315, 0.0
1316, 0.0
1317, 0.0
1318, 0.0
1319, 0.0
1320, 0.0
1321, 0.0
1322, 0.0
1323, 0.0
1324, 0.0
1325, 0.0
1326, 0.0
1327, 0.0
1328, 0.0
1329, 0.0
1330, 0.0
1331, 0.0
1332, 0.0
1333, 0.0
1334, 0.0
1335, 0.0
1336, 0.0
1337, 0.0
1338, 0.0
1339, 0.0
1340, 0.0
1341, 0.0
1342, 0.0
1343, 0.0
1344, 0.0
1345, 0.0
1346, 0.0
1347, 0.0
1348, 0.0
1349, 0.0
1350, 0.0
1351, 0.0
1352, 0.0
1353, 0.0
1354, 0.0
1355, 0.0
1356, 0.0
1357, 0.0
1358, 0.0
1359, 0.0
1360, 0.0
1361, 0.0
1362, 0.0
1363, 0.0
1364, 0.0
1365, 0.0
1366, 0.0
1367, 0.0
1368, 0.0
1369, 0.0
1370, 0.0
1371, 0.0
1372, 0.0
1373, 0.0
1374, 0.0
1375, 0.0
1376, 0.0
1377, 0.0
1378, 0.0
1379, 0.0
1380, 0.0
1381, 0.0
1382, 0.0
1383, 0.0
1384, 0.0
1385, 0.0
1386, 0.0
1387, 0.0
1388, 0.0
1389, 0.0
1390, 0.0
1391, 0.0
1392, 0.0
1393, 0.0
1394, 0.0
1395, 0.0
1396, 0.0
1397, 0.0
1398, 0.0
1399, 0.0
1400, 0.0
1401, 0.0
1402, 0.0
1403, 0.0
1404, 0.0
1405, 0.0
1406, 0.0
1407, 0.0
1408, 0.0
1409, 0.0
1410, 0.0
1411, 0.0
1412, 0.0
1413, 0.0
1414, 0.0
1415, 0.0
1416, 0.0
1417, 0.0
1418, 0.0
1419, 0.0
1420, 0.0
1421, 0.0
1422, 0.0
1423, 0.0
1424, 0.0
1425, 0.0
1426, 0.0
1427, 0.0
1428, 0.0
1429, 0.0
1430, 0.0
1431, 0.0
1432, 0.0
1433, 0.0
1434, 0.0
1435, 0.0
1436, 0.0
1437, 0.0
1438, 0.0
1439, 0.0
1440, 0.0
1441, 0.0
1442, 0.0
1443, 0.0
1444, 0.0
1445, 0.0
1446, 0.0
1447, 0.0
1448, 0.0
1449, 0.0
1450, 0.0
1451, 0.0
1452, 0.0
1453, 0.0
1454, 0.0
1455, 0.0
1456, 0.0
1457, 0.0
1458, 0.0
1459, 0.0
1460, 0.0
1461, 0.0
1462, 0.0
1463, 0.0
1464, 0.0
1465, 0.0
1466, 0.0
1467, 0.0
1468, 0.0
1469, 0.0
1470, 0.0
1471, 0.0
1472, 0.0
1473, 0.0
1474, 0.0
1475, 0.0
1476, 0.0
1477, 0.0
1478, 0.0
1479, 0.0
1480, 0.0
1481, 0.0
1482, 0.0
1483, 0.0
1484, 0.0
1485, 0.0
1486, 0.0
1487, 0.0
1488, 0.0
1489, 0.0
1490, 0.0
1491, 0.0
1492, 0.0
1493, 0.0
1494, 0.0
1495, 0.0
1496, 0.0
1497, 0.0
1498, 0.0
1499, 0.0
1500, 0.0
1501, 0.0
1502, 0.0
1503, 0.0
1504, 0.0
1505, 0.0
1506, 0.0
1507, 0.0
1508, 0.0
1509, 0.0
1510, 0.0
1511, 0.0
1512, 0.0
1513, 0.0
1514, 0.0
1515, 0.0
1516, 0.0
1517, 0.0
1518, 0.0
1519, 0.0
1520, 0.0
1521, 0.0
1522, 0.0
1523, 0.0
1524, 0.0
1525, 0.0
1526, 0.0
1527, 0.0
1528, 0.0
1529, 0.0
1530, 0.0
1531, 0.0
1532, 0.0
1533, 0.0
1534, 0.0
1535, 0.0
1536, 0.0
1537, 0.0
1538, 0.0
1539, 0.0
1540, 0.0
1541, 0.0
1542, 0.0
1543, 0.0
1544, 0.0
1545, 0.0
1546, 0.0
1547, 0.0
1548, 0.0
1549, 0.0
1550, 0.0
1551, 0.0
1552, 0.0
1553, 0.0
1554, 0.0
1555, 0.0
1556, 0.0
1557, 0.0
1558, 0.0
1559, 0.0
1560, 0.0
1561, 0.0
1562, 0.0
1563, 0.0
1564, 0.0
1565, 0.0
1566, 0.0
1567, 0.0
1568, 0.0
1569, 0.0
1570, 0.0
1571, 0.0
1572, 0.0
1573, 0.0
1574, 0.0
1575, 0.0
1576, 0.0
1577, 0.0
1578, 0.0
1579, 0.0
1580, 0.0
1581, 0.0
1582, 0.0
1583, 0.0
1584, 0.0
1585, 0.0
1586, 0.0
1587, 0.0
1588, 0.0
1589, 0.0
1590, 0.0
1591, 0.0
1592, 0.0
1593, 0.0
1594, 0.0
1595, 0.0
1596, 0.0
1597, 0.0
1598, 0.0
1599, 0.0
