30, 0.0
31, 0.0
32, 0.0
33, 0.0
34, 0.0
35, 0.0
36, 0.0
37, 0.0
38, 0.0
39, 0.0
40, 0.0
41, 0.0
42, 0.0
43, 0.0
44, 0.0
45, 0.0
46, 0.0
47, 0.0
48, 0.0
49, 0.0
50, 0.0
51, 0.0
52, 0.0
53, 0.0
54, 0.0
55, 0.0
56, 0.0
57, 0.0
58, 0.0
59, 0.0
60, 0.0
61, 0.0
62, 0.0
63, 0.0
64, 0.0
65, 0.0
66, 0.0
67, 0.0
68, 0.0
69, 0.0
70, 0.0
71, 0.0
72, 0.0
73, 0.0
74, 0.0
75, 0.0
76, 0.0
77, 0.0
78, 0.0
79, 0.0
80, 0.0
81, 0.0
82, 0.0
83, 0.0
84, 0.0
85, 0.0
86, 0.0
87, 0.0
88, 0.0
89, 0.0
90, 0.0
91, 0.0
92, 0.0
93.0, 6.580539364219206e-05
94.0, 0.0002076375765365549
95.0, 0.0032716710194161426
96.0, 0.010709148203829209
97.0, 0.019165195117162817
98.0, 0.030574254245599664
99.0, 0.046211505544949884
100.0, 0.06563988216706963
101.0, 0.08978441957095323
102.0, 0.11666939967240597
103.0, 0.14392040580693172
104.0, 0.1732937527366837
105.0, 0.20139608147060614
106.0, 0.22909958406580155
107.0, 0.2595711654112345
108.0, 0.2927806491849615
109.0, 0.33006930363114717
110.0, 0.3710503723515911
111.0, 0.4153007399964609
112.0, 0.4627584050458685
113.0, 0.5171399370619233
114.0, 0.57864687097246
115.0, 0.6445502051115541
116.0, 0.7106787536929422
117.0, 0.7801124959523841
118.0, 0.8432025801830156
119.0, 0.8968415958558316
120.0, 0.9544350522308979
121.0, 0.9904388446316924
122.0, 0.9999782176483641
123.0, 0.9767774802919755
124.0, 0.9152863264455331
125.0, 0.8274289760125443
126.0, 0.7249865817204293
127.0, 0.6210212756874736
128.0, 0.5285643399382457
129.0, 0.44410231131229677
130.0, 0.37260479622236675
131.0, 0.31403920554186865
132.0, 0.2661187885524596
133.0, 0.22379989130101932
134.0, 0.1931017445412873
135.0, 0.17077634687455476
136.0, 0.15265056269203783
137.0, 0.1381144978104487
138.0, 0.12694933304582276
139.0, 0.11677164663058702
140.0, 0.10555141907418487
141.0, 0.09314694517052274
142.0, 0.08298230126449282
143.0, 0.07205383605958911
144.0, 0.058375700721590686
145.0, 0.04378084881060064
146.0, 0.031558958491237986
147.0, 0.020629241341307267
148.0, 0.010583820596652116
149.0, 0.0021023066754868105
150.0, 0.00414809281073422
151.0, 0.008056714528724397
152.0, 0.010825330754553506
153.0, 0.012458447888385914
154.0, 0.012780026689465806
155.0, 0.012255406863288014
156.0, 0.011089850153267456
157.0, 0.009718659115467104
158.0, 0.008625365592665735
159.0, 0.006692984643673818
160.0, 0.003930986699233094
161.0, 0.0014664612740780845
162.0, 0.00019410574218362597
163.0, 0.0028012415317628893
164.0, 0.005726647517840348
165.0, 0.008657971382634348
166.0, 0.011408068282480074
167.0, 0.012502091818734967
168.0, 0.01383767897680095
169.0, 0.015399754858749332
170.0, 0.016970237203815464
171.0, 0.01879173802566195
172.0, 0.020138876866607508
173.0, 0.021451262520805182
174.0, 0.022950519477532207
175.0, 0.024465829254325718
176.0, 0.025782439083572938
177.0, 0.02699082649013003
178.0, 0.028203573959949598
179.0, 0.029531682719796736
180.0, 0.03119285231374011
181.0, 0.03223189619062733
182.0, 0.03316306190683631
183.0, 0.03432067667837659
184.0, 0.03542166415226336
185.0, 0.036718842486023834
186.0, 0.03700227010390276
187.0, 0.03721477925330058
188.0, 0.03910292360048575
189.0, 0.039178023618809274
190.0, 0.03955129749454769
191.0, 0.04055223828069797
192.0, 0.041664214399448854
193.0, 0.04160228851829774
194.0, 0.04230467319468002
195.0, 0.043290692571818626
196.0, 0.04393382126963327
197.0, 0.044355637506422387
198.0, 0.04478018864026949
199.0, 0.04525602842035219
200.0, 0.04571970480783491
201.0, 0.04623958405631519
202.0, 0.04731497499032966
203.0, 0.04815512468562408
204.0, 0.04878805004451449
205.0, 0.049418651964424215
206.0, 0.04994583118799872
207.0, 0.05005891718547516
208.0, 0.049559145811051815
209.0, 0.0481046971992998
210.0, 0.04547198357657871
211.0, 0.04395471685679578
212.0, 0.041797052329566195
213.0, 0.039709549781265174
214.0, 0.038406506475468165
215.0, 0.03657215230436277
216.0, 0.03539553925560828
217.0, 0.0338857934852136
218.0, 0.032114878950063035
219.0, 0.030912586598364687
220.0, 0.030013053079069832
221.0, 0.029436121967879793
222.0, 0.0290540791644131
223.0, 0.028867370613853173
224.0, 0.02915680269256503
225.0, 0.028623732123312727
226.0, 0.028111297727237805
227.0, 0.027813740427030467
228.0, 0.02727142148768503
229.0, 0.027283848941430548
230.0, 0.027180766087500148
231.0, 0.027032442710325868
232.0, 0.02692242362652287
233.0, 0.025783379627876784
234.0, 0.02577154549144722
235.0, 0.025469082636725912
236.0, 0.02452516356827654
237.0, 0.02428268431676409
238.0, 0.02398879921026609
239.0, 0.024275535664230914
240.0, 0.024145162488826342
241.0, 0.022966029707643394
242.0, 0.02207045512591414
243.0, 0.0218285316219592
244.0, 0.021238343333583282
245.0, 0.020388287975765806
246.0, 0.020130781658652282
247.0, 0.019894843139922225
248.0, 0.019503728978968484
249.0, 0.019236944514353392
250.0, 0.019140710033071186
251.0, 0.018663519284627474
252.0, 0.018204767975048632
253.0, 0.017761928357419143
254.0, 0.01727990749272255
255.0, 0.016797794484861604
256.0, 0.016459568331926456
257.0, 0.016184237862149026
258.0, 0.015784451608421738
259.0, 0.015283569720837853
260.0, 0.014867298817704053
261.0, 0.013835588441591296
262.0, 0.0134380783795187
263.0, 0.013263719635230252
264.0, 0.012828593757801683
265.0, 0.013069323517867123
266.0, 0.011920588908719809
267.0, 0.010943453731942129
268.0, 0.010482306541068525
269.0, 0.009718666539676912
270.0, 0.00947061434699575
271.0, 0.00918273648849372
272.0, 0.008776623941711753
273.0, 0.0081826989604627
274.0, 0.0071046467593886475
275.0, 0.006840709840726182
276.0, 0.006831477083367015
277.0, 0.006570029733741308
278.0, 0.005960212902085035
279.0, 0.005446712823702683
280.0, 0.005321494880327858
281.0, 0.004966332609354159
282.0, 0.004426023399241947
283.0, 0.004274758891468359
284.0, 0.0037150104276991998
285.0, 0.003283567668000539
286.0, 0.00316058442753306
287.0, 0.0031399707955425222
288.0, 0.002908058827664984
289.0, 0.002489788322765221
290.0, 0.0019915355202309187
291.0, 0.0015949847271594596
292.0, 0.0014280846671019963
293.0, 0.0014786109831070743
294.0, 0.0014807174101548334
295.0, 0.0011676364031709774
296.0, 0.0008847940159363089
297.0, 0.0013182289591451065
298.0, 0.0006236193079397717
299.0, 0.0004046810036239809
300.0, 0.0006007054634115591
301.0, 0.0006865271752164011
302.0, 0.0001340605309644541
303.0, 0.00045153184221293445
304.0, 0.00027147515178518216
305.0, 0.00011891334414740315
306.0, 8.534313820962589e-05
307.0, 4.04900558996479e-05
308.0, 0.00023906623378131296
309.0, 0.0002491706020754091
310.0, 0.00010911753438921987
311.0, 6.675793713525054e-05
312.0, 0.00015384876671564632
313.0, 4.869885323704485e-05
314.0, 0.00012664384372630756
315.0, 0.0003956813122086991
316.0, 0.0002169461144257254
317.0, 0.0006434571932955558
318.0, 0.0007795725007593145
319.0, 0.0004436497758838811
320.0, 0.00017719153629374308
321.0, 0.0006590325085680305
322.0, 0.00025826692832430376
323.0, 0.0007875430357612753
324.0, 0.0012743023772834952
325.0, 0.0008202450906236052
326.0, 0.0007525122223535645
327.0, 4.033719541324507e-05
328.0, 0.00017947847906390113
329.0, 0.0008007876207445786
330.0, 0.0005821535374762991
331.0, 0.00025178067601537465
332.0, 0.00034960289204685583
333.0, 0.0006270313132963102
334.0, 0.0005356709375383462
335.0, 4.4745390735116096e-05
336.0, 0.0001657087906751431
337.0, 0.0004328764575001907
338.0, 0.000537444556463187
339.0, 0.0005303698499569267
340.0, 0.0005597504650671994
341.0, 0.0006564447704770015
342.0, 0.0004878292915079614
343.0, 0.00013214070399381007
344.0, 0.0003351328190325636
345.0, 0.0003457642595536016
346.0, 6.774951947060605e-05
347.0, 0.00015952810208373852
348.0, 0.00024124584880652971
349.0, 0.00012124481090906938
350.0, 0.00024911742841366173
351.0, 3.537699295146048e-05
352.0, 0.00014246298759376953
353.0, 9.817450796291714e-05
354.0, 0.0005766285595012977
355.0, 0.00037336378462531446
356.0, 8.799913510541531e-05
357.0, 0.0006190040628007501
358.0, 0.001024544116397605
359.0, 0.0006133236855881438
360.0, 0.00029273478649331216
361.0, 3.827452540087272e-05
362.0, 0.0001784569922365781
363.0, 0.0008013647456498874
364.0, 0.0012077834308874575
365.0, 0.0007026141299970255
366.0, 0.000207767162946992
367.0, 0.0005210792335955096
368.0, 0.0010504389983416469
369.0, 0.0010736149056285935
370.0, 0.0005109711339658311
371.0, 0.0007459831138338736
372.0, 0.0009985413493836066
373.0, 0.0011127506699335464
374.0, 0.0011992628676886635
375.0, 0.0011501616703939942
376.0, 0.0011672539532945737
377.0, 0.0010828749118449133
378.0, 0.0009169233555665812
379.0, 0.0007913413541806821
380.0, 0.0009402518348459304
381.0, 0.001347825016937625
382.0, 0.0013388011892763827
383.0, 0.001116399945949019
384.0, 0.0010970918730059261
385.0, 0.0014540630454186873
386.0, 0.0015150755434096136
387.0, 0.0012136169424024688
388.0, 0.001270656728265471
389.0, 0.0014355786256529633
390.0, 0.00071997644320508
391.0, 0.0016674501463744798
392.0, 0.0014844619008812726
393.0, 0.001199114292362077
394.0, 0.0014926420849149594
395.0, 0.0013021943420384312
396.0, 0.0013157389602190721
397.0, 0.001494502658627395
398.0, 0.0010814274731770492
399.0, 0.0005999584110731149
400.0, 0.0013565777635942383
401.0, 0.0012070722512313333
402.0, 0.0008303154988707732
403.0, 0.0014245889328367313
404.0, 0.001961273080688076
405.0, 0.0012377443165454934
406.0, 0.0010726164179188694
407.0, 0.0018795516662019846
408.0, 0.0014836609165302336
409.0, 0.0010553490189065457
410.0, 0.001819275067795987
411.0, 0.0013837680025680196
412.0, 0.0015181957733086558
413.0, 0.0015237542006350472
414.0, 0.001114931147837315
415.0, 0.0008365655849759884
416.0, 0.0014174320791974964
417.0, 0.0016858475505064528
418.0, 0.001766423832725753
419.0, 0.001605745493411813
420.0, 0.0011326800930289544
421.0, 0.0006345781715366489
422.0, 0.001121811211828526
423.0, 0.0011707185692677055
424.0, 0.0010757910836419625
425.0, 0.001270398763038798
426.0, 0.0013927620999039513
427.0, 0.001294968457364433
428.0, 0.0011311713503357435
429.0, 0.0010952895689710137
430.0, 0.0012677744107145133
431.0, 0.0015741251470803277
432.0, 0.0017657802544825524
433.0, 0.0013138951603837922
434.0, 0.001019621091179256
435.0, 0.001128467210148024
436.0, 0.0013793745452879461
437.0, 0.0014503768458684469
438.0, 0.0008030388144943534
439.0, 0.0006846123838726262
440.0, 0.0010946848673386114
441.0, 0.0012557743483373233
442.0, 0.0011453131931130993
443.0, 0.000751086201289325
444.0, 0.0009186934666400464
445.0, 0.00117614530415347
446.0, 0.0010437834021940634
447.0, 0.000776799691389988
448.0, 0.0008298984672199191
449.0, 0.0008798282929028247
450.0, 0.0009894899487012303
451.0, 0.0010626523179417917
452.0, 0.000941867699224059
453.0, 0.000864624746585287
454.0, 0.0008451952445255106
455.0, 0.0009706430309575707
456.0, 0.0012222481252717721
457.0, 0.0013011669743290158
458.0, 0.0009286784620188206
459.0, 0.0006491325161155465
460.0, 0.00041485265612726434
461.0, 0.0009334124601139368
462.0, 0.001269024803525308
463.0, 0.0003974306719627412
464.0, 0.0009266329261447135
465.0, 0.000868596643359209
466.0, 0.0005663998203103803
467.0, 0.0005704716315822016
468.0, 0.0008393994695707593
469.0, 0.0008989983743565686
470.0, 0.0012531579683192219
471.0, 0.0010944426829567926
472.0, 0.0010041788453822426
473.0, 0.0012026181591581373
474.0, 0.0009173076286178261
475.0, 0.0013889006803666862
476.0, 0.0010401081558905228
477.0, 0.0007478489805650308
478.0, 0.0007696905249489767
479.0, 0.0007361061806778325
480.0, 0.001054486655691526
481.0, 0.0010102862848081584
482.0, 0.0010994526053953472
483.0, 0.000935565213203904
484.0, 0.0004246416130908118
485.0, 0.00034866295212187875
486.0, 0.001057467559299343
487.0, 0.0011494744746143805
488.0, 0.0009964861231556213
489.0, 0.0008630323488415053
490.0, 0.0005945236065711317
491.0, 0.00046853345124975537
492.0, 0.0007603257184147633
493.0, 0.000625011119406925
494.0, 0.0005394577067505007
495.0, 0.0009348994290090948
496.0, 0.001098894978487339
497.0, 0.0010291793998553193
498.0, 0.0010544387260619586
499.0, 0.0012027941389301151
500.0, 0.0011340525130492326
501.0, 0.0006681260448709595
502.0, 0.0008696340081782096
503.0, 0.00026806503009095306
504.0, 0.00024245423442444022
505.0, 0.0006698932654321749
506.0, 0.0010568451188433723
507.0, 0.0013366027272711677
508.0, 0.0006607856349277413
509.0, 0.0005119313393920211
510.0, 0.0004941440166715739
511.0, 0.00035187470977613675
512.0, 0.00034743016315382294
513.0, 0.0005297415799993869
514.0, 0.0005551105641002878
515.0, 0.0007676529538959806
516.0, 0.001072353094604375
517.0, 0.0009822759699229379
518.0, 0.00025962282299679803
519.0, 0.00011200133678816077
520.0, 0.00037876457157850715
521.0, 0.0008540639171357459
522.0, 0.0011450873562100776
523.0, 0.0010395252179157953
524.0, 0.0007141138649750512
525.0, 0.00018915267628687188
526.0, 0.00032526988581938225
527.0, 0.000559592261640747
528.0, 0.0005211994479487791
529.0, 0.00035214138506267124
530.0, 0.0002722510950175618
531.0, 0.00023212409172139665
532.0, 0.00045167174814848046
533.0, 0.00037430723518351475
534.0, 0.0004241028543011752
535.0, 0.0009833850307237502
536.0, 0.0005760887164461302
537.0, 0.000664695585850654
538.0, 0.0006967902108117499
539.0, 0.0005366248126694195
540.0, 0.0004245753236866392
541.0, 0.00042164165667448746
542.0, 0.0004830574924608544
543.0, 0.0006464266460196534
544.0, 0.0006383956891485638
545.0, 0.00024600803746110153
546.0, 0.00017767258758287177
547.0, 0.0009611588498180694
548.0, 0.0005317703461583243
549.0, 0.0007194305696236075
550.0, 0.0009216912789034293
551.0, 0.0007595493749513347
552.0, 0.000402193696406615
553.0, 0.00011275906813959901
554.0, 0.0007419520463076829
555.0, 0.0003364774310508544
556.0, 0.00023790344882971634
557.0, 0.00033565480656512026
558.0, 0.00026551566231327976
559.0, 0.0005557553793938813
560.0, 0.0006536426885253534
561.0, 0.00057683651774756
562.0, 0.0005014338053115959
563.0, 0.00018964255562819006
564.0, 0.0003097074821448668
565.0, 0.0002632902820377885
566.0, 3.1496406939488784e-05
567.0, 0.00015455857851158494
568.0, 5.789537593135805e-05
569.0, 8.607029316449311e-05
570.0, 0.0003808189846181081
571.0, 0.000467566972717623
572.0, 0.0005370648552042957
573.0, 0.0005728135312190909
574.0, 0.0004940127110450409
575.0, 0.00034247326300465385
576.0, 0.0002574174447953822
577.0, 0.00029463264517198834
578.0, 6.493708766307678e-05
579.0, 3.834073891938487e-05
580.0, 0.0003535174970309168
581.0, 0.0009106147303348175
582.0, 0.0013098835996101577
583.0, 0.0009588992281031779
584.0, 0.0007880015002027943
585.0, 0.00045194006886407103
586.0, 0.00027358148004824894
587.0, 0.0005566103016930506
588.0, 0.0009174717924182753
589.0, 0.0005470924862424241
590.0, 9.438055057364995e-05
591.0, 0.0001095601540507928
592.0, 0.0005406544919777023
593.0, 0.0006580911917015154
594.0, 0.0004325501773131198
595.0, 0.00046998791775048064
596.0, 0.000205163644932026
597.0, 3.8226419225006146e-05
598.0, 0.00024937953214507105
599.0, 0.0004790742542540976
600.0, 0.0003727404127641145
601.0, 0.0004864895176497203
602.0, 0.0007333113873283295
603.0, 0.0003835470229093503
604.0, 0.00010194225954736318
605.0, 2.7215314104807745e-05
606.0, 0.0002536900056220101
607.0, 0.0008435903811945939
608.0, 0.0007438969465743414
609.0, 0.0009900825583764943
610.0, 0.0005820133391264067
611.0, 8.022114656386166e-05
612.0, 0.0001647458987592569
613.0, 0.0005706396900692121
614.0, 0.0005026973710647862
615.0, 0.00047400546991077994
616.0, 0.0004189555638709834
617.0, 0.0003258542967930311
618.0, 0.0003339377073006851
619.0, 0.0004680049018742283
620.0, 0.0005329067178143632
621.0, 0.0006759370848945155
622.0, 0.000742948093341695
623.0, 0.0005964384757224088
624.0, 0.0004468614017356216
625.0, 0.0003427525258423002
626.0, 0.0001315745614392194
627.0, 0.00045004500542544513
628.0, 0.00013386347723629358
629.0, 8.90435180135425e-05
630.0, 0.00031802075622129985
631.0, 0.0002779817743169255
632.0, 1.8380299014621525e-05
633.0, 0.00033563202498772265
634.0, 0.0008176446754885676
635.0, 0.0008178460733952556
636.0, 0.0007789937670628566
637.0, 0.0005771218399602804
638.0, 0.00014381708616777427
639.0, 0.0007227965975171398
640.0, 0.000951456862090381
641.0, 0.0005680878094903387
642.0, 0.0005145409250510845
643.0, 0.0004134858017555223
644.0, 7.523321553446617e-05
645.0, 0.00034018726634278055
646.0, 9.662533134859258e-05
647.0, 0.0001726796935478283
648.0, 0.0004048605711972091
649.0, 0.000584642649146656
650.0, 0.0003660224600540501
651.0, 0.0006019163332009088
652.0, 0.00037911306031896796
653.0, 0.0004400290107153727
654.0, 0.0006323827221478083
655.0, 0.0004935806404713321
656.0, 0.0004897783769576908
657.0, 0.0009283036396314714
658.0, 0.0010300605627212745
659.0, 0.0006792170603412424
660.0, 0.0005670457616058968
661.0, 0.00015883719291024745
662.0, 6.93728917265893e-05
663.0, 0.0002689186584772983
664.0, 0.0001445122541242013
665.0, 0.0002248870806838004
666.0, 0.00017461446829876984
667.0, 0.0003461388408492823
668.0, 0.00034759890756570836
669.0, 0.0003855500348824075
670.0, 0.0004013499348152697
671.0, 8.065984053381689e-05
672.0, 0.00020769772581942053
673.0, 0.00012256904433926563
674.0, 0.0008178053198696473
675.0, 0.0005140094285604814
676.0, 5.1724169390711644e-05
677.0, 0.0005912236399242681
678.0, 0.0007998153137998677
679.0, 0.0006140028318461004
680.0, 0.000629336139498856
681.0, 0.0005778703017792583
682.0, 0.0003655269748570734
683.0, 0.00011685798670991338
684.0, 4.609424293452463e-05
685.0, 0.0004114726273051393
686.0, 0.0013210978863487236
687.0, 0.0008208509251902006
688.0, 0.0002209906606472205
689.0, 0.0004459530614019251
690.0, 0.0008870462488310234
691.0, 0.0006748296092462749
692.0, 0.000383679459370077
693.0, 0.0007499423298978176
694.0, 0.0006319772160034063
695.0, 0.00040625479301026774
696.0, 0.00014734144184144266
697.0, 4.69243265017203e-05
698.0, 6.867219247319173e-05
699.0, 3.3386926856862915e-05
700.0, 0.0001957197621005811
701.0, 0.0001576299748186038
702.0, 0.0004063945659141083
703.0, 0.0006412367953400566
704.0, 0.000604205064049594
705.0, 2.3785582283996997e-05
706.0, 0.00040157079156884375
707.0, 0.00037681190104393874
708.0, 0.0005714138491656988
709.0, 0.0009146105309807476
710.0, 0.0007325090518407719
711.0, 0.00031082042888118107
712.0, 0.000583383312546689
713.0, 0.0005689545303617173
714.0, 0.0004904260313536491
715.0, 0.0006876454149272815
716.0, 0.0004213948633965122
717.0, 8.865269712042056e-05
718.0, 0.0003917340113348013
719.0, 0.0009541018676464676
720.0, 0.0004657123215043738
721.0, 0.0012680231883089753
722.0, 0.0012504447667077193
723.0, 0.0004987263419104554
724.0, 0.00023437707003469405
725.0, 0.0005795855819229691
726.0, 0.0007599081639613314
727.0, 0.0006539510423933856
728.0, 0.0001745026404096645
729.0, 0.0007088650400303987
730.0, 0.0006951981907874927
731.0, 0.0005082599838869915
732.0, 0.0005669945128820988
733.0, 0.0003150729247077451
734.0, 0.0007807604004755457
735.0, 0.001322736246649461
736.0, 0.0005724051551471815
737.0, 3.477354176353877e-05
738.0, 0.0006172121929888465
739.0, 0.0010097003514096528
740.0, 9.840000223529499e-05
741.0, 5.9161484436090626e-05
742.0, 0.00040765905052197386
743.0, 0.000162687274896287
744.0, 0.0002233290308681894
745.0, 0.00045809370774725384
746.0, 0.0004815622002814366
747.0, 0.0005218964467246941
748.0, 0.0008570334677607088
749.0, 0.000615289596631705
750.0, 0.00041282688742995687
751.0, 0.0003539273820713766
752.0, 0.0005145548713813018
753.0, 0.0006579213097499412
754.0, 0.0005250798092258107
755.0, 0.00040624489331641026
756.0, 0.0007112625784019534
757.0, 5.226349345189307e-05
758.0, 0.0004982288886009978
759.0, 0.00042793387118746014
760.0, 0.00016181175263725185
761.0, 0.0004726651082029148
762.0, 0.0005653804071037951
763.0, 0.0007738730491490422
764.0, 0.00021777659289059665
765.0, 0.00017231757497686677
766.0, 0.0001243916023814993
767.0, 0.0002836311458941899
768.0, 0.0005619726322861566
769.0, 0.0005288982735494566
770.0, 0.0002472482919576599
771.0, 0.0005749726461747002
772.0, 0.0004917546856743534
773.0, 0.00011845752332750922
774.0, 0.00024610941033898073
775.0, 0.0007478742382832275
776.0, 0.0010031375999281604
777.0, 0.0007055730663239008
778.0, 0.00011178835361335973
779.0, 0.00031978534956263643
780.0, 0.00047407469004506634
781.0, 0.0006407135187624152
782.0, 0.0002741749992838954
783.0, 4.350788169686119e-05
784.0, 0.0003456372575318964
785.0, 0.0005080258405674181
786.0, 0.0005514715587946334
787.0, 0.00029408481439196967
788.0, 0.00023557975672437823
789.0, 0.0005875607673308401
790.0, 0.00046014988135980174
791.0, 0.0004063724560832398
792.0, 0.0009418950766059271
793.0, 0.0005891184386071573
794.0, 0.0007591712292512346
795.0, 0.00028658929088867346
796.0, 0.0004068882697498799
797.0, 0.0006094129893153109
798.0, 0.00033044182582503444
799.0, 0.00010366605139134015
800.0, 0.0005136005668764603
801.0, 0.0004955379659080249
802.0, 0.0005335002250600932
803.0, 0.0007642954993318308
804.0, 0.0002708853076705108
805.0, 0.0006114775776200364
806.0, 0.0006828309376092729
807.0, 0.0002768795927045098
808.0, 0.0006568316996877625
809.0, 0.0010193738278914542
810.0, 0.00048162634041913464
811.0, 0.0005045075988425456
812.0, 0.0006870143476238425
813.0, 0.0005711942702087626
814.0, 0.0001310357483284691
815.0, 0.0004063545349672319
816.0, 0.0002401055115807468
817.0, 6.737642147752615e-05
818.0, 9.200037193203563e-05
819.0, 0.00040945373546724337
820.0, 0.000557380392963494
821.0, 0.0010500354122441645
822.0, 0.0009279083549663773
823.0, 0.0006117548160855815
824.0, 0.0011944058201165916
825.0, 0.0008900727378482154
826.0, 0.000744306114065211
827.0, 0.0005154536698310175
828.0, 0.00017267458254469583
829.0, 0.0005545138997074655
830.0, 0.0007073827659211586
831.0, 0.0005834577789800924
832.0, 0.0008590795273299175
833.0, 0.0006629474361146022
834.0, 0.0005310331350608951
835.0, 0.00016620068356351122
836.0, 0.0005099129633997435
837.0, 0.000215169824213841
838.0, 0.0001948562906637308
839.0, 0.0004471818893611706
840.0, 0.00048211252869664845
841.0, 0.0007206888792676029
842.0, 0.0008606664340759632
843.0, 0.0008418098060312239
844.0, 0.0008530027305491119
845.0, 0.0007285241116411374
846.0, 0.0008179671363458966
847.0, 0.0005361183335783669
848.0, 0.0003004747404559979
849.0, 0.000830231975811688
850.0, 0.00063626979478342
851.0, 0.0010713739948265118
852.0, 0.001018618457297527
853.0, 0.0013538834295620237
854.0, 0.0006494725202515688
855.0, 4.7266619118538417e-05
856.0, 0.00025781214604235145
857.0, 0.00045696615495692826
858.0, 0.0004883876542199593
859.0, 0.000625679228123279
860.0, 0.0003622305402031168
861.0, 0.001013528044314683
862.0, 0.0011602511189524884
863.0, 0.0007427903670984469
864.0, 0.0005129394074009369
865.0, 0.0006481791348665759
866.0, 0.0007774285432022085
867.0, 0.0008137166193169603
868.0, 0.0006154000477560087
869.0, 5.779729523782533e-05
870.0, 0.0005005632680005061
871.0, 0.0006731656610475069
872.0, 0.0005763939261812493
873.0, 0.0005420504365773745
874.0, 0.0001669047860363426
875.0, 0.00011770578717965921
876.0, 0.00020399879980481238
877.0, 0.00045014103802588006
878.0, 0.0010560324391647928
879.0, 0.000664862575275608
880.0, 0.00010899246696767006
881.0, 0.00043764240772386717
882.0, 0.000806248725856563
883.0, 0.0005733598043916864
884.0, 0.0007051454623291202
885.0, 0.0006999110599368258
886.0, 0.0005759856316233508
887.0, 0.0012056493498940894
888.0, 0.0009650431020083738
889.0, 0.00034695214467064177
890.0, 0.0005685840727038928
891.0, 0.0007316047902152429
892.0, 0.0003160180218810397
893.0, 0.00025146955154211606
894.0, 8.67151035090291e-05
895.0, 0.000472770169459796
896.0, 0.0003807751988607439
897.0, 0.0003916967676538648
898.0, 0.0006147585917879733
899.0, 0.000661552797444356
900.0, 0.0007661455174128385
901.0, 0.0009253253540678231
902.0, 0.0006980535470558062
903.0, 0.0006335779017325463
904.0, 0.00028136172658493154
905.0, 0.00017767295374891763
906.0, 0.0008320250730777431
907.0, 0.0008384182225028722
908.0, 0.000896035205046869
909.0, 0.0008851716906159324
910.0, 0.00048697417034801623
911.0, 0.00042112539963041893
912.0, 0.00026138315656533585
913.0, 0.00015596610684717486
914.0, 0.0006278353114051229
915.0, 0.0004905717997090519
916.0, 0.0003246526039056202
917.0, 0.00043449226548700236
918.0, 0.0005159369160570288
919.0, 0.0005612862411932911
920.0, 0.0005708747446963836
921.0, 0.0001328820108677198
922.0, 0.0001641813875913648
923.0, 0.0005797851918481506
924.0, 0.00030302176176601447
925.0, 0.00023082346620411026
926.0, 0.00048186923278916707
927.0, 0.0004707572967297981
928.0, 0.0006356214119518267
929.0, 0.0006371950044102701
930.0, 6.0441879142284314e-05
931.0, 2.221638358672129e-05
932.0, 8.434615417439323e-05
933.0, 0.00023340406927217758
934.0, 0.0005387917849598163
935.0, 0.0006825005197565975
936.0, 0.00041962585010959044
937.0, 0.00030665607145566244
938.0, 0.0005014947404537177
939.0, 0.0005197007141070568
940.0, 0.0003745472356935484
941.0, 0.00021173224704838437
942.0, 5.0909507703610134e-05
943.0, 0.00023195851572329408
944.0, 0.0003220767898999971
945.0, 0.0006080132262439208
946.0, 0.00038042681168519335
947.0, 0.00011370930220427821
948.0, 0.00036671815373454087
949.0, 0.0006328025087776962
950.0, 0.0003251382896213172
951.0, 8.121813037710093e-05
952.0, 0.00011292991548405654
953.0, 0.0006178421297135498
954.0, 0.0006771284452510969
955.0, 0.0003103871471129707
956.0, 0.0003441548469005819
957.0, 0.0002931650044823137
958.0, 6.747092991715218e-05
959.0, 0.00019310629489458303
960.0, 0.0006429669360894049
961.0, 0.0008285387707152373
962.0, 0.0006510786590393639
963.0, 0.0008675281315672244
964.0, 0.00023043695061944155
965.0, 0.0003018441237024852
966.0, 0.0006139405262552813
967.0, 0.00028955849050103826
968.0, 0.00017582724455578598
969.0, 0.0006448323404226974
970.0, 0.0008040768587044945
971.0, 0.0006358402625765477
972.0, 0.00035560265333354525
973.0, 0.00023784080415792285
974.0, 0.0008699840500292536
975.0, 0.000268102616130652
976.0, 0.00035822846636495754
977.0, 0.00037996433757056183
978.0, 0.0002266202951302346
979.0, 0.00028489034316560383
980.0, 0.0006112973336699292
981.0, 0.0009592138021577314
982.0, 6.538467843728807e-05
983.0, 0.0004631537364333356
984.0, 0.0008272168419315895
985.0, 0.000431597708169136
986.0, 9.286655831306353e-05
987.0, 0.000130804212874622
988.0, 6.873824582101177e-05
989.0, 0.00025416651516896554
990.0, 0.0006994837018857133
991.0, 0.0004843378943804145
992.0, 5.156058330458089e-05
993.0, 0.0002027161716753531
994.0, 0.00038421527490056393
995.0, 0.0002504275420344567
996.0, 0.000844285788323425
997.0, 0.0007971325426791994
998.0, 0.0002834477583651597
999.0, 0.00020290637824925463
1000.0, 0.00043859570946433815
1001.0, 0.00022580359673691623
1002.0, 0.0001377766889748314
1003.0, 0.0001859774318085856
1004.0, 9.989698202920895e-05
1005.0, 1.4219220960643016e-05
1006.0, 7.912266538208654e-05
1007.0, 0.0005576704565375312
1008.0, 0.0003156973498185931
1009.0, 0.000888620431593724
1010.0, 0.0007185741940561477
1011.0, 0.0005072042857684645
1012.0, 0.0005056436195904351
1013.0, 6.593345653802679e-05
1014.0, 7.275762277497799e-05
1015.0, 0.0005621903304268101
1016.0, 0.00042745645916734645
1017.0, 0.0003994266997728468
1018.0, 0.0004030511795379713
1019.0, 0.0005174067796145573
1020.0, 0.0004916741099030723
1021.0, 0.0005015548533261447
1022.0, 0.0005951737579731681
1023.0, 0.0010684731827062734
1024.0, 0.001056408856088407
1025.0, 0.0003235438313738561
1026.0, 0.0008384804137961371
1027.0, 0.0012422033207210692
1028.0, 0.0008959650928819131
1029.0, 0.0007231142157860831
1030.0, 0.00044172613924116773
1031.0, 0.0004868494156265036
1032.0, 0.0006302375070667481
1033.0, 0.0007174079375348635
1034.0, 0.0002331797747903968
1035.0, 0.00023135049139878938
1036.0, 0.0005041357927752017
1037.0, 0.0003389357291991976
1038.0, 0.0006300784542823215
1039.0, 0.0009218411378124208
1040.0, 0.000419207997551568
1041.0, 0.00019926605842982307
1042.0, 0.000910908818857046
1043.0, 0.0006481488572018234
1044.0, 0.0005383315439635308
1045.0, 0.0007765197179797573
1046.0, 0.0006958064643601671
1047.0, 0.00043441114290964
1048.0, 0.00028369858145196636
1049.0, 0.00047088608635714274
1050.0, 0.0007302514035573218
1051.0, 0.00017576682079669444
1052.0, 0.00058994249120624
1053.0, 0.0004736799206972437
1054.0, 0.0005266548805900378
1055.0, 0.00047364348996922876
1056.0, 0.000653070989480264
1057.0, 0.0006445864359394386
1058.0, 0.0006040473233265453
1059.0, 0.0006734539340558652
1060.0, 0.0005590183785820952
1061.0, 0.0004079794365759901
1062.0, 0.0007104990706047924
1063.0, 0.0009338588866082256
1064.0, 0.0003294966445669377
1065.0, 0.00043876715487712703
1066.0, 0.0008099130313887387
1067.0, 0.00014022496474419218
1068.0, 0.00036281773537823355
1069.0, 0.000394554629717915
1070.0, 0.00031536242343097
1071.0, 0.000759169308481978
1072.0, 0.0005873897900270231
1073.0, 8.824107355656231e-05
1074.0, 9.355491345195015e-05
1075.0, 0.0002959377373205749
1076.0, 0.0009449388919039638
1077.0, 0.0007647754172646289
1078.0, 0.0010244531191846045
1079.0, 0.0008773555377056575
1080.0, 0.0007517214167681305
1081.0, 0.0007832906313756986
1082.0, 0.0011071561788651655
1083.0, 0.0003106170974885195
1084.0, 0.0004816458724275768
1085.0, 0.0006318806741252712
1086.0, 0.00016807980539615806
1087.0, 0.0003211002528500408
1088.0, 0.0007976420924517922
1089.0, 0.0008519178395829798
1090.0, 0.0008086477967748042
1091.0, 0.0005494296215127744
1092.0, 0.0005845115457441443
1093.0, 0.00029532854062945757
1094.0, 0.00032250480782703095
1095.0, 0.00016776711667191812
1096.0, 0.00033007668519099043
1097.0, 0.0006824521630273227
1098.0, 0.0010869707811144566
1099.0, 0.0005316896042700961
1100.0, 0.0001919671122558823
1101.0, 0.000510405153359997
1102.0, 0.0005223263562941222
1103.0, 0.0007278005865769259
1104.0, 0.0009407180475076135
1105.0, 0.0005454223740792215
1106.0, 0.00018335021677799165
1107.0, 0.0005175527893819631
1108.0, 0.0007576781696203571
1109.0, 0.00030761903911265655
1110.0, 0.00030639476213343176
1111.0, 0.0005306643196520618
1112.0, 0.0006741933169514729
1113.0, 0.00029292892710996505
1114.0, 0.00034818646351893434
1115.0, 0.00026948106829300777
1116.0, 0.0001969284263031165
1117.0, 0.00048155472895915273
1118.0, 0.00034883706184290326
1119.0, 0.0008157847235608128
1120.0, 0.0007210521826140536
1121.0, 0.0001738198033648394
1122.0, 0.0002102419556562913
1123.0, 0.000703904258796585
1124.0, 0.0005713439156298105
1125.0, 0.0002480658545300839
1126.0, 0.000499092508890457
1127.0, 0.00044076009437802943
1128.0, 0.00020271175989132874
1129.0, 0.00044193253344420057
1130.0, 0.0007008749088360939
1131.0, 0.00016558930141223832
1132.0, 9.05345577742774e-05
1133.0, 0.0007966160626240243
1134.0, 0.0001814499693975355
1135.0, 0.0005456546703071519
1136.0, 0.00047231160362117854
1137.0, 0.00041996029026271733
1138.0, 0.0004682778659755501
1139.0, 0.00017608477872555072
1140.0, 0.00016035669347960922
1141.0, 0.0007226853222213756
1142.0, 0.0008916194533500394
1143.0, 0.00043890374789506146
1144.0, 0.00019504710703884966
1145.0, 0.00022361596994410144
1146.0, 0.00011438407149860288
1147.0, 0.00012687088474073492
1148.0, 0.0002990593731527945
1149.0, 0.00022122998696840726
1150.0, 0.00034373413888140236
1151.0, 0.0006203330685613446
1152.0, 0.0005328089572238135
1153.0, 0.00030623720990599076
1154.0, 0.0007096655909022576
1155.0, 0.00046656264499587085
1156.0, 0.0007474656596716669
1157.0, 0.00022721565794995527
1158.0, 0.0001994169563977831
1159.0, 0.0005974515994722103
1160.0, 0.0005716814999682544
1161.0, 0.0006520136181552408
1162.0, 0.0008617927990852552
1163.0, 0.0007670538068434699
1164.0, 0.000851943015407308
1165.0, 0.0010605443378382815
1166.0, 0.0004791894033923087
1167.0, 0.00023635885044238903
1168.0, 0.0002412604694126584
1169.0, 0.0003762502337354332
1170.0, 0.0009129673502981028
1171.0, 0.0003632557731158507
1172.0, 0.00016502203151905458
1173.0, 0.0008251335909294982
1174.0, 0.0005647320414298231
1175.0, 0.0002824651313491868
1176.0, 0.0006552871963275391
1177.0, 0.0005315624740719971
1178.0, 0.0006617520905727379
1179.0, 0.0007399028190815283
1180.0, 0.0007944426329940225
1181.0, 0.0011294084347785237
1182.0, 0.0008724054327565085
1183.0, 0.00041623934756875795
1184.0, 0.0003078821666937034
1185.0, 0.0005456725577141885
1186.0, 1.541939908540501e-05
1187.0, 0.0006117669554046811
1188.0, 0.00047887180741288077
1189.0, 0.0005514451400068711
1190.0, 0.0006921127453330034
1191.0, 0.000619542007363499
1192.0, 0.0005165220428401119
1193.0, 0.00040068445090615627
1194.0, 0.0002664172426208758
1195.0, 4.818028758312726e-05
1196.0, 0.00018034019104119298
1197.0, 0.0004969374164878599
1198.0, 0.0005307514346738599
1199.0, 8.172040494368935e-05
1200.0, 0.00037183360008573047
1201.0, 0.0008978700175982481
1202.0, 0.0003554306866300309
1203.0, 0.00015225163427251938
1204.0, 0.00041232919514432384
1205.0, 0.00041793684698584826
1206.0, 0.00013037898886172236
1207.0, 0.0002211282652959225
1208.0, 7.276955443530718e-05
1209.0, 0.0002587012240013362
1210.0, 0.0002619208621435561
1211.0, 0.0008411487804787446
1212.0, 0.0008196378570849901
1213.0, 0.00031070720352481643
1214.0, 0.0003798507450308643
1215.0, 0.0006517104860183138
1216.0, 0.0002243208977264094
1217.0, 0.0006696291288341364
1218.0, 0.0003662911636970082
1219.0, 0.0002966991659152247
1220.0, 0.0008583442875035018
1221.0, 0.0006085115806255401
1222.0, 0.0007219365807421008
1223.0, 0.0008363917784688553
1224.0, 9.514626264456606e-05
1225.0, 0.000634417974682293
1226.0, 0.0012719989875845743
1227.0, 0.00023755855264664803
1228.0, 0.0002661913284514233
1229.0, 0.0004416617703723925
1230.0, 0.0009776660675863266
1231.0, 0.0005455508057521755
1232.0, 0.0003832853919363432
1233.0, 0.00028286239124458376
1234.0, 0.0004670797373394192
1235.0, 0.00036502174124152816
1236.0, 0.0007097643705598812
1237.0, 0.00039565800498607455
1238.0, 0.0001915132054179546
1239.0, 0.0002047916592249249
1240.0, 0.0003229116701439031
1241.0, 0.00026444222568451506
1242.0, 0.00024271692248030387
1243.0, 0.000558600648506747
1244.0, 0.0007760624999731744
1245.0, 0.0005259571830679796
1246.0, 0.00043445633469508214
1247.0, 0.0005382654360923368
1248.0, 0.0005845117207767852
1249.0, 0.0009581092785394997
1250.0, 0.0004982300343793338
1251.0, 6.148756202730927e-05
1252.0, 0.0001523452988362184
1253.0, 0.0008030832949514125
1254.0, 0.000498951055888596
1255.0, 0.000536567685611863
1256.0, 0.0005255975370694343
1257.0, 0.0006383947931842025
1258.0, 0.0005119566562618515
1259.0, 0.0003341982473714439
1260.0, 0.0002613125173216784
1261.0, 0.00033727533001268656
1262.0, 0.0007753466672160517
1263.0, 0.00034206917870920127
1264.0, 0.0010330885010450435
1265.0, 0.0006480105580241377
1266.0, 0.0009433327883129323
1267.0, 0.0013051585855238786
1268.0, 0.0003372142072821062
1269.0, 9.828847618812659e-05
1270.0, 0.0006067836257471517
1271.0, 0.000626672167946814
1272.0, 0.0005955109648536727
1273.0, 0.000325406087072192
1274.0, 0.0001058454828965019
1275.0, 0.0005098867128316738
1276.0, 0.0007613591726297038
1277.0, 0.0008803557285030892
1278.0, 0.0003716081736997508
1279.0, 0.00012335006378510533
1280.0, 0.0007056906085712542
1281.0, 0.00026837437225813614
1282.0, 1.2640549824437831e-05
1283.0, 0.0002903273067505072
1284.0, 0.0004241244281860598
1285.0, 0.00012455889604923943
1286, 0.0
1287, 0.0
1288, 0.0
1289, 0.0
1290, 0.0
1291, 0.0
1292, 0.0
1293, 0.0
1294, 0.0
1295, 0.0
1296, 0.0
1297, 0.0
1298, 0.0
1299, 0.0
1300, 0.0
1301, 0.0
1302, 0.0
1303, 0.0
1304, 0.0
1305, 0.0
1306, 0.0
1307, 0.0
1308, 0.0
1309, 0.0
1310, 0.0
1311, 0.0
1312, 0.0
1313, 0.0
1314, 0.0
1315, 0.0
1316, 0.0
1317, 0.0
1318, 0.0
1319, 0.0
1320, 0.0
1321, 0.0
1322, 0.0
1323, 0.0
1324, 0.0
1325, 0.0
1326, 0.0
1327, 0.0
1328, 0.0
1329, 0.0
1330, 0.0
1331, 0.0
1332, 0.0
1333, 0.0
1334, 0.0
1335, 0.0
1336, 0.0
1337, 0.0
1338, 0.0
1339, 0.0
1340, 0.0
1341, 0.0
1342, 0.0
1343, 0.0
1344, 0.0
1345, 0.0
1346, 0.0
1347, 0.0
1348, 0.0
1349, 0.0
1350, 0.0
1351, 0.0
1352, 0.0
1353, 0.0
1354, 0.0
1355, 0.0
1356, 0.0
1357, 0.0
1358, 0.0
1359, 0.0
1360, 0.0
1361, 0.0
1362, 0.0
1363, 0.0
1364, 0.0
1365, 0.0
1366, 0.0
1367, 0.0
1368, 0.0
1369, 0.0
1370, 0.0
1371, 0.0
1372, 0.0
1373, 0.0
1374, 0.0
1375, 0.0
1376, 0.0
1377, 0.0
1378, 0.0
1379, 0.0
1380, 0.0
1381, 0.0
1382, 0.0
1383, 0.0
1384, 0.0
1385, 0.0
1386, 0.0
1387, 0.0
1388, 0.0
1389, 0.0
1390, 0.0
1391, 0.0
1392, 0.0
1393, 0.0
1394, 0.0
1395, 0.0
1396, 0.0
1397, 0.0
1398, 0.0
1399, 0.0
1400, 0.0
1401, 0.0
1402, 0.0
1403, 0.0
1404, 0.0
1405, 0.0
1406, 0.0
1407, 0.0
1408, 0.0
1409, 0.0
1410, 0.0
1411, 0.0
1412, 0.0
1413, 0.0
1414, 0.0
1415, 0.0
1416, 0.0
1417, 0.0
1418, 0.0
1419, 0.0
1420, 0.0
1421, 0.0
1422, 0.0
1423, 0.0
1424, 0.0
1425, 0.0
1426, 0.0
1427, 0.0
1428, 0.0
1429, 0.0
1430, 0.0
1431, 0.0
1432, 0.0
1433, 0.0
1434, 0.0
1435, 0.0
1436, 0.0
1437, 0.0
1438, 0.0
1439, 0.0
1440, 0.0
1441, 0.0
1442, 0.0
1443, 0.0
1444, 0.0
1445, 0.0
1446, 0.0
1447, 0.0
1448, 0.0
1449, 0.0
1450, 0.0
1451, 0.0
1452, 0.0
1453, 0.0
1454, 0.0
1455, 0.0
1456, 0.0
1457, 0.0
1458, 0.0
1459, 0.0
1460, 0.0
1461, 0.0
1462, 0.0
1463, 0.0
1464, 0.0
1465, 0.0
1466, 0.0
1467, 0.0
1468, 0.0
1469, 0.0
1470, 0.0
1471, 0.0
1472, 0.0
1473, 0.0
1474, 0.0
1475, 0.0
1476, 0.0
1477, 0.0
1478, 0.0
1479, 0.0
1480, 0.0
1481, 0.0
1482, 0.0
1483, 0.0
1484, 0.0
1485, 0.0
1486, 0.0
1487, 0.0
1488, 0.0
1489, 0.0
1490, 0.0
1491, 0.0
1492, 0.0
1493, 0.0
1494, 0.0
1495, 0.0
1496, 0.0
1497, 0.0
1498, 0.0
1499, 0.0
1500, 0.0
1501, 0.0
1502, 0.0
1503, 0.0
1504, 0.0
1505, 0.0
1506, 0.0
1507, 0.0
1508, 0.0
1509, 0.0
1510, 0.0
1511, 0.0
1512, 0.0
1513, 0.0
1514, 0.0
1515, 0.0
1516, 0.0
1517, 0.0
1518, 0.0
1519, 0.0
1520, 0.0
1521, 0.0
1522, 0.0
1523, 0.0
1524, 0.0
1525, 0.0
1526, 0.0
1527, 0.0
1528, 0.0
1529, 0.0
1530, 0.0
1531, 0.0
1532, 0.0
1533, 0.0
1534, 0.0
1535, 0.0
1536, 0.0
1537, 0.0
1538, 0.0
1539, 0.0
1540, 0.0
1541, 0.0
1542, 0.0
1543, 0.0
1544, 0.0
1545, 0.0
1546, 0.0
1547, 0.0
1548, 0.0
1549, 0.0
1550, 0.0
1551, 0.0
1552, 0.0
1553, 0.0
1554, 0.0
1555, 0.0
1556, 0.0
1557, 0.0
1558, 0.0
1559, 0.0
1560, 0.0
1561, 0.0
1562, 0.0
1563, 0.0
1564, 0.0
1565, 0.0
1566, 0.0
1567, 0.0
1568, 0.0
1569, 0.0
1570, 0.0
1571, 0.0
1572, 0.0
1573, 0.0
1574, 0.0
1575, 0.0
1576, 0.0
1577, 0.0
1578, 0.0
1579, 0.0
1580, 0.0
1581, 0.0
1582, 0.0
1583, 0.0
1584, 0.0
1585, 0.0
1586, 0.0
1587, 0.0
1588, 0.0
1589, 0.0
1590, 0.0
1591, 0.0
1592, 0.0
1593, 0.0
1594, 0.0
1595, 0.0
1596, 0.0
1597, 0.0
1598, 0.0
1599, 0.0
