30, 0.0
31, 0.0
32, 0.0
33, 0.0
34, 0.0
35, 0.0
36, 0.0
37, 0.0
38, 0.0
39, 0.0
40, 0.0
41, 0.0
42, 0.0
43, 0.0
44, 0.0
45, 0.0
46, 0.0
47, 0.0
48, 0.0
49, 0.0
50, 0.0
51, 0.0
52, 0.0
53, 0.0
54, 0.0
55, 0.0
56, 0.0
57, 0.0
58, 0.0
59, 0.0
60, 0.0
61, 0.0
62, 0.0
63, 0.0
64, 0.0
65, 0.0
66, 0.0
67, 0.0
68, 0.0
69, 0.0
70, 0.0
71, 0.0
72, 0.0
73, 0.0
74, 0.0
75, 0.0
76, 0.0
77, 0.0
78, 0.0
79, 0.0
80, 0.0
81, 0.0
82, 0.0
83, 0.0
84, 0.0
85, 0.0
86, 0.0
87, 0.0
88, 0.0
89, 0.0
90, 0.0
91, 0.0
92, 0.0
93, 0.0
94, 0.0
95, 0.0
96, 0.0
97, 0.0
98, 0.0
99, 0.0
100, 0.0
101, 0.0
102, 0.0
103, 0.0
104, 0.0
105, 0.0
106, 0.0
107, 0.0
108, 0.0
109, 0.0
110, 0.0
111, 0.0
112, 0.0
113, 0.0
114, 0.0
115, 0.0
116, 0.0
117, 0.0
118, 0.0
119, 0.0
120, 0.0
121, 0.0
122, 0.0
123, 0.0
124, 0.0
125, 0.0
126, 0.0
127, 0.0
128, 0.0
129, 0.0
130, 0.0
131, 0.0
132.0, 0.000872145040624144
133.0, 0.0017845423109179458
134.0, 0.0005677563268684691
135.0, 0.0007807147548362673
136.0, 0.007883505031207777
137.0, 0.02033579717788131
138.0, 0.03631724659394222
139.0, 0.05373091805952483
140.0, 0.0707123869970822
141.0, 0.0838462713909789
142.0, 0.10049554115275894
143.0, 0.12382892930000317
144.0, 0.15456335465175317
145.0, 0.1895700595040347
146.0, 0.22866037790478622
147.0, 0.2613326183072052
148.0, 0.2842570065313265
149.0, 0.2967011895132265
150.0, 0.30020306372367367
151.0, 0.2884971599414727
152.0, 0.2779765942381429
153.0, 0.26784136012076
154.0, 0.2564609824491731
155.0, 0.24261501377869016
156.0, 0.228090772630715
157.0, 0.21075838941898692
158.0, 0.189644717754673
159.0, 0.1672423224643045
160.0, 0.147463562561757
161.0, 0.1244051327843245
162.0, 0.10811578676279289
163.0, 0.09008455537495996
164.0, 0.07163068861954341
165.0, 0.05737865028227607
166.0, 0.05211354666622382
167.0, 0.04580603160793428
168.0, 0.044716109138914065
169.0, 0.048545110202602
170.0, 0.055962651596093115
171.0, 0.06597947604027286
172.0, 0.07429976246378804
173.0, 0.09700229827001777
174.0, 0.124357366623756
175.0, 0.15209668781033253
176.0, 0.18168074773531467
177.0, 0.1950240634858508
178.0, 0.1962573494172815
179.0, 0.18703024334723314
180.0, 0.17068655202306404
181.0, 0.1512824558062122
182.0, 0.1309325192013757
183.0, 0.11270531007010816
184.0, 0.09762624972729497
185.0, 0.08300998766303136
186.0, 0.06884212940631061
187.0, 0.0627912308880264
188.0, 0.05657734079839868
189.0, 0.05410420798144752
190.0, 0.05451461711783504
191.0, 0.0574691358472078
192.0, 0.06340984033682807
193.0, 0.07330971921926016
194.0, 0.08651723189291242
195.0, 0.09923017668681731
196.0, 0.10956162129612494
197.0, 0.11681568220466024
198.0, 0.12146741312674926
199.0, 0.11664833129176577
200.0, 0.10774135121628803
201.0, 0.09517255672323906
202.0, 0.08039837339098994
203.0, 0.06764580334863067
204.0, 0.05118347379888883
205.0, 0.03910791234574304
206.0, 0.028397613873716046
207.0, 0.019323201752561938
208.0, 0.01414109286811116
209.0, 0.009458523188519287
210.0, 0.004901120612867051
211.0, 0.003136201388398724
212.0, 0.0022676236389817805
213.0, 0.0005352201164810521
214.0, 0.0003070209636630197
215.0, 0.0016720763004822818
216.0, 0.002322843881477019
217.0, 0.0029534730282779055
218.0, 0.003920186688163878
219.0, 0.004885505601695653
220.0, 0.003774146669847055
221.0, 0.004122420919871746
222.0, 0.003222642277452282
223.0, 0.0030223062131954025
224.0, 0.005073806255916431
225.0, 0.002350260615753391
226.0, 0.0038794133802919546
227.0, 0.003774929593696101
228.0, 0.0031889156769775544
229.0, 0.0029159004582661676
230.0, 0.002287410590250298
231.0, 0.002891401621215248
232.0, 0.0016446006903823023
233.0, 0.0007302145894390382
234.0, 0.001070754629971358
235.0, 0.002270479593365902
236.0, 0.0010372718290364005
237.0, 0.0008642231137452045
238.0, 0.0009245439327199247
239.0, 0.0019061370378849144
240.0, 0.0029473140501545935
241.0, 0.0012074367335557423
242.0, 0.005414501013902831
243.0, 0.006660532472354883
244.0, 0.01001056269527327
245.0, 0.015339883665621409
246.0, 0.020507500487675433
247.0, 0.025800005239009726
248.0, 0.029477480046540033
249.0, 0.037685352568285715
250.0, 0.04899243785136953
251.0, 0.06142420968636779
252.0, 0.07405958439423145
253.0, 0.09517369559751282
254.0, 0.11521885214984948
255.0, 0.13540663298600825
256.0, 0.15234682454246984
257.0, 0.16384317745974597
258.0, 0.17774716506213764
259.0, 0.1895154131875519
260.0, 0.1966211130870964
261.0, 0.2003425105310974
262.0, 0.2037457632309303
263.0, 0.21040004018124683
264.0, 0.21529981484563868
265.0, 0.21270896503651326
266.0, 0.20434134992471975
267.0, 0.19049576447424799
268.0, 0.17311323688059507
269.0, 0.1584262030089712
270.0, 0.14727811409866903
271.0, 0.1355815553944592
272.0, 0.12569972028361198
273.0, 0.1174307474409422
274.0, 0.11030751949181365
275.0, 0.11597490480766146
276.0, 0.11860888936214198
277.0, 0.13112694694529997
278.0, 0.14848285856318158
279.0, 0.16706539831160522
280.0, 0.1906994341196073
281.0, 0.22122340635951496
282.0, 0.24520660331054223
283.0, 0.26304559692988705
284.0, 0.2751656163159724
285.0, 0.28026671693753097
286.0, 0.2707723682794012
287.0, 0.25306864943721885
288.0, 0.22826401608391053
289.0, 0.20292871573355367
290.0, 0.1802891652249274
291.0, 0.15918952844540027
292.0, 0.1325957224353366
293.0, 0.11399921368842324
294.0, 0.10006705986016501
295.0, 0.08850727217552992
296.0, 0.07902299976214149
297.0, 0.07408941393969277
298.0, 0.06843284923224668
299.0, 0.06169492129279649
300.0, 0.05400294101098698
301.0, 0.04609281429171207
302.0, 0.03918737708334359
303.0, 0.035172701843004736
304.0, 0.028179182004062154
305.0, 0.02431435947709655
306.0, 0.020646521218578004
307.0, 0.016499068668349545
308.0, 0.013130890176029203
309.0, 0.010141655638426629
310.0, 0.009591726595730264
311.0, 0.008534325510083077
312.0, 0.006620441036663111
313.0, 0.005247494253229851
314.0, 0.006676902105236451
315.0, 0.003907527701396136
316.0, 0.0049401213399884345
317.0, 0.006259098681476772
318.0, 0.0077554735831327215
319.0, 0.008943672164829723
320.0, 0.006829617891036116
321.0, 0.010860489881614602
322.0, 0.01323226409291452
323.0, 0.017879794559543485
324.0, 0.023900907343847522
325.0, 0.028821012062682567
326.0, 0.03294630072368133
327.0, 0.04140820033355671
328.0, 0.04965526791827422
329.0, 0.05666698690153885
330.0, 0.06106212172618666
331.0, 0.062112058058000165
332.0, 0.06349281688534915
333.0, 0.058845991019224386
334.0, 0.05243010476737656
335.0, 0.045447694834121574
336.0, 0.038067105132958245
337.0, 0.030139354784889483
338.0, 0.024867760956180138
339.0, 0.02070196185984255
340.0, 0.018466408683186716
341.0, 0.015170606749631901
342.0, 0.011410348826867022
343.0, 0.012588622815458412
344.0, 0.012349017531515568
345.0, 0.009150469211745449
346.0, 0.009408155210534876
347.0, 0.009863943597358142
348.0, 0.008819706216125196
349.0, 0.01160688683184778
350.0, 0.012931319261498276
351.0, 0.014771758317918118
352.0, 0.01795332593697068
353.0, 0.02059265514069116
354.0, 0.0215531723240357
355.0, 0.023364611719697004
356.0, 0.024174896661766476
357.0, 0.024828220518410646
358.0, 0.024873183204062302
359.0, 0.02441484560891181
360.0, 0.023904284718266177
361.0, 0.023940164622653762
362.0, 0.023466153105920866
363.0, 0.023038935473259404
364.0, 0.02319060142659117
365.0, 0.024797027094484454
366.0, 0.02823842612933934
367.0, 0.032079248489792184
368.0, 0.04029582810224345
369.0, 0.04698059989500616
370.0, 0.052875917330482636
371.0, 0.05673116900803255
372.0, 0.057008302078743356
373.0, 0.055560766120756166
374.0, 0.04670496190023596
375.0, 0.04372868971056778
376.0, 0.03747107121334089
377.0, 0.027934975009959197
378.0, 0.020295304088927584
379.0, 0.012910397583373898
380.0, 0.008815722776845574
381.0, 0.005128305818491802
382.0, 0.001944429431653122
383.0, 0.0007198956395666008
384.0, 0.002111892316195161
385.0, 0.001272238602378597
386.0, 0.004235730572242909
387.0, 0.0027289890412658274
388.0, 0.0009523375968356333
389.0, 0.0008435350229549147
390.0, 0.0015006536091604612
391.0, 8.740861995784393e-05
392.0, 0.006658774244605073
393.0, 0.009964563102070147
394.0, 0.014066124373984969
395.0, 0.019329298077704175
396.0, 0.024413516478788838
397.0, 0.03262160336861763
398.0, 0.04080883614030582
399.0, 0.05515730290990532
400.0, 0.06879053215277395
401.0, 0.078166168266621
402.0, 0.08314264452616146
403.0, 0.08545458261616722
404.0, 0.07647818167272369
405.0, 0.07034302819531184
406.0, 0.06211669693227974
407.0, 0.05467859782607188
408.0, 0.051289893215759066
409.0, 0.04480544692298029
410.0, 0.043960333838674356
411.0, 0.042435990516580084
412.0, 0.03862594007247319
413.0, 0.03411636397068017
414.0, 0.030450854355087306
415.0, 0.025973095189375052
416.0, 0.017207273592260063
417.0, 0.011466026956858515
418.0, 0.00751984049451847
419.0, 0.0038932358771389983
420.0, 0.0009920622395712627
421.0, 0.0019949434997513942
422.0, 0.0011644900611961918
423.0, 0.0030916435818510233
424.0, 0.0023378079954787458
425.0, 0.0013757451957387265
426.0, 0.0016974238548433257
427.0, 0.0007268937091773515
428.0, 0.001987898490078195
429.0, 0.001365138073577806
430.0, 0.0023014926534910846
431.0, 0.002200872192458151
432.0, 0.001085897400591966
433.0, 0.0021669818896499562
434.0, 0.0026137645037795907
435.0, 0.0032403241673788627
436.0, 0.004231270192616683
437.0, 0.007232137691604883
438.0, 0.011260375726569884
439.0, 0.013969889205605554
440.0, 0.01656786247793412
441.0, 0.027680677069438355
442.0, 0.031511277695457855
443.0, 0.03937297307726241
444.0, 0.052808214292131395
445.0, 0.06706347250803238
446.0, 0.07998775823636164
447.0, 0.1012159077316776
448.0, 0.12349361947660753
449.0, 0.14891720259310331
450.0, 0.1788277841212339
451.0, 0.20950809580487786
452.0, 0.23048933662843307
453.0, 0.24105419742371595
454.0, 0.23465632910458425
455.0, 0.22075949922107665
456.0, 0.20525961864441974
457.0, 0.18755309011400023
458.0, 0.16368945402229126
459.0, 0.15086745762085957
460.0, 0.13246372404224147
461.0, 0.12228988634097426
462.0, 0.12064116662494544
463.0, 0.1236176238337125
464.0, 0.1285032964370463
465.0, 0.14217722347109352
466.0, 0.16596090419081388
467.0, 0.19599807700970265
468.0, 0.23350567418135648
469.0, 0.27726725555069165
470.0, 0.3258765743297046
471.0, 0.3799003847609374
472.0, 0.43529283159929705
473.0, 0.49198850864557675
474.0, 0.5273322378044031
475.0, 0.5374124584100926
476.0, 0.5250931672986799
477.0, 0.4944165764814522
478.0, 0.44824178084631994
479.0, 0.39727627593618015
480.0, 0.35530912593440006
481.0, 0.3153163973930726
482.0, 0.277627250746112
483.0, 0.24723933727571798
484.0, 0.22148011133646828
485.0, 0.1898081780771195
486.0, 0.16560266029083337
487.0, 0.1442772796363127
488.0, 0.12346771707768535
489.0, 0.10465169685717052
490.0, 0.09246986737021232
491.0, 0.0831642613283284
492.0, 0.07555038682181871
493.0, 0.07032867746829588
494.0, 0.06978002791421485
495.0, 0.07060558012778181
496.0, 0.06965387363185009
497.0, 0.08288288145326106
498.0, 0.08868785911165365
499.0, 0.10313887002633042
500.0, 0.12186069120588183
501.0, 0.14438858149969658
502.0, 0.17377632575416305
503.0, 0.2141349277411639
504.0, 0.2630111475156139
505.0, 0.32761793785551035
506.0, 0.4077323188908687
507.0, 0.49577214437588124
508.0, 0.5917319026968425
509.0, 0.7010619971905747
510.0, 0.817077584944523
511.0, 0.9238335417550072
512.0, 0.9821532487415539
513.0, 0.9889391866802654
514.0, 0.9508411673927815
515.0, 0.8779590413101477
516.0, 0.7804048643881412
517.0, 0.6769907677762431
518.0, 0.5643755590446994
519.0, 0.46366602598717427
520.0, 0.3768716699074194
521.0, 0.30603770386085716
522.0, 0.25174759071198083
523.0, 0.20044690207388802
524.0, 0.16414243530480757
525.0, 0.13888348004287188
526.0, 0.11971889989922069
527.0, 0.10347738785366162
528.0, 0.08843156776512973
529.0, 0.07431909515657888
530.0, 0.06522973195671626
531.0, 0.059143832474764464
532.0, 0.05463608977952683
533.0, 0.047563574422049795
534.0, 0.04133169577621966
535.0, 0.03928518060999999
536.0, 0.03304474497675205
537.0, 0.031699784547760346
538.0, 0.029222072128031417
539.0, 0.025257816657302205
540.0, 0.02295611185046306
541.0, 0.022181770394114123
542.0, 0.019254089711236096
543.0, 0.013746601306379135
544.0, 0.013611482288741324
545.0, 0.014213138717315636
546.0, 0.016451742155030712
547.0, 0.016392559618193546
548.0, 0.013393199049847895
549.0, 0.013564159252255292
550.0, 0.011906786801668673
551.0, 0.010452938843281969
552.0, 0.009664517162383274
553.0, 0.008699687886293474
554.0, 0.008060906476654287
555.0, 0.008036868323964323
556.0, 0.006626988677936557
557.0, 0.006891749713091895
558.0, 0.007721251810811084
559.0, 0.008551459361242799
560.0, 0.008662780609948411
561.0, 0.008351426607280174
562.0, 0.008012055999532607
563.0, 0.0055921791660826356
564.0, 0.006302394898301197
565.0, 0.002848729365637674
566.0, 0.0024911756662670615
567.0, 0.004905985534691604
568.0, 0.006262168294389395
569.0, 0.004000329876986024
570.0, 0.004077472756199693
571.0, 0.005351692878809432
572.0, 0.0062022125859713785
573.0, 0.007026962752437628
574.0, 0.007964934636693935
575.0, 0.009093678142618637
576.0, 0.010439672823053995
577.0, 0.010778807052004262
578.0, 0.01263384784076059
579.0, 0.013933619450524822
580.0, 0.01393543602118147
581.0, 0.01387314615859725
582.0, 0.014433562143235282
583.0, 0.014019674402143838
584.0, 0.013822455000401789
585.0, 0.013436691957932397
586.0, 0.012436558828491335
587.0, 0.011941022210743652
588.0, 0.010086130988437397
589.0, 0.006154214343710372
590.0, 0.004697350800141174
591.0, 0.001830948764692949
592.0, 0.001021901227640687
593.0, 0.000603787874773075
594.0, 0.0003175543223983944
595.0, 0.0008373036998369653
596.0, 0.002028587364181986
597.0, 0.0014601484757994425
598.0, 0.002327538397592311
599.0, 0.003285757855244066
600.0, 0.0016066000270663586
601.0, 0.0014388439313213442
602.0, 0.002156458534581518
603.0, 0.0014629633761997843
604.0, 0.0031374182114915516
605.0, 0.003277601973396731
606.0, 0.0028635689567281294
607.0, 0.0024042340680875828
608.0, 0.001616983805663392
609.0, 0.000898950331718792
610.0, 0.001010064623949403
611.0, 0.0019030587262986271
612.0, 0.0002623570666196801
613.0, 0.0002669151076263445
614.0, 0.0003400715536600825
615.0, 0.0012769535637301933
616.0, 0.0023699564063925393
617.0, 0.0027428750137985453
618.0, 0.004028547547785809
619.0, 0.004005686452091958
620.0, 0.006132907658757892
621.0, 0.007079196447951312
622.0, 0.006860694435001191
623.0, 0.007680398910290388
624.0, 0.009892809192384208
625.0, 0.009226239924118708
626.0, 0.013927164115064014
627.0, 0.01223316101141726
628.0, 0.014399609397648288
629.0, 0.017714308783657047
630.0, 0.019642199745080104
631.0, 0.02079296456669519
632.0, 0.023699309129794555
633.0, 0.02237496099415983
634.0, 0.021133598451687854
635.0, 0.022525258932418826
636.0, 0.026352365726846873
637.0, 0.028063924099909623
638.0, 0.02723523762347628
639.0, 0.030457564119305676
640.0, 0.029922618714554625
641.0, 0.03461273596996777
642.0, 0.033744898645805654
643.0, 0.036201953973555495
644.0, 0.04119200968186477
645.0, 0.04476013631568172
646.0, 0.04637656854697272
647.0, 0.048887890027559514
648.0, 0.05071295435330126
649.0, 0.0558799206099069
650.0, 0.05890622560327246
651.0, 0.05960702652198642
652.0, 0.06052893540394836
653.0, 0.06201291828426965
654.0, 0.056590293684486065
655.0, 0.05555960351907956
656.0, 0.051895953824918135
657.0, 0.048068700273097585
658.0, 0.044715066794695335
659.0, 0.04112090161452975
660.0, 0.03656451743229101
661.0, 0.03179988394769048
662.0, 0.027625631691742737
663.0, 0.02376054310843362
664.0, 0.02059891658987125
665.0, 0.016277146963078238
666.0, 0.014658783936293216
667.0, 0.01575118903599594
668.0, 0.011102209776780832
669.0, 0.00842121827690076
670.0, 0.004658929830372958
671.0, 0.005388231411865059
672.0, 0.005711473782643664
673.0, 0.005405896927768865
674.0, 0.005797374506451846
675.0, 0.006840011042132766
676.0, 0.006690149948585551
677.0, 0.0027818291732903708
678.0, 0.003194890632114258
679.0, 0.0018031814439374452
680.0, 0.0016818732305323824
681.0, 0.003608637162749939
682.0, 0.00423302231192724
683.0, 0.0006835557142019345
684.0, 0.0030333677511299416
685.0, 0.002165504344953606
686.0, 0.001433891047578325
687.0, 0.004548735558353756
688.0, 0.005524651597559461
689.0, 0.0025526086379527085
690.0, 0.0025799203043985596
691.0, 0.00019979024121868395
692.0, 0.0029364148957098544
693.0, 0.0017635514510121115
694.0, 0.0014004156537928438
695.0, 0.0011191857891083461
696.0, 0.0004779737010086425
697.0, 0.0004583588360541927
698.0, 0.0013970411926697963
699.0, 0.003230274074224425
700.0, 0.0009063685888437726
701.0, 0.000990735570453208
702.0, 0.003994834612928242
703.0, 0.004772335160602585
704.0, 0.0034110425580382454
705.0, 0.005735056757376881
706.0, 0.0018090373905421324
707.0, 0.006996715176810844
708.0, 0.006099160236604918
709.0, 0.004977885465824054
710.0, 0.005717618991132193
711.0, 0.006126650299395694
712.0, 0.003917303542258324
713.0, 0.002019417942042157
714.0, 0.0087670905191337
715.0, 0.005419023633832148
716.0, 0.012260398952602166
717.0, 0.009835694526020925
718.0, 0.0031817834581007115
719.0, 0.002298060095303175
720.0, 0.0063356248316185915
721.0, 0.007068151365301316
722.0, 0.004649332024228758
723.0, 0.0021025695094609668
724.0, 0.0021151038294428145
725.0, 0.0034073558088477886
726.0, 0.006244921821247404
727.0, 0.008465349920448673
728.0, 0.005904705556980968
729.0, 0.009127096693392962
730.0, 0.00799433923996784
731.0, 0.01039139740687166
732.0, 0.012372014844870974
733.0, 0.013568596540977813
734.0, 0.01519342449246874
735.0, 0.01814085900959125
736.0, 0.02172696744026304
737.0, 0.02316220793757235
738.0, 0.030610305945918116
739.0, 0.03613975562866561
740.0, 0.040527733634282304
741.0, 0.045802737275507335
742.0, 0.054883347782387064
743.0, 0.0670602150946731
744.0, 0.07389148154691978
745.0, 0.08722814612233115
746.0, 0.09734140922058712
747.0, 0.11072257733792365
748.0, 0.11733804652724286
749.0, 0.11698691443430206
750.0, 0.11164923059087291
751.0, 0.1012648890852427
752.0, 0.09026451147079981
753.0, 0.08263892019643182
754.0, 0.07174471463079599
755.0, 0.062345526939163835
756.0, 0.052294685327414825
757.0, 0.04359985975032062
758.0, 0.038286257075560784
759.0, 0.03429413627415096
760.0, 0.0278559256085305
761.0, 0.027534136469115667
762.0, 0.024853118203297074
763.0, 0.020397632999995564
764.0, 0.02041358057138493
765.0, 0.02067692086411955
766.0, 0.017928882685053032
767.0, 0.017015544832704513
768.0, 0.01726485890592326
769.0, 0.01752349143544569
770.0, 0.014062229223823601
771.0, 0.013966295186247936
772.0, 0.01502953856468212
773.0, 0.012328669913795977
774.0, 0.007720279252702373
775.0, 0.008403221300350098
776.0, 0.008001627638602031
777.0, 0.008959451083293553
778.0, 0.0077717328880353015
779.0, 0.006599601520326016
780.0, 0.0050553586039328155
781.0, 0.004558150428484857
782.0, 0.0052616853211364
783.0, 0.005039608439887784
784.0, 0.004678120175203226
785.0, 0.004648414520024872
786.0, 0.0039038641008664757
787.0, 0.002971689646325556
788.0, 0.0023260364495619815
789.0, 0.0022832249534451465
790.0, 0.0025356659996191937
791.0, 0.003247854687129819
792.0, 0.006918610707040038
793.0, 0.005645893570049866
794.0, 0.008818115010696216
795.0, 0.010586387533439741
796.0, 0.009706366569282804
797.0, 0.008480418864171396
798.0, 0.008320033038217196
799.0, 0.008251307966153807
800.0, 0.007888810921806967
801.0, 0.013416406273001953
802.0, 0.012404099864930535
803.0, 0.0121458317205719
804.0, 0.01716690079737007
805.0, 0.020049187403376714
806.0, 0.02045663126951363
807.0, 0.0255371460590026
808.0, 0.03557712607017626
809.0, 0.03954694899670158
810.0, 0.0436734165933627
811.0, 0.050096796427556274
812.0, 0.05577397794083254
813.0, 0.05399277379193236
814.0, 0.04983957456859736
815.0, 0.04813792750764386
816.0, 0.04218004477625244
817.0, 0.034752898122227836
818.0, 0.030405847959841623
819.0, 0.023744392809437943
820.0, 0.02192226954033218
821.0, 0.017581573741227936
822.0, 0.012386632953291623
823.0, 0.010113537869294776
824.0, 0.009900474014412346
825.0, 0.011155976024060849
826.0, 0.007030025892480853
827.0, 0.007791450678223154
828.0, 0.007536428189944841
829.0, 0.0047201628537360115
830.0, 0.003512390632122972
831.0, 0.003238978622735691
832.0, 0.0015807665287934762
833.0, 0.0025654220895318268
834.0, 0.003666036846845492
835.0, 0.004094051639511778
836.0, 0.0014459013154022888
837.0, 0.004519860173457181
838.0, 0.004112761109648209
839.0, 0.0024040479984935837
840.0, 0.004419343521079554
841.0, 0.006284920445953224
842.0, 0.0031319301960385827
843.0, 0.0005134075670860906
844.0, 0.00043748911356973684
845.0, 0.0012101464264993853
846.0, 0.0017913986018026436
847.0, 0.004040141281221444
848.0, 0.004492444993943095
849.0, 0.0012662776233152142
850.0, 0.002459693193335637
851.0, 0.005751408659650856
852.0, 0.0038251773057825953
853.0, 0.0028684876743942244
854.0, 0.002464812426035627
855.0, 0.0027211487904055046
856.0, 0.0029001592116245224
857.0, 0.0020719442449895304
858.0, 0.0006801666084795654
859.0, 0.0010114051578669811
860.0, 0.0011108691937251702
861.0, 0.0001696115316194026
862.0, 0.0015873795374425287
863.0, 0.0020273268832004666
864.0, 0.0014499275505473128
865.0, 0.002057878317366263
866.0, 0.004418604997256298
867.0, 0.006059573168077384
868.0, 0.005695450354727206
869.0, 0.005221326106816285
870.0, 0.0017909480491544501
871.0, 0.0010472789470214359
872.0, 0.0012233389553761248
873.0, 0.0011294128841805927
874.0, 0.001585433128665667
875.0, 0.0029404819832777825
876.0, 0.0034445885539060514
877.0, 0.0037726358709021064
878.0, 0.00117299272444925
879.0, 0.0008166958800873079
880.0, 0.00032559789582813276
881.0, 0.0014484170170985103
882.0, 0.002117538785914599
883.0, 0.0020833889022793977
884.0, 0.0026397289098229575
885.0, 0.002180899764997934
886.0, 0.0018479802783074467
887.0, 0.0022801669443437748
888.0, 0.0010827379302374858
889.0, 0.0006360379591363007
890.0, 0.0020056094255348276
891.0, 0.004035033153027243
892.0, 0.003712952604695594
893.0, 0.0009818693026051458
894.0, 0.0012662873173545151
895.0, 0.0006257512259768251
896.0, 0.0014443370213193824
897.0, 0.0009277441812071461
898.0, 0.001465171796952453
899.0, 0.0013635249185757735
900.0, 0.001643940447175017
901.0, 0.0018624146753409678
902.0, 0.0012281477258918206
903.0, 0.0024745979838830647
904.0, 0.0003395273816463823
905.0, 0.0019263271787581188
906.0, 0.003283184105604159
907.0, 0.0027476642537978217
908.0, 0.004378740059463103
909.0, 0.003648942667456118
910.0, 0.0008693078185712858
911.0, 0.0019129172543694802
912.0, 0.005585980175908581
913.0, 0.004333114749498564
914.0, 0.0005158872105802076
915.0, 0.0009424462675912211
916.0, 0.001590201780952783
917.0, 0.0020921520891231853
918.0, 0.0016315393543008892
919.0, 0.001628417048487296
920.0, 0.002170406373695119
921.0, 0.0008598920264299712
922.0, 0.005075573291290496
923.0, 0.002688331857946206
924.0, 0.003286908081337577
925.0, 0.0054200532884511364
926.0, 0.0041711028797968555
927.0, 0.0035809256779755524
928.0, 0.004667605179316601
929.0, 0.004830718389784917
930.0, 0.0047143343812974395
931.0, 0.008714232840559603
932.0, 0.002958437885767597
933.0, 0.006362465498397733
934.0, 0.006926615460844716
935.0, 0.0047305090113243815
936.0, 0.004518612044629137
937.0, 0.0052186116619672
938.0, 0.0050933385723042224
939.0, 0.0048858854366148775
940.0, 0.0036350977110627485
941.0, 0.002846412887049606
942.0, 0.0035418350426206476
943.0, 0.005091137841866935
944.0, 0.003890180557828482
945.0, 0.004357214138100206
946.0, 0.006089952930157584
947.0, 0.005917636596710182
948.0, 0.004254500493390821
949.0, 0.0060482658483177725
950.0, 0.01146105015241501
951.0, 0.009018474387978597
952.0, 0.005463037835964337
953.0, 0.007357425155458351
954.0, 0.006139398711808267
955.0, 0.0050585608322789456
956.0, 0.004222997192797013
957.0, 0.0027006383585381657
958.0, 0.002511481843764467
959.0, 0.004159574020485276
960.0, 0.004689694342493486
961.0, 0.00658143723706726
962.0, 0.0070167040192551525
963.0, 0.005886646850995716
964.0, 0.006874119529392069
965.0, 0.005619044952349816
966.0, 0.0036645786912833326
967.0, 0.0055711183551013016
968.0, 0.008642205138506191
969.0, 0.0069258366923561935
970.0, 0.004594430028419888
971.0, 0.0037536537501413137
972.0, 0.008307807936620231
973.0, 0.00649775018497625
974.0, 0.008517215820665794
975.0, 0.009442836104948086
976.0, 0.007442613086465406
977.0, 0.007746723381032186
978.0, 0.00926890496154759
979.0, 0.012198750262385807
980.0, 0.011795368974020108
981.0, 0.0114469928256786
982.0, 0.013764248659463765
983.0, 0.015087215293350626
984.0, 0.017501858700466624
985.0, 0.021755513884327393
986.0, 0.026075545145150585
987.0, 0.0297954592289422
988.0, 0.03450151884571255
989.0, 0.03734953180360531
990.0, 0.044807108391931534
991.0, 0.04720382190832662
992.0, 0.05183150812843979
993.0, 0.055079942680722756
994.0, 0.05700566562278765
995.0, 0.055997603535851884
996.0, 0.05378007259474364
997.0, 0.053105336057629626
998.0, 0.051451581654857005
999.0, 0.05335495048584935
1000.0, 0.052810508155772304
1001.0, 0.05175503912896178
1002.0, 0.04782030492246368
1003.0, 0.04912822211826544
1004.0, 0.0461677432592123
1005.0, 0.04185510461127583
1006.0, 0.038271848089207916
1007.0, 0.0324602724938108
1008.0, 0.029215086795395778
1009.0, 0.02822500120724725
1010.0, 0.023597732332458092
1011.0, 0.02581452882976122
1012.0, 0.020741358586078527
1013.0, 0.017966381607557237
1014.0, 0.019281767588419207
1015.0, 0.01818548471143366
1016.0, 0.016529263603733257
1017.0, 0.017173055319650556
1018.0, 0.013810005361663128
1019.0, 0.014357270367601429
1020.0, 0.01989786830605818
1021.0, 0.01737480167803926
1022.0, 0.020001523438767294
1023.0, 0.019161838005782774
1024.0, 0.022455998051877625
1025.0, 0.0226606347513706
1026.0, 0.022554471765391004
1027.0, 0.02540219835487567
1028.0, 0.023864829503492318
1029.0, 0.023952869439928408
1030.0, 0.025073833149041293
1031.0, 0.02325128329202151
1032.0, 0.02408276078821805
1033.0, 0.021431543390383275
1034.0, 0.021961628313845582
1035.0, 0.02150226250739632
1036.0, 0.02191498897858076
1037.0, 0.023381325087757796
1038.0, 0.02360156240451716
1039.0, 0.026417697586383557
1040.0, 0.024327063532880416
1041.0, 0.026080952520065363
1042.0, 0.025453076596195924
1043.0, 0.02155808796081516
1044.0, 0.01931156573748568
1045.0, 0.022123559141168935
1046.0, 0.024055143353179157
1047.0, 0.02426481508059707
1048.0, 0.02710859380538241
1049.0, 0.03168034763161058
1050.0, 0.031974968307914194
1051.0, 0.02939903383968998
1052.0, 0.030473399974426642
1053.0, 0.02896865491155638
1054.0, 0.025298902027450224
1055.0, 0.023726354124089077
1056.0, 0.022040791007907908
1057.0, 0.021260587884474675
1058.0, 0.018833521154317003
1059.0, 0.013539627390192491
1060.0, 0.010994133132243379
1061.0, 0.007366135823959369
1062.0, 0.010446446815072577
1063.0, 0.005253817640920103
1064.0, 0.007141361219257176
1065.0, 0.009154012897758643
1066.0, 0.00784276315791291
1067.0, 0.005705443952315122
1068.0, 0.006041026474035439
1069.0, 0.006817449241072308
1070.0, 0.0055813487644978295
1071.0, 0.005141248537100287
1072.0, 0.0038468513565118865
1073.0, 0.009640790928125247
1074.0, 0.002444918130793922
1075.0, 0.006227910425340022
1076.0, 0.005507576926334021
1077.0, 0.004792635732173684
1078.0, 0.007302516773437486
1079.0, 0.007656958373905168
1080.0, 0.007297182679890485
1081.0, 0.00906573147648479
1082.0, 0.005727029337899435
1083.0, 0.006880207721798601
1084.0, 0.008199220774441345
1085.0, 0.007884571634373078
1086.0, 0.00969838989596013
1087.0, 0.010296134821216048
1088.0, 0.011495137460166949
1089.0, 0.012051810027900641
1090.0, 0.013332627124996638
1091.0, 0.01634098411345573
1092.0, 0.019158452927241398
1093.0, 0.021038626249892292
1094.0, 0.025158683914422733
1095.0, 0.026850537974860228
1096.0, 0.024984910441260774
1097.0, 0.022740067540406007
1098.0, 0.025721752177431542
1099.0, 0.02651514161714728
1100.0, 0.028398259673354936
1101.0, 0.028648393227947357
1102.0, 0.02716386904617441
1103.0, 0.025506059422842654
1104.0, 0.02334808405659948
1105.0, 0.02613671642936922
1106.0, 0.030116845090512923
1107.0, 0.031094431740092795
1108.0, 0.03421466814263448
1109.0, 0.03712466886854786
1110.0, 0.040565226659850816
1111.0, 0.04349191936104892
1112.0, 0.05287886184330962
1113.0, 0.06187287536597768
1114.0, 0.06957559447471169
1115.0, 0.0839507143676393
1116.0, 0.09782495085948358
1117.0, 0.1082087076155647
1118.0, 0.12687926787624143
1119.0, 0.1453769611413777
1120.0, 0.1670735326638284
1121.0, 0.17923017623141682
1122.0, 0.19014316753880375
1123.0, 0.1944152292178414
1124.0, 0.189632903654613
1125.0, 0.1815578531453695
1126.0, 0.1714926763477024
1127.0, 0.1555108697087157
1128.0, 0.13915551115272293
1129.0, 0.1259611401810687
1130.0, 0.11825653307644438
1131.0, 0.11405593333225397
1132.0, 0.10991306028585929
1133.0, 0.11177765081474147
1134.0, 0.11597877729204016
1135.0, 0.11979498645565453
1136.0, 0.121703863183537
1137.0, 0.12158851962254569
1138.0, 0.11961468194785832
1139.0, 0.1156456585144795
1140.0, 0.11023193281408385
1141.0, 0.10181574004917007
1142.0, 0.09188399002082638
1143.0, 0.08255595056811914
1144.0, 0.0694654241502676
1145.0, 0.060636078954898885
1146.0, 0.053078518393660686
1147.0, 0.04831633473931044
1148.0, 0.04123178108043031
1149.0, 0.033855962637808414
1150.0, 0.029198759493803742
1151.0, 0.025379347613765556
1152.0, 0.02861550006388077
1153.0, 0.02432969565687446
1154.0, 0.022614461477257913
1155.0, 0.016011216792153005
1156.0, 0.017397867911465855
1157.0, 0.017593376310458875
1158.0, 0.019032354744179858
1159.0, 0.01841332712563493
1160.0, 0.017103721879499753
1161.0, 0.015203103149796185
1162.0, 0.012782515343408032
1163.0, 0.011974454055872873
1164.0, 0.010844936377418126
1165.0, 0.007631951559306046
1166.0, 0.006718286646826199
1167.0, 0.00955654289918921
1168.0, 0.010812280632740383
1169.0, 0.005092537101091331
1170.0, 0.008716153316922938
1171.0, 0.007315723284489854
1172.0, 0.006503813837473029
1173.0, 0.006847592314063476
1174.0, 0.005349450241894911
1175.0, 0.00441842496427082
1176.0, 0.004411624894318761
1177.0, 0.004674242639728164
1178.0, 0.005644841460609358
1179.0, 0.006079929721295839
1180.0, 0.003585753156278891
1181.0, 0.0056455369176548606
1182.0, 0.0059179667968935375
1183.0, 0.006136911721881109
1184.0, 0.004109132760627965
1185.0, 0.004790957513473769
1186.0, 0.005171023724461552
1187.0, 0.003996561991915309
1188.0, 0.005344696807317176
1189.0, 0.0039053663726149553
1190.0, 0.0009888635527755484
1191.0, 0.001774262911670581
1192.0, 0.0014586096536963722
1193.0, 0.0042005150203922505
1194.0, 0.002725253301508973
1195.0, 0.0020969181328448615
1196.0, 0.0009769750660927022
1197.0, 0.001329711265319394
1198.0, 0.0012551713445563186
1199.0, 0.0003483904292441658
1200.0, 0.0007591635978021433
1201.0, 0.002485246561128794
1202.0, 0.003514163710906655
1203.0, 0.0035364989045416056
1204.0, 0.004693391339600715
1205.0, 0.004093047485621125
1206.0, 0.0009717523813132238
1207.0, 0.005055410752647688
1208.0, 0.0028645907363856974
1209.0, 0.0010615468535257878
1210.0, 0.004377865290267902
1211.0, 0.00577557237443744
1212.0, 0.004677022913743679
1213.0, 0.0037479020191889495
1214.0, 0.002500396416502395
1215.0, 0.0029793465293111387
1216.0, 0.003712344883741241
1217.0, 0.0021966424344556637
1218.0, 0.004358242993382685
1219.0, 0.0019459698638080547
1220.0, 0.0028702105720385136
1221.0, 0.00530918166168549
1222.0, 0.004358549534668899
1223.0, 0.001663251601739961
1224.0, 0.0036870934324189962
1225.0, 0.004227486657697069
1226.0, 0.00128927059158516
1227.0, 0.00043093627402693226
1228.0, 0.0008127769822184008
1229.0, 0.0005583745017892866
1230.0, 0.00021336476878735725
1231.0, 0.0004573715345279175
1232.0, 0.0007827964070887712
1233.0, 0.001744323174756852
1234.0, 0.0004247201683726737
1235.0, 0.00040130390684374093
1236.0, 0.0016945388067080044
1237.0, 0.0035052680110585475
1238.0, 0.0062618157618194534
1239.0, 0.005659960619315555
1240.0, 0.003764045513769979
1241.0, 0.0035211408513906436
1242.0, 0.000987006420410792
1243.0, 0.0022888313756461317
1244.0, 0.000742342046483595
1245.0, 0.0013721754445546962
1246.0, 0.0001587454454584354
1247.0, 0.0005955306179398174
1248.0, 0.0028270200488193743
1249.0, 0.0019368524590486396
1250.0, 0.0016610560485951454
1251.0, 0.002801721646002295
1252.0, 0.0029993582042546997
1253.0, 0.0024463138811446424
1254.0, 0.0019286068591850014
1255.0, 0.0030223588734599165
1256.0, 0.006425238951065102
1257.0, 0.0054763227150012575
1258.0, 0.0013607098992307399
1259.0, 0.0029826887762447467
1260.0, 0.0015554269395687353
1261.0, 0.0009019944715849804
1262.0, 0.003390400779282147
1263.0, 0.0036423526314865915
1264.0, 0.003794412815688546
1265.0, 0.003843629635109122
1266.0, 0.003775219103223007
1267.0, 0.00364230495519375
1268.0, 0.0026622893064881864
1269.0, 0.0021688898288467723
1270.0, 0.0037819382237161054
1271.0, 0.004007776034463309
1272.0, 0.0016390696148983518
1273.0, 0.001805566592233072
1274.0, 0.002667215163984474
1275.0, 0.006550295472019268
1276.0, 0.004192858689852747
1277.0, 0.0023988059862742944
1278.0, 0.002459836433932303
1279.0, 0.004247053769946325
1280.0, 0.0020186491017552223
1281.0, 0.002597979417213259
1282.0, 0.005143083402841621
1283.0, 0.005263244263867747
1284.0, 0.0031313527026146787
1285.0, 0.0008881971444664415
1286.0, 0.002616815406227606
1287.0, 0.0009589629211215998
1288.0, 0.002004824590782454
1289.0, 0.0015879916127895426
1290.0, 0.0027917774312807564
1291.0, 0.0024996400605600748
1292.0, 0.001113156655616397
1293.0, 0.0038405895376441013
1294.0, 0.004390867803328108
1295.0, 0.002204093432810911
1296.0, 0.0017751612822948313
1297.0, 0.002770400710949336
1298.0, 0.0033045969184473836
1299.0, 0.0031565205233756682
1300.0, 0.0029403730610215516
1301.0, 0.0033897764028567546
1302.0, 0.0009669316986702789
1303.0, 0.0013847558503585974
1304.0, 0.004937572165613029
1305.0, 0.00224865114413968
1306.0, 0.00523347650443153
1307.0, 0.0024912392084926647
1308.0, 0.0014190119432242365
1309.0, 0.006721180686248341
1310.0, 0.007403325137807686
1311.0, 0.007664030449572578
1312.0, 0.006464972586162883
1313.0, 0.00492421775194905
1314.0, 0.0043587181807820926
1315.0, 0.0036320605607920884
1316.0, 0.004339401872946798
1317.0, 0.0026873769723278415
1318.0, 0.003146957577643543
1319.0, 0.005761471766407671
1320.0, 0.007089655477707403
1321.0, 0.004370684438660659
1322.0, 0.0033772847905996907
1323.0, 0.007231786569959337
1324.0, 0.005151493461579467
1325.0, 0.00649974803950097
1326.0, 0.006251698421621122
1327.0, 0.005023464740616893
1328.0, 0.0046250152960503966
1329.0, 0.004629086928074217
1330.0, 0.005507103731667837
1331.0, 0.005298548059531789
1332.0, 0.004027069602850765
1333.0, 0.008628647739187523
1334.0, 0.008301935405355943
1335.0, 0.008780585380756536
1336.0, 0.0023321577520324568
1337.0, 0.0026799873871351933
1338.0, 0.007580735730796499
1339.0, 0.007706796214230213
1340.0, 0.008474951718677449
1341.0, 0.008074390808364204
1342.0, 0.008419154448863965
1343.0, 0.005989547133346202
1344.0, 0.003954317011350422
1345.0, 0.003941201192127672
1346.0, 0.004309851832550794
1347.0, 0.005325026177346695
1348.0, 0.006799584570881908
1349.0, 0.007263332387337223
1350.0, 0.0079928251895371
1351.0, 0.0065745090956451455
1352.0, 0.007049785998033581
1353.0, 0.005266737676245703
1354.0, 0.004134949986432031
1355.0, 0.0037106856231796798
1356.0, 0.009406469116234939
1357.0, 0.004113916083437839
1358.0, 0.0027611554335182165
1359.0, 0.005945715909383675
1360.0, 0.003372563771524123
1361.0, 0.004655841110352535
1362.0, 0.00415617730609669
1363.0, 0.002272921808397995
1364.0, 0.0046136099450688585
1365.0, 0.0051746179875558265
1366.0, 0.006179079543294609
1367.0, 0.005897855383681509
1368.0, 0.007089069915744052
1369.0, 0.005747430504077376
1370.0, 0.00486728664329085
1371.0, 0.011566799157511009
1372.0, 0.006010598055922807
1373.0, 0.002898316741760891
1374.0, 0.0010295260617282807
1375.0, 0.003526454097231835
1376.0, 0.0030083798988391162
1377.0, 0.003900333856929772
1378.0, 0.00411116468045105
1379.0, 0.003346608109366977
1380.0, 0.0018796857520454566
1381.0, 0.0026903092298882288
1382.0, 0.006369952885764593
1383.0, 0.007182035608744245
1384.0, 0.00474137362852354
1385.0, 0.0018970508123747505
1386.0, 0.003194820391445715
1387.0, 0.0015594203986458118
1388.0, 0.0035943116108865035
1389.0, 0.006763664503212102
1390.0, 0.006549694741365628
1391.0, 0.0070329296734759125
1392.0, 0.006244718648947295
1393.0, 0.008193604791087907
1394.0, 0.007751637811614178
1395.0, 0.004160989695407773
1396.0, 0.004672034890510357
1397.0, 0.005473353943180226
1398.0, 0.0048617896207455435
1399.0, 0.004766474878745577
1400.0, 0.004357339780534055
1401.0, 0.0036477661670011865
1402.0, 0.0031522726761121236
1403.0, 0.0019814832523225574
1404.0, 0.001908293788062978
1405.0, 0.0011603227356412457
1406.0, 0.000856879438400295
1407.0, 0.0024025357565271755
1408.0, 0.001173445287322575
1409.0, 0.0037836210472080153
1410.0, 0.0006826506242823998
1411.0, 0.008411481748550723
1412.0, 0.003975579104288056
1413.0, 0.0033544370600334973
1414.0, 0.006533529159229228
1415.0, 0.003873776118379208
1416.0, 0.0038060802814399177
1417.0, 0.005318170926025457
1418.0, 0.005735176556980784
1419.0, 0.0064594223248835006
1420.0, 0.005641847996924029
1421.0, 0.00555721016318525
1422.0, 0.005830360414688389
1423.0, 0.0034749159833528565
1424.0, 0.005305676237557356
1425.0, 0.007139450734871967
1426.0, 0.007256340296276754
1427.0, 0.00648708232494407
1428.0, 0.009093929408404188
1429.0, 0.00581798002246316
1430.0, 0.006196771676833691
1431.0, 0.0037971684936222165
1432.0, 0.0036840438121453216
1433.0, 0.004582061614000681
1434.0, 0.004262897315446604
1435.0, 0.006721451635604967
1436.0, 0.005997588697376009
1437.0, 0.003234372727846642
1438.0, 0.003753206989979223
1439.0, 0.004536877283877021
1440.0, 0.0037151904535283053
1441.0, 0.004592350091695796
1442.0, 0.005362438487396148
1443.0, 0.004832171251842193
1444.0, 0.008237291204272426
1445.0, 0.005888407091495848
1446.0, 0.006920620181138599
1447.0, 0.005025479422416979
1448.0, 0.008140833776783483
1449.0, 0.002221907664136972
1450.0, 0.008425044436927527
1451.0, 0.0020534714959786152
1452.0, 0.0031340116930206495
1453.0, 0.007370356880312821
1454.0, 0.007687494467716048
1455.0, 0.007564547146918319
1456.0, 0.007979593455073493
1457.0, 0.007528054464480391
1458.0, 0.004871048932527545
1459.0, 0.004265907339259674
1460.0, 0.004916973973304734
1461.0, 0.0035484358749108057
1462.0, 0.004859661627373675
1463.0, 0.006202411266105289
1464.0, 0.0030026595856323538
1465.0, 0.0028691459064743323
1466.0, 0.002748367752076867
1467.0, 0.002138625698533298
1468.0, 0.0060144628466475
1469.0, 0.0020018705537554428
1470.0, 0.0030444537657509196
1471.0, 0.003636904770043129
1472.0, 0.0007705154616133253
1473.0, 0.005615473458812343
1474.0, 0.008613077009316392
1475.0, 0.0049561724399744995
1476.0, 0.0042140338529749926
1477.0, 0.005150602418276395
1478.0, 0.005198822780192355
1479.0, 0.004067753248484136
1480.0, 0.004800479155094386
1481.0, 0.003760504045590746
1482.0, 0.0034961210671924587
1483.0, 0.007921310579793568
1484.0, 0.009302052426718568
1485.0, 0.007070639483349587
1486.0, 0.00525190706762674
1487.0, 0.00370393158210457
1488.0, 0.003254882102416393
1489.0, 0.003991659782727026
1490.0, 0.0047050840450604935
1491.0, 0.003422385584907178
1492.0, 0.0020553996110576718
1493.0, 0.004088968885346276
1494.0, 0.004887296421148249
1495.0, 0.0031825626071097877
1496.0, 0.0039291651512592465
1497.0, 0.000839277407054611
1498.0, 0.00044948734066795445
1499.0, 0.0006892254218663768
1500.0, 0.00040900132549437205
1501.0, 0.0009286723160610452
1502.0, 0.001997873466641994
1503.0, 0.002410128097767793
1504.0, 0.0033070572567343165
1505.0, 0.003947902693853239
1506.0, 0.0022402011869249515
1507.0, 0.0016668646626326678
1508.0, 0.0031872857982503527
1509.0, 0.0026455181064320883
1510.0, 0.004314461414341113
1511.0, 0.005264802208709946
1512.0, 0.0018010221881637671
1513.0, 0.0028325631271419187
1514.0, 0.002096162530365749
1515.0, 0.004411720883461608
1516.0, 0.004751827935742325
1517.0, 0.003827630241214105
1518.0, 0.0004610615906864917
1519.0, 0.00402532137576048
1520.0, 0.005207989918095059
1521.0, 0.0034979016318754438
1522.0, 0.005490027846090781
1523.0, 0.005060200341488577
1524.0, 0.0018384025120737229
1525.0, 0.003746827971566599
1526.0, 0.0071028193031950375
1527.0, 0.006886300737591246
1528.0, 0.007144271844140457
1529.0, 0.006732613780846301
1530.0, 0.005964054934957627
1531.0, 0.003882318037851057
1532.0, 0.0011365822162181928
1533.0, 0.001552514523811883
1534.0, 0.0029497629411174594
1535.0, 0.004487452278439816
1536.0, 0.004256687788420891
1537.0, 0.007139178512931001
1538.0, 0.007958448443999297
1539.0, 0.004909671935232128
1540.0, 0.0031404342811680026
1541.0, 0.003701954051848048
1542.0, 0.006039061426309091
1543.0, 0.004796466674180431
1544.0, 0.0022827510233860244
1545.0, 0.005332078887009154
1546.0, 0.0037969650818838315
1547.0, 0.006973632278276379
1548.0, 0.00132604469794777
1549.0, 0.001983435062636798
1550.0, 0.004531181038022939
1551.0, 0.005127423599214096
1552.0, 0.006367336047590058
1553.0, 0.007517812977282347
1554.0, 0.01025879538413375
1555.0, 0.008786019082765995
1556.0, 0.0031905090813403297
1557.0, 0.0002077753711452364
1558.0, 0.0006169468528171337
1559.0, 0.0006956369686766257
1560.0, 0.00011555071371511151
1561.0, 0.0005067126498895409
1562.0, 0.0009254860757185701
1563.0, 0.00038531351185421307
1564, 0.0
1565, 0.0
1566, 0.0
1567, 0.0
1568, 0.0
1569, 0.0
1570, 0.0
1571, 0.0
1572, 0.0
1573, 0.0
1574, 0.0
1575, 0.0
1576, 0.0
1577, 0.0
1578, 0.0
1579, 0.0
1580, 0.0
1581, 0.0
1582, 0.0
1583, 0.0
1584, 0.0
1585, 0.0
1586, 0.0
1587, 0.0
1588, 0.0
1589, 0.0
1590, 0.0
1591, 0.0
1592, 0.0
1593, 0.0
1594, 0.0
1595, 0.0
1596, 0.0
1597, 0.0
1598, 0.0
1599, 0.0
