30, 0.0
31, 0.0
32, 0.0
33, 0.0
34, 0.0
35, 0.0
36, 0.0
37, 0.0
38, 0.0
39, 0.0
40, 0.0
41, 0.0
42, 0.0
43, 0.0
44, 0.0
45, 0.0
46, 0.0
47, 0.0
48, 0.0
49, 0.0
50, 0.0
51, 0.0
52, 0.0
53, 0.0
54, 0.0
55, 0.0
56, 0.0
57, 0.0
58, 0.0
59, 0.0
60, 0.0
61, 0.0
62, 0.0
63, 0.0
64, 0.0
65, 0.0
66, 0.0
67, 0.0
68, 0.0
69, 0.0
70, 0.0
71, 0.0
72, 0.0
73, 0.0
74, 0.0
75, 0.0
76, 0.0
77, 0.0
78, 0.0
79, 0.0
80, 0.0
81, 0.0
82, 0.0
83, 0.0
84, 0.0
85, 0.0
86, 0.0
87, 0.0
88, 0.0
89, 0.0
90, 0.0
91, 0.0
92, 0.0
93, 0.0
94, 0.0
95, 0.0
96, 0.0
97, 0.0
98, 0.0
99.0, 9.196924809405681e-05
100.0, 0.0004077773437562509
101.0, 0.0021002326580178395
102.0, 0.00593027799851423
103.0, 0.015773306272549012
104.0, 0.03806286714907417
105.0, 0.06568109885418823
106.0, 0.09855073997768388
107.0, 0.1371924933524468
108.0, 0.18577155396927078
109.0, 0.22469378811423274
110.0, 0.25386618152596063
111.0, 0.27022337927429857
112.0, 0.23570711306000797
113.0, 0.1915621317711553
114.0, 0.14359876323770732
115.0, 0.09954770990783506
116.0, 0.06602068145094281
117.0, 0.042741841524312686
118.0, 0.0321985538385277
119.0, 0.02304725454797824
120.0, 0.016387208994305822
121.0, 0.013508400251511482
122.0, 0.020857911011972322
123.0, 0.034257746948690077
124.0, 0.05169481401249979
125.0, 0.07279031311150397
126.0, 0.09201717973526634
127.0, 0.10912856045934718
128.0, 0.12188454952258584
129.0, 0.12156487234433716
130.0, 0.11555445703404749
131.0, 0.09970063901206401
132.0, 0.07101127980937505
133.0, 0.050751888794855475
134.0, 0.03341217382739315
135.0, 0.018882663740204836
136.0, 0.0077317001160277996
137.0, 0.003936442529032989
138.0, 0.003446946131571203
139.0, 0.0050951699948990105
140.0, 0.0033983675320711413
141.0, 0.005368006999561304
142.0, 0.00970915200348551
143.0, 0.015186881070347118
144.0, 0.018282228585402835
145.0, 0.025391406323382566
146.0, 0.037472003278082575
147.0, 0.051753495635477174
148.0, 0.0711702831582919
149.0, 0.09202506075218857
150.0, 0.1111504467024167
151.0, 0.12268817547463327
152.0, 0.1277643135525894
153.0, 0.12638679391803695
154.0, 0.1169773935754512
155.0, 0.11019770939223424
156.0, 0.10565059916236134
157.0, 0.10348686344410403
158.0, 0.09909690276728678
159.0, 0.09469199895991899
160.0, 0.0892999296389074
161.0, 0.07987335654985026
162.0, 0.071367934242365
163.0, 0.06362073831748515
164.0, 0.05663519283781399
165.0, 0.05027770289829617
166.0, 0.04416717000968241
167.0, 0.0387973972582509
168.0, 0.03510795664797274
169.0, 0.03813289303195682
170.0, 0.041763608254217745
171.0, 0.04539890076403565
172.0, 0.05180599999127095
173.0, 0.06517543608493635
174.0, 0.07963867578117811
175.0, 0.09096573007417477
176.0, 0.12176522792394312
177.0, 0.1528940473831934
178.0, 0.18438474529715337
179.0, 0.2198513661546219
180.0, 0.23928775623446072
181.0, 0.2453301794332586
182.0, 0.23748233633741445
183.0, 0.20765326510645915
184.0, 0.17739834860306236
185.0, 0.148124153047095
186.0, 0.1222904156050939
187.0, 0.0997552050454859
188.0, 0.0820402585967814
189.0, 0.06895426627199794
190.0, 0.05728675667007953
191.0, 0.05193698843730642
192.0, 0.048323200535111924
193.0, 0.043556613222409495
194.0, 0.04760292546966526
195.0, 0.05267181733358974
196.0, 0.05897072423005457
197.0, 0.06816044290809692
198.0, 0.08065389334774548
199.0, 0.09392369482221935
200.0, 0.10649019895390792
201.0, 0.1063358412556042
202.0, 0.10101622495299259
203.0, 0.09051121220093758
204.0, 0.07356141252026985
205.0, 0.05920335849127249
206.0, 0.047462099087214604
207.0, 0.03879137826272913
208.0, 0.03554553320911157
209.0, 0.02950482130330069
210.0, 0.025239215715157685
211.0, 0.024804751088040575
212.0, 0.019140554786198024
213.0, 0.01577735741617734
214.0, 0.013859642540807595
215.0, 0.01234010467000845
216.0, 0.007372727441330567
217.0, 0.0037232559432106827
218.0, 0.002050006555274338
219.0, 0.001873913330823469
220.0, 0.002141223058470028
221.0, 0.0026159434042021964
222.0, 0.0031885377000339266
223.0, 0.002489962573106684
224.0, 0.0032751826205799834
225.0, 0.004676969954209119
226.0, 0.0050582851532629735
227.0, 0.004932401027191332
228.0, 0.004901364176763004
229.0, 0.0050278423587107116
230.0, 0.004907895066907123
231.0, 0.004677440388474794
232.0, 0.004533683035105181
233.0, 0.004618578565189252
234.0, 0.004355912023702021
235.0, 0.004611956358184836
236.0, 0.004975440251298596
237.0, 0.004560103007762031
238.0, 0.004057677570640858
239.0, 0.003282390994579499
240.0, 0.002421773424631565
241.0, 0.0031649275024004868
242.0, 0.00308172218515162
243.0, 0.0021196546730781977
244.0, 0.00012581743744423542
245.0, 0.00022585420516832002
246.0, 0.0029390435250720645
247.0, 0.00681387654665309
248.0, 0.009172402316481284
249.0, 0.0109582320257121
250.0, 0.015147768799122663
251.0, 0.021721791573732836
252.0, 0.026998288645822766
253.0, 0.03506958857578583
254.0, 0.04483005553425572
255.0, 0.05584450530634898
256.0, 0.07016590157593863
257.0, 0.08465909103270924
258.0, 0.09901206705928411
259.0, 0.11268602529945065
260.0, 0.12388278740510113
261.0, 0.1311767712396252
262.0, 0.13624263276713464
263.0, 0.1476705751619407
264.0, 0.16263512015895512
265.0, 0.18098911712423194
266.0, 0.20242818999582238
267.0, 0.2145337774270895
268.0, 0.21617053706082714
269.0, 0.20962099322529262
270.0, 0.19604383253355473
271.0, 0.17425238342281402
272.0, 0.14938560153638905
273.0, 0.12470143282205674
274.0, 0.10893610601002546
275.0, 0.09261760161626967
276.0, 0.08050614411230533
277.0, 0.07402194503724124
278.0, 0.07209789258600438
279.0, 0.07478265736081958
280.0, 0.08165928201158341
281.0, 0.09294245922840978
282.0, 0.10963406505592568
283.0, 0.13101020390480508
284.0, 0.1559072683053196
285.0, 0.18277649079362338
286.0, 0.20121789293858935
287.0, 0.21285752219985135
288.0, 0.21781659875137618
289.0, 0.2151441202744178
290.0, 0.19902819602237004
291.0, 0.17734479384058033
292.0, 0.15335152551521905
293.0, 0.13401090796781667
294.0, 0.11862537144360444
295.0, 0.10552159733755068
296.0, 0.09338821886460445
297.0, 0.08203270498298895
298.0, 0.07323736900465434
299.0, 0.06634562460601334
300.0, 0.059947434238622484
301.0, 0.054223417801541496
302.0, 0.048727371280064505
303.0, 0.04312481996155517
304.0, 0.03603198988724945
305.0, 0.030245320633187585
306.0, 0.026372628607776154
307.0, 0.02473792322782027
308.0, 0.023160722197730407
309.0, 0.02109782035415171
310.0, 0.01860744665742821
311.0, 0.01568880491865525
312.0, 0.014951518620670288
313.0, 0.014424092709624274
314.0, 0.014401817521283975
315.0, 0.01584197723476788
316.0, 0.012669719768492257
317.0, 0.011180384647477672
318.0, 0.011872696417091703
319.0, 0.0116050057369846
320.0, 0.009586450711284845
321.0, 0.009444110845284702
322.0, 0.012344744048750562
323.0, 0.01229864582194122
324.0, 0.013552225687890126
325.0, 0.015514120190357653
326.0, 0.017774875038997988
327.0, 0.020018609501774007
328.0, 0.024327557470508413
329.0, 0.02903343850019313
330.0, 0.0312786594689725
331.0, 0.03448736356272442
332.0, 0.03776208730313168
333.0, 0.04025228015031883
334.0, 0.039390271107021556
335.0, 0.037071503219880945
336.0, 0.03335864617510771
337.0, 0.028615999779583023
338.0, 0.025617482160719546
339.0, 0.02269376967047625
340.0, 0.020190202609147705
341.0, 0.018311725274074004
342.0, 0.016783192598089455
343.0, 0.016222384282118103
344.0, 0.01574464670119074
345.0, 0.014458599961152443
346.0, 0.014386306869505705
347.0, 0.0146652550915042
348.0, 0.014908362639280293
349.0, 0.014446056605613716
350.0, 0.014271826664601367
351.0, 0.014498991998873249
352.0, 0.015198956813277363
353.0, 0.016606964922503287
354.0, 0.020214179600293133
355.0, 0.022634034059398213
356.0, 0.02328549973847368
357.0, 0.02465236440206559
358.0, 0.026554652222656707
359.0, 0.025803043393016575
360.0, 0.021193588693370485
361.0, 0.021651485048599685
362.0, 0.02084953213322792
363.0, 0.020031849441484777
364.0, 0.020233095575838536
365.0, 0.020361186934484878
366.0, 0.021198620765227015
367.0, 0.022942929175079015
368.0, 0.02595691263505125
369.0, 0.030646028401406646
370.0, 0.034709208317864615
371.0, 0.03907746734713666
372.0, 0.04644249834944846
373.0, 0.05276910002153759
374.0, 0.05567283379219709
375.0, 0.05464458322143709
376.0, 0.04911580031046944
377.0, 0.04330381051178087
378.0, 0.0375002176715416
379.0, 0.03207136271109316
380.0, 0.02894526573858238
381.0, 0.023724680355717485
382.0, 0.020622993595503743
383.0, 0.02117523411483757
384.0, 0.016275991173516455
385.0, 0.013946242329148243
386.0, 0.013439690160729413
387.0, 0.014289682707439902
388.0, 0.01244293456618453
389.0, 0.011680059936331175
390.0, 0.01150496367035389
391.0, 0.01139008341478123
392.0, 0.009840314328405226
393.0, 0.009543294599607679
394.0, 0.0105332813103431
395.0, 0.012794671409074058
396.0, 0.01396109076049864
397.0, 0.01593472566201535
398.0, 0.019150520279540804
399.0, 0.024327558341184077
400.0, 0.030170079779294246
401.0, 0.036657232769539895
402.0, 0.04429762783526852
403.0, 0.05506255874155734
404.0, 0.06450052048598677
405.0, 0.06873296861692385
406.0, 0.06655716947939187
407.0, 0.057474580100343065
408.0, 0.05235948018401406
409.0, 0.048479055044795716
410.0, 0.045118156975283756
411.0, 0.045017662492479044
412.0, 0.04650619129100477
413.0, 0.04863104436879332
414.0, 0.05067961183905841
415.0, 0.04897178975368554
416.0, 0.04448062855073733
417.0, 0.03795538268795633
418.0, 0.029955641685581312
419.0, 0.02652214520928694
420.0, 0.022842905929665803
421.0, 0.017843527313844476
422.0, 0.01040409249433214
423.0, 0.008453186165734984
424.0, 0.0076542981760860445
425.0, 0.007041708304950648
426.0, 0.005457041362463131
427.0, 0.005712091624986557
428.0, 0.006296805493080358
429.0, 0.00663525487095368
430.0, 0.005878551735958976
431.0, 0.005623970695829871
432.0, 0.006979287342271796
433.0, 0.00906314990783825
434.0, 0.00989985687688008
435.0, 0.010704723940820698
436.0, 0.011745275189355323
437.0, 0.01309407077305142
438.0, 0.014873139129061694
439.0, 0.01805553709385997
440.0, 0.019442672135344757
441.0, 0.020343290618501243
442.0, 0.02669837732951575
443.0, 0.028358734181354803
444.0, 0.03295349936094851
445.0, 0.04144114267246363
446.0, 0.051128270660111164
447.0, 0.06446928629247803
448.0, 0.08249623111129034
449.0, 0.10496268312571046
450.0, 0.1292682547034712
451.0, 0.17104361312801353
452.0, 0.21714468216086333
453.0, 0.26302302383507314
454.0, 0.306088814124681
455.0, 0.3375885865134913
456.0, 0.3455563003609128
457.0, 0.32678637708183417
458.0, 0.29300273178530084
459.0, 0.2515979995252216
460.0, 0.21172521095926716
461.0, 0.17817933570515035
462.0, 0.1583099223920293
463.0, 0.13858706717194547
464.0, 0.1252132838286908
465.0, 0.12043512473158147
466.0, 0.11599965962138695
467.0, 0.11716829211334252
468.0, 0.12380066047973934
469.0, 0.13575436042891825
470.0, 0.15023410083272887
471.0, 0.17746327742187293
472.0, 0.21323076725706805
473.0, 0.2559319601914352
474.0, 0.3109344242356438
475.0, 0.37162138260734007
476.0, 0.42364053066033275
477.0, 0.45712134457329257
478.0, 0.45689723350257405
479.0, 0.43963367280588933
480.0, 0.40734127059362096
481.0, 0.3617256612001657
482.0, 0.31712513968412487
483.0, 0.2811071556288599
484.0, 0.24974000006515346
485.0, 0.22074828458071108
486.0, 0.19528648809911656
487.0, 0.17290317817250936
488.0, 0.15171675082650168
489.0, 0.13063857581587746
490.0, 0.11110769672529133
491.0, 0.09937083869708903
492.0, 0.08835278914933743
493.0, 0.07465694989890335
494.0, 0.07596423264658439
495.0, 0.07314955719697314
496.0, 0.07104745823758343
497.0, 0.0725416920529065
498.0, 0.07488050986730387
499.0, 0.07916253884973005
500.0, 0.08687657060883347
501.0, 0.09881967698198112
502.0, 0.11236814700643875
503.0, 0.13004363110412692
504.0, 0.15493652679666042
505.0, 0.188903239107675
506.0, 0.23076181546339247
507.0, 0.2855697661570187
508.0, 0.34822889145509967
509.0, 0.4183051599082423
510.0, 0.5173765536067131
511.0, 0.634997958095716
512.0, 0.7568767554611302
513.0, 0.8744301951582992
514.0, 0.97431994531158
515.0, 0.9990638349443549
516.0, 0.9698988173583893
517.0, 0.8948652361428727
518.0, 0.770324238571263
519.0, 0.6397070330735254
520.0, 0.5211314799822504
521.0, 0.4214975662743214
522.0, 0.33744303445002605
523.0, 0.27928685899215877
524.0, 0.2328483508143244
525.0, 0.19333611482040722
526.0, 0.16103915865200344
527.0, 0.13792518564967882
528.0, 0.12027568188259834
529.0, 0.10589963520125911
530.0, 0.09008517186939856
531.0, 0.0827925537973073
532.0, 0.07395828286515566
533.0, 0.06317654352669454
534.0, 0.057920232463315804
535.0, 0.05175570756601262
536.0, 0.04797745739116434
537.0, 0.04550336838664575
538.0, 0.03929269308671617
539.0, 0.037808824186887836
540.0, 0.036355287187359746
541.0, 0.03413312793895331
542.0, 0.031028067098168747
543.0, 0.029440128141745892
544.0, 0.027688273591507027
545.0, 0.025615255753586294
546.0, 0.023292882486236344
547.0, 0.02144232640729138
548.0, 0.0192922966334534
549.0, 0.01730429205271953
550.0, 0.016262851174702497
551.0, 0.014248733604915803
552.0, 0.013279876305193799
553.0, 0.012679396264975423
554.0, 0.011544056683391413
555.0, 0.012156451208198667
556.0, 0.012114923389362762
557.0, 0.011674802492371895
558.0, 0.011110646975293157
559.0, 0.010932902119514157
560.0, 0.010521983941645312
561.0, 0.00931948069138854
562.0, 0.007194137901173346
563.0, 0.008021934251955758
564.0, 0.007808785224658191
565.0, 0.006875322211566728
566.0, 0.005801619196405214
567.0, 0.007931787464093792
568.0, 0.006114175394977336
569.0, 0.0056226752813281775
570.0, 0.007432400600453591
571.0, 0.005637995576878923
572.0, 0.0067265718012170265
573.0, 0.007805451756738738
574.0, 0.007927966450452704
575.0, 0.006652225902583173
576.0, 0.007068332546097231
577.0, 0.007677030260825844
578.0, 0.008341856807974219
579.0, 0.009439390504770289
580.0, 0.009999078971605475
581.0, 0.010073110171691489
582.0, 0.010339521983440405
583.0, 0.011959594824578446
584.0, 0.014601505189413458
585.0, 0.01489684430906234
586.0, 0.013567533049072024
587.0, 0.01173016325019069
588.0, 0.01074853263543648
589.0, 0.007819574725558777
590.0, 0.005071971030505337
591.0, 0.004302981722959909
592.0, 0.004853362929833808
593.0, 0.00355803275107284
594.0, 0.0028527916331698116
595.0, 0.00375032288696359
596.0, 0.003013396972878363
597.0, 0.002355627254825535
598.0, 0.0024006765241504752
599.0, 0.0028664467885924335
600.0, 0.0013757062115261785
601.0, 0.0011382887236740132
602.0, 0.0009817091594193274
603.0, 0.0009052487801798899
604.0, 0.0016945439644516403
605.0, 0.0018950268020997022
606.0, 0.0015127091559535132
607.0, 0.001033694513157219
608.0, 0.00131289540302928
609.0, 0.0007062174075868818
610.0, 0.0007212405442267694
611.0, 0.0008543864339847969
612.0, 0.00046426674094204927
613.0, 0.0011677914318906069
614.0, 0.0010812241879928032
615.0, 0.001373772496763771
616.0, 0.002625807646915063
617.0, 0.0015659702796799462
618.0, 0.0007619824388247688
619.0, 0.0006076883971257777
620.0, 0.0011954412362279927
621.0, 0.0020683142567636884
622.0, 0.0035271244068866346
623.0, 0.0034962876654526507
624.0, 0.002392888886755403
625.0, 0.0030426901668071304
626.0, 0.0028606635478024304
627.0, 0.004119572405622077
628.0, 0.00566684308140192
629.0, 0.005011319499826152
630.0, 0.004356154664356301
631.0, 0.006423113134035248
632.0, 0.008103786601283315
633.0, 0.006291822287846694
634.0, 0.006795597386557685
635.0, 0.00711136835820547
636.0, 0.008509013321104403
637.0, 0.011119748911346282
638.0, 0.00994417267858535
639.0, 0.008264739697980542
640.0, 0.010117081490051314
641.0, 0.014865913651366613
642.0, 0.014999649026332582
643.0, 0.01874020787303871
644.0, 0.023612023900222115
645.0, 0.02842345143282453
646.0, 0.03169908951135216
647.0, 0.04120050961441051
648.0, 0.045024923799660416
649.0, 0.04931149624152964
650.0, 0.06120483321634173
651.0, 0.06280018455551707
652.0, 0.06538983948585726
653.0, 0.06797122519768867
654.0, 0.06963192767554348
655.0, 0.06830814040734227
656.0, 0.06324943996833829
657.0, 0.05674802214652873
658.0, 0.049732213994380395
659.0, 0.04271233531298919
660.0, 0.03760757613514368
661.0, 0.03250269820368556
662.0, 0.02777612382737286
663.0, 0.024579669292068444
664.0, 0.02008039731260989
665.0, 0.016797502905365178
666.0, 0.014108536790982973
667.0, 0.011347229292641144
668.0, 0.009012488208439914
669.0, 0.007548821224178653
670.0, 0.005960017090604712
671.0, 0.004364213996730486
672.0, 0.005894542465585593
673.0, 0.0038711260632460654
674.0, 0.002124666799537062
675.0, 0.0012339769736842844
676.0, 0.00040266426773356395
677.0, 0.0027073360669567365
678.0, 0.0030130592373686644
679.0, 0.0019656905637877114
680.0, 0.0009147372874485278
681.0, 0.0016841888531460413
682.0, 0.0022572576030131185
683.0, 0.001967167868726802
684.0, 0.0008278594831683143
685.0, 0.0015131774521946503
686.0, 0.0011090725999680316
687.0, 0.0016793449575024386
688.0, 0.002855850823348204
689.0, 0.0020389722525452733
690.0, 0.0012564831117819726
691.0, 0.0023866308935782507
692.0, 0.0042525911588136775
693.0, 0.005045772676960398
694.0, 0.0026468946401556636
695.0, 0.0020463780012024086
696.0, 0.002003239286605797
697.0, 0.0017998110332440944
698.0, 0.0021823383057225075
699.0, 0.001833836421900584
700.0, 0.0011469344462141501
701.0, 0.0006103268888135368
702.0, 0.0011997242924028967
703.0, 0.0009243206697492483
704.0, 0.0006094968948988834
705.0, 0.00031984781881410344
706.0, 5.950739892961155e-05
707.0, 0.0007203754541815267
708.0, 0.0012628133936574888
709.0, 0.002560206688959072
710.0, 0.004347250026178001
711.0, 0.0023857400538722165
712.0, 0.004728325455576466
713.0, 0.006750275638487809
714.0, 0.007032445760968814
715.0, 0.005015321402542447
716.0, 0.007071447796111746
717.0, 0.006986298468746717
718.0, 0.006280319673691067
719.0, 0.006650763075726209
720.0, 0.00465106648476503
721.0, 0.0035293915251244762
722.0, 0.004027250990315345
723.0, 0.00516260986135237
724.0, 0.0019448709404170106
725.0, 0.004680897366239278
726.0, 0.0050279121282201834
727.0, 0.003783143567597884
728.0, 0.004350251561797267
729.0, 0.004375124156534433
730.0, 0.005273498236630518
731.0, 0.00640382768723618
732.0, 0.007451347015571231
733.0, 0.009551564415167265
734.0, 0.009705968364120222
735.0, 0.010377777080922641
736.0, 0.012157602011928469
737.0, 0.014752146024655086
738.0, 0.01733226931607324
739.0, 0.020957389554682286
740.0, 0.025556704632346036
741.0, 0.030897008581496504
742.0, 0.03632883240506804
743.0, 0.04726064641882782
744.0, 0.05963600570174695
745.0, 0.07256074649610687
746.0, 0.0888906998492612
747.0, 0.10682539407479819
748.0, 0.12440373769851215
749.0, 0.13874989280301664
750.0, 0.1466463523376956
751.0, 0.1493909028489946
752.0, 0.1381695486971223
753.0, 0.12144559589573457
754.0, 0.10487381858980598
755.0, 0.09174686279335581
756.0, 0.07783560333610298
757.0, 0.06650280704213388
758.0, 0.05745077943043281
759.0, 0.04903434942877005
760.0, 0.043485305237403245
761.0, 0.039663494982591266
762.0, 0.036819798310071095
763.0, 0.03499046870925554
764.0, 0.037703709451224005
765.0, 0.03928748112518305
766.0, 0.03674747503912845
767.0, 0.03241331809508343
768.0, 0.03207942633475443
769.0, 0.02961373914788689
770.0, 0.0263972537954083
771.0, 0.02355073630655395
772.0, 0.02157368577694755
773.0, 0.018211389126219696
774.0, 0.01773784901722111
775.0, 0.01625781729497067
776.0, 0.013926037031727314
777.0, 0.013249381368148959
778.0, 0.013234655380434893
779.0, 0.012267164830123705
780.0, 0.011368607437246587
781.0, 0.011259361627124239
782.0, 0.010775351663876777
783.0, 0.009232849764180838
784.0, 0.007273978912985662
785.0, 0.006164328998916519
786.0, 0.008082162088561653
787.0, 0.008928953481209298
788.0, 0.008188426497477237
789.0, 0.008386020767794322
790.0, 0.011123955657626592
791.0, 0.01376075424695557
792.0, 0.013340786941984475
793.0, 0.014245773374947354
794.0, 0.015866618751304747
795.0, 0.014805504669061935
796.0, 0.01497173629543374
797.0, 0.01588329042668793
798.0, 0.017422644719293594
799.0, 0.019091652882714458
800.0, 0.01856286824020015
801.0, 0.01916086958413925
802.0, 0.01975255254699926
803.0, 0.021719408383474352
804.0, 0.02767397257524479
805.0, 0.030775801953148704
806.0, 0.03496237794611968
807.0, 0.04082468999934964
808.0, 0.049024420819567496
809.0, 0.06124302076007368
810.0, 0.07602999099999887
811.0, 0.09533586182745314
812.0, 0.11588191010828687
813.0, 0.1328980783420089
814.0, 0.154201022549248
815.0, 0.16151318864407851
816.0, 0.15815759974906943
817.0, 0.1454476427051806
818.0, 0.12156913203538662
819.0, 0.10354064086994132
820.0, 0.08635424380088969
821.0, 0.06916297075497006
822.0, 0.05208969500542816
823.0, 0.04034988871750912
824.0, 0.032995208541451805
825.0, 0.028638108219753707
826.0, 0.025443628779850284
827.0, 0.02031742143613623
828.0, 0.01613714353243341
829.0, 0.012102288549794593
830.0, 0.010429236603393883
831.0, 0.011828234590850438
832.0, 0.010255151269345958
833.0, 0.00976837600738374
834.0, 0.009464864852263888
835.0, 0.008660891462238116
836.0, 0.006682505026942104
837.0, 0.00607793889347243
838.0, 0.006337297161491691
839.0, 0.006926946773606321
840.0, 0.006956006273656175
841.0, 0.004375378936006871
842.0, 0.0057197849836463565
843.0, 0.00758968466839481
844.0, 0.006964954326361448
845.0, 0.0021477263114704015
846.0, 0.0025102985740007465
847.0, 0.002278662535475439
848.0, 0.0013199099362522242
849.0, 0.0002722427511394144
850.0, 0.00047571739968735186
851.0, 0.00013156023456354466
852.0, 0.0011914195479290207
853.0, 0.0018667360396054892
854.0, 0.0011929301655865094
855.0, 0.0001532241669098813
856.0, 0.0010818501354808632
857.0, 0.0008991779826826192
858.0, 0.0010085748536685078
859.0, 0.0031111529911631557
860.0, 0.0007660392455965297
861.0, 0.00034929429332125584
862.0, 0.001457685110817696
863.0, 0.002814069996118505
864.0, 0.002022434187293439
865.0, 0.0017242431514005656
866.0, 0.0008963968188254976
867.0, 0.0002185462683859179
868.0, 0.00021117622397082413
869.0, 0.0010756282254001676
870.0, 0.0009867028439529513
871.0, 0.0016003628267145145
872.0, 0.0018756022401327853
873.0, 0.0007345173839898281
874.0, 0.0025207641907030037
875.0, 0.0012420982000086477
876.0, 0.0006016769306948363
877.0, 0.0010904199952671632
878.0, 0.0012601941126792041
879.0, 0.0011993730838305986
880.0, 0.0007470261398701595
881.0, 0.0011315997490399105
882.0, 0.0022431688400170553
883.0, 0.0011639896791723488
884.0, 0.0005278589599781397
885.0, 0.000990491089054673
886.0, 0.0012078335869730994
887.0, 0.0002720147430395764
888.0, 0.0014773491722894433
889.0, 0.0016183872288512552
890.0, 0.0018903428815950014
891.0, 0.0018454767728616477
892.0, 0.000570460922518544
893.0, 0.0030726556931269427
894.0, 0.0028765415491491834
895.0, 0.002531997165514939
896.0, 0.0024946027315666313
897.0, 0.001147590710534752
898.0, 0.0026593483345186417
899.0, 0.002754751361193422
900.0, 0.0021291068073810704
901.0, 0.001674390441726479
902.0, 0.0024490024435055782
903.0, 0.002567086733672266
904.0, 0.0023406872195817783
905.0, 0.0016641986053956986
906.0, 0.0005982926589617214
907.0, 0.0006697929511596616
908.0, 0.0016474599936744038
909.0, 0.001800448655658007
910.0, 0.0012061640950998618
911.0, 0.0007090921146937464
912.0, 0.0014042872466138686
913.0, 0.0033841091003684737
914.0, 0.004320043139071113
915.0, 0.0040744041797967515
916.0, 0.004442104880300876
917.0, 0.0029290441603947604
918.0, 0.0032050431863921134
919.0, 0.0029332315919939045
920.0, 0.0014549879793117372
921.0, 0.0014530519953403378
922.0, 0.0009138088278986158
923.0, 0.0015612029520856757
924.0, 0.0020179170200909056
925.0, 0.0016312005383411583
926.0, 0.0037213949908299826
927.0, 0.004118029344625404
928.0, 0.0037454095968229603
929.0, 0.0036266823668826545
930.0, 0.004307387321894014
931.0, 0.0019791106536823254
932.0, 0.0019234404822269752
933.0, 0.0021271993031260392
934.0, 0.0019035365141210228
935.0, 0.001130662403893883
936.0, 0.0013979209347982232
937.0, 0.0010886223237729982
938.0, 0.000657528758279326
939.0, 0.0003972260230032825
940.0, 0.0005191537715279365
941.0, 0.001901089184159353
942.0, 0.0021119346632673588
943.0, 0.0021721693240631308
944.0, 0.0024719962544745414
945.0, 0.0026202575945928363
946.0, 0.003701603923915136
947.0, 0.004275329586769981
948.0, 0.003309618538850219
949.0, 0.001578821876588245
950.0, 0.003747772894699534
951.0, 0.00285760417431656
952.0, 0.00221485779257236
953.0, 0.003216855941039869
954.0, 0.005724043703991631
955.0, 0.005326678038481575
956.0, 0.005970561829175551
957.0, 0.007406491402709921
958.0, 0.007358224691767276
959.0, 0.004895585278661673
960.0, 0.007220362514942169
961.0, 0.0025869798644841966
962.0, 0.0026438013245943283
963.0, 0.00473035559368914
964.0, 0.003629939272989321
965.0, 0.002529311299053908
966.0, 0.0040387217224291784
967.0, 0.004557244583539369
968.0, 0.004636285308554267
969.0, 0.005994626135702159
970.0, 0.0069189504371710555
971.0, 0.003654187079084598
972.0, 0.004402854429874697
973.0, 0.007278898114347434
974.0, 0.006189591696801244
975.0, 0.007581241210003056
976.0, 0.009903710062654753
977.0, 0.010399086764628685
978.0, 0.009731457280762615
979.0, 0.010428921366017758
980.0, 0.007804189791706102
981.0, 0.006938928974825069
982.0, 0.007075172732058132
983.0, 0.007390742440467459
984.0, 0.007028910997671868
985.0, 0.009709948187492325
986.0, 0.0094649145254016
987.0, 0.010380495916855779
988.0, 0.012558322000895685
989.0, 0.012761287735337471
990.0, 0.0157182369456124
991.0, 0.018911225721250334
992.0, 0.02333926288590759
993.0, 0.028020604502318844
994.0, 0.030042161193725044
995.0, 0.03510900731021797
996.0, 0.03359385812333191
997.0, 0.032000200921016096
998.0, 0.03264825303127892
999.0, 0.03353210260378722
1000.0, 0.029516463417162242
1001.0, 0.0272581186192035
1002.0, 0.027672409431971707
1003.0, 0.028498682994515603
1004.0, 0.024065336695378768
1005.0, 0.026180122846179432
1006.0, 0.026053985771782986
1007.0, 0.024346936392142124
1008.0, 0.02245631386542552
1009.0, 0.02251331514991054
1010.0, 0.018011077671079047
1011.0, 0.018354834153916182
1012.0, 0.018056848370386628
1013.0, 0.015963862814492514
1014.0, 0.015448247909814344
1015.0, 0.012565207106309708
1016.0, 0.011547172659474289
1017.0, 0.011672743222477381
1018.0, 0.012292805084209277
1019.0, 0.012824764948134301
1020.0, 0.011869981771536356
1021.0, 0.01178375528282908
1022.0, 0.012192763755972908
1023.0, 0.013582352284686666
1024.0, 0.016945709298550316
1025.0, 0.013410225647618117
1026.0, 0.012289509214060338
1027.0, 0.013534409253408196
1028.0, 0.01646541041949586
1029.0, 0.01967291540897902
1030.0, 0.016440846104059166
1031.0, 0.019981521275052126
1032.0, 0.020142086817279775
1033.0, 0.01754537256561952
1034.0, 0.01868160540470338
1035.0, 0.018649474788409275
1036.0, 0.017525519591747654
1037.0, 0.017287851757686372
1038.0, 0.01760993905450953
1039.0, 0.017319755196486358
1040.0, 0.018364014119108957
1041.0, 0.017603208321109457
1042.0, 0.01571454769395322
1043.0, 0.013961071974362702
1044.0, 0.013573658170346897
1045.0, 0.013828834813060058
1046.0, 0.018068588851335922
1047.0, 0.018491326589938812
1048.0, 0.017803566248403194
1049.0, 0.02021005260009577
1050.0, 0.022964604076837994
1051.0, 0.02328068848749346
1052.0, 0.022931322820300824
1053.0, 0.02366540606392922
1054.0, 0.025738984481275005
1055.0, 0.024556729947974136
1056.0, 0.01975885389463172
1057.0, 0.019031470395228907
1058.0, 0.019764313337189417
1059.0, 0.018853492527419448
1060.0, 0.01489357475162412
1061.0, 0.014404750309135881
1062.0, 0.01263037905049137
1063.0, 0.009496837739310617
1064.0, 0.007069721002456402
1065.0, 0.010020054805559701
1066.0, 0.007082585647902302
1067.0, 0.005773120999310435
1068.0, 0.005951818707368527
1069.0, 0.007239592646738696
1070.0, 0.009047464641373055
1071.0, 0.006323660821629549
1072.0, 0.004181869162503441
1073.0, 0.0074153316324313484
1074.0, 0.011143183660834596
1075.0, 0.0066371807060549935
1076.0, 0.00809396776855192
1077.0, 0.00807470821310383
1078.0, 0.007262568865416602
1079.0, 0.006906826246722444
1080.0, 0.008125127752002467
1081.0, 0.01025048892425353
1082.0, 0.011196771700759727
1083.0, 0.011094224931690516
1084.0, 0.011798000905625534
1085.0, 0.0139676722798551
1086.0, 0.013778939290581677
1087.0, 0.013516814619107254
1088.0, 0.014579088058542085
1089.0, 0.016734890910305705
1090.0, 0.019189361256409562
1091.0, 0.02056662976925126
1092.0, 0.019153226157116687
1093.0, 0.020581961995479035
1094.0, 0.024247046575420508
1095.0, 0.02937582543262373
1096.0, 0.03511989555523045
1097.0, 0.0390357353402752
1098.0, 0.03985888999636109
1099.0, 0.042769715845364126
1100.0, 0.04551789969764761
1101.0, 0.0434145784445866
1102.0, 0.039194273216708736
1103.0, 0.04239045723826661
1104.0, 0.04166777566864921
1105.0, 0.03986956677046585
1106.0, 0.04016943866087645
1107.0, 0.03647809777158972
1108.0, 0.032083832163604074
1109.0, 0.03376226772061876
1110.0, 0.03642738446682149
1111.0, 0.03672915678948432
1112.0, 0.035696880055628204
1113.0, 0.03967979490715377
1114.0, 0.04286213691462841
1115.0, 0.04829024217317478
1116.0, 0.05442423343192042
1117.0, 0.05696347507794329
1118.0, 0.0584676775813359
1119.0, 0.07181787372321442
1120.0, 0.0840026378596954
1121.0, 0.09694516594535536
1122.0, 0.11438644024435013
1123.0, 0.12752933785785603
1124.0, 0.13176279211629968
1125.0, 0.13747276837255906
1126.0, 0.1387257680460178
1127.0, 0.13255981331305464
1128.0, 0.12454103963845421
1129.0, 0.11444209759825386
1130.0, 0.10550713997338437
1131.0, 0.09916053227003684
1132.0, 0.09423908339565662
1133.0, 0.08822765526791022
1134.0, 0.0855909113000721
1135.0, 0.08766678602231984
1136.0, 0.08622477515433746
1137.0, 0.08499944607833615
1138.0, 0.08889288529002114
1139.0, 0.0932275015762135
1140.0, 0.09000912871463179
1141.0, 0.09045276441630534
1142.0, 0.08715771157499487
1143.0, 0.07768471074088522
1144.0, 0.06926865011290456
1145.0, 0.0637057398520165
1146.0, 0.05330848603756703
1147.0, 0.04636965508593135
1148.0, 0.04242528379160248
1149.0, 0.03683995293781451
1150.0, 0.032898940706409155
1151.0, 0.029717140985312817
1152.0, 0.0251376060266413
1153.0, 0.021792217787088654
1154.0, 0.021032394543952785
1155.0, 0.019133117049725642
1156.0, 0.016373107457770944
1157.0, 0.013052345589292778
1158.0, 0.014830436518216951
1159.0, 0.017555506241769585
1160.0, 0.010922489716352318
1161.0, 0.01171739228149566
1162.0, 0.01262808199422355
1163.0, 0.009968017686917584
1164.0, 0.007142939461690027
1165.0, 0.007533762914589298
1166.0, 0.007556397996672281
1167.0, 0.007328963785893384
1168.0, 0.007265732264926372
1169.0, 0.007414058603510219
1170.0, 0.007368477793612648
1171.0, 0.006391397608888208
1172.0, 0.005270465167076222
1173.0, 0.004753646420118376
1174.0, 0.005540929616465157
1175.0, 0.005790922482691607
1176.0, 0.0043958994415280285
1177.0, 0.006147481636732765
1178.0, 0.006160725309750472
1179.0, 0.003519042963834692
1180.0, 0.003885991610057158
1181.0, 0.007989804425702553
1182.0, 0.010205004964025599
1183.0, 0.005515923902623023
1184.0, 0.005282209201027916
1185.0, 0.004746656087202565
1186.0, 0.004983329919406349
1187.0, 0.007367253658673625
1188.0, 0.006646165367161412
1189.0, 0.0056649616921267
1190.0, 0.005170180821526633
1191.0, 0.00472016381444568
1192.0, 0.003911742329220009
1193.0, 0.00266981346333344
1194.0, 0.0030316151624244386
1195.0, 0.0025608632109771945
1196.0, 0.001748692312132015
1197.0, 0.0026194299045794065
1198.0, 0.004886131619695878
1199.0, 0.0006326576908251675
1200.0, 0.004489181839872345
1201.0, 0.0027420422098823304
1202.0, 0.0012513463467960164
1203.0, 0.0027849042887237276
1204.0, 0.005706395735597313
1205.0, 0.003491188229274604
1206.0, 0.0021258857368474642
1207.0, 0.0038353941280322994
1208.0, 0.003922235016065119
1209.0, 0.00134807626009657
1210.0, 0.0053015406333053825
1211.0, 0.003695473338141998
1212.0, 0.0015996774636576627
1213.0, 0.0021003554817528762
1214.0, 0.004100570014324788
1215.0, 0.004680451685666603
1216.0, 0.004544069902865486
1217.0, 0.0014982148214313588
1218.0, 0.0012053211084113032
1219.0, 0.0024895219595347825
1220.0, 0.004385366226432177
1221.0, 0.007106870372421571
1222.0, 0.0034344798144949036
1223.0, 0.004846337345162929
1224.0, 0.005090740554164862
1225.0, 0.0047251563904731585
1226.0, 0.005508400649649724
1227.0, 0.0058967665870400185
1228.0, 0.005799847535796622
1229.0, 0.006179127661463388
1230.0, 0.006401197265382129
1231.0, 0.006584082957856784
1232.0, 0.007212346110559449
1233.0, 0.007427172683575857
1234.0, 0.00664400591722273
1235.0, 0.00604659855409473
1236.0, 0.00503930374325959
1237.0, 0.0034062901448031206
1238.0, 0.0018501998868539018
1239.0, 0.00199936801046062
1240.0, 0.0028088825337369357
1241.0, 0.002371413074480985
1242.0, 0.0022391764108014834
1243.0, 0.0036609974774877924
1244.0, 0.004370090326692309
1245.0, 0.004026306345019316
1246.0, 0.005874445555911764
1247.0, 0.004224363151849307
1248.0, 0.001891275874505929
1249.0, 0.004693656366086941
1250.0, 0.008058397562628073
1251.0, 0.002243528463798512
1252.0, 0.0026943547902167956
1253.0, 0.005518230454256232
1254.0, 0.0063872229297896625
1255.0, 0.00403097242098891
1256.0, 0.005579148716031607
1257.0, 0.0036294768554808094
1258.0, 0.004358375401507724
1259.0, 0.006213097796192262
1260.0, 0.006020118428391371
1261.0, 0.0016745080904874425
1262.0, 0.005287340303216418
1263.0, 0.004457848297614413
1264.0, 0.0026150034941475565
1265.0, 0.0033190788758877933
1266.0, 0.0058912236276623
1267.0, 0.00028122883107313534
1268.0, 0.004229672049250053
1269.0, 0.0026025158879312074
1270.0, 0.0015611669279112902
1271.0, 0.0029871274172547707
1272.0, 0.004777098044118112
1273.0, 0.0009752171443585924
1274.0, 0.0004242042476522138
1275.0, 0.0019438573270443747
1276.0, 0.0017482509876536453
1277.0, 0.0013400569018535485
1278.0, 0.004734518288227415
1279.0, 0.0067598380234523145
1280.0, 0.0027715041003872408
1281.0, 0.0028127528901410476
1282.0, 0.0037901943811415144
1283.0, 0.003628908866789009
1284.0, 0.0032331417692030256
1285.0, 0.0034192164988411924
1286.0, 0.001989145541280595
1287.0, 0.0014475688259287342
1288.0, 0.001746547573423166
1289.0, 0.0017898646341488508
1290.0, 0.0002918369680457265
1291.0, 0.0008933230243090362
1292.0, 0.0012866629065374296
1293.0, 0.0007737382946165566
1294.0, 0.0005162700000076488
1295.0, 0.0008700953497243863
1296.0, 0.00031981468479583026
1297.0, 0.00017546160963985977
1298.0, 0.00015413134205911568
1299.0, 0.001621344495859734
1300.0, 0.002485033176805073
1301.0, 0.001575802443104702
1302.0, 0.0013873289093498757
1303.0, 0.002590390386244302
1304.0, 0.002158205784570572
1305.0, 0.002647572303170125
1306.0, 0.002446714766043352
1307.0, 0.0014389368930149012
1308.0, 0.00539751134775193
1309.0, 0.0021761003775291284
1310.0, 0.0005376944250452447
1311.0, 0.0017723837809966593
1312.0, 0.0030114782204229773
1313.0, 0.002000778614690911
1314.0, 0.0016728722886612335
1315.0, 0.0028290749619025958
1316.0, 0.0022291191348792587
1317.0, 0.003064030533117024
1318.0, 0.003848214453672747
1319.0, 0.0027675017318982004
1320.0, 0.002209885786170225
1321.0, 0.006926923711031551
1322.0, 0.0037393304755098645
1323.0, 0.0028645077120448377
1324.0, 0.004960815489997937
1325.0, 0.005730193007248663
1326.0, 0.0008289758355173515
1327.0, 0.0036972118287832423
1328.0, 0.0052607976368953145
1329.0, 0.004175878032119036
1330.0, 0.00405386651101169
1331.0, 0.00611380279117296
1332.0, 0.002063706663710522
1333.0, 0.0034138197748874426
1334.0, 0.003481196211001851
1335.0, 0.00425777770412838
1336.0, 0.005991951404039893
1337.0, 0.006653483802624264
1338.0, 0.0018219997054257052
1339.0, 0.0012920747005554368
1340.0, 0.0017962691520785365
1341.0, 0.00354248484267438
1342.0, 0.004088963347892286
1343.0, 0.003402022563814328
1344.0, 0.00662033833982853
1345.0, 0.0011559237705431598
1346.0, 0.0025883185169606076
1347.0, 0.003122524299141625
1348.0, 0.002942454213984317
1349.0, 0.0026824849596940514
1350.0, 0.00019738710004836097
1351.0, 0.00100217832627584
1352.0, 0.0037765350467884604
1353.0, 0.0034291958537731267
1354.0, 0.002923661575706739
1355.0, 0.004554390893643733
1356.0, 0.006900711232734433
1357.0, 0.008521143825926149
1358.0, 0.003393883515919567
1359.0, 0.003844635732959691
1360.0, 0.004587939434891744
1361.0, 0.0029220238168607498
1362.0, 0.002402796731857345
1363.0, 0.005622077448100953
1364.0, 0.004623989161252916
1365.0, 0.0033366767069029288
1366.0, 0.003991645175493941
1367.0, 0.00464980533049783
1368.0, 0.00247712602182386
1369.0, 0.0039012194597772745
1370.0, 0.003264172849514685
1371.0, 0.0017393205738099702
1372.0, 0.0019727148912511076
1373.0, 0.0031132793339769906
1374.0, 0.002941358000365394
1375.0, 0.0018252875381020652
1376.0, 0.005162290422225582
1377.0, 0.0038836958482254555
1378.0, 0.0028277420577303707
1379.0, 0.004975924709347199
1380.0, 0.008228350376543486
1381.0, 0.004182897554390767
1382.0, 0.002643460448372943
1383.0, 0.006259756524810906
1384.0, 0.004376622898502458
1385.0, 0.0037837206351079124
1386.0, 0.006533483172426334
1387.0, 0.0033484137334889434
1388.0, 0.0007031748108316412
1389.0, 0.0061191443092463195
1390.0, 0.006395574658682868
1391.0, 0.00532392854393019
1392.0, 0.005676576020308958
1393.0, 0.006077868158652893
1394.0, 0.003642961644006946
1395.0, 0.004079902002245291
1396.0, 0.004908943701541783
1397.0, 0.004831668977897697
1398.0, 0.005513653700623261
1399.0, 0.007053524852770082
1400.0, 0.0020302933995287116
1401.0, 0.006194707558110678
1402.0, 0.0073637689459693225
1403.0, 0.005735257579379552
1404.0, 0.0035410444406097077
1405.0, 0.0028535092664641083
1406.0, 0.0038342949042571694
1407.0, 0.0020618820718120105
1408.0, 0.0056516986067964734
1409.0, 0.00500921801489157
1410.0, 0.00422464720671338
1411.0, 0.00692188186185326
1412.0, 0.011142866872224802
1413.0, 0.004796368356311062
1414.0, 0.00483368073379646
1415.0, 0.008052487489729445
1416.0, 0.007553405182983141
1417.0, 0.005573384864551962
1418.0, 0.005875439228545868
1419.0, 0.00423558910396201
1420.0, 0.0012301826825355505
1421.0, 0.0029964402273438525
1422.0, 0.0062470740789353696
1423.0, 0.0061505534121420015
1424.0, 0.004393190364477953
1425.0, 0.007843757779768121
1426.0, 0.004544854544564352
1427.0, 0.002721472829886767
1428.0, 0.006334827005490422
1429.0, 0.007646944715872032
1430.0, 0.005833116128494883
1431.0, 0.005655929684835824
1432.0, 0.0106564219912561
1433.0, 0.006828019219196993
1434.0, 0.005969956585202595
1435.0, 0.004407958100560941
1436.0, 0.002612012458246644
1437.0, 0.0026565846884687187
1438.0, 0.005891865009987929
1439.0, 0.008925297510450602
1440.0, 0.006011525834720902
1441.0, 0.007230255619884704
1442.0, 0.00797531172712758
1443.0, 0.006958289930280257
1444.0, 0.006300315948758954
1445.0, 0.006755352687300019
1446.0, 0.003527136528181158
1447.0, 0.0070114286570809765
1448.0, 0.008826184995811141
1449.0, 0.007134772063467169
1450.0, 0.005536345199256581
1451.0, 0.008587815415295227
1452.0, 0.004910934838190029
1453.0, 0.0047501352908541844
1454.0, 0.005033273110667258
1455.0, 0.003665549537929574
1456.0, 0.0026592825971873397
1457.0, 0.0051638651547815774
1458.0, 0.010550701185772742
1459.0, 0.0018842921761832916
1460.0, 0.005488767802567465
1461.0, 0.007019883872970442
1462.0, 0.004690315553132912
1463.0, 0.003515235826674096
1464.0, 0.008020346257634451
1465.0, 0.007468008551489205
1466.0, 0.0040606372671456
1467.0, 0.00688063901833182
1468.0, 0.007441394947672134
1469.0, 0.006234588844981638
1470.0, 0.006772544222554727
1471.0, 0.0085310115792642
1472.0, 0.0032226103433397016
1473.0, 0.0060961307731074044
1474.0, 0.005658306159319052
1475.0, 0.0051118543419932825
1476.0, 0.006267530224855527
1477.0, 0.007748085986719412
1478.0, 0.007474500816548534
1479.0, 0.0049792025811879696
1480.0, 0.010241761455975355
1481.0, 0.007493304129349106
1482.0, 0.0033352099651603622
1483.0, 0.005832699157383747
1484.0, 0.012468572791622525
1485.0, 0.002045917182070374
1486.0, 0.0076062263030510745
1487.0, 0.008594922839515339
1488.0, 0.006102681537859765
1489.0, 0.005505767443990856
1490.0, 0.007224531032186461
1491.0, 0.0046534877251606125
1492.0, 0.004592786358876591
1493.0, 0.011346839540980086
1494.0, 0.0064411021472266855
1495.0, 0.0036465514486578917
1496.0, 0.007156561927720671
1497.0, 0.010436881491091876
1498.0, 0.0047517776203964655
1499.0, 0.006958622485010716
1500.0, 0.00983539270982162
1501.0, 0.004278326268074825
1502.0, 0.004125702732167982
1503.0, 0.008294186871042518
1504.0, 0.006927803351509527
1505.0, 0.004907633528743871
1506.0, 0.009405870878140208
1507.0, 0.010716824317873769
1508.0, 0.0062688462211568236
1509.0, 0.007112892690071185
1510.0, 0.010641967758474142
1511.0, 0.006252437170748438
1512.0, 0.006415801169418701
1513.0, 0.010159301484968339
1514.0, 0.004724438130061343
1515.0, 0.006135712127219153
1516.0, 0.008776967765414031
1517.0, 0.006021221824417645
1518.0, 3.6630656039578225e-05
1519.0, 6.123118512042535e-07
1520, 0.0
1521, 0.0
1522, 0.0
1523, 0.0
1524, 0.0
1525, 0.0
1526, 0.0
1527, 0.0
1528, 0.0
1529, 0.0
1530, 0.0
1531, 0.0
1532, 0.0
1533, 0.0
1534, 0.0
1535, 0.0
1536, 0.0
1537, 0.0
1538, 0.0
1539, 0.0
1540, 0.0
1541, 0.0
1542, 0.0
1543, 0.0
1544, 0.0
1545, 0.0
1546, 0.0
1547, 0.0
1548, 0.0
1549, 0.0
1550, 0.0
1551, 0.0
1552, 0.0
1553, 0.0
1554, 0.0
1555, 0.0
1556, 0.0
1557, 0.0
1558, 0.0
1559, 0.0
1560, 0.0
1561, 0.0
1562, 0.0
1563, 0.0
1564, 0.0
1565, 0.0
1566, 0.0
1567, 0.0
1568, 0.0
1569, 0.0
1570, 0.0
1571, 0.0
1572, 0.0
1573, 0.0
1574, 0.0
1575, 0.0
1576, 0.0
1577, 0.0
1578, 0.0
1579, 0.0
1580, 0.0
1581, 0.0
1582, 0.0
1583, 0.0
1584, 0.0
1585, 0.0
1586, 0.0
1587, 0.0
1588, 0.0
1589, 0.0
1590, 0.0
1591, 0.0
1592, 0.0
1593, 0.0
1594, 0.0
1595, 0.0
1596, 0.0
1597, 0.0
1598, 0.0
1599, 0.0
