30, 0.0
31, 0.0
32, 0.0
33, 0.0
34, 0.0
35, 0.0
36, 0.0
37, 0.0
38, 0.0
39, 0.0
40, 0.0
41, 0.0
42, 0.0
43, 0.0
44, 0.0
45, 0.0
46, 0.0
47, 0.0
48, 0.0
49, 0.0
50, 0.0
51, 0.0
52, 0.0
53, 0.0
54, 0.0
55, 0.0
56, 0.0
57, 0.0
58, 0.0
59, 0.0
60, 0.0
61, 0.0
62, 0.0
63, 0.0
64, 0.0
65, 0.0
66, 0.0
67, 0.0
68, 0.0
69, 0.0
70, 0.0
71, 0.0
72, 0.0
73, 0.0
74, 0.0
75, 0.0
76, 0.0
77, 0.0
78, 0.0
79, 0.0
80, 0.0
81, 0.0
82, 0.0
83, 0.0
84, 0.0
85, 0.0
86, 0.0
87, 0.0
88, 0.0
89, 0.0
90, 0.0
91, 0.0
92, 0.0
93, 0.0
94, 0.0
95, 0.0
96, 0.0
97, 0.0
98, 0.0
99, 0.0
100, 0.0
101, 0.0
102, 0.0
103, 0.0
104, 0.0
105, 0.0
106, 0.0
107, 0.0
108, 0.0
109, 0.0
110, 0.0
111, 0.0
112, 0.0
113, 0.0
114, 0.0
115, 0.0
116, 0.0
117, 0.0
118, 0.0
119, 0.0
120, 0.0
121, 0.0
122, 0.0
123, 0.0
124, 0.0
125, 0.0
126, 0.0
127, 0.0
128, 0.0
129, 0.0
130, 0.0
131, 0.0
132, 0.0
133, 0.0
134, 0.0
135, 0.0
136, 0.0
137, 0.0
138, 0.0
139, 0.0
140.0, 0.007660889955619007
141.0, 0.012085542742187858
142.0, 0.006812600071591726
143.0, 0.002214494990092887
144.0, 0.002351381775394918
145.0, 0.0049191664453393825
146.0, 0.004783838043967715
147.0, 0.005257759092855099
148.0, 0.010826319076234325
149.0, 0.021760971111756473
150.0, 0.018395814267017238
151.0, 0.013367665710499608
152.0, 0.008041550132240961
153.0, 0.003970273807077285
154.0, 0.009459927138405025
155.0, 0.018245713377850362
156.0, 0.02601050360725273
157.0, 0.014081496480725465
158.0, 0.006492703254341126
159.0, 0.007859658407983021
160.0, 0.02205148269410144
161.0, 0.0169375537924671
162.0, 0.017188654321392022
163.0, 0.0201077984411832
164.0, 0.01944516506687686
165.0, 0.021621818882554246
166.0, 0.021017127619964354
167.0, 0.01721206741460419
168.0, 0.02301385512758738
169.0, 0.01936121662545817
170.0, 0.01585077486168076
171.0, 0.021977994540790243
172.0, 0.007602463235424675
173.0, 0.012843509699444805
174.0, 0.029561338708702836
175.0, 0.016469801145339462
176.0, 0.01917674703549709
177.0, 0.025359956345046016
178.0, 0.029891151295201875
179.0, 0.016358114416697787
180.0, 0.0225786277227975
181.0, 0.03211487392621155
182.0, 0.02093088518325218
183.0, 0.017914833640382544
184.0, 0.017845425699155208
185.0, 0.01936035852360427
186.0, 0.019110834636535165
187.0, 0.02424031793535611
188.0, 0.028268688861261704
189.0, 0.027352938610418653
190.0, 0.021932323121071323
191.0, 0.022907242181968743
192.0, 0.0298577096826926
193.0, 0.04304203254724897
194.0, 0.03843692075128593
195.0, 0.037890878344464224
196.0, 0.04309214611868376
197.0, 0.03186754842278392
198.0, 0.030974644652714076
199.0, 0.03728133604475889
200.0, 0.04973458277659815
201.0, 0.04985208391724628
202.0, 0.0506512494361363
203.0, 0.05259708061193767
204.0, 0.05609221082741759
205.0, 0.05247047257208739
206.0, 0.04945136274338819
207.0, 0.048310181030505134
208.0, 0.04374294588459051
209.0, 0.04368880669801372
210.0, 0.038677469363892256
211.0, 0.020551302100615232
212.0, 0.027302070000004824
213.0, 0.020234206575190324
214.0, 0.005991418023868851
215.0, 0.0028366228931413135
216.0, 0.002425341604539502
217.0, 0.003658946218197047
218.0, 0.006104693153848154
219.0, 0.007836391049766023
220.0, 0.005831360935562805
221.0, 0.003242640653643747
222.0, 0.002311035506456044
223.0, 0.002366034213443456
224.0, 0.0048608807649133
225.0, 0.010321927231736697
226.0, 0.020406965542427036
227.0, 0.01046865527760501
228.0, 0.009540808611844288
229.0, 0.020191281906477815
230.0, 0.016258831006887513
231.0, 0.017673653350177246
232.0, 0.016861631450568345
233.0, 0.008886743470361905
234.0, 0.01306777263304699
235.0, 0.015860653144595553
236.0, 0.016048303469505934
237.0, 0.011128157093965857
238.0, 0.013316147127541696
239.0, 0.015589686182770126
240.0, 0.016664458620610743
241.0, 0.015537079430396977
242.0, 0.0168954934515208
243.0, 0.01857867285749172
244.0, 0.01977195024042597
245.0, 0.02567474637549944
246.0, 0.03230642809996912
247.0, 0.03740031464725865
248.0, 0.03783263170902521
249.0, 0.025936005524114337
250.0, 0.028060604064823805
251.0, 0.036532776767644874
252.0, 0.01888294024630823
253.0, 0.033876377253795824
254.0, 0.043219607839065095
255.0, 0.03779020845481548
256.0, 0.04850055822846808
257.0, 0.062236636431591955
258.0, 0.07284740734254755
259.0, 0.07511605118918077
260.0, 0.08662550617188479
261.0, 0.08593232608855103
262.0, 0.08730770228079794
263.0, 0.1201588112195813
264.0, 0.12444124980033637
265.0, 0.13615780144169962
266.0, 0.15862110318628767
267.0, 0.17863177363525654
268.0, 0.2029612218922809
269.0, 0.23201622417125572
270.0, 0.2655659921849353
271.0, 0.2880033206021056
272.0, 0.337798863351131
273.0, 0.3911608840415581
274.0, 0.4239628852182171
275.0, 0.45057616557506536
276.0, 0.46271046502094065
277.0, 0.46503853236250897
278.0, 0.46831432478237306
279.0, 0.43576049666728833
280.0, 0.3959587987907472
281.0, 0.35588811082756244
282.0, 0.3220551091910781
283.0, 0.28419763309948837
284.0, 0.2522257232909504
285.0, 0.23060805544459856
286.0, 0.1984421895068506
287.0, 0.15114786401758096
288.0, 0.11516867292834083
289.0, 0.12073596743537843
290.0, 0.09861273275220249
291.0, 0.07928296759344015
292.0, 0.0707194947233804
293.0, 0.08904434498279172
294.0, 0.0582764569241698
295.0, 0.04784101466742945
296.0, 0.06089535258669147
297.0, 0.04206271572617468
298.0, 0.036897959452240114
299.0, 0.0377201668691275
300.0, 0.04146443192218158
301.0, 0.046359945296721064
302.0, 0.045490354151556216
303.0, 0.03635428454981058
304.0, 0.015748519978345296
305.0, 0.013948461109868915
306.0, 0.01559985704417369
307.0, 0.017590605688707472
308.0, 0.015103851008650976
309.0, 0.016395985208446165
310.0, 0.01898333039543255
311.0, 0.019596187819866155
312.0, 0.007247651581820225
313.0, 0.011147443933039718
314.0, 0.01116947570231267
315.0, 0.003211670009444611
316.0, 0.005606791146624542
317.0, 0.010935494041542322
318.0, 0.01164526568790476
319.0, 0.003411518585540737
320.0, 0.008152209576375207
321.0, 0.008495903724748583
322.0, 0.006089440520962358
323.0, 0.0024974935982410087
324.0, 0.0008460280739240409
325.0, 0.008051927977064046
326.0, 0.015916736654261056
327.0, 0.006288693931081138
328.0, 0.018579188018227798
329.0, 0.020548707264492233
330.0, 0.012321153138859963
331.0, 0.01422637763254465
332.0, 0.013781019252345149
333.0, 0.014106976217372003
334.0, 0.015172255226991999
335.0, 0.008401197474711186
336.0, 0.014970507965832191
337.0, 0.018403395033845155
338.0, 0.010045800227245834
339.0, 0.014434777142152012
340.0, 0.018835776403979362
341.0, 0.019056373772430215
342.0, 0.010502984862873044
343.0, 0.012403360255852116
344.0, 0.012653771671658527
345.0, 0.012028671327223997
346.0, 0.012442003972821811
347.0, 0.016374942059854136
348.0, 0.014469168942565475
349.0, 0.008836555819437078
350.0, 0.008229180448419002
351.0, 0.012664085542336499
352.0, 0.0177015555859282
353.0, 0.022211363858045365
354.0, 0.025433120286142804
355.0, 0.01859838941231234
356.0, 0.013413728743341319
357.0, 0.01414126761920406
358.0, 0.018554070490560962
359.0, 0.016154516965018254
360.0, 0.016206081824057566
361.0, 0.023576630119519784
362.0, 0.010288013627845146
363.0, 0.012229929508047736
364.0, 0.016998014530820685
365.0, 0.012804474076394982
366.0, 0.016075135872867893
367.0, 0.024109031096813865
368.0, 0.02957574224049058
369.0, 0.021206459081096394
370.0, 0.021892982089104614
371.0, 0.021712167083419796
372.0, 0.02080403829955018
373.0, 0.021364720985085194
374.0, 0.014739739117367097
375.0, 0.012827647035582574
376.0, 0.01917430902746435
377.0, 0.040076971648115224
378.0, 0.030938753535643546
379.0, 0.029718294501113313
380.0, 0.039228116670011394
381.0, 0.020660498463898357
382.0, 0.03979433009992981
383.0, 0.06666318979717795
384.0, 0.08635355182525704
385.0, 0.06721084343166453
386.0, 0.06174895964735471
387.0, 0.06904360229052765
388.0, 0.08694631525375712
389.0, 0.0722340230490518
390.0, 0.05212823327945208
391.0, 0.04104169048753562
392.0, 0.05050333974616302
393.0, 0.046478615909837054
394.0, 0.03470295875903281
395.0, 0.02428313296744805
396.0, 0.025456050645862035
397.0, 0.025218052557039614
398.0, 0.041431927107197335
399.0, 0.05218484507886371
400.0, 0.022938280573669444
401.0, 0.03768379969471048
402.0, 0.039658139301843844
403.0, 0.031785114413964144
404.0, 0.028007646738715742
405.0, 0.04629083863043738
406.0, 0.04272653936130326
407.0, 0.02584926580539437
408.0, 0.03256186510695304
409.0, 0.0425193193155684
410.0, 0.04573385702893225
411.0, 0.043483034673803315
412.0, 0.046593740788443715
413.0, 0.04856619079836361
414.0, 0.04828768667726881
415.0, 0.04671180689107919
416.0, 0.049673874539671446
417.0, 0.0598303309482302
418.0, 0.06167707606820779
419.0, 0.05463557074662544
420.0, 0.06701426098331784
421.0, 0.07357772079878515
422.0, 0.08351775345503401
423.0, 0.09586445548889913
424.0, 0.07025852248870833
425.0, 0.0968503663940651
426.0, 0.12699881441423816
427.0, 0.1373154542520359
428.0, 0.1363240359936808
429.0, 0.1656973012736594
430.0, 0.18920896186256422
431.0, 0.1883645137950107
432.0, 0.22639226111941127
433.0, 0.2852503438857078
434.0, 0.36115409585074787
435.0, 0.4506321569882325
436.0, 0.5097809477697894
437.0, 0.6110732443802398
438.0, 0.7260304074419127
439.0, 0.8313926003333821
440.0, 0.9323800372988985
441.0, 0.9827675812274254
442.0, 0.9949108238892086
443.0, 0.9797192534092332
444.0, 0.916291501886769
445.0, 0.8500434998029727
446.0, 0.7666816308209182
447.0, 0.6499074051839833
448.0, 0.5547865509687626
449.0, 0.4727198693812053
450.0, 0.395111987806553
451.0, 0.3118436210274126
452.0, 0.270592966687334
453.0, 0.23253571415243135
454.0, 0.2055059196811856
455.0, 0.2020920517895132
456.0, 0.14549050510230951
457.0, 0.12847975999199898
458.0, 0.12824370431870413
459.0, 0.10674389560623465
460.0, 0.10074533661042948
461.0, 0.08848849917793479
462.0, 0.07572708045630842
463.0, 0.07307826905963029
464.0, 0.09046560348739924
465.0, 0.07897410803723501
466.0, 0.05629843895868788
467.0, 0.055138317364512336
468.0, 0.07222173820700156
469.0, 0.06386142709926382
470.0, 0.04577576056405029
471.0, 0.04840166402628926
472.0, 0.06270625765158325
473.0, 0.05569399327027068
474.0, 0.04228969701033003
475.0, 0.051247787474805157
476.0, 0.032635729597550026
477.0, 0.028502101546283312
478.0, 0.03600017899990531
479.0, 0.04565168786756907
480.0, 0.04263399560850551
481.0, 0.03633352103330308
482.0, 0.03245584655386056
483.0, 0.03937536359291647
484.0, 0.046199609660627035
485.0, 0.03368976798048489
486.0, 0.01967502559557143
487.0, 0.03482203080889308
488.0, 0.03112809192392356
489.0, 0.024979884634741257
490.0, 0.02265133297363118
491.0, 0.03229826533333151
492.0, 0.017502848835336107
493.0, 0.016663572173959505
494.0, 0.025589739346186767
495.0, 0.03532406889323523
496.0, 0.02798112985960077
497.0, 0.028953605164686234
498.0, 0.028667577244231114
499.0, 0.012613077317825072
500.0, 0.024039386492658812
501.0, 0.02453922725724841
502.0, 0.017419887474703338
503.0, 0.008278832832074319
504.0, 0.017292709948541776
505.0, 0.014902370606299375
506.0, 0.009701211639333466
507.0, 0.011872967245002534
508.0, 0.011431279522652679
509.0, 0.010114775030054464
510.0, 0.011685021648989154
511.0, 0.019640551841980228
512.0, 0.011878462270422135
513.0, 0.018236793573531807
514.0, 0.020541506215946925
515.0, 0.004388868121383966
516.0, 0.02464436191601583
517.0, 0.02094104253917232
518.0, 0.015815340671622383
519.0, 0.02550731830498816
520.0, 0.0341291405492197
521.0, 0.023730985033479583
522.0, 0.01577980215952383
523.0, 0.021845668729512487
524.0, 0.011385930784241535
525.0, 0.013958732972614072
526.0, 0.012608258306147448
527.0, 0.0008670696195905666
528.0, 0.004411958686584599
529.0, 0.013863911133751974
530.0, 0.018742088337787715
531.0, 0.01786361644144107
532.0, 0.035254585489117286
533.0, 0.03540589188058112
534.0, 0.031112058845531837
535.0, 0.027270156186682697
536.0, 0.025397522063486645
537.0, 0.01938455298312699
538.0, 0.01155906812139616
539.0, 0.006219991853264423
540.0, 0.017360934157016294
541.0, 0.009562302331167432
542.0, 0.0028989861398035542
543.0, 0.004739983062988631
544.0, 0.02402837038086541
545.0, 0.015685220160036283
546.0, 0.012504281439950835
547.0, 0.01487029367121054
548.0, 0.011956651827690672
549.0, 0.011693378646755454
550.0, 0.012475165855934974
551.0, 0.014129474288785656
552.0, 0.01666876139861929
553.0, 0.01087735849163382
554.0, 0.011066915994395984
555.0, 0.013411138179714916
556.0, 0.011831994978811506
557.0, 0.0053516655144794706
558.0, 0.01592015051624635
559.0, 0.027552428277876483
560.0, 0.024212789805691495
561.0, 0.00918750351503071
562.0, 0.007188427887123045
563.0, 0.01136593280606477
564.0, 0.01554418757853138
565.0, 0.0038995445573038762
566.0, 0.004496270162919256
567.0, 0.010217133937308498
568.0, 0.01524995285706364
569.0, 0.004113285691293299
570.0, 0.009444836029570651
571.0, 0.013309702449713636
572.0, 0.01151955700282839
573.0, 0.01621951844913461
574.0, 0.014316989700023614
575.0, 0.017310238406648817
576.0, 0.021071093090148436
577.0, 0.0034164324269603183
578.0, 0.0043532145917709805
579.0, 0.0037981912874183394
580.0, 0.0015958087690108634
581.0, 0.004321982181619804
582.0, 0.012236275483656918
583.0, 0.010289920706536147
584.0, 0.00959326872105519
585.0, 0.027931810032586338
586.0, 0.017286558075309707
587.0, 0.0084503988121488
588.0, 0.013158302218798452
589.0, 0.04020291324064412
590.0, 0.028825849675930947
591.0, 0.033781693889396315
592.0, 0.034138157772364675
593.0, 0.017918395998803578
594.0, 0.006673727385275373
595.0, 0.0100105543121837
596.0, 0.012068590856394038
597.0, 0.011166272330707648
598.0, 0.03521166811843882
599.0, 0.018024437066988856
600.0, 0.008123261384022501
601.0, 0.014021580796386535
602.0, 0.020815409314552172
603.0, 0.007982058146331763
604.0, 0.010743428606258999
605.0, 0.02274544867511137
606.0, 0.0211301276057063
607.0, 0.02539250941814065
608.0, 0.029087759107097513
609.0, 0.03002117387321212
610.0, 0.0261758976523897
611.0, 0.02962287988862269
612.0, 0.023493740199263632
613.0, 0.014040865289910994
614.0, 0.0064077003418026805
615.0, 0.0022446409155317845
616.0, 0.015840472606788253
617.0, 0.027085757171911758
618.0, 0.027155939925297162
619.0, 0.02082217812984498
620.0, 0.02213241162657972
621.0, 0.021308597193483342
622.0, 0.015378034808031273
623.0, 0.003590314615252447
624.0, 0.029249551079562473
625.0, 0.03022854449611822
626.0, 0.016359948351143128
627.0, 0.020148150115035093
628.0, 0.016187950317181826
629.0, 0.02335265806147983
630.0, 0.02572351980797057
631.0, 0.007367531007935583
632.0, 0.008609417235410201
633.0, 0.029109235057700064
634.0, 0.03502548257892161
635.0, 0.013455172532774581
636.0, 0.02602251796016775
637.0, 0.013568928269960645
638.0, 0.01959041301118978
639.0, 0.04124325418974299
640.0, 0.014156843759091126
641.0, 0.023898012562255495
642.0, 0.0323262011657537
643.0, 0.03391572993707717
644.0, 0.030896386429498532
645.0, 0.01963960254419598
646.0, 0.016851321016656675
647.0, 0.02340279537132083
648.0, 0.03761621455794964
649.0, 0.016629380353301533
650.0, 0.015518622995810643
651.0, 0.014765017170963998
652.0, 0.006191513428634763
653.0, 0.017218342005220388
654.0, 0.03735912944737025
655.0, 0.03350442209596394
656.0, 0.013302012375805625
657.0, 0.03524835155273218
658.0, 0.013448517838115712
659.0, 0.01637895851999787
660.0, 0.03905887105511744
661.0, 0.056506129087993656
662.0, 0.029777226466190528
663.0, 0.02283679437777091
664.0, 0.023927717975628513
665.0, 0.021738559339369145
666.0, 0.032923787743995396
667.0, 0.023421387628479184
668.0, 0.017919595989507958
669.0, 0.021508959216196957
670.0, 0.003383159220999136
671.0, 0.027032213214897596
672.0, 0.03403734753461684
673.0, 0.0220345976853047
674.0, 0.014465203038663797
675.0, 0.03679692660011058
676.0, 0.039802282058702176
677.0, 0.034168286743218625
678.0, 0.035467827967958734
679.0, 0.02775275263072237
680.0, 0.025754677386579924
681.0, 0.02759547644730176
682.0, 0.030520053782106985
683.0, 0.025076476928333074
684.0, 0.049837781041898115
685.0, 0.06753105503051259
686.0, 0.06914653549618506
687.0, 0.05739263295185561
688.0, 0.05200870328947064
689.0, 0.04083079027953005
690.0, 0.03199592572450198
691.0, 0.03638239845787537
692.0, 0.049386409247498174
693.0, 0.0534756082016373
694.0, 0.05578072945104621
695.0, 0.06219017514421803
696.0, 0.0818306829082582
697.0, 0.06214593811763112
698.0, 0.06410326699294064
699.0, 0.08361538335848227
700.0, 0.07016144959203155
701.0, 0.0668751751663326
702.0, 0.06217077707427739
703.0, 0.06458645741789054
704.0, 0.08229766378834959
705.0, 0.04942549510872766
706.0, 0.05567829528125055
707.0, 0.09072517315060014
708.0, 0.1322903928025374
709.0, 0.09812865912412691
710.0, 0.07473634788445771
711.0, 0.081903019270766
712.0, 0.09617225855314389
713.0, 0.06025556211081963
714.0, 0.09990586027905059
715.0, 0.10424113761729002
716.0, 0.09876093804644653
717.0, 0.10926198885041521
718.0, 0.07638920797624944
719.0, 0.07427443860610122
720.0, 0.09785273726516742
721.0, 0.12961121059586267
722.0, 0.114435918207058
723.0, 0.10738796658270408
724.0, 0.11038770556996773
725.0, 0.11709129766900825
726.0, 0.11748967889130854
727.0, 0.11126523293405591
728.0, 0.12762016269627616
729.0, 0.13928397167032422
730.0, 0.13261439975034894
731.0, 0.1431630484283662
732.0, 0.1354224876828816
733.0, 0.1182422727992249
734.0, 0.10012675741778175
735.0, 0.09490413872165863
736.0, 0.09462230426850768
737.0, 0.09858929360369381
738.0, 0.10363881645681623
739.0, 0.10690890252523118
740.0, 0.11228169067662401
741.0, 0.13004193045616974
742.0, 0.12015314066599267
743.0, 0.08503449114237864
744.0, 0.08932489043552128
745.0, 0.10336664024613729
746.0, 0.1043346331329595
747.0, 0.09795573102207146
748.0, 0.09537154157989795
749.0, 0.059254611746514384
750.0, 0.0651847183864632
751.0, 0.07357184616777585
752.0, 0.07049442190391891
753.0, 0.09897569194534214
754.0, 0.08751622438878183
755.0, 0.10628840966394222
756.0, 0.13732576896071186
757.0, 0.12683292052220735
758.0, 0.08311510508761197
759.0, 0.07780678585979588
760.0, 0.07232350848477899
761.0, 0.04937670009324506
762.0, 0.08042957847482382
763.0, 0.06287496165192762
764.0, 0.0617231173912732
765.0, 0.07636523485650215
766.0, 0.07150779197233473
767.0, 0.031719107037411334
768.0, 0.05638063089996648
769.0, 0.07753203781750446
770.0, 0.048312750561655494
771.0, 0.06767026952507316
772.0, 0.06311841664750974
773.0, 0.04976630077382182
774.0, 0.04578572566074181
775.0, 0.08152329086796384
776.0, 0.032194094685388724
777.0, 0.04499795918810668
778.0, 0.07292147139509819
779.0, 0.06926800019817353
780.0, 0.06076336894486307
781.0, 0.05218424071264769
782.0, 0.048286232620446394
783.0, 0.04705661869768578
784.0, 0.04018519745411939
785.0, 0.04405998737383182
786.0, 0.049935843540196735
787.0, 0.05749077442690595
788.0, 0.06346657191804875
789.0, 0.037172968706812755
790.0, 0.04881037568211797
791.0, 0.055581730273448995
792.0, 0.05080320725027687
793.0, 0.05046447899777093
794.0, 0.059363739337523064
795.0, 0.06002328713605743
796.0, 0.06565482955815384
797.0, 0.08083015409149358
798.0, 0.047649868277555206
799.0, 0.062033900682359755
800.0, 0.05912252403773992
801.0, 0.04205879683217553
802.0, 0.056003384113878604
803.0, 0.05383713614595044
804.0, 0.044213485086107736
805.0, 0.052513491804290546
806.0, 0.07999215912184789
807.0, 0.01777645878566269
808.0, 0.0538187194834683
809.0, 0.07239460593761386
810.0, 0.06050356113793149
811.0, 0.0456453675803026
812.0, 0.048293101239339144
813.0, 0.046400655290790065
814.0, 0.03818296332125627
815.0, 0.0298062535128614
816.0, 0.05400316665758413
817.0, 0.05364766527875493
818.0, 0.04852721141628879
819.0, 0.043417421233929936
820.0, 0.04070206040598046
821.0, 0.0643888538692388
822.0, 0.08737939309127606
823.0, 0.08195599642337696
824.0, 0.05643971577889213
825.0, 0.08338839470707436
826.0, 0.0683581985486848
827.0, 0.061276239234875275
828.0, 0.05504190496816579
829.0, 0.04052747352265269
830.0, 0.07195601694454375
831.0, 0.08657839581492989
832.0, 0.0823445337673504
833.0, 0.06250223345018746
834.0, 0.036338517659093614
835.0, 0.03248061808958542
836.0, 0.04256240730483394
837.0, 0.04884966981210376
838.0, 0.04154779993728136
839.0, 0.04214950269661598
840.0, 0.05689093608429187
841.0, 0.05643630150268584
842.0, 0.05725466635836454
843.0, 0.09166861688373948
844.0, 0.042218294976800894
845.0, 0.026349761500452994
846.0, 0.040474677935271396
847.0, 0.06181600564425972
848.0, 0.023241868835271982
849.0, 0.029633081635491863
850.0, 0.025449762501930782
851.0, 0.025562183199979785
852.0, 0.047091687801526186
853.0, 0.05555172160879829
854.0, 0.03430644887905439
855.0, 0.016153251247227843
856.0, 0.01891448514883085
857.0, 0.05634623519255635
858.0, 0.05489008710641189
859.0, 0.03572692347421416
860.0, 0.01693090292136486
861.0, 0.010711326794143277
862.0, 0.02070761128582459
863.0, 0.019140126807592115
864.0, 0.010118936787531917
865.0, 0.012313834465246455
866.0, 0.040264415567213434
867.0, 0.031485418960607525
868.0, 0.030163489205093468
869.0, 0.040368313812793384
870.0, 0.05181851150579881
871.0, 0.04111029958943043
872.0, 0.04200282744401318
873.0, 0.033985393833397444
874.0, 0.029298339518749588
875.0, 0.030928353937961162
876.0, 0.017923808488167336
877.0, 0.021636424616699085
878.0, 0.016206943561906155
879.0, 0.009000675930758935
880.0, 0.012106934552006243
881.0, 0.026516882229140434
882.0, 0.02361510669429461
883.0, 0.018166691890028733
884.0, 0.018771503628789245
885.0, 0.032285161530762545
886.0, 0.03324169782451619
887.0, 0.02689064722142591
888.0, 0.014392105534935104
889.0, 0.009753737515722633
890.0, 0.05696707884639521
891.0, 0.06221823473204885
892.0, 0.051103153208106274
893.0, 0.03357022639682892
894.0, 0.018435126164410644
895.0, 0.017274624234312374
896.0, 0.02699683475481773
897.0, 0.03833605436369627
898.0, 0.038100323571137164
899.0, 0.013980333667742838
900.0, 0.03654662734494075
901.0, 0.03272248999628706
902.0, 0.022590418309540235
903.0, 0.017293724144219112
904.0, 0.022458007685492783
905.0, 0.03328238422368092
906.0, 0.021110184567921745
907.0, 0.01643099955841287
908.0, 0.03520142457174618
909.0, 0.05632355393508786
910.0, 0.04663165694639101
911.0, 0.02612605366365875
912.0, 0.011838169142587835
913.0, 0.01643839928156049
914.0, 0.027704229647944174
915.0, 0.02481779394294855
916.0, 0.0391522323845181
917.0, 0.05091184111177336
918.0, 0.022360509714617664
919.0, 0.010745509340268996
920.0, 0.04212676523265839
921.0, 0.050273666430522244
922.0, 0.027295918761901676
923.0, 0.015553427364868302
924.0, 0.016898400344749005
925.0, 0.02664198103718169
926.0, 0.028180112564192693
927.0, 0.01762911882043732
928.0, 0.01531516068944952
929.0, 0.019741123176292806
930.0, 0.019254722271870486
931.0, 0.015047049408337052
932.0, 0.01316639720329131
933.0, 0.035288512070165645
934.0, 0.019355460694108144
935.0, 0.006145962418537325
936.0, 0.0117339527982071
937.0, 0.0376163560062156
938.0, 0.006896560565141206
939.0, 0.03507036424675655
940.0, 0.035001911955361766
941.0, 0.011684872099369577
942.0, 0.011576133033262635
943.0, 0.04031699747535674
944.0, 0.03580719509874646
945.0, 0.01934417689152759
946.0, 0.0062499192473627445
947.0, 0.00959164825041436
948.0, 0.03611090511690368
949.0, 0.03154484276148764
950.0, 0.023335829200991812
951.0, 0.02219403798214034
952.0, 0.013946067879804428
953.0, 0.030226870113794276
954.0, 0.01971446254185024
955.0, 0.012859004210273984
956.0, 0.02565966927935115
957.0, 0.028638893378834688
958.0, 0.025363444972059248
959.0, 0.030923517000043074
960.0, 0.028916988894529587
961.0, 0.011605174086015097
962.0, 0.02123706122743968
963.0, 0.017659183708103196
964.0, 0.011433151511786446
965.0, 0.008806589948751055
966.0, 0.013490488594444034
967.0, 0.018360808182218802
968.0, 0.02006378512232723
969.0, 0.018231494981056553
970.0, 0.012408776550058256
971.0, 0.004182804901474714
972.0, 0.015095646395166733
973.0, 0.008390018200562857
974.0, 0.01935770751159099
975.0, 0.03435607670299502
976.0, 0.020661622213238334
977.0, 0.04545470700405352
978.0, 0.04342149038678313
979.0, 0.024936465737617187
980.0, 0.013065705676079419
981.0, 0.038974120051516126
982.0, 0.02817198778936661
983.0, 0.015145435662423955
984.0, 0.042753812590595824
985.0, 0.07434392617376433
986.0, 0.0015974022752165407
987.0, 0.03475033194778426
988.0, 0.04552204319492671
989.0, 0.03521902025287871
990.0, 0.025880342266597155
991.0, 0.06454916710842615
992.0, 0.04169177676708505
993.0, 0.03532263027504985
994.0, 0.03371312004174944
995.0, 0.0316433579713034
996.0, 0.03482868153834124
997.0, 0.05478553937065207
998.0, 0.05414830005062726
999.0, 0.051990139973077755
1000.0, 0.048871460321912925
1001.0, 0.011668012883941717
1002.0, 0.060858229968368246
1003.0, 0.043166687294714255
1004.0, 0.019343290979437662
1005.0, 0.029611823048099877
1006.0, 0.06150399661413937
1007.0, 0.04995505540209893
1008.0, 0.043322659166668054
1009.0, 0.03875193473007763
1010.0, 0.03706245561583736
1011.0, 0.053295445928373826
1012.0, 0.05210523697014862
1013.0, 0.0632355814690793
1014.0, 0.06481560467647829
1015.0, 0.04966742426476996
1016.0, 0.04717776220691733
1017.0, 0.03189142782466638
1018.0, 0.028283322026336395
1019.0, 0.041240725739265176
1020.0, 0.058942281572940486
1021.0, 0.03744623791497425
1022.0, 0.0668157634106146
1023.0, 0.08047279955300311
1024.0, 0.06494054230317695
1025.0, 0.037743816953962346
1026.0, 0.0711021114093449
1027.0, 0.05092342727680127
1028.0, 0.05417171354325772
1029.0, 0.060717313589356746
1030.0, 0.060606848950190736
1031.0, 0.07542092404256487
1032.0, 0.06627565405026296
1033.0, 0.05505279049882833
1034.0, 0.04246846070585754
1035.0, 0.038370412705557036
1036.0, 0.07139552107735292
1037.0, 0.05113394408850611
1038.0, 0.05335443059658565
1039.0, 0.06519505226149859
1040.0, 0.07148343626786205
1041.0, 0.05929201621234919
1042.0, 0.07754497789055752
1043.0, 0.06787643946671813
1044.0, 0.06625350879938346
1045.0, 0.09248497605562607
1046.0, 0.14286472918007767
1047.0, 0.10322009840548418
1048.0, 0.07247273542089
1049.0, 0.06105581080224363
1050.0, 0.07528145476967174
1051.0, 0.11725797041541598
1052.0, 0.06365769180213951
1053.0, 0.08460786865181869
1054.0, 0.08873817167787605
1055.0, 0.062021061690609
1056.0, 0.05303358804587962
1057.0, 0.04743027807681466
1058.0, 0.04357795376212906
1059.0, 0.04260658354555582
1060.0, 0.04667571954929567
1061.0, 0.05683344017412559
1062.0, 0.048667928551549444
1063.0, 0.04923796169369958
1064.0, 0.04550499242506347
1065.0, 0.04087580502027863
1066.0, 0.043241573390058644
1067.0, 0.031355622148687284
1068.0, 0.03015348361082964
1069.0, 0.052717898487519545
1070.0, 0.06248439918972919
1071.0, 0.03161880286732621
1072.0, 0.07660050707499003
1073.0, 0.0629143719613564
1074.0, 0.036125284067101075
1075.0, 0.025852181369412554
1076.0, 0.04441370786475207
1077.0, 0.05474837242054673
1078.0, 0.038653117738003145
1079.0, 0.025965073799338708
1080.0, 0.03841245199278601
1081.0, 0.06997007264459926
1082.0, 0.05212933379235606
1083.0, 0.060026347016034
1084.0, 0.062313821844042015
1085.0, 0.07873320155094105
1086.0, 0.10674707976813246
1087.0, 0.10469103136556143
1088.0, 0.09450137434788465
1089.0, 0.08312551600620892
1090.0, 0.07403209927897206
1091.0, 0.06677905232824254
1092.0, 0.05730235087671212
1093.0, 0.04494899532212511
1094.0, 0.031409415294502044
1095.0, 0.026189977663294572
1096.0, 0.026476881430922684
1097.0, 0.02385984204643017
1098.0, 0.030319590928512503
1099.0, 0.0357283569156248
1100.0, 0.03684230325016083
1101.0, 0.04138910370024476
1102.0, 0.05045235039372187
1103.0, 0.011525611933427611
1104.0, 0.04060889210805542
1105.0, 0.03221103572994252
1106.0, 0.026077194048460116
1107.0, 0.047492847243906317
1108.0, 0.010862667124719286
1109.0, 0.04701371688291718
1110.0, 0.027369147427332992
1111.0, 0.020147829470776174
1112.0, 0.041939869522514966
1113.0, 0.012420439247518587
1114.0, 0.00507804830148309
1115.0, 0.02017388141643523
1116.0, 0.023793299109315914
1117.0, 0.01852936562320906
1118.0, 0.03238710044753653
1119.0, 0.02457582690897347
1120.0, 0.031929704472728665
1121.0, 0.026849898816432526
1122.0, 0.01808937810881336
1123.0, 0.024017993328832754
1124.0, 0.032148791781428536
1125.0, 0.028865917498225216
1126.0, 0.01932000805756612
1127.0, 0.009312382639524311
1128.0, 0.005608262774102004
1129.0, 0.016955066782449017
1130.0, 0.008503327272230288
1131.0, 0.020517320193650435
1132.0, 0.030838611453390053
1133.0, 0.027972379113367838
1134.0, 0.019513003984836068
1135.0, 0.011189044976167052
1136.0, 0.004260789464977009
1137.0, 0.03163785596285527
1138.0, 0.05569431186579853
1139.0, 0.019179250465495207
1140.0, 0.047105900258458476
1141.0, 0.021316817579207455
1142.0, 0.009938843524260726
1143.0, 0.011091177790403839
1144.0, 0.009581852397137321
1145.0, 0.00838830367323433
1146.0, 0.026246709519974886
1147.0, 0.03389055934234625
1148.0, 0.03717209206310391
1149.0, 0.03715486408514308
1150.0, 0.024208778165436526
1151.0, 0.01703642277293048
1152.0, 0.010203355587153226
1153.0, 0.02652345012490194
1154.0, 0.05378094204194581
1155.0, 0.058812933072838046
1156.0, 0.013719961801491716
1157.0, 0.048085882555018625
1158.0, 0.04509036396762984
1159.0, 0.02508401202965108
1160.0, 0.026749284745802973
1161.0, 0.043821592448906134
1162.0, 0.04936521531368587
1163.0, 0.04483243391914396
1164.0, 0.0445165838189739
1165.0, 0.046462163943982934
1166.0, 0.03190845631104973
1167.0, 0.04070373942771005
1168.0, 0.046879800621758755
1169.0, 0.046681250438376495
1170.0, 0.04944437348030899
1171.0, 0.061580048469951826
1172.0, 0.04583142487072114
1173.0, 0.03426348914036715
1174.0, 0.04633866407732935
1175.0, 0.049365198103809675
1176.0, 0.03752727569943845
1177.0, 0.06486555680067428
1178.0, 0.0629866875224394
1179.0, 0.030571207051191575
1180.0, 0.03735499875079465
1181.0, 0.06579815011781849
1182.0, 0.05247160069528846
1183.0, 0.05502921436567073
1184.0, 0.0748223873925121
1185.0, 0.07891828377680467
1186.0, 0.08344713750886146
1187.0, 0.0931914516590765
1188.0, 0.05888659521611059
1189.0, 0.0776757457314794
1190.0, 0.07109104923002074
1191.0, 0.0591672848352346
1192.0, 0.05818252891023098
1193.0, 0.07281078494545964
1194.0, 0.07108873209465597
1195.0, 0.05220421521459668
1196.0, 0.05018023512121637
1197.0, 0.06058911878923763
1198.0, 0.0690066110380485
1199.0, 0.06608768350441796
1200.0, 0.045304453926325816
1201.0, 0.06551665383889774
1202.0, 0.07003670762292895
1203.0, 0.06442341540917496
1204.0, 0.10226938714173577
1205.0, 0.03778962252390956
1206.0, 0.07430272164864471
1207.0, 0.07696650404275163
1208.0, 0.06441462497809702
1209.0, 0.07076331570696132
1210.0, 0.043792477978530135
1211.0, 0.0520689421468608
1212.0, 0.06337067610312842
1213.0, 0.062275716789886186
1214.0, 0.05679299170319758
1215.0, 0.06806761749367497
1216.0, 0.05276968327984249
1217.0, 0.06373699228468807
1218.0, 0.05487046801681015
1219.0, 0.04494981147801494
1220.0, 0.04993207451737251
1221.0, 0.03955745786918092
1222.0, 0.04183903707916236
1223.0, 0.04827458131708311
1224.0, 0.038758128839828015
1225.0, 0.03144968944122782
1226.0, 0.060205756633776794
1227.0, 0.07909194228872514
1228.0, 0.05593484695741953
1229.0, 0.039972376182136796
1230.0, 0.04788977666396097
1231.0, 0.07048393769988669
1232.0, 0.06865124411957205
1233.0, 0.05318064181969702
1234.0, 0.03497376198264242
1235.0, 0.04508638541373705
1236.0, 0.07204478086801305
1237.0, 0.08296804097735078
1238.0, 0.049803222335547556
1239.0, 0.052689918160898845
1240.0, 0.0569423672363774
1241.0, 0.06023012343756525
1242.0, 0.06201005837661517
1243.0, 0.060160675722084056
1244.0, 0.056124776505946355
1245.0, 0.057277071087749286
1246.0, 0.055962672505900334
1247.0, 0.05771364103946318
1248.0, 0.06718630644822456
1249.0, 0.07727869150289943
1250.0, 0.06400749093287299
1251.0, 0.08045364681983866
1252.0, 0.07111782327427536
1253.0, 0.04182960560556231
1254.0, 0.035225094231293066
1255.0, 0.05374348376791714
1256.0, 0.04693202852905263
1257.0, 0.03703178628854906
1258.0, 0.022478438546888496
1259.0, 0.01839594080402803
1260.0, 0.05626359991011421
1261.0, 0.04329241594785346
1262.0, 0.10464722610254948
1263.0, 0.08800386684398383
1264.0, 0.04343784574503323
1265.0, 0.0454519808314895
1266.0, 0.06069165048691365
1267.0, 0.04402667918982591
1268.0, 0.03958933581192662
1269.0, 0.04238771316863619
1270.0, 0.04452292815714616
1271.0, 0.037005685659540655
1272.0, 0.007774864598654226
1273.0, 0.034063875462206225
1274.0, 0.02027658971917313
1275.0, 0.003071786644907694
1276.0, 0.0076466635862989605
1277.0, 0.02693793981692525
1278.0, 0.03661281126199097
1279.0, 0.020427974012825312
1280.0, 0.03207703502599262
1281.0, 0.06553029733285437
1282.0, 0.09140167189046973
1283.0, 0.07170617770543994
1284.0, 0.03162298039103134
1285.0, 0.013940676254507275
1286.0, 0.024114170120223107
1287.0, 0.04109928853539631
1288.0, 0.03943205244308553
1289.0, 0.011904137744423563
1290.0, 0.030664977574859382
1291.0, 0.013662594760631329
1292.0, 0.012443243062145656
1293.0, 0.020989655666286366
1294.0, 0.007815022223374308
1295.0, 0.00834250801783901
1296.0, 0.012855024383381985
1297.0, 0.00917656671259525
1298.0, 0.003942525043049627
1299.0, 0.002012941742040579
1300.0, 0.003606311565730338
1301.0, 0.003741609994525873
1302.0, 0.02158932185815936
1303.0, 0.018037559469786378
1304.0, 0.006606270032834807
1305.0, 0.006271360297103233
1306.0, 0.02509713697585347
1307.0, 0.019169521039046202
1308.0, 0.028818869835836494
1309.0, 0.03475634741857049
1310.0, 0.031945656057661496
1311.0, 0.031660544064300244
1312.0, 0.05982114045103649
1313.0, 0.02276285053416534
1314.0, 0.024287451058459263
1315.0, 0.028894570763712102
1316.0, 0.030894383432760623
1317.0, 0.03137562135720773
1318.0, 0.021977442394382457
1319.0, 0.003931405236128556
1320.0, 0.018647714656154772
1321.0, 0.03865866436730255
1322.0, 0.041819306857954944
1323.0, 0.024262546198758273
1324.0, 0.01847085949261471
1325.0, 0.03358609747840516
1326.0, 0.01747814192046143
1327.0, 0.03141637170343299
1328.0, 0.0483544193929468
1329.0, 0.020934622906903514
1330.0, 0.004328270451624566
1331.0, 0.006681786205026798
1332.0, 0.013013232031172535
1333.0, 0.02823816652318785
1334.0, 0.036650653146108256
1335.0, 0.02329677207349773
1336.0, 0.025493669932035185
1337.0, 0.03309944736268494
1338.0, 0.021325508849101765
1339.0, 0.013896221409444222
1340.0, 0.020172778358140214
1341.0, 0.031165950558624082
1342.0, 0.01997950056142126
1343.0, 0.03545984304109867
1344.0, 0.03482101078617729
1345.0, 0.03079352041373886
1346.0, 0.0407055124762078
1347.0, 0.06679103321600403
1348.0, 0.05103562977043413
1349.0, 0.07873085919240141
1350.0, 0.07077872546995412
1351.0, 0.05496422180284719
1352.0, 0.051511077764205444
1353.0, 0.05961023775166982
1354.0, 0.05465833953378687
1355.0, 0.060523345901254445
1356.0, 0.07075439581079113
1357.0, 0.06386629855033231
1358.0, 0.050113878425985976
1359.0, 0.05764088020501146
1360.0, 0.08174221497988704
1361.0, 0.05585335653060355
1362.0, 0.047271779351680636
1363.0, 0.05070876910380318
1364.0, 0.0522813436489724
1365.0, 0.04522109070535328
1366.0, 0.054221947937009775
1367.0, 0.09062898233940817
1368.0, 0.07940950682988925
1369.0, 0.07356393652939969
1370.0, 0.08265641222747692
1371.0, 0.08007249347780131
1372.0, 0.046383161925686985
1373.0, 0.06713003453346188
1374.0, 0.042462936030139405
1375.0, 0.04297239516527667
1376.0, 0.07051035011144363
1377.0, 0.08536232446344286
1378.0, 0.07314549931982155
1379.0, 0.05021885661778544
1380.0, 0.0321180591085215
1381.0, 0.035335080611815894
1382.0, 0.05297959642617527
1383.0, 0.06360453551130521
1384.0, 0.04325848761333148
1385.0, 0.0720634652317963
1386.0, 0.07794748368158048
1387.0, 0.07217483140062209
1388.0, 0.05394080681344145
1389.0, 0.0386219150013521
1390.0, 0.07675588555440856
1391.0, 0.05194747737569459
1392.0, 0.061187851166478846
1393.0, 0.052304089337161457
1394.0, 0.045732029145752674
1395.0, 0.06186004174274879
1396.0, 0.07951267037244017
1397.0, 0.046581980341534504
1398.0, 0.04797417350313796
1399.0, 0.053109184812180146
1400.0, 0.06429263412148432
1401.0, 0.07536078517787985
1402.0, 0.06758993997105278
1403.0, 0.07256287052007496
1404.0, 0.055436821419988444
1405.0, 0.04996607088056502
1406.0, 0.046406582096962044
1407.0, 0.04530633288766671
1408.0, 0.05122995598057607
1409.0, 0.013275629274760468
1410.0, 0.05268742722697621
1411.0, 0.07883271594466375
1412.0, 0.059800254316102606
1413.0, 0.04378670343704437
1414.0, 0.07049587077447911
1415.0, 0.013113176062619039
1416.0, 0.04923369995667545
1417.0, 0.05063952682489584
1418.0, 0.05412458370522869
1419.0, 0.05716837944935465
1420.0, 0.055489524509775186
1421.0, 0.07755145367624734
1422.0, 0.06541321709854189
1423.0, 0.058342623035946554
1424.0, 0.0396828324334903
1425.0, 0.03670468274329384
1426.0, 0.06420041395957439
1427.0, 0.09733692267569756
1428.0, 0.0623155726820665
1429.0, 0.04854328146177203
1430.0, 0.05755076507292881
1431.0, 0.05579334764560546
1432.0, 0.04617735129266151
1433.0, 0.05607844945543709
1434.0, 0.06278499793207666
1435.0, 0.04867998304935985
1436.0, 0.045235771203035145
1437.0, 0.046663316835562775
1438.0, 0.05862325139126874
1439.0, 0.07742395853868272
1440.0, 0.06536827442121101
1441.0, 0.0615099986653397
1442.0, 0.08219340318255636
1443.0, 0.07499332602634781
1444.0, 0.0618212614506608
1445.0, 0.07020711021325611
1446.0, 0.0912717726486891
1447.0, 0.04191049633291914
1448.0, 0.041294389349453176
1449.0, 0.055276560368763085
1450.0, 0.07187773421205831
1451.0, 0.06564447674667168
1452.0, 0.03526394854661365
1453.0, 0.09962259421699747
1454.0, 0.05194359464380588
1455.0, 0.0555484990693441
1456.0, 0.08479625647872327
1457.0, 0.07761064081052467
1458.0, 0.03312373279356373
1459.0, 0.0634430306970225
1460.0, 0.06782129576169403
1461.0, 0.03347217702904901
1462.0, 0.05841775556745281
1463.0, 0.0615021459175901
1464.0, 0.02756091670209285
1465.0, 0.03465425328584481
1466.0, 0.09012189369987728
1467.0, 0.0442961854945293
1468.0, 0.07038982924556056
1469.0, 0.047927530460764256
1470.0, 0.01410890195681323
1471.0, 0.04121349611521414
1472.0, 0.06949103560924891
1473.0, 0.08004177153392077
1474.0, 0.03310498570681045
1475.0, 0.03719309587838133
1476.0, 0.055329042505272645
1477.0, 0.04357876672959203
1478.0, 0.010423952740853846
1479.0, 0.03727691595404005
1480.0, 0.013706104610281843
1481.0, 0.02282789784601984
1482.0, 0.058535591449690325
1483.0, 0.06221610598689815
1484.0, 0.02078931492900872
1485.0, 0.0436916947010751
1486.0, 0.03282079401669056
1487.0, 0.015447342777777259
1488.0, 0.008669597594014174
1489.0, 0.005413553923334562
1490.0, 0.0016006022913497054
1491.0, 0.0027613485751923654
1492.0, 0.016919526325118513
1493.0, 0.003494577170795361
1494.0, 0.01994264021283731
1495.0, 0.01451111650554304
1496, 0.0
1497, 0.0
1498, 0.0
1499, 0.0
1500, 0.0
1501, 0.0
1502, 0.0
1503, 0.0
1504, 0.0
1505, 0.0
1506, 0.0
1507, 0.0
1508, 0.0
1509, 0.0
1510, 0.0
1511, 0.0
1512, 0.0
1513, 0.0
1514, 0.0
1515, 0.0
1516, 0.0
1517, 0.0
1518, 0.0
1519, 0.0
1520, 0.0
1521, 0.0
1522, 0.0
1523, 0.0
1524, 0.0
1525, 0.0
1526, 0.0
1527, 0.0
1528, 0.0
1529, 0.0
1530, 0.0
1531, 0.0
1532, 0.0
1533, 0.0
1534, 0.0
1535, 0.0
1536, 0.0
1537, 0.0
1538, 0.0
1539, 0.0
1540, 0.0
1541, 0.0
1542, 0.0
1543, 0.0
1544, 0.0
1545, 0.0
1546, 0.0
1547, 0.0
1548, 0.0
1549, 0.0
1550, 0.0
1551, 0.0
1552, 0.0
1553, 0.0
1554, 0.0
1555, 0.0
1556, 0.0
1557, 0.0
1558, 0.0
1559, 0.0
1560, 0.0
1561, 0.0
1562, 0.0
1563, 0.0
1564, 0.0
1565, 0.0
1566, 0.0
1567, 0.0
1568, 0.0
1569, 0.0
1570, 0.0
1571, 0.0
1572, 0.0
1573, 0.0
1574, 0.0
1575, 0.0
1576, 0.0
1577, 0.0
1578, 0.0
1579, 0.0
1580, 0.0
1581, 0.0
1582, 0.0
1583, 0.0
1584, 0.0
1585, 0.0
1586, 0.0
1587, 0.0
1588, 0.0
1589, 0.0
1590, 0.0
1591, 0.0
1592, 0.0
1593, 0.0
1594, 0.0
1595, 0.0
1596, 0.0
1597, 0.0
1598, 0.0
1599, 0.0
