30, 0.0
31, 0.0
32, 0.0
33, 0.0
34, 0.0
35, 0.0
36, 0.0
37, 0.0
38, 0.0
39, 0.0
40, 0.0
41, 0.0
42, 0.0
43, 0.0
44, 0.0
45, 0.0
46, 0.0
47, 0.0
48, 0.0
49, 0.0
50, 0.0
51, 0.0
52, 0.0
53, 0.0
54, 0.0
55, 0.0
56, 0.0
57, 0.0
58, 0.0
59, 0.0
60, 0.0
61, 0.0
62, 0.0
63, 0.0
64, 0.0
65, 0.0
66, 0.0
67, 0.0
68, 0.0
69, 0.0
70, 0.0
71, 0.0
72, 0.0
73, 0.0
74, 0.0
75, 0.0
76, 0.0
77, 0.0
78, 0.0
79, 0.0
80, 0.0
81, 0.0
82, 0.0
83, 0.0
84, 0.0
85, 0.0
86, 0.0
87, 0.0
88, 0.0
89, 0.0
90, 0.0
91, 0.0
92, 0.0
93, 0.0
94, 0.0
95, 0.0
96.0, 0.0001685884566085651
97.0, 0.003410674160619012
98.0, 0.00409110664890401
99.0, 0.004155407501545209
100.0, 0.0030280212794627204
101.0, 0.00016727704832067447
102.0, 0.00039516059690113445
103.0, 0.0014802147525720406
104.0, 0.004198675556375094
105.0, 0.009335910512033356
106.0, 0.016870278543071507
107.0, 0.025129940589824446
108.0, 0.03769879267304027
109.0, 0.044828570582912654
110.0, 0.043894114856524204
111.0, 0.03669701399769363
112.0, 0.029237772277481866
113.0, 0.023851985167590996
114.0, 0.019559289982668236
115.0, 0.015925450485743224
116.0, 0.013673528428007212
117.0, 0.013519740770121635
118.0, 0.012206619497029478
119.0, 0.01651746436456892
120.0, 0.020925215856169067
121.0, 0.025100694432996153
122.0, 0.02885475590072813
123.0, 0.029097605363860427
124.0, 0.02357173911851853
125.0, 0.02008538898011131
126.0, 0.015922408197836167
127.0, 0.011715236366284378
128.0, 0.01259358548750575
129.0, 0.009738566058340361
130.0, 0.01090387787643894
131.0, 0.01328066259664267
132.0, 0.014820421110732496
133.0, 0.014454253289848696
134.0, 0.014203785699830475
135.0, 0.018278281413178925
136.0, 0.023995845176057292
137.0, 0.030492474027845284
138.0, 0.03733429729910353
139.0, 0.04433831206064458
140.0, 0.05816386804288807
141.0, 0.0676920415195904
142.0, 0.07562239073690831
143.0, 0.0830432918587849
144.0, 0.0888110461867759
145.0, 0.09489421014857491
146.0, 0.09734385835762749
147.0, 0.09398992771099594
148.0, 0.08512826838513893
149.0, 0.07320407310769513
150.0, 0.06457066966826612
151.0, 0.055543512582178586
152.0, 0.05036725717261382
153.0, 0.04787782744806013
154.0, 0.04671629347253417
155.0, 0.04657730414241609
156.0, 0.049276585956548394
157.0, 0.0486070725889522
158.0, 0.04629890502949677
159.0, 0.04247338334984704
160.0, 0.03646606293292709
161.0, 0.029701305561357104
162.0, 0.023047084987602728
163.0, 0.01804365304339045
164.0, 0.012527332566772159
165.0, 0.00637601784314926
166.0, 0.006136694620220135
167.0, 0.004189397435655906
168.0, 0.0016989670014026614
169.0, 0.0019222161272208428
170.0, 0.003428360303699871
171.0, 0.0014614380999370233
172.0, 0.00062198643419837
173.0, 0.002545315617883766
174.0, 0.0035746924251833325
175.0, 0.0035419017046818156
176.0, 0.0037878800359905764
177.0, 0.00677540293304167
178.0, 0.008545799653424974
179.0, 0.0088414544084278
180.0, 0.008002101443756163
181.0, 0.0076055405523760885
182.0, 0.009742147239050227
183.0, 0.006641979364356805
184.0, 0.00663019229762346
185.0, 0.007344387076231993
186.0, 0.007348595190533816
187.0, 0.006499814240563851
188.0, 0.007764922342799129
189.0, 0.01003232561032264
190.0, 0.013931844905936248
191.0, 0.018308401305480757
192.0, 0.022820657407222115
193.0, 0.02814620762140138
194.0, 0.032929433326563604
195.0, 0.03946422190582786
196.0, 0.04547148057532714
197.0, 0.04795431689953335
198.0, 0.04581222791492409
199.0, 0.04463521567306592
200.0, 0.03836739032143496
201.0, 0.032313013385819114
202.0, 0.027446697629712524
203.0, 0.023715992616397754
204.0, 0.02036950432898832
205.0, 0.016981779447227653
206.0, 0.01322598661548004
207.0, 0.010482896533149084
208.0, 0.007478425153402597
209.0, 0.0036051602132701425
210.0, 0.002721974002897987
211.0, 0.0010007763322848154
212.0, 0.0005726720306083122
213.0, 0.0006379306756993428
214.0, 0.0006919764982651005
215.0, 0.0008603383533234326
216.0, 0.002901254587484384
217.0, 0.0035010560815140197
218.0, 0.001969642623370565
219.0, 0.0009404286199285194
220.0, 0.0019186732752099777
221.0, 0.0019485159182237475
222.0, 0.0016400388773976273
223.0, 0.0010292877460781052
224.0, 0.0022314637279980763
225.0, 0.0038347678779617807
226.0, 0.003372990325008905
227.0, 0.007032804113078023
228.0, 0.007014285900034717
229.0, 0.006576291961992495
230.0, 0.006200049428677733
231.0, 0.00614157574206524
232.0, 0.006947567709931103
233.0, 0.007061775127634258
234.0, 0.006787618224912526
235.0, 0.007806823766584862
236.0, 0.00992997445158435
237.0, 0.01186331567529519
238.0, 0.011624719883037326
239.0, 0.009614571763077867
240.0, 0.012356437889645253
241.0, 0.01520912780695822
242.0, 0.01575087098651933
243.0, 0.015266576088321986
244.0, 0.018417595312733508
245.0, 0.019935011507824115
246.0, 0.02066576547106482
247.0, 0.02127288890351003
248.0, 0.02170923848958067
249.0, 0.02064865840585924
250.0, 0.02018544202193737
251.0, 0.01795675112823103
252.0, 0.016889706468762773
253.0, 0.016608022736244055
254.0, 0.0156358654291424
255.0, 0.016328588965505902
256.0, 0.01657519752825798
257.0, 0.016736955877850988
258.0, 0.01745606065046922
259.0, 0.017757353572431307
260.0, 0.015544904830340479
261.0, 0.015048976149293873
262.0, 0.012955964988679063
263.0, 0.013075202671888884
264.0, 0.014145978763703623
265.0, 0.014207236058690214
266.0, 0.01287337546047394
267.0, 0.017100473972792806
268.0, 0.021532888053522475
269.0, 0.02367378621978753
270.0, 0.02452298283616421
271.0, 0.027134418803951336
272.0, 0.035228248467730316
273.0, 0.03789606027557702
274.0, 0.04126650094429413
275.0, 0.043800205995337425
276.0, 0.044091690836968796
277.0, 0.04203316165867745
278.0, 0.04112219064561919
279.0, 0.03955697209903139
280.0, 0.040333827406126566
281.0, 0.0403015686015521
282.0, 0.03861883339908899
283.0, 0.03935284890740901
284.0, 0.040025574480854274
285.0, 0.04341400195017379
286.0, 0.04588301228144709
287.0, 0.04627308825360547
288.0, 0.04467597574835316
289.0, 0.04173893267722255
290.0, 0.04311784524212876
291.0, 0.0442645052181601
292.0, 0.044310398276143914
293.0, 0.04421622560479428
294.0, 0.045247760117062004
295.0, 0.04591279658404467
296.0, 0.04963769284237532
297.0, 0.053089885628195665
298.0, 0.05778049157040786
299.0, 0.06360271437960455
300.0, 0.06923018159360915
301.0, 0.0774582109622925
302.0, 0.0776231898362805
303.0, 0.07233085404548217
304.0, 0.06511015720701625
305.0, 0.05835997424598014
306.0, 0.052347787494368456
307.0, 0.044951496428021695
308.0, 0.03988597142869971
309.0, 0.03561809940804873
310.0, 0.03189329098657846
311.0, 0.028925638225110822
312.0, 0.027091158163836816
313.0, 0.026130347730165808
314.0, 0.024162699780949183
315.0, 0.02334093637156609
316.0, 0.022477464320210975
317.0, 0.020346124160670113
318.0, 0.018816652871864455
319.0, 0.020200659169434827
320.0, 0.018101927765063287
321.0, 0.01751855904664851
322.0, 0.01644948766777977
323.0, 0.012277138447869247
324.0, 0.012782005427192825
325.0, 0.014313977164289475
326.0, 0.012881656711661714
327.0, 0.011139437188513556
328.0, 0.01042995475993439
329.0, 0.010319452752415236
330.0, 0.008306491220807516
331.0, 0.011568238874821472
332.0, 0.010563463513913688
333.0, 0.009400396210265288
334.0, 0.009691822421365981
335.0, 0.009767901212566089
336.0, 0.008170196902640574
337.0, 0.007971492292583081
338.0, 0.0065174128317074895
339.0, 0.007409627680743016
340.0, 0.010800063730598936
341.0, 0.012962194976093607
342.0, 0.012471787881785821
343.0, 0.010450062379128728
344.0, 0.010564314342199174
345.0, 0.011079579202610329
346.0, 0.011157163403541726
347.0, 0.011879397793518685
348.0, 0.012836143724294343
349.0, 0.01407638360677278
350.0, 0.0152206520555863
351.0, 0.01604003129892921
352.0, 0.016951871963221544
353.0, 0.01861520375828026
354.0, 0.01654747107861587
355.0, 0.017873388909924702
356.0, 0.017625737424432075
357.0, 0.01788235677789697
358.0, 0.019071698204438138
359.0, 0.0179645214933608
360.0, 0.018284648404673597
361.0, 0.01800205354446559
362.0, 0.015893831465055543
363.0, 0.01707730539878628
364.0, 0.020904051663749642
365.0, 0.018312119809626756
366.0, 0.01675047102296592
367.0, 0.019584098331360333
368.0, 0.021457701901211112
369.0, 0.0195708983328443
370.0, 0.015646919509162086
371.0, 0.01567869090573614
372.0, 0.016299569882207057
373.0, 0.015655841397704102
374.0, 0.015325496523912139
375.0, 0.01435875930682201
376.0, 0.012065760366824158
377.0, 0.009201917566772548
378.0, 0.009262860137314612
379.0, 0.008501667955922271
380.0, 0.008169972804268077
381.0, 0.008155855246559922
382.0, 0.007399423251074148
383.0, 0.004942432449240487
384.0, 0.007977468391677229
385.0, 0.00772463680052986
386.0, 0.007316264649270787
387.0, 0.008121927943737062
388.0, 0.009974925651556624
389.0, 0.011669994722180301
390.0, 0.014638489646641675
391.0, 0.017567085251670726
392.0, 0.019502070689964714
393.0, 0.022054883228583545
394.0, 0.02479706295985522
395.0, 0.02550250552999586
396.0, 0.027015468560864203
397.0, 0.028122752798578676
398.0, 0.026519596022891646
399.0, 0.023483250792141412
400.0, 0.020781224158161908
401.0, 0.019718795462901735
402.0, 0.020333858603684567
403.0, 0.01638493137489517
404.0, 0.015122490878269784
405.0, 0.012826972342953814
406.0, 0.01086739963304926
407.0, 0.012549534679619815
408.0, 0.010043436782240829
409.0, 0.007556330170021614
410.0, 0.008833121169992679
411.0, 0.008212542655865943
412.0, 0.005634867121870475
413.0, 0.0040696960266452704
414.0, 0.0032667307398330306
415.0, 0.00595611772718059
416.0, 0.0056068790164824096
417.0, 0.005286600405967904
418.0, 0.0057639253477146405
419.0, 0.005970029604243879
420.0, 0.004077095066151064
421.0, 0.006463203412780101
422.0, 0.003688076057367524
423.0, 0.002113206647273273
424.0, 0.0039364037381341335
425.0, 0.0062532220568976785
426.0, 0.002000976850622801
427.0, 0.0013758420305702878
428.0, 0.0012350174020935138
429.0, 0.0017663900676873339
430.0, 0.002538252604217747
431.0, 0.002595653785337745
432.0, 0.0012778432483531105
433.0, 0.0031836523106265986
434.0, 0.0014402159073563783
435.0, 0.000641167512747898
436.0, 0.0018050909960706265
437.0, 0.0025692189747745404
438.0, 0.00028164982398264093
439.0, 0.0018923523013880238
440.0, 0.0010327785739416148
441.0, 0.0006637912263084767
442.0, 0.001025953095898994
443.0, 0.0013726998831026123
444.0, 0.00113489754392252
445.0, 0.0015424730071348879
446.0, 0.001404633654136734
447.0, 0.001542034328402637
448.0, 0.0009449725047130858
449.0, 0.000839392497638159
450.0, 0.0017354945702857637
451.0, 0.0013003947188657773
452.0, 0.0008316822240479969
453.0, 0.001140586156134014
454.0, 0.0015428960749013078
455.0, 0.001488734215484588
456.0, 0.0015985621146919588
457.0, 0.0030925364519557583
458.0, 0.0023746889838201163
459.0, 0.0007322491167981959
460.0, 0.0011253984764532463
461.0, 0.0011697641586767647
462.0, 0.00038237553116334834
463.0, 0.00048247557022371005
464.0, 0.0033195237848169697
465.0, 0.0035391640797533272
466.0, 0.002363057241650047
467.0, 0.001349407664264876
468.0, 0.001214996897455206
469.0, 0.0016390190545765829
470.0, 0.0014370458212021949
471.0, 0.0029147686467791804
472.0, 0.002498273676931587
473.0, 0.0016697265055446605
474.0, 0.0022874724449834876
475.0, 0.0030853352129363402
476.0, 0.0010304247659863961
477.0, 0.005398337498792991
478.0, 0.004817491047171165
479.0, 0.004468949065659731
480.0, 0.003318313639186157
481.0, 0.0028128195386265087
482.0, 0.004312212623123252
483.0, 0.002623315510144688
484.0, 0.006180600178744437
485.0, 0.008235850541579808
486.0, 0.00701704542467403
487.0, 0.0046081898062867305
488.0, 0.003745164323193748
489.0, 0.005197525802856314
490.0, 0.005700468691372677
491.0, 0.0033797225209443414
492.0, 0.0029715139982479976
493.0, 0.002295339049597644
494.0, 0.0025129064883760866
495.0, 0.005821627191750231
496.0, 0.0032856344920234645
497.0, 0.0023461723700774037
498.0, 0.0012848077422010465
499.0, 0.0014935433866865879
500.0, 0.0019368353772770946
501.0, 0.0026005932922248893
502.0, 0.006419857125875515
503.0, 0.0013783941178346212
504.0, 0.005419320537427219
505.0, 0.006616521089992025
506.0, 0.005460582483511258
507.0, 0.003974263447821363
508.0, 0.0031006013397944184
509.0, 0.004578734579198519
510.0, 0.0054570254909385605
511.0, 0.004577859716107165
512.0, 0.0056107318212966625
513.0, 0.006819963124372743
514.0, 0.0058878534544683095
515.0, 0.004573751640791126
516.0, 0.0038592932415584627
517.0, 0.005390003501609612
518.0, 0.005002279495845789
519.0, 0.005133882466615935
520.0, 0.004587083450521249
521.0, 0.0015303434770413795
522.0, 0.007721262463419277
523.0, 0.00496830203478143
524.0, 0.006254438562867221
525.0, 0.008215496633952608
526.0, 0.010142168930804267
527.0, 0.011476754531687363
528.0, 0.010109746674199388
529.0, 0.007749904087777575
530.0, 0.009515652458831299
531.0, 0.010660439741897289
532.0, 0.00973729856602737
533.0, 0.00880454330214346
534.0, 0.009657082139861323
535.0, 0.007633249636536212
536.0, 0.008988443815132861
537.0, 0.01270984923822639
538.0, 0.015695352286284575
539.0, 0.01559579174971044
540.0, 0.014730288386429343
541.0, 0.01805064120356191
542.0, 0.018094610602972603
543.0, 0.025470795042540084
544.0, 0.02468915644535656
545.0, 0.02464239567606949
546.0, 0.026518616829510882
547.0, 0.026992003804818327
548.0, 0.02522132089119375
549.0, 0.025906182093696592
550.0, 0.025056128173944148
551.0, 0.02462655684555415
552.0, 0.022649731169218725
553.0, 0.020502264290986134
554.0, 0.02063802859315864
555.0, 0.019126173370635522
556.0, 0.01968164846384782
557.0, 0.015918147538529468
558.0, 0.014509745058206838
559.0, 0.013780473775388602
560.0, 0.012782526019728202
561.0, 0.0132888452564345
562.0, 0.009937226803154835
563.0, 0.008178107070187093
564.0, 0.00787473608592031
565.0, 0.0073149559921973206
566.0, 0.006844289218868794
567.0, 0.006748966902507865
568.0, 0.005739873083062774
569.0, 0.004497874081925172
570.0, 0.006433618015937574
571.0, 0.005762601801161272
572.0, 0.006741113315163607
573.0, 0.007294016498384341
574.0, 0.0050778478019975
575.0, 0.00701287502591089
576.0, 0.004160052976497892
577.0, 0.002004101064484452
578.0, 0.003805491473330323
579.0, 0.004677395522896013
580.0, 0.0029911708616422953
581.0, 0.001897414480710206
582.0, 0.00520541461981577
583.0, 0.0037858741625017914
584.0, 0.0038585040440052326
585.0, 0.003134964765535862
586.0, 0.0032869868809246227
587.0, 0.0039395919783524755
588.0, 0.0029338936586819613
589.0, 0.003597549188852474
590.0, 0.0038363464014833145
591.0, 0.0028280262890166994
592.0, 0.0030116855988352315
593.0, 0.003065750089785412
594.0, 0.0020076676565231027
595.0, 0.0013627876801238568
596.0, 0.004050183453211268
597.0, 0.0013545807913549778
598.0, 0.004807353411190836
599.0, 0.004659957694995739
600.0, 0.003564592616910204
601.0, 0.0043003429214716156
602.0, 0.0029409465572928788
603.0, 0.003932294365512538
604.0, 0.002498586426566124
605.0, 0.0028144874366877286
606.0, 0.004573186946562329
607.0, 0.004947307687356585
608.0, 0.003734185052864258
609.0, 0.004992094469818781
610.0, 0.005758848905290267
611.0, 0.00482220030384964
612.0, 0.0074042949747508725
613.0, 0.0068120945692500745
614.0, 0.004436230650251397
615.0, 0.004209170221493374
616.0, 0.005472781162822899
617.0, 0.002574701923572875
618.0, 0.003434456545742762
619.0, 0.004663098139348852
620.0, 0.004705666184359053
621.0, 0.005032195502658682
622.0, 0.0061621201698426106
623.0, 0.005615239440759371
624.0, 0.007482754837634733
625.0, 0.008825451597222771
626.0, 0.007249418326787667
627.0, 0.009413873718092006
628.0, 0.012943621239619656
629.0, 0.01350974402562405
630.0, 0.012422256601477787
631.0, 0.012241310014431928
632.0, 0.013931330246503865
633.0, 0.01651156239437058
634.0, 0.019359979435399657
635.0, 0.023318120559267626
636.0, 0.028654060961280897
637.0, 0.034137972484721474
638.0, 0.04081540602625197
639.0, 0.047440779510990634
640.0, 0.05682623373986274
641.0, 0.06811284809416535
642.0, 0.08016716600435617
643.0, 0.0939939421292933
644.0, 0.11236409381283698
645.0, 0.1337705560747082
646.0, 0.1513892568205384
647.0, 0.16071324381019775
648.0, 0.15863359351913106
649.0, 0.14567800854751214
650.0, 0.12525014676112065
651.0, 0.10311440645474161
652.0, 0.08790312561674925
653.0, 0.06763906109061009
654.0, 0.052587265699113366
655.0, 0.04233379571270675
656.0, 0.0348249074684648
657.0, 0.02837667764331859
658.0, 0.023348558472560756
659.0, 0.023123009913658333
660.0, 0.021268273819196198
661.0, 0.018393493463103015
662.0, 0.016725461783998374
663.0, 0.013693091693173162
664.0, 0.011478956091959367
665.0, 0.013395344884400981
666.0, 0.014288653380501193
667.0, 0.005527815378885285
668.0, 0.01119288906909382
669.0, 0.013611702081518868
670.0, 0.008859492246417822
671.0, 0.006653742812342774
672.0, 0.0118247954699297
673.0, 0.010768872127704684
674.0, 0.005816095362614049
675.0, 0.003658100621139459
676.0, 0.005138921548027923
677.0, 0.0073244295982799815
678.0, 0.007750129997996132
679.0, 0.0075167838517848804
680.0, 0.009478390715479578
681.0, 0.007193886817559291
682.0, 0.009173751378205091
683.0, 0.008645725410486745
684.0, 0.007702412502760269
685.0, 0.006923443802593927
686.0, 0.0064534013866167275
687.0, 0.006088040610043881
688.0, 0.004543242802531043
689.0, 0.0068168028921395465
690.0, 0.008582175829165033
691.0, 0.009708511182726863
692.0, 0.012071904384429864
693.0, 0.01566576354946047
694.0, 0.021388524958743403
695.0, 0.03287565940179044
696.0, 0.04165901646592024
697.0, 0.035481795866965746
698.0, 0.03202327759858003
699.0, 0.02698583931610629
700.0, 0.02608093102563037
701.0, 0.03077688314805991
702.0, 0.032546746522581965
703.0, 0.029730232805412208
704.0, 0.02489929292619656
705.0, 0.017748516595053384
706.0, 0.013136302305205192
707.0, 0.010896190334905251
708.0, 0.008948166313996598
709.0, 0.006700218234064198
710.0, 0.007132839136431913
711.0, 0.011509401691595823
712.0, 0.013483852372331205
713.0, 0.01771644141738932
714.0, 0.0201900369075159
715.0, 0.022178761805408426
716.0, 0.025131880817123038
717.0, 0.025837962161338265
718.0, 0.018915843052781725
719.0, 0.021475961319319677
720.0, 0.023354172260779803
721.0, 0.026193398808095167
722.0, 0.02522376103313076
723.0, 0.02002974528914719
724.0, 0.014336040628486195
725.0, 0.009683881086183845
726.0, 0.00536030910350868
727.0, 0.006291871226985946
728.0, 0.004221666446306701
729.0, 0.004005310029162612
730.0, 0.003856468686630981
731.0, 0.0025210592913177455
732.0, 0.0025526697318960703
733.0, 0.0020106003511247868
734.0, 0.00028771913406992137
735.0, 0.001124317393525958
736.0, 0.0013050798315476155
737.0, 0.002227312503735323
738.0, 0.0034823591257944543
739.0, 0.003716790801728698
740.0, 0.0035508135368758596
741.0, 0.0048096668876209695
742.0, 0.006625954106170127
743.0, 0.005416172561889887
744.0, 0.0037770864334644625
745.0, 0.0018712258656769665
746.0, 0.0005423563532298912
747.0, 0.0007000559375789027
748.0, 0.00026820611225137703
749.0, 0.0030823093164236287
750.0, 0.003221585549073342
751.0, 0.002779398936443175
752.0, 0.0028574740172290377
753.0, 0.0021059962845234597
754.0, 0.0013153416865254804
755.0, 0.0027940418119027292
756.0, 0.0015937411273544884
757.0, 0.0034530106786832392
758.0, 0.003474857819524845
759.0, 0.0029103735668746422
760.0, 0.0016709319888005688
761.0, 0.0015397058828088349
762.0, 0.0021612850267940555
763.0, 0.00011940318956430869
764.0, 0.00045555891590369295
765.0, 0.0015032929554854814
766.0, 0.0014924301125779273
767.0, 0.0041234018853021845
768.0, 0.0030378215970886546
769.0, 0.0006988231329026554
770.0, 0.0024940898962435283
771.0, 0.003938035105727632
772.0, 0.0008117916679106409
773.0, 0.001267961501612761
774.0, 0.002010344384184905
775.0, 0.0025906791422861592
776.0, 0.001953278582246401
777.0, 0.0021953216014645015
778.0, 0.003688253468789181
779.0, 0.000284221946965627
780.0, 0.0019498211408709848
781.0, 0.000519843504009298
782.0, 0.00124277405496749
783.0, 0.003418613946999846
784.0, 0.0033166577662759452
785.0, 0.002005848021952049
786.0, 0.00228382260801233
787.0, 0.0006540047004647712
788.0, 0.0018116805506847044
789.0, 0.0033329742362998016
790.0, 0.0014496564566642786
791.0, 0.001126499583813888
792.0, 0.0019165243406070937
793.0, 0.002579244934134266
794.0, 0.0032883071295263665
795.0, 0.0038610955796299575
796.0, 0.002988641849822177
797.0, 0.00326898993954558
798.0, 0.003640122580925298
799.0, 0.0019021145899993344
800.0, 0.002229057297677835
801.0, 0.004278454223431643
802.0, 0.0034639213942019003
803.0, 0.000656668766598153
804.0, 0.002724861954148639
805.0, 0.002372791798202492
806.0, 0.004002358855310964
807.0, 0.0034293004906453227
808.0, 0.0017646597032396362
809.0, 0.0007144759941447139
810.0, 0.00032038688052530494
811.0, 0.0005012198416198817
812.0, 0.004140310947184308
813.0, 0.002220768521670676
814.0, 0.0023614217581695543
815.0, 0.0017376200661167662
816.0, 0.0014135140885198013
817.0, 0.0014413937516701083
818.0, 0.0011860690925442133
819.0, 0.0017606705859667024
820.0, 0.002447177856220022
821.0, 0.0027880273797943017
822.0, 0.004508664176066779
823.0, 0.005379019003339206
824.0, 0.006734314968088467
825.0, 0.006279532560180042
826.0, 0.003981943434624548
827.0, 0.005203917771468588
828.0, 0.006055377610579192
829.0, 0.006141449508757753
830.0, 0.00854685973282622
831.0, 0.009229523749470104
832.0, 0.011216975211287415
833.0, 0.012173632361318085
834.0, 0.012799533655776943
835.0, 0.018094746367771267
836.0, 0.0224410835489758
837.0, 0.02297419243237382
838.0, 0.02740472558964385
839.0, 0.026526193055252428
840.0, 0.024183053480944842
841.0, 0.02050089244121728
842.0, 0.01552403961444325
843.0, 0.012183776336583243
844.0, 0.012999255348055943
845.0, 0.006874459478722873
846.0, 0.007379727035630302
847.0, 0.0073410961169492785
848.0, 0.004780228761156474
849.0, 0.0027366617350169297
850.0, 0.0033261858816843646
851.0, 0.0046225366914877265
852.0, 0.003201091089259949
853.0, 0.002978531696218557
854.0, 0.002802174123835621
855.0, 0.003673415040931046
856.0, 0.003861360926527963
857.0, 0.0040136429315526115
858.0, 0.004233944239029063
859.0, 0.00440131633756705
860.0, 0.004524596717926151
861.0, 0.004384351520607006
862.0, 0.005225854089578132
863.0, 0.005640018822889064
864.0, 0.006089745211384727
865.0, 0.007456306803845398
866.0, 0.00877226511654433
867.0, 0.008838165166618343
868.0, 0.009876929514911119
869.0, 0.014351660598353947
870.0, 0.008022143217754268
871.0, 0.004517850726988437
872.0, 0.009407471041922313
873.0, 0.006229996474586786
874.0, 0.0024128316569635324
875.0, 0.0027754463931318946
876.0, 0.00502565344285017
877.0, 0.0050305591083335405
878.0, 0.003924631656020327
879.0, 0.006949763147841544
880.0, 0.009424500060517649
881.0, 0.009085848164503538
882.0, 0.00604596364122476
883.0, 0.0038397088054690147
884.0, 0.00476764989804246
885.0, 0.00764770225795488
886.0, 0.009324088666426738
887.0, 0.009230451130891257
888.0, 0.011354658270533212
889.0, 0.012219770791621934
890.0, 0.015876153059057787
891.0, 0.01915462953840458
892.0, 0.022115089512372697
893.0, 0.025281910802343578
894.0, 0.029535230155670673
895.0, 0.036564693257037414
896.0, 0.04443186998645105
897.0, 0.053408332245173815
898.0, 0.07483843607178903
899.0, 0.09312046708167769
900.0, 0.11903894384715115
901.0, 0.15602976845298802
902.0, 0.20267479454452983
903.0, 0.2612044308182251
904.0, 0.3379984113934814
905.0, 0.42940725650448996
906.0, 0.5388117151199494
907.0, 0.6338435848926062
908.0, 0.6240549263905372
909.0, 0.5339471381385875
910.0, 0.411424972430051
911.0, 0.2967310157622579
912.0, 0.21025813178231845
913.0, 0.1490014397756599
914.0, 0.10721888435030204
915.0, 0.08349703040468164
916.0, 0.06494193076300486
917.0, 0.05020520631392484
918.0, 0.039514446232951556
919.0, 0.03259791576041916
920.0, 0.028634660911022982
921.0, 0.02553618616017286
922.0, 0.020332523019536204
923.0, 0.01773918886868849
924.0, 0.013434169628788599
925.0, 0.010800377701041015
926.0, 0.00976420306048794
927.0, 0.009938519857743194
928.0, 0.010014240407152953
929.0, 0.010786801915947929
930.0, 0.012914686498564344
931.0, 0.012667859699836748
932.0, 0.011113509815791657
933.0, 0.014549800278802122
934.0, 0.012530949424363422
935.0, 0.01081105594767223
936.0, 0.009937883978605637
937.0, 0.009583712407718811
938.0, 0.008504819208940705
939.0, 0.0067203439122116215
940.0, 0.006702853623272652
941.0, 0.0050728389254859965
942.0, 0.0014156078032792055
943.0, 0.005381592218063576
944.0, 0.006030924540737228
945.0, 0.00573121412865331
946.0, 0.007391417806611511
947.0, 0.008771525605913915
948.0, 0.008213641261221868
949.0, 0.009662327968121238
950.0, 0.012882334386010835
951.0, 0.010969006822266892
952.0, 0.01482878350552376
953.0, 0.01016611251477064
954.0, 0.010560748080108895
955.0, 0.009672501190749042
956.0, 0.007782686304981455
957.0, 0.008882686711468968
958.0, 0.008797038346409923
959.0, 0.0030200633775016835
960.0, 0.0019231218683396778
961.0, 0.0013417304470547513
962.0, 0.004618187677867943
963.0, 0.003731583112182225
964.0, 0.003215558248085876
965.0, 0.003629589016717172
966.0, 0.003874454698643885
967.0, 0.0033838872736188133
968.0, 0.0008297574898607363
969.0, 0.0023256565668750727
970.0, 0.0003740956039755295
971.0, 0.0014115484404816556
972.0, 0.0023033023900953958
973.0, 0.001506698544255491
974.0, 0.0020763992463054227
975.0, 0.0043405932486467414
976.0, 0.005063515287023015
977.0, 0.0029587552967186986
978.0, 0.0027586237206767587
979.0, 0.005245463266935154
980.0, 0.009372880543038834
981.0, 0.007393386070730071
982.0, 0.006690914346948511
983.0, 0.008480411263860567
984.0, 0.007881122559817827
985.0, 0.006162163502477947
986.0, 0.005864866477726101
987.0, 0.001660063828573496
988.0, 0.0019070212929325353
989.0, 0.004327504670723462
990.0, 0.0032437299740769344
991.0, 0.0023059982824342796
992.0, 0.001581293873671722
993.0, 0.0024606751591799677
994.0, 0.003666181572689439
995.0, 0.004296238578525231
996.0, 0.004659172573336122
997.0, 0.0036013758172988193
998.0, 0.007281257901365781
999.0, 0.003978153783866547
1000.0, 0.007745933786490535
1001.0, 0.007260447728747066
1002.0, 0.010913411182446249
1003.0, 0.01290507090304195
1004.0, 0.014747177118238919
1005.0, 0.018832330688886904
1006.0, 0.02138892900970127
1007.0, 0.027547819546422853
1008.0, 0.028102330809640176
1009.0, 0.031894061134144974
1010.0, 0.032765276070381544
1011.0, 0.03468529491584006
1012.0, 0.03480320019791634
1013.0, 0.0355671349674192
1014.0, 0.03417416793452778
1015.0, 0.027988478597030415
1016.0, 0.021890629817863053
1017.0, 0.018510397194110344
1018.0, 0.01379455272961242
1019.0, 0.011977135381054235
1020.0, 0.009566751405442008
1021.0, 0.008215679400305142
1022.0, 0.009063032465620851
1023.0, 0.009945298209885815
1024.0, 0.010718685981152162
1025.0, 0.010596541524003298
1026.0, 0.007587718969529386
1027.0, 0.006065132487746585
1028.0, 0.008371320059278015
1029.0, 0.010630090306163768
1030.0, 0.009879118504412298
1031.0, 0.009280940918345894
1032.0, 0.012017317404291959
1033.0, 0.01596647327476898
1034.0, 0.015971930057879804
1035.0, 0.014129249071049186
1036.0, 0.01520187354689895
1037.0, 0.012058865713142753
1038.0, 0.009493008770880204
1039.0, 0.008563651085109463
1040.0, 0.00664395775483968
1041.0, 0.005287669894243201
1042.0, 0.0039052763707180006
1043.0, 0.0022735443701611883
1044.0, 0.001440803302272542
1045.0, 0.0010853968771308271
1046.0, 0.0007533975982648815
1047.0, 0.002075607163555729
1048.0, 0.002554898903746845
1049.0, 0.0033199715361050836
1050.0, 0.0039604803303505505
1051.0, 0.004070276790154339
1052.0, 0.0045861283977379754
1053.0, 0.004887988175177036
1054.0, 0.006311105059611376
1055.0, 0.005571066610588452
1056.0, 0.002177232172868882
1057.0, 0.0025901862975861775
1058.0, 0.0045732245654249585
1059.0, 0.00408453439959435
1060.0, 0.009506219587193873
1061.0, 0.010656677565635729
1062.0, 0.009295646161478663
1063.0, 0.010124218719737847
1064.0, 0.009686884343959205
1065.0, 0.008538383595325676
1066.0, 0.009138425917001598
1067.0, 0.010645666800581228
1068.0, 0.01171196219208381
1069.0, 0.014917495959969334
1070.0, 0.01789243509082131
1071.0, 0.023127307723563133
1072.0, 0.030517258877889246
1073.0, 0.03821120322208461
1074.0, 0.06261866332269475
1075.0, 0.10036846868472743
1076.0, 0.1461195664226877
1077.0, 0.20218904508471924
1078.0, 0.29526664201445296
1079.0, 0.4408333415533437
1080.0, 0.4484811164228738
1081.0, 0.42612004742166076
1082.0, 0.4883739381607302
1083.0, 0.3313671345230259
1084.0, 0.20577399293024184
1085.0, 0.14548051504603823
1086.0, 0.12287432825941995
1087.0, 0.12031622168312316
1088.0, 0.14052788714782571
1089.0, 0.18761318520930684
1090.0, 0.24639931040915372
1091.0, 0.3455338536187419
1092.0, 0.5501544370047079
1093.0, 0.9038226061004102
1094.0, 0.9905724727440671
1095.0, 0.735287350020948
1096.0, 0.4405432737976944
1097.0, 0.2437596687489335
1098.0, 0.13452058412959267
1099.0, 0.07932805071043543
1100.0, 0.05278426264398898
1101.0, 0.03839395311675291
1102.0, 0.025151214185578315
1103.0, 0.028861012647276682
1104.0, 0.016935007778396193
1105.0, 0.013139867726540124
1106.0, 0.010404675518853322
1107.0, 0.01200401326963045
1108.0, 0.012161128618132087
1109.0, 0.010206580415480974
1110.0, 0.010255379528811077
1111.0, 0.009268923028376409
1112.0, 0.0025377446748523604
1113.0, 0.00561457381478977
1114.0, 0.0004674668973458805
1115.0, 0.008769928944888808
1116.0, 0.00991117109141867
1117.0, 0.005123603916568718
1118.0, 0.007178969149413531
1119.0, 0.009295119342895201
1120.0, 0.008895774467123084
1121.0, 0.009627500313690127
1122.0, 0.011472176892346668
1123.0, 0.011730600340138566
1124.0, 0.011619030513880583
1125.0, 0.007995736458825242
1126.0, 0.004941609434098871
1127.0, 0.0035067840097756688
1128.0, 0.0028411372411228032
1129.0, 0.005832433263870554
1130.0, 0.004649146409707179
1131.0, 0.0034842253003388103
1132.0, 0.003031642276242085
1133.0, 0.0029880258046298402
1134.0, 0.005288964249895917
1135.0, 0.0027093501209143386
1136.0, 0.0007156634157465117
1137.0, 0.003327725342740317
1138.0, 0.0038489977877857197
1139.0, 0.0010281930142743945
1140.0, 0.0011848167855773191
1141.0, 0.000755955669186358
1142.0, 0.0003827453076092328
1143.0, 0.00044682139393457845
1144.0, 0.0016693759012508988
1145.0, 0.0023528912557553737
1146.0, 0.00043694762277748673
1147.0, 0.0019440599508127301
1148.0, 0.0025824081752541528
1149.0, 0.0003595119563600893
1150.0, 0.0003488507613131234
1151.0, 0.003815957320960288
1152.0, 0.003832222843917662
1153.0, 0.0017686765311415334
1154.0, 0.003402000936275875
1155.0, 0.0036184575317563753
1156.0, 0.001054675896991085
1157.0, 0.0020184675737743712
1158.0, 0.005836686468403589
1159.0, 0.004604837841614415
1160.0, 0.0017470506408832067
1161.0, 0.0021810374572296966
1162.0, 0.0035095800736111445
1163.0, 0.002684507090380956
1164.0, 0.0008137768514665155
1165.0, 0.0011375294776869167
1166.0, 0.00226141344834496
1167.0, 0.004106596355304372
1168.0, 0.003910045949923501
1169.0, 0.0022039169956830076
1170.0, 0.0030177842414360495
1171.0, 0.001575006251214511
1172.0, 0.0007184106705456193
1173.0, 0.0001595158446919228
1174.0, 0.0025283715686123757
1175.0, 0.004347213010754684
1176.0, 0.0068973131805819
1177.0, 0.0076540980354528445
1178.0, 0.005332429705258347
1179.0, 0.0047315387780632115
1180.0, 0.004014517485159812
1181.0, 0.0031966214293823914
1182.0, 0.004987623152771699
1183.0, 0.004521064467712123
1184.0, 0.005020165227905402
1185.0, 0.00474469801088153
1186.0, 0.0006924173207072831
1187.0, 0.006091355081581351
1188.0, 0.002776541190294155
1189.0, 0.002004811617014374
1190.0, 0.006159664674551769
1191.0, 0.004084120093143436
1192.0, 0.0016962523044990986
1193.0, 0.003020342070305678
1194.0, 0.003309094142745961
1195.0, 0.0022584607822398496
1196.0, 0.0026334840459246054
1197.0, 0.005992883830796091
1198.0, 0.0008657391817705145
1199.0, 0.0011625280670964735
1200.0, 0.002959532589925978
1201.0, 0.001766043526988649
1202.0, 0.007369613645749856
1203.0, 0.008814648010020472
1204.0, 0.006588181897481507
1205.0, 0.0044080761361562516
1206.0, 0.004047723335834389
1207.0, 0.004014588917269495
1208.0, 0.002872449921039903
1209.0, 0.0043165534286511015
1210.0, 0.005547308906664057
1211.0, 0.00703620514293104
1212.0, 0.002156325970537604
1213.0, 0.007942185809241333
1214.0, 0.0023626990000047456
1215.0, 0.003581685438380608
1216.0, 0.0025923026457645164
1217.0, 0.003215254433811733
1218.0, 0.002869564195258839
1219.0, 0.003168820115710372
1220.0, 0.004163789605724795
1221.0, 0.002690271109117102
1222.0, 0.005941883052425618
1223.0, 0.0056350825314697315
1224.0, 0.0003729581292453263
1225.0, 0.006163299002657413
1226.0, 0.0052792061549199396
1227.0, 0.002944249344836927
1228.0, 0.0029156038145561557
1229.0, 0.004063690998796163
1230.0, 0.0035752761860897687
1231.0, 0.0017373449334628303
1232.0, 0.0010489532043574008
1233.0, 0.0014595679093473085
1234.0, 0.0016771407221184103
1235.0, 0.0021727251707208987
1236.0, 0.0019359831773890284
1237.0, 0.001244217649691696
1238.0, 0.006789726490260436
1239.0, 0.01065954580320272
1240.0, 0.001793887928502093
1241.0, 0.00677329846695318
1242.0, 0.007411687313874699
1243.0, 0.00501455756130035
1244.0, 0.0037908521077167833
1245.0, 0.006269797679338022
1246.0, 0.0066934069676038675
1247.0, 0.004836338153028061
1248.0, 0.006238486187535114
1249.0, 0.007291949853270829
1250.0, 0.004907459136271563
1251.0, 0.0031427269437084584
1252.0, 0.006210920428101412
1253.0, 0.004150810569706152
1254.0, 0.0031645421812051154
1255.0, 0.006099747910605024
1256.0, 0.004075010621128012
1257.0, 0.0022202696882732322
1258.0, 0.004168673112236295
1259.0, 0.003986599987059438
1260.0, 0.001784388036672324
1261.0, 0.004270809514000763
1262.0, 0.007657306236466629
1263.0, 0.004704379823348049
1264.0, 0.004556301113852323
1265.0, 0.002743765193380646
1266.0, 0.006470703218144903
1267.0, 0.007505076487617697
1268.0, 0.004389643257892258
1269.0, 0.0019916681620175767
1270.0, 0.0018166073889046782
1271.0, 0.003175052781999801
1272.0, 0.004011442090356557
1273.0, 0.004352094722330682
1274.0, 0.004905229177684178
1275.0, 0.004303366457897052
1276.0, 0.0036492611384991843
1277.0, 0.00400157261215124
1278.0, 0.0021833510350216952
1279.0, 0.001582824462789581
1280.0, 0.004992454236045553
1281.0, 0.007696561120692391
1282.0, 0.007132008151177857
1283.0, 0.002947167881153464
1284.0, 0.007843572036839757
1285.0, 0.006455377580916908
1286.0, 0.010403033164250172
1287.0, 0.009039789103445595
1288.0, 0.005237639761037953
1289.0, 0.003485028518845955
1290.0, 0.003717891649584745
1291.0, 0.00287218870721446
1292.0, 0.0021454443863514103
1293.0, 0.005827598290859976
1294.0, 0.005888826506384106
1295.0, 0.0035189288015788443
1296.0, 0.006142879436721265
1297.0, 0.004700193165205001
1298.0, 0.0032825437381600936
1299.0, 0.0025374672193767293
1300.0, 0.006986114237147276
1301.0, 0.005350852287517066
1302.0, 0.001856254508361044
1303.0, 0.004188783036578638
1304.0, 0.003306656607677098
1305.0, 0.0014423626090351064
1306.0, 0.005214058374348528
1307.0, 0.007342537328006997
1308.0, 0.0033598049869340073
1309.0, 0.003759942765816718
1310.0, 0.0075283069039615985
1311.0, 0.0041795466562453325
1312.0, 0.0026092943485332256
1313.0, 0.0037284901849146002
1314.0, 0.007086074530648136
1315.0, 0.005056785293557152
1316.0, 0.006674838826272595
1317.0, 0.0058929604437865015
1318.0, 0.004902685948342197
1319.0, 0.0027331491114978685
1320.0, 0.005437796893281502
1321.0, 0.007835157089615873
1322.0, 0.006934978520349837
1323.0, 0.007898982925067785
1324.0, 0.008353112365189166
1325.0, 0.005426990474158413
1326.0, 0.005168209481666152
1327.0, 0.006516782442720764
1328.0, 0.006919872261354528
1329.0, 0.0034804033313076297
1330.0, 0.007826532271775672
1331.0, 0.005121496428908711
1332.0, 0.009763713991782625
1333.0, 0.004743549267540726
1334.0, 0.00201471055493185
1335.0, 0.006346736836888799
1336.0, 0.004546302823653247
1337.0, 0.0035634903911026545
1338.0, 0.007289886132512634
1339.0, 0.009029812622045658
1340.0, 0.008794439516021806
1341.0, 0.008200690808879826
1342.0, 0.00520610163014661
1343.0, 0.0023327964438078956
1344.0, 0.0014253936545535958
1345.0, 0.0003821659256668465
1346.0, 0.0016055547579149274
1347.0, 0.00444069040940809
1348.0, 0.0017731945705369366
1349.0, 0.005961483286733248
1350.0, 0.006665239409693219
1351.0, 0.012152886942906246
1352.0, 0.008719452133277414
1353.0, 0.004924169852682274
1354.0, 0.0067012950483895314
1355.0, 0.006559780968499841
1356.0, 0.006138243479585435
1357.0, 0.005998990091959106
1358.0, 0.0015306912283887663
1359.0, 0.003199709663632817
1360.0, 0.0076802576371099
1361.0, 0.005158585836142189
1362.0, 0.0010687559402559142
1363.0, 0.005802578674622371
1364.0, 0.0019396626424727664
1365.0, 0.0029578436685887832
1366.0, 0.000533096741919219
1367.0, 0.0053738686006372695
1368.0, 0.009711758619616165
1369.0, 0.007718959593116797
1370.0, 0.006490688116996209
1371.0, 0.005749980988051208
1372.0, 0.005563775787027279
1373.0, 0.005529524315829134
1374.0, 0.0052983827641561185
1375.0, 0.005199311002698477
1376.0, 0.005149710278034226
1377.0, 0.005949331959952332
1378.0, 0.006175248616973492
1379.0, 0.005808519046105832
1380.0, 0.005576899134698132
1381.0, 0.005304897908321332
1382.0, 0.0026156622701771024
1383.0, 0.0059599602939061
1384.0, 0.004551449706245364
1385.0, 0.002989482371826678
1386.0, 0.007660165075941751
1387.0, 0.003958523762037028
1388.0, 0.003885056843996514
1389.0, 0.002472760392314652
1390.0, 0.004671426210826011
1391.0, 0.008041543974545352
1392.0, 0.00666125858138994
1393.0, 0.0035894305079929184
1394.0, 0.0031786408779796434
1395.0, 0.0036355695794418677
1396.0, 0.0037986329911337616
1397.0, 0.005218233501127937
1398.0, 0.0023021322858093373
1399.0, 0.0033306284860444542
1400.0, 0.005456874158848111
1401.0, 0.0037683048598654394
1402.0, 0.0039355544335042125
1403.0, 0.006687980292190242
1404.0, 0.010167540446563825
1405.0, 0.006529083522568005
1406.0, 0.006281751862228656
1407.0, 0.004627407461580394
1408.0, 0.009924882148117778
1409.0, 0.011298342637028133
1410.0, 0.01236337392400874
1411.0, 0.015781920562143625
1412.0, 0.01841149036086336
1413.0, 0.016297331409922546
1414.0, 0.013084327072953065
1415.0, 0.015122232263540878
1416.0, 0.01485799285565963
1417.0, 0.010240278673542718
1418.0, 0.011479639650588206
1419.0, 0.008766997345948028
1420.0, 0.008400848435372114
1421.0, 0.008829768468311738
1422.0, 0.011489597634220125
1423.0, 0.006596865343511206
1424.0, 0.009965205529523041
1425.0, 0.018258034801137076
1426.0, 0.025020763155720695
1427.0, 0.020987663429720717
1428.0, 0.021944931256383984
1429.0, 0.01748862304005329
1430.0, 0.014508592236418235
1431.0, 0.01841629605195683
1432.0, 0.02397755785172533
1433.0, 0.024446176984687748
1434.0, 0.020719407803445344
1435.0, 0.016704196051979543
1436.0, 0.01312720135455325
1437.0, 0.009968503439411773
1438.0, 0.007429750235298722
1439.0, 0.00699242857936757
1440.0, 0.0064093038602807805
1441.0, 0.009039176567768946
1442.0, 0.00526660848188929
1443.0, 0.005706196498507772
1444.0, 0.001734758887290759
1445.0, 0.004107441546593106
1446.0, 0.003467362905398583
1447.0, 0.005601588385768703
1448.0, 0.004379393509910567
1449.0, 0.007963994940258798
1450.0, 0.004772048245874726
1451.0, 0.008327877229795399
1452.0, 0.004320486317043297
1453.0, 0.001767322394806385
1454.0, 0.004914067175763276
1455.0, 0.006130774481220941
1456.0, 0.003314762283449554
1457.0, 0.003167811308983112
1458.0, 0.005886747637136127
1459.0, 0.005067487949422151
1460.0, 0.0033346664122525563
1461.0, 0.004271290867125911
1462.0, 0.0053628962268460105
1463.0, 0.0031255334184799853
1464.0, 0.00782217947008353
1465.0, 0.002883367584546949
1466.0, 0.006917916369570504
1467.0, 0.008011033995710749
1468.0, 0.0018538467450759273
1469.0, 0.005989626788465032
1470.0, 0.0037539547098260854
1471.0, 0.0023141090752153834
1472.0, 0.003593514393403411
1473.0, 0.007487304919909666
1474.0, 0.003668829151423365
1475.0, 0.002337314247640211
1476.0, 0.00266783631197867
1477.0, 0.00107307417225518
1478.0, 0.0010651473971008151
1479.0, 0.001521766570189382
1480.0, 0.0026042131208968934
1481.0, 0.003581490615797468
1482.0, 0.0025222915724316887
1483.0, 0.002874365672493317
1484.0, 0.0051833210043104655
1485.0, 0.005487495065177995
1486.0, 0.00500714222638854
1487.0, 0.005025052414530431
1488.0, 0.00749606846203841
1489.0, 0.005729493780579884
1490.0, 0.005073183193874092
1491.0, 0.009134868881832486
1492.0, 0.009142162845271614
1493.0, 0.00882026147184086
1494.0, 0.010142737000393044
1495.0, 0.012064584135316015
1496.0, 0.013431133082603392
1497.0, 0.0189970759844275
1498.0, 0.026822622781487684
1499.0, 0.035003199849445873
1500.0, 0.04571157508404043
1501.0, 0.05268689135450643
1502.0, 0.045891332674224405
1503.0, 0.03859955240052201
1504.0, 0.028556674721456038
1505.0, 0.0219101659094528
1506.0, 0.016266574484276076
1507.0, 0.010392895193265729
1508.0, 0.009207911780031774
1509.0, 0.00783238705024646
1510.0, 0.007014222324688825
1511.0, 0.011968537424729036
1512.0, 0.013231535565578935
1513.0, 0.009973180516056062
1514.0, 0.01086455022499167
1515.0, 0.010771894443558317
1516.0, 0.011687635996395154
1517.0, 0.012427094605981433
1518.0, 0.01637522980394996
1519.0, 0.01097251316254765
1520.0, 0.010962659268170031
1521.0, 0.01229351493562888
1522.0, 0.004015754377898117
1523.0, 0.009322940255481672
1524.0, 0.0008059573597758579
1525.0, 0.0056124185658747265
1526.0, 0.003000044611412621
1527.0, 0.009179762207144577
1528.0, 0.003263140462698163
1529.0, 0.0054887305962414215
1530.0, 0.00683045944273656
1531.0, 0.005821400782922899
1532.0, 0.0022037079878762904
1533.0, 0.007269284095040815
1534.0, 0.012188992519174886
1535.0, 0.0056737785945578205
1536.0, 0.006494131511294818
1537.0, 0.00692035186657542
1538.0, 0.004034168651628321
1539.0, 0.0064621872160958264
1540.0, 0.007381953621629347
1541.0, 0.004758758274937125
1542.0, 0.004666382282902741
1543.0, 0.005363893619146594
1544.0, 0.004467982596028421
1545.0, 0.0069737580846500665
1546.0, 0.006654812083166895
1547.0, 0.0059041039300130466
1548.0, 0.0029617721972040197
1549.0, 0.004112128662282377
1550.0, 0.004728754310982788
1551.0, 0.006367342588365394
1552.0, 0.006759347606459007
1553.0, 0.010506300010765976
1554.0, 0.004208408638569103
1555.0, 0.01120921121134195
1556.0, 0.00419952819661538
1557.0, 0.006624370514474514
1558.0, 0.0061355224115038276
1559.0, 0.01112925447747653
1560.0, 0.0015997246550337975
1561.0, 0.005313106958057593
1562.0, 0.0075449291418553345
1563.0, 0.0024228863943309585
1564.0, 0.007805204050025756
1565.0, 0.006898083868297503
1566.0, 0.002907312111634977
1567.0, 0.006010434553914005
1568.0, 0.01036223515156107
1569.0, 0.004052751377674735
1570.0, 0.003559358520428652
1571.0, 0.002265540655903624
1572, 0.0
1573, 0.0
1574, 0.0
1575, 0.0
1576, 0.0
1577, 0.0
1578, 0.0
1579, 0.0
1580, 0.0
1581, 0.0
1582, 0.0
1583, 0.0
1584, 0.0
1585, 0.0
1586, 0.0
1587, 0.0
1588, 0.0
1589, 0.0
1590, 0.0
1591, 0.0
1592, 0.0
1593, 0.0
1594, 0.0
1595, 0.0
1596, 0.0
1597, 0.0
1598, 0.0
1599, 0.0
