30, 0.0
31, 0.0
32, 0.0
33, 0.0
34, 0.0
35, 0.0
36, 0.0
37, 0.0
38, 0.0
39, 0.0
40, 0.0
41, 0.0
42, 0.0
43, 0.0
44, 0.0
45, 0.0
46, 0.0
47, 0.0
48, 0.0
49, 0.0
50, 0.0
51, 0.0
52, 0.0
53, 0.0
54, 0.0
55, 0.0
56, 0.0
57, 0.0
58, 0.0
59, 0.0
60, 0.0
61, 0.0
62, 0.0
63, 0.0
64, 0.0
65, 0.0
66, 0.0
67, 0.0
68, 0.0
69, 0.0
70, 0.0
71, 0.0
72, 0.0
73, 0.0
74, 0.0
75, 0.0
76, 0.0
77, 0.0
78, 0.0
79, 0.0
80, 0.0
81, 0.0
82, 0.0
83, 0.0
84, 0.0
85, 0.0
86, 0.0
87, 0.0
88, 0.0
89, 0.0
90, 0.0
91, 0.0
92, 0.0
93, 0.0
94, 0.0
95, 0.0
96, 0.0
97, 0.0
98, 0.0
99, 0.0
100, 0.0
101, 0.0
102, 0.0
103, 0.0
104, 0.0
105, 0.0
106, 0.0
107, 0.0
108, 0.0
109, 0.0
110, 0.0
111, 0.0
112, 0.0
113, 0.0
114, 0.0
115, 0.0
116, 0.0
117, 0.0
118, 0.0
119, 0.0
120, 0.0
121, 0.0
122, 0.0
123, 0.0
124, 0.0
125, 0.0
126, 0.0
127, 0.0
128.0, 0.00010835259927113264
129.0, 0.005268000183610585
130.0, 0.00678075470904904
131.0, 0.010412837975226045
132.0, 0.010707829205359566
133.0, 0.0007659485261963086
134.0, 0.002546896102015701
135.0, 0.008699901066395538
136.0, 0.016061398158197463
137.0, 0.020744949808358625
138.0, 0.022242426979574372
139.0, 0.028269198487412307
140.0, 0.0278439751826486
141.0, 0.03266547973284677
142.0, 0.0374709923672073
143.0, 0.03988729657550769
144.0, 0.041745078066546426
145.0, 0.0497867506479508
146.0, 0.05309879098188255
147.0, 0.059979001917246186
148.0, 0.06504969145006693
149.0, 0.06259258803224085
150.0, 0.06941433921830567
151.0, 0.07353522834946907
152.0, 0.07778467892347168
153.0, 0.0793962580048963
154.0, 0.07864702317176764
155.0, 0.08163673512875787
156.0, 0.0719350762285797
157.0, 0.06663147756913992
158.0, 0.06530976286230335
159.0, 0.06220311377292758
160.0, 0.050521279169701346
161.0, 0.03874484220312321
162.0, 0.03255186961291718
163.0, 0.026211336425177697
164.0, 0.020747514802368628
165.0, 0.01727906962646828
166.0, 0.013643077014293018
167.0, 0.007829311022128773
168.0, 0.004373736045170454
169.0, 0.006789666611865499
170.0, 0.010832696902161303
171.0, 0.0076467617887133865
172.0, 0.010633183875513834
173.0, 0.010798997036375843
174.0, 0.010905031412475698
175.0, 0.011700155604879565
176.0, 0.014272839720936624
177.0, 0.022729735000198037
178.0, 0.01633266968625518
179.0, 0.014700925494100847
180.0, 0.018232657588351325
181.0, 0.021990265071373256
182.0, 0.018142497610514043
183.0, 0.011028791797294756
184.0, 0.015607125886306795
185.0, 0.01846392203861777
186.0, 0.017783935907559105
187.0, 0.016526327963597567
188.0, 0.018721281533904663
189.0, 0.01628445564022356
190.0, 0.015482497731452643
191.0, 0.013289466451109514
192.0, 0.013386585872429715
193.0, 0.02530110612902141
194.0, 0.018619088481789746
195.0, 0.02367166702570775
196.0, 0.02764505126007272
197.0, 0.030522641937510912
198.0, 0.03389521127493108
199.0, 0.028282986830500744
200.0, 0.02543528779707026
201.0, 0.025516283487540946
202.0, 0.02560774345836731
203.0, 0.02458132637388862
204.0, 0.02329044388884111
205.0, 0.01718170703605499
206.0, 0.017452621156494243
207.0, 0.01626158973504466
208.0, 0.012411553136197706
209.0, 0.008403091953355602
210.0, 0.010439175099807603
211.0, 0.014201054660335784
212.0, 0.010955492208739216
213.0, 0.007788396741661304
214.0, 0.0061012548549013584
215.0, 0.002475656030481716
216.0, 0.008057114867541463
217.0, 0.0032439739685720115
218.0, 0.0022140937015628615
219.0, 0.0027461764379142894
220.0, 0.001521109696940553
221.0, 0.0026498591457425427
222.0, 0.00560097398151291
223.0, 0.004602165267436239
224.0, 0.0034466741012319445
225.0, 0.004838723668874252
226.0, 0.008889654565012266
227.0, 0.006819025942899478
228.0, 0.006080688341447766
229.0, 0.009689771971923826
230.0, 0.012040720475286277
231.0, 0.010412763967586246
232.0, 0.00905680878883394
233.0, 0.01505408834330855
234.0, 0.01365591893079936
235.0, 0.015688582927702307
236.0, 0.020572444494895818
237.0, 0.022092476258398587
238.0, 0.013441406196357406
239.0, 0.016248497590836034
240.0, 0.011924485355641026
241.0, 0.010393215179702367
242.0, 0.015350462984307874
243.0, 0.020754345179159132
244.0, 0.011392793117019195
245.0, 0.011326743484717778
246.0, 0.012781101517422415
247.0, 0.012453036856673254
248.0, 0.011922484662271438
249.0, 0.019676984502997038
250.0, 0.015500724505643678
251.0, 0.016491819229676116
252.0, 0.022041380427734538
253.0, 0.024345591658683045
254.0, 0.019594312516880312
255.0, 0.03700098464576465
256.0, 0.030441709360921724
257.0, 0.03438742628936983
258.0, 0.040735975470746186
259.0, 0.04354667519327699
260.0, 0.04504368324769506
261.0, 0.05034168959289866
262.0, 0.049341825516623555
263.0, 0.05246724986020831
264.0, 0.05555410662019974
265.0, 0.05432259198798542
266.0, 0.05227307426850622
267.0, 0.06493126598285338
268.0, 0.06900037985755415
269.0, 0.07521743454527643
270.0, 0.08598284471378216
271.0, 0.09871314855238555
272.0, 0.11058978283672365
273.0, 0.12367318039262624
274.0, 0.14167155346144458
275.0, 0.1560444138818316
276.0, 0.16608269989935429
277.0, 0.17762623264900873
278.0, 0.18356581690735332
279.0, 0.18996062953949527
280.0, 0.19259929646546847
281.0, 0.1904067392840845
282.0, 0.18530885847279496
283.0, 0.1815352182563005
284.0, 0.16328405861670472
285.0, 0.15085961917027815
286.0, 0.14101589675422416
287.0, 0.1317850914723977
288.0, 0.12358274917244738
289.0, 0.12114347069242604
290.0, 0.11142531932192716
291.0, 0.10449497598244926
292.0, 0.0994463122917515
293.0, 0.09454147359152841
294.0, 0.0893994397558904
295.0, 0.08994877672964977
296.0, 0.09103610276186379
297.0, 0.08590165175992671
298.0, 0.08229966534498039
299.0, 0.0809896955740823
300.0, 0.07727514115917056
301.0, 0.08048930319513976
302.0, 0.0768421365815357
303.0, 0.07155701127976821
304.0, 0.06604247755648798
305.0, 0.05916711197122352
306.0, 0.048289942961766655
307.0, 0.0406316434521416
308.0, 0.04496277190095987
309.0, 0.03874136494835194
310.0, 0.03178418658621867
311.0, 0.03130953852645889
312.0, 0.02494644051358541
313.0, 0.027532139029672897
314.0, 0.030642226397094807
315.0, 0.02773325821005571
316.0, 0.022893455392916248
317.0, 0.021743351877307686
318.0, 0.023040752070943405
319.0, 0.02586346501519107
320.0, 0.021047722481514833
321.0, 0.01960699053284972
322.0, 0.021304545304337296
323.0, 0.02117515255470957
324.0, 0.020178914697599203
325.0, 0.019211564330639162
326.0, 0.014129213242326287
327.0, 0.01582510345188046
328.0, 0.018590810625241094
329.0, 0.012187658848906527
330.0, 0.01745584089501398
331.0, 0.010265588272486092
332.0, 0.007645589662220797
333.0, 0.010711223588921813
334.0, 0.012450444034916765
335.0, 0.005348501842041333
336.0, 0.007018484062228799
337.0, 0.0058998465704150245
338.0, 0.004124089938465099
339.0, 0.005411705007278203
340.0, 0.008375532220571044
341.0, 0.0076551597136324135
342.0, 0.005792260011986423
343.0, 0.012326244217747945
344.0, 0.012471958082651521
345.0, 0.014145226263512816
346.0, 0.019735874927902564
347.0, 0.022387178380199126
348.0, 0.02716597027541954
349.0, 0.01968016730730535
350.0, 0.01880939804401811
351.0, 0.02107610425542456
352.0, 0.02385213073308785
353.0, 0.030541000782137295
354.0, 0.03717107832256835
355.0, 0.0349597922704277
356.0, 0.03530071336729639
357.0, 0.0329947441136459
358.0, 0.027925016771422374
359.0, 0.029879958521631694
360.0, 0.030850073760350507
361.0, 0.03348805554910316
362.0, 0.030526743454007212
363.0, 0.027158140388011783
364.0, 0.025927947206280832
365.0, 0.022278161179367012
366.0, 0.02258541756424724
367.0, 0.021818678744033676
368.0, 0.01989636896567334
369.0, 0.01762301112414183
370.0, 0.015873832212270424
371.0, 0.014953871625693595
372.0, 0.011754673890988086
373.0, 0.0113034438807604
374.0, 0.006841791744929313
375.0, 0.0037733962743036384
376.0, 0.004427438262256142
377.0, 0.003745721632164872
378.0, 0.006573706780873115
379.0, 0.0028987067370345055
380.0, 0.0024120713396741005
381.0, 0.003157949933954497
382.0, 0.002913657252451837
383.0, 0.002783924123804453
384.0, 0.0044693436743192426
385.0, 0.0034978588745381073
386.0, 0.0022130663658254377
387.0, 0.004068819887331836
388.0, 0.00671920006921331
389.0, 0.0031618536709078953
390.0, 0.0036852394720380383
391.0, 0.01038168657638838
392.0, 0.008482085484814904
393.0, 0.007150629511443333
394.0, 0.009911407583779213
395.0, 0.010935212150824693
396.0, 0.013526767589981517
397.0, 0.012642092640312215
398.0, 0.01408410635817966
399.0, 0.01606177625624447
400.0, 0.015529674070330799
401.0, 0.011716056701453956
402.0, 0.014959276552790585
403.0, 0.009072566988476766
404.0, 0.005167727484485599
405.0, 0.004853496736118392
406.0, 0.006888037576142959
407.0, 0.008691070271101376
408.0, 0.007976620229919205
409.0, 0.006192436560047445
410.0, 0.005037343718047328
411.0, 0.006051941675675408
412.0, 0.005452210080843657
413.0, 0.002123165628044153
414.0, 0.01187317991233303
415.0, 0.015403940677682556
416.0, 0.013552827289239532
417.0, 0.00874165314911685
418.0, 0.006623683589637858
419.0, 0.00977620665807475
420.0, 0.011232555687175369
421.0, 0.008080577048249547
422.0, 0.0092012380956412
423.0, 0.009445817867465551
424.0, 0.008974225237796918
425.0, 0.00926201512791396
426.0, 0.010165357474078495
427.0, 0.007548398409623311
428.0, 0.00966949459347495
429.0, 0.005813830791195239
430.0, 0.0029172799574014832
431.0, 0.00420761372664599
432.0, 0.003950835711418171
433.0, 0.009393282047748246
434.0, 0.010641156466789469
435.0, 0.010861569789697703
436.0, 0.008243772559668126
437.0, 0.004539668991380885
438.0, 0.0043462385222594714
439.0, 0.007782354597432667
440.0, 0.005263971831936585
441.0, 0.006480685469948769
442.0, 0.007361549436577082
443.0, 0.008231061436730577
444.0, 0.01017265021694721
445.0, 0.00636762136079693
446.0, 0.0063709986209202745
447.0, 0.005865629637217619
448.0, 0.005343526352174603
449.0, 0.007460693160728358
450.0, 0.009998426007947954
451.0, 0.002513625946936436
452.0, 0.005893373989620338
453.0, 0.0022837359491930417
454.0, 0.004444882007041523
455.0, 0.005332216056053903
456.0, 0.0024924489262325537
457.0, 0.003404500328101458
458.0, 0.0011332462974810026
459.0, 0.0018139934474455431
460.0, 0.003425591916140606
461.0, 0.004395026391620904
462.0, 0.004604902094105098
463.0, 0.004633066034144616
464.0, 0.0034860946829689435
465.0, 0.004765901271174151
466.0, 0.002254234166872648
467.0, 0.0013314815195832124
468.0, 0.0013091320139406708
469.0, 0.0005411900600360638
470.0, 0.0017814941809163277
471.0, 0.00185102908446127
472.0, 0.0006852281358253669
473.0, 0.000289079376208044
474.0, 0.0006763473098464535
475.0, 0.0036007244550947423
476.0, 0.010255988425760441
477.0, 0.0016131566954984636
478.0, 0.0018760645709079604
479.0, 0.010539457640943063
480.0, 0.016514706717555783
481.0, 0.014939066919025752
482.0, 0.009083287212060323
483.0, 0.00805451824179486
484.0, 0.009784152456899814
485.0, 0.012514421328284063
486.0, 0.011310106533371622
487.0, 0.006033143391519112
488.0, 0.0020820566842486028
489.0, 0.007316453331983903
490.0, 0.004563146711680429
491.0, 0.004141962074235471
492.0, 0.01026505232569198
493.0, 0.008302277988819646
494.0, 0.004215118035706569
495.0, 0.012758154284660404
496.0, 0.0028931585094965134
497.0, 0.006253566287775813
498.0, 0.004215989453078311
499.0, 0.007786962304621026
500.0, 0.008297266666359009
501.0, 0.0020374444986149716
502.0, 0.009058683396724011
503.0, 0.008604005776239288
504.0, 0.006424460165827925
505.0, 0.003406031631512515
506.0, 0.006531733063977255
507.0, 0.012464047888753809
508.0, 0.011544191995942336
509.0, 0.012703448640039566
510.0, 0.011710379070708451
511.0, 0.009283826258628777
512.0, 0.005706152153264912
513.0, 0.004138921294592995
514.0, 0.00487422847122766
515.0, 0.0023880910010821007
516.0, 0.013033043492527239
517.0, 0.006247550319644463
518.0, 0.00906181716983787
519.0, 0.01425823744659582
520.0, 0.014051361666644563
521.0, 0.00903157289989051
522.0, 0.006221388705122746
523.0, 0.00885494485280368
524.0, 0.011205954419738906
525.0, 0.012253985669582107
526.0, 0.01529957968109924
527.0, 0.020645069892209347
528.0, 0.022031387637290584
529.0, 0.01998753081775425
530.0, 0.017910759494917577
531.0, 0.020542650826923362
532.0, 0.016354411944154382
533.0, 0.015039900961459624
534.0, 0.028726423729082518
535.0, 0.02897675137474554
536.0, 0.018940437833271526
537.0, 0.018205149326046128
538.0, 0.01973779278423821
539.0, 0.019359817383013088
540.0, 0.020043647817839582
541.0, 0.026758940159125204
542.0, 0.01796513274401388
543.0, 0.026827424417959773
544.0, 0.025136780817537632
545.0, 0.025232143085514743
546.0, 0.025791512258161897
547.0, 0.023790243973192505
548.0, 0.02900431329444271
549.0, 0.0330044527072992
550.0, 0.026570364765501495
551.0, 0.018310467403074217
552.0, 0.01584819229215842
553.0, 0.015158306458650605
554.0, 0.00980468188389546
555.0, 0.012908200384785126
556.0, 0.011665277280012997
557.0, 0.009841726901783539
558.0, 0.004309137633853067
559.0, 0.004012310413917567
560.0, 0.008276960560384381
561.0, 0.006911080580494455
562.0, 0.018931650500997002
563.0, 0.008026017925957368
564.0, 0.007462894225759021
565.0, 0.004253379047523327
566.0, 0.0015003115860267636
567.0, 0.002973499882965137
568.0, 0.0005022834840917533
569.0, 0.0033868105591171064
570.0, 0.0024064481204481808
571.0, 0.004983555605729452
572.0, 0.003942876910515799
573.0, 0.0020618267663424445
574.0, 0.0036550985289404946
575.0, 0.0008095093459744547
576.0, 0.009545173013834982
577.0, 0.010670688294453213
578.0, 0.004570444440432766
579.0, 0.0050025427671568715
580.0, 0.010710843577167088
581.0, 0.011235554203067443
582.0, 0.012946652403140153
583.0, 0.012238353848173617
584.0, 0.0047292538063014936
585.0, 0.00228094655022153
586.0, 0.002099964531615231
587.0, 0.0034565726761872024
588.0, 0.007854507461872193
589.0, 0.0005828163496516599
590.0, 0.006377262067058771
591.0, 0.006118580729006152
592.0, 0.003997528334120631
593.0, 0.0031159476949366985
594.0, 0.0032193594206392307
595.0, 0.0021320552123356867
596.0, 0.0034159230248543165
597.0, 0.005448528465713925
598.0, 0.008363541673191041
599.0, 0.006871392535420357
600.0, 0.0046582291057214375
601.0, 0.004754304681480271
602.0, 0.005122562965283379
603.0, 0.01271057466463666
604.0, 0.005408754057870568
605.0, 0.008678987295842721
606.0, 0.006157997479579843
607.0, 0.0018040059861845136
608.0, 0.003787247489805039
609.0, 0.008364509616979128
610.0, 0.009955589412083467
611.0, 0.010982796450504794
612.0, 0.007898323107142786
613.0, 0.005432230207954175
614.0, 0.004833269299101091
615.0, 0.00574239151147904
616.0, 0.008369900819585423
617.0, 0.008719540773620174
618.0, 0.014918595657596961
619.0, 0.011280174537671316
620.0, 0.011725181736864093
621.0, 0.014410962995613834
622.0, 0.01550801161689588
623.0, 0.021497732808011295
624.0, 0.017478695799178275
625.0, 0.012843703959046172
626.0, 0.01977328650552665
627.0, 0.022758356743705355
628.0, 0.021737758005529597
629.0, 0.023869624268409592
630.0, 0.029572653780581153
631.0, 0.024920678331270898
632.0, 0.029461182482408983
633.0, 0.033410657432255096
634.0, 0.03619696608672693
635.0, 0.04124011494297566
636.0, 0.04824031284598384
637.0, 0.051452943290253475
638.0, 0.0574521709286936
639.0, 0.0675804993978245
640.0, 0.08100564206733554
641.0, 0.08470223141299399
642.0, 0.0883784142031043
643.0, 0.09897697123932866
644.0, 0.10632624989367569
645.0, 0.1056136937511394
646.0, 0.10233488736642395
647.0, 0.10142400580849502
648.0, 0.10677016960978714
649.0, 0.10885386567756593
650.0, 0.10450238325405109
651.0, 0.09971151179675115
652.0, 0.08418476422446651
653.0, 0.095055049232818
654.0, 0.08848361298903105
655.0, 0.08443303805605294
656.0, 0.08035486384231492
657.0, 0.07686102954909253
658.0, 0.0789264681745184
659.0, 0.07324678954221671
660.0, 0.07873948536873741
661.0, 0.07792190728522645
662.0, 0.07092870037112815
663.0, 0.06691739049119506
664.0, 0.06683130484423982
665.0, 0.06455914306832697
666.0, 0.0584481513097895
667.0, 0.057651390752248295
668.0, 0.05552062187030607
669.0, 0.045870835515990575
670.0, 0.04175949683452442
671.0, 0.04145675077319285
672.0, 0.037755952807628744
673.0, 0.03422482114704109
674.0, 0.03357954683182913
675.0, 0.029042029370979137
676.0, 0.030548394374195886
677.0, 0.027615465318329407
678.0, 0.026039207848895976
679.0, 0.028183928041395877
680.0, 0.025401950767701797
681.0, 0.030103303991869813
682.0, 0.020519469104195595
683.0, 0.025150826325131794
684.0, 0.025409784749093514
685.0, 0.02393272361283051
686.0, 0.024550202563958585
687.0, 0.024854930813432947
688.0, 0.023386436533508005
689.0, 0.02677675034923874
690.0, 0.027038608297047424
691.0, 0.028223343339060767
692.0, 0.029123030045064596
693.0, 0.03037654384895412
694.0, 0.03248276522558301
695.0, 0.03270731292713557
696.0, 0.03245521120750158
697.0, 0.030622153088791255
698.0, 0.03676475732065728
699.0, 0.035998182615093806
700.0, 0.03350153569966681
701.0, 0.034823662144733425
702.0, 0.03309510863684
703.0, 0.02159946557940303
704.0, 0.033539495121061524
705.0, 0.045653676156378255
706.0, 0.04384483296088473
707.0, 0.046511731630767
708.0, 0.05598881477181906
709.0, 0.0607117588760477
710.0, 0.06425693802326779
711.0, 0.08129261670401505
712.0, 0.07399973212793308
713.0, 0.07550561632720673
714.0, 0.07448948076336728
715.0, 0.06997382461868529
716.0, 0.06570972244077986
717.0, 0.06045942489943725
718.0, 0.05118212152634776
719.0, 0.04592859914445169
720.0, 0.038857079882953595
721.0, 0.03369583853166337
722.0, 0.030883401836773027
723.0, 0.028334853620242177
724.0, 0.02297096124504366
725.0, 0.013856995107580202
726.0, 0.015204175725933336
727.0, 0.010310091183279552
728.0, 0.012071601399271065
729.0, 0.011858704340235683
730.0, 0.00915710886417146
731.0, 0.007728006497820494
732.0, 0.008685156887741288
733.0, 0.007863716579411878
734.0, 0.013221785016514538
735.0, 0.01409198135923119
736.0, 0.009368448172081639
737.0, 0.006972021935417406
738.0, 0.005928164287112517
739.0, 0.005071788080869005
740.0, 0.01139457687665405
741.0, 0.007496476032225155
742.0, 0.015511678052228391
743.0, 0.007271912947634709
744.0, 0.003808750412582864
745.0, 0.00592111000221243
746.0, 0.008378893980578169
747.0, 0.008100954731708208
748.0, 0.0033096213992407125
749.0, 0.009297863909352987
750.0, 0.006890167820341993
751.0, 0.002418349417832856
752.0, 0.0021390329550582056
753.0, 0.0044144513952520505
754.0, 0.004310372400307615
755.0, 0.0016253330675233017
756.0, 0.00737082105580068
757.0, 0.008522579915233613
758.0, 0.005237339140714328
759.0, 0.0023677237922879704
760.0, 0.0037095105640664017
761.0, 0.005238458112443073
762.0, 0.005424017443284053
763.0, 0.009733565649581534
764.0, 0.008346006605491039
765.0, 0.00455630282650499
766.0, 0.01030397229806377
767.0, 0.007397109332033991
768.0, 0.005962333711360957
769.0, 0.00775258343115473
770.0, 0.00643073236250289
771.0, 0.0034987045846470483
772.0, 0.004226770528311958
773.0, 0.006384369213625466
774.0, 0.005247741757627703
775.0, 0.00619627920497875
776.0, 0.00586901452971086
777.0, 0.005960750170362923
778.0, 0.009480512582698735
779.0, 0.010001268289089735
780.0, 0.009638544324079014
781.0, 0.010869443842054984
782.0, 0.009214650076991177
783.0, 0.009523110859143603
784.0, 0.0090178450192032
785.0, 0.007050517345169977
786.0, 0.00502060921163661
787.0, 0.0003626754095797913
788.0, 0.0037807007090359277
789.0, 0.01563995298781363
790.0, 0.010191751458970617
791.0, 0.0030620543089290657
792.0, 0.0038615271584004794
793.0, 0.006379474423392236
794.0, 0.0020368974053252067
795.0, 0.0006720521495670474
796.0, 0.0051216060946981615
797.0, 0.0021292450647483977
798.0, 0.0042555700913576855
799.0, 0.002997240773256107
800.0, 0.004574262072022857
801.0, 0.005885789631368985
802.0, 0.00013567767665392683
803.0, 0.0015358106810709413
804.0, 0.013579919693265354
805.0, 0.005133517898017921
806.0, 0.0019740943672132577
807.0, 0.0009567864577505379
808.0, 0.0029965432475520417
809.0, 0.004773492261585136
810.0, 0.0025961721437245413
811.0, 0.0022517759720474097
812.0, 0.005427793320807608
813.0, 0.0045134917050823975
814.0, 0.009631588799013347
815.0, 0.009452156495593923
816.0, 0.006442491607397198
817.0, 0.003625826064714674
818.0, 0.0015142672122931884
819.0, 0.0018052821254530397
820.0, 0.004741694171126432
821.0, 0.003782930689783744
822.0, 0.006801674280499425
823.0, 0.006936965802243677
824.0, 0.006600845537175129
825.0, 0.004852631855919816
826.0, 0.003713346900527035
827.0, 0.009843037107233077
828.0, 0.009579276454412571
829.0, 0.006567457760510506
830.0, 0.0035353848752921095
831.0, 0.0036881594204568016
832.0, 0.002677582216137231
833.0, 0.0023207395007208502
834.0, 0.003336650845833735
835.0, 0.003344279922668391
836.0, 0.008548086825405485
837.0, 0.014508754340993777
838.0, 0.015985364146350624
839.0, 0.018678533875070576
840.0, 0.018864373367805803
841.0, 0.019459295198570887
842.0, 0.01783471119304298
843.0, 0.010458845368660298
844.0, 0.007051368851592506
845.0, 0.002133383509542675
846.0, 0.0039987950905649595
847.0, 0.004480950222791253
848.0, 0.002835741495639071
849.0, 0.005531118084635608
850.0, 0.007130476798927855
851.0, 0.003627456205115832
852.0, 0.005636665624351533
853.0, 0.012361846916082208
854.0, 0.0111812991547
855.0, 0.002678709629533232
856.0, 0.004771582552805211
857.0, 0.005514497470013812
858.0, 0.0030711920727653753
859.0, 0.0019138732720627531
860.0, 0.003069571857298102
861.0, 0.0037705009500710635
862.0, 0.0024352820407259313
863.0, 0.00401115010967883
864.0, 0.00971350101014221
865.0, 0.010358864200277096
866.0, 0.00823660212154371
867.0, 0.01001568382857215
868.0, 0.012554446302587893
869.0, 0.005088783899324406
870.0, 0.006349408220457161
871.0, 0.0037489245035105282
872.0, 0.0020343627169617084
873.0, 0.006422921047384433
874.0, 0.006658575208632886
875.0, 0.006474316170841788
876.0, 0.005785841025539942
877.0, 0.0014298803579553714
878.0, 0.005818141691522479
879.0, 0.003521508141629473
880.0, 0.006618684686212459
881.0, 0.005426833725762817
882.0, 0.0073762280082032795
883.0, 0.009193004243293909
884.0, 0.009557955039799837
885.0, 0.010679841770177214
886.0, 0.0129675038039293
887.0, 0.011626673960361003
888.0, 0.013858021534930456
889.0, 0.013545739539030585
890.0, 0.0192068605651046
891.0, 0.014748729927816914
892.0, 0.017982938941011405
893.0, 0.03205237035169999
894.0, 0.03891131495969849
895.0, 0.03539324443504293
896.0, 0.06399815151535278
897.0, 0.06723408107094292
898.0, 0.0933274737943868
899.0, 0.12231112629861123
900.0, 0.14908449415256358
901.0, 0.1827583448418905
902.0, 0.21908760603536362
903.0, 0.246640514156125
904.0, 0.271262811351181
905.0, 0.29405142064858625
906.0, 0.30430159225002995
907.0, 0.2990604977322624
908.0, 0.26947914351463387
909.0, 0.23559196012789646
910.0, 0.1990311538559285
911.0, 0.15409543386317184
912.0, 0.11071132188618006
913.0, 0.08993390361368608
914.0, 0.05376392007011693
915.0, 0.040532902373170754
916.0, 0.0252562073793072
917.0, 0.023760424847334784
918.0, 0.023073138261805758
919.0, 0.02208107906649017
920.0, 0.021748795452287313
921.0, 0.018906173652621566
922.0, 0.01715146498081736
923.0, 0.02081072491032803
924.0, 0.020263279936237624
925.0, 0.014151346643120965
926.0, 0.015522821375736972
927.0, 0.016388145406921094
928.0, 0.022160524369455595
929.0, 0.02378096576714452
930.0, 0.014551024394910914
931.0, 0.02506677310246784
932.0, 0.01563228206333829
933.0, 0.016758894882246286
934.0, 0.025323891032046714
935.0, 0.01406093950932064
936.0, 0.007270731119182488
937.0, 0.008345301534783175
938.0, 0.012181208205022647
939.0, 0.014603907790866247
940.0, 0.009540199903383294
941.0, 0.01563487378031084
942.0, 0.014404688918443005
943.0, 0.01594220917749776
944.0, 0.014042912894395935
945.0, 0.01451205250815962
946.0, 0.012130468869146236
947.0, 0.01112773022143493
948.0, 0.015003725640475687
949.0, 0.012270589011106788
950.0, 0.007168092347707345
951.0, 0.011762438146354613
952.0, 0.017692207686508987
953.0, 0.015644408341845197
954.0, 0.01011642312752709
955.0, 0.009625600050242641
956.0, 0.011474004914683828
957.0, 0.008094296573112185
958.0, 0.0026733711723368335
959.0, 0.009280510805501931
960.0, 0.0013004331356605212
961.0, 0.002790494855688194
962.0, 0.004954169152830329
963.0, 0.008453639559327202
964.0, 0.009922747466265801
965.0, 0.01170774082013037
966.0, 0.014715995979540703
967.0, 0.016776655794600456
968.0, 0.018565823837916634
969.0, 0.018389817971580413
970.0, 0.01776191274663894
971.0, 0.02286209398385993
972.0, 0.019809037852082385
973.0, 0.020495192811610552
974.0, 0.014205957499470467
975.0, 0.011179622829305251
976.0, 0.017621659828308035
977.0, 0.018768547236722503
978.0, 0.03320654735763074
979.0, 0.028810778926928078
980.0, 0.02967222126606261
981.0, 0.04365832103908131
982.0, 0.04504199492501231
983.0, 0.04967359412043852
984.0, 0.060125787003868184
985.0, 0.0724112691431427
986.0, 0.08763961114631759
987.0, 0.10672646436446334
988.0, 0.12696750463397358
989.0, 0.1276598770336423
990.0, 0.12565240604632913
991.0, 0.12078841249421202
992.0, 0.10659200570670756
993.0, 0.08397100999508912
994.0, 0.0648101329403065
995.0, 0.05355073258687818
996.0, 0.045496558779907346
997.0, 0.04511793924189975
998.0, 0.046635696564736345
999.0, 0.04185611832413048
1000.0, 0.04099419433587716
1001.0, 0.035685732713780574
1002.0, 0.032599811649326974
1003.0, 0.027981979844242173
1004.0, 0.03205489368970438
1005.0, 0.04385876847206908
1006.0, 0.04414855445081938
1007.0, 0.04210027173954016
1008.0, 0.03830080553913197
1009.0, 0.036329351121279975
1010.0, 0.040797121941323365
1011.0, 0.03703698133896717
1012.0, 0.040824237244066294
1013.0, 0.04428916710086169
1014.0, 0.03765390577109475
1015.0, 0.029619304872867958
1016.0, 0.030119421402889507
1017.0, 0.020546751790382213
1018.0, 0.01939426764383442
1019.0, 0.00958165660201532
1020.0, 0.02087791459054615
1021.0, 0.014882848984080828
1022.0, 0.01534981609939323
1023.0, 0.021441986737338797
1024.0, 0.02548636412178209
1025.0, 0.02199279694328227
1026.0, 0.011636397711782752
1027.0, 0.013153199095264603
1028.0, 0.013567856474358167
1029.0, 0.019784925136683715
1030.0, 0.019258055110657223
1031.0, 0.022101848051830297
1032.0, 0.022054573585382625
1033.0, 0.02404905156949056
1034.0, 0.028666414034359405
1035.0, 0.029297370716204762
1036.0, 0.023768532016398346
1037.0, 0.019567433329761925
1038.0, 0.014251448077852563
1039.0, 0.0065345494136184595
1040.0, 0.01616269542567141
1041.0, 0.02338926563947933
1042.0, 0.021805631488390376
1043.0, 0.023479368514918258
1044.0, 0.02354132085378217
1045.0, 0.018891561561252185
1046.0, 0.018736609285932918
1047.0, 0.021387819247066585
1048.0, 0.008166085052225922
1049.0, 0.012762174210371595
1050.0, 0.014488769309473092
1051.0, 0.012022349294377763
1052.0, 0.0057600449881707125
1053.0, 0.015324108076811898
1054.0, 0.021032226267011817
1055.0, 0.02069741821164597
1056.0, 0.020704795990741928
1057.0, 0.012205312812412779
1058.0, 0.017574383408437817
1059.0, 0.023205466100424538
1060.0, 0.02074627845540675
1061.0, 0.026553153643294615
1062.0, 0.025063707336858122
1063.0, 0.029018479048919882
1064.0, 0.03244673559796251
1065.0, 0.032867446938230536
1066.0, 0.03311536251762893
1067.0, 0.03641862401720313
1068.0, 0.0444958730722418
1069.0, 0.04795540759443696
1070.0, 0.06634989307366879
1071.0, 0.07686643390224786
1072.0, 0.08585763865783486
1073.0, 0.08598234691662447
1074.0, 0.11057048059948459
1075.0, 0.1405534088847816
1076.0, 0.1761472473056062
1077.0, 0.22021628918499128
1078.0, 0.26329299697034875
1079.0, 0.33252708991210356
1080.0, 0.4141596954991356
1081.0, 0.4704307475321504
1082.0, 0.5574155711714005
1083.0, 0.6602873989334334
1084.0, 0.8280180128227443
1085.0, 0.9565630408759738
1086.0, 0.9286491426594277
1087.0, 0.7940130850173541
1088.0, 0.6656796954444278
1089.0, 0.5628989674503302
1090.0, 0.47387199223977955
1091.0, 0.41400523400164774
1092.0, 0.3992189436725481
1093.0, 0.3916256101221134
1094.0, 0.3578254357483758
1095.0, 0.30369685216820347
1096.0, 0.2295660417553449
1097.0, 0.1616077677947422
1098.0, 0.11051946974202946
1099.0, 0.07072893085661877
1100.0, 0.04421818342643257
1101.0, 0.032511517115879705
1102.0, 0.0322218865414388
1103.0, 0.017295057163582685
1104.0, 0.024150805832677903
1105.0, 0.010940739105922689
1106.0, 0.01481528451501355
1107.0, 0.015077346634938755
1108.0, 0.0072750530483704666
1109.0, 0.0015159651202751926
1110.0, 0.0015225323115749048
1111.0, 0.0029380992018464
1112.0, 0.004578022816542826
1113.0, 0.0073321894966922475
1114.0, 0.0010193055833196247
1115.0, 0.0032992832769101815
1116.0, 0.017094747753026877
1117.0, 0.024812407982897876
1118.0, 0.025914390241437643
1119.0, 0.029077194317636577
1120.0, 0.030819246361564665
1121.0, 0.030354878963074896
1122.0, 0.029738868084544505
1123.0, 0.026900247107725053
1124.0, 0.03696225217268806
1125.0, 0.026001154521732572
1126.0, 0.020752140842791412
1127.0, 0.02288128849814474
1128.0, 0.01584641953389886
1129.0, 0.013293826184650774
1130.0, 0.008987278352014802
1131.0, 0.007423662908720962
1132.0, 0.012398051858278933
1133.0, 0.012044754638229474
1134.0, 0.004333204383299498
1135.0, 0.013595936349003735
1136.0, 0.011535632958398493
1137.0, 0.0018746525231855852
1138.0, 0.006707180054070846
1139.0, 0.01703939210186912
1140.0, 0.013980107122079234
1141.0, 0.01168177796508503
1142.0, 0.005232114357900603
1143.0, 0.0007717034906362453
1144.0, 0.008421120002529587
1145.0, 0.01751266363890302
1146.0, 0.013406403836240265
1147.0, 0.014243583256269919
1148.0, 0.013377868332903655
1149.0, 0.00841180609067844
1150.0, 0.003703449555701749
1151.0, 0.011918359793934278
1152.0, 0.01060215376102336
1153.0, 0.008055328763314992
1154.0, 0.0045865988495950635
1155.0, 0.005100843413173912
1156.0, 0.005489188371731983
1157.0, 0.002015804233329518
1158.0, 0.0040101131976685404
1159.0, 0.008193438641042465
1160.0, 0.010617259863064702
1161.0, 0.012954413504734004
1162.0, 0.0016926579539307185
1163.0, 0.003821862485307331
1164.0, 0.003731264791492209
1165.0, 0.009644229599184328
1166.0, 0.0096361667475854
1167.0, 0.008697634926539301
1168.0, 0.0065251799759590105
1169.0, 0.003650286869113341
1170.0, 0.00816289060562914
1171.0, 0.00716783409247571
1172.0, 0.01007220223830629
1173.0, 0.004488279494258792
1174.0, 0.007545512798646963
1175.0, 0.013348651996674302
1176.0, 0.015194245458933487
1177.0, 0.008322629375658554
1178.0, 0.002875438862037317
1179.0, 0.002955514665481408
1180.0, 0.005461759717199195
1181.0, 0.00449033770920112
1182.0, 0.004207141107004727
1183.0, 0.011339540010669362
1184.0, 0.0018617871018053117
1185.0, 0.010798560162915163
1186.0, 0.0013170465559798382
1187.0, 0.0035434774854062644
1188.0, 0.004484512326960485
1189.0, 0.00284936466355736
1190.0, 0.0037078484588398504
1191.0, 0.0033633087956168673
1192.0, 0.006513185092525609
1193.0, 0.013455445614254036
1194.0, 0.01706101121027327
1195.0, 0.017156307852125553
1196.0, 0.019078863648226915
1197.0, 0.01717731629487347
1198.0, 0.018237922546146177
1199.0, 0.017663493390263137
1200.0, 0.016937117939624827
1201.0, 0.019069633256002437
1202.0, 0.009403703887625677
1203.0, 0.014128234657677742
1204.0, 0.013233196010678214
1205.0, 0.004567312774168977
1206.0, 0.00165511859614416
1207.0, 0.006269860486079129
1208.0, 0.011679368665396397
1209.0, 0.012691502269699185
1210.0, 0.010514896653906215
1211.0, 0.012606755481460879
1212.0, 0.00505333855456752
1213.0, 0.013647651903783146
1214.0, 0.010880611222296322
1215.0, 0.003348047983727329
1216.0, 0.005866453641110358
1217.0, 0.006119437731886948
1218.0, 0.005477263180178906
1219.0, 0.0051036912300663735
1220.0, 0.0038237728507994114
1221.0, 0.005325264898455544
1222.0, 0.006588203566102169
1223.0, 0.008689171672268006
1224.0, 0.012788299258093208
1225.0, 0.013454772673261027
1226.0, 0.021805967882199184
1227.0, 0.006691818106686257
1228.0, 0.002403457245371743
1229.0, 0.004988534629103779
1230.0, 0.00980286803238266
1231.0, 0.012356128373329263
1232.0, 0.012904697561542977
1233.0, 0.016200207677892247
1234.0, 0.01622656138295017
1235.0, 0.0059136562686750715
1236.0, 0.004143807635958731
1237.0, 0.004548058104580909
1238.0, 0.007804940831683725
1239.0, 0.006217494699609455
1240.0, 0.006711127860702845
1241.0, 0.004276826913967116
1242.0, 0.005512150984212183
1243.0, 0.006093231115238501
1244.0, 0.006547139626217185
1245.0, 0.00985884973337761
1246.0, 0.015080140747329954
1247.0, 0.016364600510390074
1248.0, 0.015696212392180883
1249.0, 0.016122298257963963
1250.0, 0.004527667867545595
1251.0, 0.010252029569820756
1252.0, 0.0036471163550062064
1253.0, 0.0039616674449253755
1254.0, 0.004571173259414646
1255.0, 0.008860156799523617
1256.0, 0.005397976278516319
1257.0, 0.005061260305294502
1258.0, 0.0029333338128164042
1259.0, 0.005222714267121615
1260.0, 0.005000454647309384
1261.0, 0.007081572622218191
1262.0, 0.015373553331508161
1263.0, 0.01116604409002735
1264.0, 0.005706692803151672
1265.0, 0.013977310326445752
1266.0, 0.011239217208125658
1267.0, 0.0005340069167507544
1268.0, 0.007776789399394771
1269.0, 0.0029016421140324977
1270.0, 0.001244369129939047
1271.0, 0.0010245084131392202
1272.0, 0.0004542870336367145
1273.0, 0.004018295766871712
1274.0, 0.005765788535057101
1275.0, 0.006212100122489657
1276.0, 0.006603393928590638
1277.0, 0.004261286655860047
1278.0, 0.004156028086892165
1279.0, 0.004806668228716825
1280.0, 0.008016387539511704
1281.0, 0.010444835074059316
1282.0, 0.012921148870890768
1283.0, 0.012492564368262323
1284.0, 0.014197128942336658
1285.0, 0.009859527404150588
1286.0, 0.009154472564773582
1287.0, 0.01257125709204219
1288.0, 0.010168540894593285
1289.0, 0.013408260814539621
1290.0, 0.01213417553655775
1291.0, 0.002438432703686689
1292.0, 0.002264429786281077
1293.0, 0.0063458868544762
1294.0, 0.008400512351371662
1295.0, 0.0044633697749289535
1296.0, 0.02061877230864046
1297.0, 0.00985273466866915
1298.0, 0.0035115627056662908
1299.0, 0.008964911266977625
1300.0, 0.016214699073299702
1301.0, 0.01559534412842663
1302.0, 0.020659881863027738
1303.0, 0.019396036343640868
1304.0, 0.012107034272640916
1305.0, 0.00553745050470267
1306.0, 0.0022725427208379347
1307.0, 0.007277329124643582
1308.0, 0.014756820988113494
1309.0, 0.008949771730272388
1310.0, 0.011660288885436073
1311.0, 0.018355735005341656
1312.0, 0.004412847480359803
1313.0, 0.013354572441029089
1314.0, 0.010818525945945444
1315.0, 0.009889585200408585
1316.0, 0.002562580117498322
1317.0, 0.002514193733823657
1318.0, 0.005200955715906985
1319.0, 0.007397158102456281
1320.0, 0.007602213384793315
1321.0, 0.007215739561552531
1322.0, 0.006909595389807604
1323.0, 0.0065702589365323446
1324.0, 0.0086800269779493
1325.0, 0.010335335515640165
1326.0, 0.004043767335006138
1327.0, 0.01181908490561609
1328.0, 0.025359082583760843
1329.0, 0.01648863440626482
1330.0, 0.015895765949851353
1331.0, 0.021447796400391104
1332.0, 0.014006543821062263
1333.0, 0.015390724453234653
1334.0, 0.009583816969656194
1335.0, 0.008251401913450404
1336.0, 0.008500140893923874
1337.0, 0.011901230987749234
1338.0, 0.0110729488412697
1339.0, 0.008513713953690188
1340.0, 0.010657356526889528
1341.0, 0.01118617895525401
1342.0, 0.015664649744721745
1343.0, 0.0057123234318599905
1344.0, 0.01509409492256564
1345.0, 0.009248590253134155
1346.0, 0.012332311492071939
1347.0, 0.012600202060911952
1348.0, 0.012055821085846335
1349.0, 0.013495607899115596
1350.0, 0.010000509016882663
1351.0, 0.007774980070777614
1352.0, 0.008734532325389162
1353.0, 0.010118837192204265
1354.0, 0.014850676265189837
1355.0, 0.017735036873836072
1356.0, 0.018665705434684224
1357.0, 0.020874702781768513
1358.0, 0.017492517003546412
1359.0, 0.008884739595230905
1360.0, 0.0052606735652008145
1361.0, 0.012881262555888074
1362.0, 0.013737092809771386
1363.0, 0.010960531660359239
1364.0, 0.008260499540508528
1365.0, 0.0015156842189963105
1366.0, 0.008919455769841034
1367.0, 0.012528721358487475
1368.0, 0.011173568914347959
1369.0, 0.0060507145843118094
1370.0, 0.008720471073350354
1371.0, 0.012016757983916802
1372.0, 0.00768159458870446
1373.0, 0.006812401543568555
1374.0, 0.006898631072115256
1375.0, 0.004612427459869996
1376.0, 0.009895691719721112
1377.0, 0.01266070914380356
1378.0, 0.008570983166098455
1379.0, 0.003289391310993756
1380.0, 0.010625063930943349
1381.0, 0.005575013151695418
1382.0, 0.012916170297950627
1383.0, 0.010863917181535817
1384.0, 0.010973543135755364
1385.0, 0.004152079040854852
1386.0, 0.009498230110978778
1387.0, 0.011225212691010511
1388.0, 0.011530420654296356
1389.0, 0.018712710587354776
1390.0, 0.014443255609636146
1391.0, 0.004822325633676456
1392.0, 0.007417673891859946
1393.0, 0.009908997167292656
1394.0, 0.007321133967373155
1395.0, 0.01226086149586901
1396.0, 0.012921092861633003
1397.0, 0.009211563790223375
1398.0, 0.010412247963673849
1399.0, 0.015387239031215869
1400.0, 0.008442328109502186
1401.0, 0.006049485030576002
1402.0, 0.00344553977409536
1403.0, 0.017679439995596184
1404.0, 0.009979298890215328
1405.0, 0.011246029613614192
1406.0, 0.010241035659343626
1407.0, 0.014210748819971785
1408.0, 0.013513451480553497
1409.0, 0.013465592347602811
1410.0, 0.009749820446936692
1411.0, 0.013122583063796657
1412.0, 0.013139432352155188
1413.0, 0.011668338733623839
1414.0, 0.015487093452366513
1415.0, 0.013188215684363902
1416.0, 0.01439953743053809
1417.0, 0.013459582578002293
1418.0, 0.016503283913019327
1419.0, 0.015471833722592341
1420.0, 0.010975836588486491
1421.0, 0.006759346632204945
1422.0, 0.0006052957823156398
1423.0, 0.012043039259204354
1424.0, 0.017085640404350993
1425.0, 0.01497610422781909
1426.0, 0.01961026457398095
1427.0, 0.017859681927266363
1428.0, 0.024389339125758254
1429.0, 0.0220683186925253
1430.0, 0.022239606403168362
1431.0, 0.023948980148747665
1432.0, 0.029762398644582636
1433.0, 0.03366264256707795
1434.0, 0.03290328027731036
1435.0, 0.03421335776732917
1436.0, 0.03377014664641321
1437.0, 0.029559218243961117
1438.0, 0.028725211975257847
1439.0, 0.025619783665358067
1440.0, 0.011310215289842877
1441.0, 0.008426381833121967
1442.0, 0.011260821525178653
1443.0, 0.020486961143885315
1444.0, 0.011410516962602453
1445.0, 0.011286725474824219
1446.0, 0.008858797831793167
1447.0, 0.011133089218195974
1448.0, 0.005140141027440925
1449.0, 0.007758251542605006
1450.0, 0.013958920584499313
1451.0, 0.012181027751437857
1452.0, 0.005753711249418132
1453.0, 0.0027558448457416806
1454.0, 0.006295816903893987
1455.0, 0.009497613082111674
1456.0, 0.010512778068948398
1457.0, 0.011604732989610896
1458.0, 0.012512613056502945
1459.0, 0.00960114289088506
1460.0, 0.002965149924489747
1461.0, 0.00885586534853484
1462.0, 0.021927597716204804
1463.0, 0.012745305527088907
1464.0, 0.012302565511273797
1465.0, 0.00680316073146614
1466.0, 0.020242678894737534
1467.0, 0.008502494228354553
1468.0, 0.020368073203847092
1469.0, 0.012341845549478182
1470.0, 0.01173766842737217
1471.0, 0.004162534587531444
1472.0, 0.009374979779284465
1473.0, 0.011492347076554625
1474.0, 0.009874554842118115
1475.0, 0.008793396119892964
1476.0, 0.003440360698639705
1477.0, 0.006185024171555184
1478.0, 0.004764098221618536
1479.0, 0.0026864216161358967
1480.0, 0.008595878702140758
1481.0, 0.010719176703298914
1482.0, 0.007132999055385596
1483.0, 0.004462178186386216
1484.0, 0.0017452028604698093
1485.0, 0.002183145150224788
1486.0, 0.007681882000813934
1487.0, 0.01863228256175179
1488.0, 0.01434870543086553
1489.0, 0.01971628630388597
1490.0, 0.008276665813018188
1491.0, 0.006813669778741423
1492.0, 0.013660196795884547
1493.0, 0.007210460772822854
1494.0, 0.009518069804268963
1495.0, 0.007552626270205728
1496.0, 0.009306387335816076
1497.0, 0.019926003446462674
1498.0, 0.012045265740917376
1499.0, 0.030166743957171754
1500.0, 0.029996169274088075
1501.0, 0.027080261425144588
1502.0, 0.01514122273681157
1503.0, 0.014029634631478825
1504.0, 0.012476074006501933
1505.0, 0.016298158830585618
1506.0, 0.020297490341115942
1507.0, 0.019889926155560324
1508.0, 0.021881465420668253
1509.0, 0.021799992458106692
1510.0, 0.013976130084530478
1511.0, 0.006706902087344896
1512.0, 0.006975368025669791
1513.0, 0.007704733666183811
1514.0, 0.005278557535397883
1515.0, 0.007512242295350014
1516.0, 0.011621741071557572
1517.0, 0.01493131321730504
1518.0, 0.01341343352967528
1519.0, 0.013431072100265793
1520.0, 0.009249777317018539
1521.0, 0.015384694739151517
1522.0, 0.013762038093782566
1523.0, 0.015132829438537925
1524.0, 0.012799040481384406
1525.0, 0.008577006473659419
1526.0, 0.009527802381889335
1527.0, 0.0015721333373729315
1528.0, 0.0021225121836790472
1529.0, 0.009967827892720127
1530.0, 0.011800553817142323
1531.0, 0.004306488481035674
1532.0, 0.008804929674566619
1533.0, 0.004531925666661337
1534.0, 0.007716225467636858
1535.0, 0.014364934276744625
1536.0, 0.011721176068883716
1537.0, 0.01156846578921028
1538.0, 0.00996563318539053
1539.0, 0.00945809393820033
1540.0, 0.013411876000602351
1541.0, 0.009628760454392248
1542.0, 0.00601675566870636
1543.0, 0.0064893949850857845
1544.0, 0.0036580196304879186
1545.0, 0.006651214773702209
1546.0, 0.007063280849459598
1547.0, 0.0073945247804822305
1548.0, 0.009675718241966724
1549.0, 0.003076270607094568
1550.0, 0.00433076051345941
1551.0, 0.0025810150030190094
1552.0, 0.009049690747926985
1553.0, 0.010782549720587491
1554.0, 0.010647454720159672
1555.0, 0.005743192055430204
1556.0, 0.0094467795669957
1557.0, 0.012753921904302388
1558.0, 0.009116798986041681
1559.0, 0.013915666728575204
1560.0, 0.0030627922416294785
1561.0, 0.00444949939136751
1562.0, 0.015936436748396718
1563.0, 0.02067972518106881
1564.0, 0.011294456682820506
1565.0, 0.013706185955411216
1566.0, 0.01392043537858166
1567.0, 0.013906022889827827
1568.0, 0.009768352882157669
1569.0, 0.009160229491073032
1570.0, 0.003771990850589239
1571.0, 3.0094342654186594e-05
1572, 0.0
1573, 0.0
1574, 0.0
1575, 0.0
1576, 0.0
1577, 0.0
1578, 0.0
1579, 0.0
1580, 0.0
1581, 0.0
1582, 0.0
1583, 0.0
1584, 0.0
1585, 0.0
1586, 0.0
1587, 0.0
1588, 0.0
1589, 0.0
1590, 0.0
1591, 0.0
1592, 0.0
1593, 0.0
1594, 0.0
1595, 0.0
1596, 0.0
1597, 0.0
1598, 0.0
1599, 0.0
