30, 0.0
31, 0.0
32, 0.0
33, 0.0
34, 0.0
35, 0.0
36, 0.0
37, 0.0
38, 0.0
39, 0.0
40, 0.0
41, 0.0
42, 0.0
43, 0.0
44, 0.0
45, 0.0
46, 0.0
47, 0.0
48, 0.0
49, 0.0
50, 0.0
51, 0.0
52, 0.0
53, 0.0
54, 0.0
55, 0.0
56, 0.0
57, 0.0
58, 0.0
59, 0.0
60, 0.0
61, 0.0
62, 0.0
63, 0.0
64, 0.0
65, 0.0
66, 0.0
67, 0.0
68, 0.0
69, 0.0
70, 0.0
71, 0.0
72, 0.0
73, 0.0
74, 0.0
75, 0.0
76, 0.0
77, 0.0
78, 0.0
79, 0.0
80, 0.0
81, 0.0
82, 0.0
83, 0.0
84, 0.0
85, 0.0
86, 0.0
87, 0.0
88, 0.0
89, 0.0
90, 0.0
91, 0.0
92, 0.0
93, 0.0
94, 0.0
95, 0.0
96.0, 0.00017505137902179037
97.0, 0.0035414240525173234
98.0, 0.0014560926351690658
99.0, 0.00012182702804259316
100.0, 0.0008465382062909597
101.0, 0.002418531593194277
102.0, 0.0011759198303948391
103.0, 0.006869206276818369
104.0, 0.016418966601399965
105.0, 0.03159881559569464
106.0, 0.05373697455444629
107.0, 0.0816837884016996
108.0, 0.11092375409976798
109.0, 0.1330247784922091
110.0, 0.13757312536694036
111.0, 0.12720341152177023
112.0, 0.1182949708385003
113.0, 0.10273894260694236
114.0, 0.09235997680055572
115.0, 0.08052064227025436
116.0, 0.06748674799978091
117.0, 0.05777867752853248
118.0, 0.059643558252793015
119.0, 0.06479416586459459
120.0, 0.06973931109634852
121.0, 0.07681700714241893
122.0, 0.08650596926059748
123.0, 0.09074473465742396
124.0, 0.08104854362976095
125.0, 0.0690080719249385
126.0, 0.05672812417200322
127.0, 0.046022106914739846
128.0, 0.03881209363451048
129.0, 0.029922136181504713
130.0, 0.02018262780193597
131.0, 0.015603698901082477
132.0, 0.014198408917632702
133.0, 0.011426594471980215
134.0, 0.015052334044440988
135.0, 0.010543851092540947
136.0, 0.010289852076201884
137.0, 0.011885059570869608
138.0, 0.013647280365590125
139.0, 0.023276716457556305
140.0, 0.02894815509699251
141.0, 0.024452874966311575
142.0, 0.021301956342028163
143.0, 0.020732273998667314
144.0, 0.014074818253751053
145.0, 0.019155950791916933
146.0, 0.020249937103404024
147.0, 0.0212272294709121
148.0, 0.023220566241618983
149.0, 0.026660234529872033
150.0, 0.03412976169379817
151.0, 0.04215380452610535
152.0, 0.0539529842972708
153.0, 0.0669046234076663
154.0, 0.0804827749919317
155.0, 0.09875584437120873
156.0, 0.12076785359384185
157.0, 0.14332934553443197
158.0, 0.15614058298437755
159.0, 0.15475612555703788
160.0, 0.14036866916419732
161.0, 0.12240358767557141
162.0, 0.1044592709353016
163.0, 0.08698640558514237
164.0, 0.06873404701305742
165.0, 0.050188834640345424
166.0, 0.036688202435957815
167.0, 0.022757093466881234
168.0, 0.01535064986659557
169.0, 0.010372415053043763
170.0, 0.006018855004667882
171.0, 0.0030367360187852897
172.0, 0.0016553311762475325
173.0, 0.0016282391523096322
174.0, 0.0011466093403024878
175.0, 0.0008101347534021124
176.0, 0.00157209855011737
177.0, 0.0031975541014070247
178.0, 0.0029071632582826027
179.0, 0.007305989351904382
180.0, 0.011624182765505564
181.0, 0.01246282756008166
182.0, 0.009397156791715445
183.0, 0.007381997446571983
184.0, 0.005927182851166118
185.0, 0.005430259813458301
186.0, 0.006306601251867787
187.0, 0.009789304746183919
188.0, 0.020153800287653057
189.0, 0.018406870276877915
190.0, 0.024177418886437343
191.0, 0.03196951854222938
192.0, 0.03798778198870487
193.0, 0.04343600246844183
194.0, 0.05451876286454712
195.0, 0.058743277301414654
196.0, 0.05777706652445636
197.0, 0.05774561922763792
198.0, 0.06125941414401728
199.0, 0.053723088986148165
200.0, 0.05125737569782077
201.0, 0.050456736654016454
202.0, 0.050825561987278646
203.0, 0.04906937939107116
204.0, 0.040100168019295876
205.0, 0.03482039055440015
206.0, 0.02396556116210636
207.0, 0.018476440410155826
208.0, 0.01612634336228148
209.0, 0.011932879721680952
210.0, 0.006345899080454037
211.0, 0.0070524996824564284
212.0, 0.003060875386277706
213.0, 0.0022092133959947186
214.0, 0.005609791744323728
215.0, 0.00748293186189335
216.0, 0.005956914367295019
217.0, 0.007226860656540196
218.0, 0.008958780734900055
219.0, 0.010693728888063359
220.0, 0.013548315956934617
221.0, 0.020883425721097536
222.0, 0.021493454970733836
223.0, 0.028659169461692117
224.0, 0.037473363210324
225.0, 0.04544920544821707
226.0, 0.05211840791167359
227.0, 0.05551107253376063
228.0, 0.06105881730134899
229.0, 0.05968040821423589
230.0, 0.05782500108801576
231.0, 0.05783404037308068
232.0, 0.051895882790844984
233.0, 0.05103221626153742
234.0, 0.04782644062105242
235.0, 0.03956053693793929
236.0, 0.03133595407529802
237.0, 0.028238611859781645
238.0, 0.022633004041096284
239.0, 0.024739047095373452
240.0, 0.02370086542581959
241.0, 0.020577239270399734
242.0, 0.01827897735707229
243.0, 0.0197416682143796
244.0, 0.02285268962416711
245.0, 0.02254001356474445
246.0, 0.02464466340487769
247.0, 0.0315937650608445
248.0, 0.04100022469248552
249.0, 0.04341236843990022
250.0, 0.04956882507377527
251.0, 0.0540100771741481
252.0, 0.06634144789454816
253.0, 0.08286225697052828
254.0, 0.09585966273795528
255.0, 0.1140613832919054
256.0, 0.13430593375314775
257.0, 0.1594232518132645
258.0, 0.18201045738815574
259.0, 0.19952390194737546
260.0, 0.2151002926739175
261.0, 0.2191580899373756
262.0, 0.20821868829499818
263.0, 0.19770154165675566
264.0, 0.18661427934833852
265.0, 0.17121030810680962
266.0, 0.15138441054215163
267.0, 0.1365073683132534
268.0, 0.12726805155486207
269.0, 0.11851051512195786
270.0, 0.11321813181558606
271.0, 0.11514068011906242
272.0, 0.115053591716538
273.0, 0.11970333765411881
274.0, 0.12278453551586828
275.0, 0.1289070638719566
276.0, 0.14056460192509232
277.0, 0.1553851493382077
278.0, 0.15586448209676668
279.0, 0.1623027240033274
280.0, 0.16809906338705538
281.0, 0.17119422813134064
282.0, 0.17275505354864715
283.0, 0.1769761746003204
284.0, 0.18529206565964526
285.0, 0.18981042053797675
286.0, 0.19291122879129574
287.0, 0.19572378327587245
288.0, 0.19859824950525626
289.0, 0.20117354850925306
290.0, 0.19669050241885597
291.0, 0.19756313326496097
292.0, 0.1962061227814712
293.0, 0.1943246202955443
294.0, 0.19690406224680881
295.0, 0.19880650535137948
296.0, 0.22270558281135158
297.0, 0.2466950686826516
298.0, 0.2735526617378998
299.0, 0.3047725923648345
300.0, 0.33761282823094446
301.0, 0.3619580928063209
302.0, 0.3810544233112962
303.0, 0.36860909141375064
304.0, 0.34250220469051773
305.0, 0.3148988972997343
306.0, 0.2811574545076633
307.0, 0.2557622412039397
308.0, 0.22834314906376146
309.0, 0.2022788036356027
310.0, 0.18313658429671203
311.0, 0.17242669769722652
312.0, 0.16399016829696605
313.0, 0.15818045065307046
314.0, 0.14574584303621546
315.0, 0.14122722619582118
316.0, 0.13819418122357127
317.0, 0.12851652212794365
318.0, 0.12035382216015765
319.0, 0.11587462460389336
320.0, 0.1126273974597855
321.0, 0.1053361827290956
322.0, 0.09573397966869496
323.0, 0.08880301874381309
324.0, 0.08735204114352314
325.0, 0.07350449046045114
326.0, 0.0671590234906584
327.0, 0.0627911392339425
328.0, 0.05744936172595848
329.0, 0.0513996508757918
330.0, 0.04586539243485095
331.0, 0.041517160463810265
332.0, 0.039149219099841905
333.0, 0.03784968776046874
334.0, 0.037732933022158875
335.0, 0.039451204770246495
336.0, 0.04116965986041447
337.0, 0.045157683202102124
338.0, 0.05055603726491742
339.0, 0.05572144822733465
340.0, 0.06130687446204802
341.0, 0.06871766060110653
342.0, 0.06803401889118617
343.0, 0.08110308739854737
344.0, 0.09023109327180133
345.0, 0.09979248762022695
346.0, 0.1135490983034097
347.0, 0.1295963428975733
348.0, 0.14108555788504995
349.0, 0.15805408397737314
350.0, 0.17578767619221392
351.0, 0.19166419256171885
352.0, 0.2062696471646534
353.0, 0.2230461224808578
354.0, 0.24007866253090174
355.0, 0.23895892727096246
356.0, 0.2334693024893526
357.0, 0.22239620092317888
358.0, 0.20559664950355677
359.0, 0.1881373033239649
360.0, 0.17049232692696367
361.0, 0.15318731217131398
362.0, 0.13462244407252616
363.0, 0.11758381870557519
364.0, 0.10283858462467689
365.0, 0.08740200666473645
366.0, 0.07432540371631795
367.0, 0.06643021803225363
368.0, 0.05820913732537332
369.0, 0.04872869796791301
370.0, 0.040854107380081627
371.0, 0.03960446933361595
372.0, 0.03579495559918033
373.0, 0.03018745791600787
374.0, 0.028667172381295777
375.0, 0.027076966931475883
376.0, 0.021470748281141747
377.0, 0.012610045888301948
378.0, 0.010201292574682552
379.0, 0.009789191159501814
380.0, 0.00887375215377071
381.0, 0.007427983351075816
382.0, 0.007624531184937896
383.0, 0.012066511812115849
384.0, 0.009125186536093456
385.0, 0.003928991368292025
386.0, 0.002070108851007277
387.0, 0.00307406223021507
388.0, 0.004478671135981783
389.0, 0.004241561472834114
390.0, 0.008664751515134027
391.0, 0.0035932458946376206
392.0, 0.0034232096187248617
393.0, 0.0046920697116257385
394.0, 0.004740289391105167
395.0, 0.004865539335711314
396.0, 0.003175647178760327
397.0, 0.005132551469050357
398.0, 0.0034266100878784836
399.0, 0.0016246588357144267
400.0, 0.002201003305860337
401.0, 0.004879969050293457
402.0, 0.009045778532725056
403.0, 0.00926260191492917
404.0, 0.010244651802464337
405.0, 0.008537443773159799
406.0, 0.005028721239133041
407.0, 0.0037475187019939144
408.0, 0.005306062650033183
409.0, 0.006951942829364854
410.0, 0.004003795243459144
411.0, 0.003734392059147591
412.0, 0.006208683620393163
413.0, 0.00647280600550398
414.0, 0.0005465489293134274
415.0, 0.002036572085907972
416.0, 0.0024410357241489186
417.0, 0.0016276472324882722
418.0, 0.0034135364706147754
419.0, 0.007585762336353235
420.0, 0.002096862742254714
421.0, 0.00523461587015526
422.0, 0.007028218309360001
423.0, 0.006442979513962635
424.0, 0.005731774923458611
425.0, 0.005687376586771588
426.0, 0.0030386220649859614
427.0, 0.0005103602585808966
428.0, 0.0031416773693039583
429.0, 0.0022688464599613252
430.0, 0.0014797884340560451
431.0, 0.0021648704351022946
432.0, 0.00014310096298052216
433.0, 0.0009771803912363933
434.0, 0.00100571977179225
435.0, 0.0030748319433920725
436.0, 0.0025943902022825226
437.0, 8.492530748877329e-05
438.0, 0.0008327402359506334
439.0, 0.005532016087363803
440.0, 0.0018407768689940134
441.0, 0.0027886459790424016
442.0, 0.0057003596537308415
443.0, 0.005302322369093958
444.0, 0.0008903279379070127
445.0, 0.005614452060583405
446.0, 0.0034570255159856425
447.0, 0.0027500146011527095
448.0, 0.0031542972573126104
449.0, 0.0031609818442244635
450.0, 0.0018547862981068584
451.0, 0.0003385426370196838
452.0, 0.003254318294887324
453.0, 0.0024995699392049765
454.0, 0.0011646979099302224
455.0, 0.0011628328392612058
456.0, 0.0020747329439935696
457.0, 0.001663232098386568
458.0, 0.0013146099829355867
459.0, 0.0004838678975578037
460.0, 0.0025942492485250095
461.0, 0.0034472604535249808
462.0, 0.0019598077831184434
463.0, 0.0006431758304571742
464.0, 0.0024885506416177944
465.0, 0.0008985032535871648
466.0, 0.003006208257129233
467.0, 0.006370007109118255
468.0, 0.00670725607777772
469.0, 0.0033102415959103885
470.0, 0.0030419986254383666
471.0, 0.006388777982127853
472.0, 0.004902338737737521
473.0, 0.006387416504596521
474.0, 0.008312479082398164
475.0, 0.00708343344967762
476.0, 0.0032021251597051455
477.0, 0.007817515135316505
478.0, 0.007104218145999259
479.0, 0.007303597760292678
480.0, 0.007099995730918264
481.0, 0.007513058487634643
482.0, 0.009253993093218485
483.0, 0.005821066674927216
484.0, 0.009365187184216545
485.0, 0.01014759091402312
486.0, 0.0072185953071097105
487.0, 0.00778728763728288
488.0, 0.013384582394832844
489.0, 0.013282675364771582
490.0, 0.009973213109226931
491.0, 0.005363595112490289
492.0, 0.005376665046531401
493.0, 0.005974608941284813
494.0, 0.004741898942095184
495.0, 0.0029388774246311812
496.0, 0.0031013170362472683
497.0, 0.001321649319993397
498.0, 0.003476961346189943
499.0, 0.006080516552414327
500.0, 0.009471661751949198
501.0, 0.013810069693994615
502.0, 0.015621487406693614
503.0, 0.01665247162876762
504.0, 0.017611989267188755
505.0, 0.017504790355293023
506.0, 0.014226219576796413
507.0, 0.009966334819462897
508.0, 0.009223977801463846
509.0, 0.008968385154539345
510.0, 0.012217165888870046
511.0, 0.013600833712889268
512.0, 0.012191507149257918
513.0, 0.009356739620199998
514.0, 0.007804081731124001
515.0, 0.01012891961117194
516.0, 0.013151180834109199
517.0, 0.011541176294876927
518.0, 0.014593904081102603
519.0, 0.016651747221958745
520.0, 0.018492735490499523
521.0, 0.02544961211290184
522.0, 0.028265809613623325
523.0, 0.03773966086626803
524.0, 0.042469704746648074
525.0, 0.04604379940468639
526.0, 0.04899402333605078
527.0, 0.0505260602600394
528.0, 0.05044476703721612
529.0, 0.04877584020991559
530.0, 0.04831502735781466
531.0, 0.04384866129135089
532.0, 0.0401968669137887
533.0, 0.03832978664330078
534.0, 0.03568470292701707
535.0, 0.03178936016731891
536.0, 0.029716656996052776
537.0, 0.02732808431158211
538.0, 0.024427384128124643
539.0, 0.021572659453955256
540.0, 0.01905731007385065
541.0, 0.016774872539272404
542.0, 0.015871220189666645
543.0, 0.017377969075802656
544.0, 0.016113693230112996
545.0, 0.019188186012227965
546.0, 0.02056352852392263
547.0, 0.016743149061578092
548.0, 0.02051395367905944
549.0, 0.011440048766628628
550.0, 0.02101405192260368
551.0, 0.020007776004203455
552.0, 0.01638357542209968
553.0, 0.01536730686706188
554.0, 0.014033376592184111
555.0, 0.010742227724108584
556.0, 0.010289566852159843
557.0, 0.009877513600323311
558.0, 0.010936605479656221
559.0, 0.011384090713114886
560.0, 0.010983918476346444
561.0, 0.01219126594771847
562.0, 0.013662713581896037
563.0, 0.01035238660709179
564.0, 0.007588878703274948
565.0, 0.0032775042978575946
566.0, 0.0008615044240739744
567.0, 0.004367464895824307
568.0, 0.012042667586747855
569.0, 0.005731786413935038
570.0, 0.010373918162953298
571.0, 0.011714786959460939
572.0, 0.010324948112012082
573.0, 0.0074774960992558225
574.0, 0.00539904045768159
575.0, 0.009194878847170533
576.0, 0.010704426477543764
577.0, 0.00757697896524722
578.0, 0.003197435656017903
579.0, 0.006313115140583386
580.0, 0.011784160179173579
581.0, 0.009782864785704497
582.0, 0.012007196444721764
583.0, 0.0066414951647236955
584.0, 0.0024896688517446327
585.0, 0.003458131905883539
586.0, 0.005608204849789816
587.0, 0.006114026294175579
588.0, 0.005606143518520456
589.0, 0.0037188017358317565
590.0, 0.004608059788579854
591.0, 0.00580261799692925
592.0, 0.004870911541561791
593.0, 0.004214821824222122
594.0, 0.004384273839849092
595.0, 0.0033649513957656856
596.0, 0.007796568594246702
597.0, 0.007786647671792559
598.0, 0.007746262094949052
599.0, 0.007546292315674732
600.0, 0.0065859273363973805
601.0, 0.004926076664421448
602.0, 0.004018149824705738
603.0, 0.007468923415700944
604.0, 0.0019613940761218996
605.0, 0.008622097658414919
606.0, 0.009051659598159728
607.0, 0.006099189700201518
608.0, 0.008218511422457789
609.0, 0.012251426621463684
610.0, 0.005947737945488096
611.0, 0.009675314530349498
612.0, 0.01017956254973225
613.0, 0.011286017857693002
614.0, 0.012575366664147856
615.0, 0.012453448209984517
616.0, 0.01227539574775154
617.0, 0.012564499439635227
618.0, 0.01013944280097154
619.0, 0.011754244512017526
620.0, 0.012893033533472372
621.0, 0.011467128082692526
622.0, 0.010340275930702405
623.0, 0.01457872358017275
624.0, 0.014028964967108756
625.0, 0.014008887785272997
626.0, 0.01831340745241203
627.0, 0.017535562680290856
628.0, 0.016325334330295344
629.0, 0.019518269010867846
630.0, 0.0210222824074772
631.0, 0.025733944715727715
632.0, 0.02741027311760093
633.0, 0.029770876602303233
634.0, 0.03855287532900329
635.0, 0.045782653008938815
636.0, 0.049524560376719574
637.0, 0.06194017537391061
638.0, 0.06816228252275094
639.0, 0.08623942617210135
640.0, 0.10359898025868754
641.0, 0.12404093728677613
642.0, 0.14919926659823224
643.0, 0.17777498334429498
644.0, 0.208674058159439
645.0, 0.25006872652598977
646.0, 0.27597912335536556
647.0, 0.28594119789381767
648.0, 0.28373575741158363
649.0, 0.267467035020254
650.0, 0.240264661157202
651.0, 0.21029299575908306
652.0, 0.17285762550731004
653.0, 0.14130658194729212
654.0, 0.11432045050350961
655.0, 0.09361428856167571
656.0, 0.08099607826969824
657.0, 0.06787320405967336
658.0, 0.04768873057531387
659.0, 0.047066372560142906
660.0, 0.038262164907208074
661.0, 0.03704663616474669
662.0, 0.033224384942425876
663.0, 0.02602374996641038
664.0, 0.022229226565712436
665.0, 0.024685148474190562
666.0, 0.020402140639545548
667.0, 0.02333467559288717
668.0, 0.021813583214846683
669.0, 0.018478482081792987
670.0, 0.015731111157719045
671.0, 0.016341786402482773
672.0, 0.019642086814771424
673.0, 0.019619891527009277
674.0, 0.015473680698659942
675.0, 0.018453993721073664
676.0, 0.014523875420328045
677.0, 0.01514088668762906
678.0, 0.01574397572271169
679.0, 0.01176079033137361
680.0, 0.008802110529340577
681.0, 0.005668241961227398
682.0, 0.010294768947572057
683.0, 0.009295850452845585
684.0, 0.012472147363729544
685.0, 0.012712661569473692
686.0, 0.00936879297032409
687.0, 0.010441029492113328
688.0, 0.014281253697412177
689.0, 0.00763764584452075
690.0, 0.01052194645902721
691.0, 0.013844821239604458
692.0, 0.013295938932649222
693.0, 0.01369009547130191
694.0, 0.019009892431298595
695.0, 0.022493966357075436
696.0, 0.02239429542237539
697.0, 0.027331369002965122
698.0, 0.02776661297095241
699.0, 0.028484196488573338
700.0, 0.03180695479042726
701.0, 0.036070981679703795
702.0, 0.036968309737049045
703.0, 0.03022758515632043
704.0, 0.025078203592114653
705.0, 0.023690829049683133
706.0, 0.01988432259640168
707.0, 0.019394385181236776
708.0, 0.01962842755528455
709.0, 0.014594185026815774
710.0, 0.01088918975036543
711.0, 0.015105819543074122
712.0, 0.019375111667369917
713.0, 0.024502439668668243
714.0, 0.025686290252568973
715.0, 0.026198703179991324
716.0, 0.028803900806164358
717.0, 0.029809948651309103
718.0, 0.02612659305668822
719.0, 0.02709088252929356
720.0, 0.02239390665990792
721.0, 0.022775331745631185
722.0, 0.01997509292273042
723.0, 0.014614910889758612
724.0, 0.013304536430172504
725.0, 0.011070374026598342
726.0, 0.0031192419602605395
727.0, 0.011154289422848095
728.0, 0.010190116941195985
729.0, 0.00864631328789858
730.0, 0.006917397974434952
731.0, 0.004320580470226708
732.0, 0.004446046017309424
733.0, 0.007437744757054951
734.0, 0.00647945487247715
735.0, 0.008952829012088574
736.0, 0.0072024299494581135
737.0, 0.006002508376496597
738.0, 0.004489453145794445
739.0, 0.00220394233444918
740.0, 0.005778141553070961
741.0, 0.002298364852611111
742.0, 0.000364205679970977
743.0, 0.00422207090584237
744.0, 0.004136086109182715
745.0, 0.001901645797961706
746.0, 0.003955497809413894
747.0, 0.008796969853428
748.0, 0.00017765550490968967
749.0, 0.0028195589054628056
750.0, 0.0023732316520136522
751.0, 0.0023241631575228495
752.0, 0.001125526332747991
753.0, 0.00040971477545177396
754.0, 0.00269926563864725
755.0, 0.006900643363946161
756.0, 0.004966448660956977
757.0, 0.004878308289222409
758.0, 0.011430531254849711
759.0, 0.005272259236461196
760.0, 0.000521236475575456
761.0, 0.001807922408972023
762.0, 0.003474797008896786
763.0, 0.0018239475417197335
764.0, 0.0009736971464648534
765.0, 0.0039530996698311435
766.0, 0.0039992925259243976
767.0, 0.006570654793610471
768.0, 0.007541875525677863
769.0, 0.0054372002207464295
770.0, 0.003296654871782546
771.0, 0.0038248028545859805
772.0, 0.003024495663396111
773.0, 0.0018701466126475955
774.0, 0.005444260132528156
775.0, 0.0030413585414381704
776.0, 0.0010001206484901931
777.0, 0.0016937441248416041
778.0, 0.0035124936242860645
779.0, 0.01018632176776984
780.0, 0.003295199349104042
781.0, 0.0012255858179061883
782.0, 0.007665607709839244
783.0, 0.00554378320654499
784.0, 0.0028339358007603995
785.0, 0.0036969205924541125
786.0, 0.003178346570163467
787.0, 0.0029299762387620595
788.0, 0.0015667916658913864
789.0, 0.004181582492761758
790.0, 0.006928388983710229
791.0, 0.004774211156808223
792.0, 0.004678111639376918
793.0, 0.005856168297439327
794.0, 0.0025108825188439304
795.0, 0.002437441717886866
796.0, 0.007027332361110649
797.0, 0.0016119158307588508
798.0, 0.0021208609549684676
799.0, 0.00412040399994164
800.0, 0.005876965241691883
801.0, 0.007985702993990446
802.0, 0.009027835065773423
803.0, 0.003870164001485511
804.0, 0.0004178824665799874
805.0, 0.004979563145690626
806.0, 0.004100875362483681
807.0, 0.0018238441497636345
808.0, 0.0014938513614587653
809.0, 0.0032364262115684036
810.0, 0.005074946445634907
811.0, 0.005435108279614598
812.0, 0.003946674314377265
813.0, 0.003860935751863167
814.0, 0.0028294989228070644
815.0, 0.004639320546834203
816.0, 0.00666236539852601
817.0, 0.005187734779884858
818.0, 0.002481388582170122
819.0, 0.005537672188347601
820.0, 0.0014760771471261681
821.0, 0.0003382782917533621
822.0, 0.0027292082189301703
823.0, 0.003327015003828435
824.0, 0.0027683338263535377
825.0, 0.0017817543960125357
826.0, 0.001084825693894375
827.0, 0.002726270006156401
828.0, 0.007877296174777261
829.0, 0.0073857552205016585
830.0, 0.003406712722084451
831.0, 0.005649581875375909
832.0, 0.004089862137727085
833.0, 0.0020490929736727078
834.0, 0.0028356088953475564
835.0, 0.002523882943086398
836.0, 0.007968220136581676
837.0, 0.0060825898497097845
838.0, 0.009752685874571737
839.0, 0.004296983358986434
840.0, 0.003597879593325952
841.0, 0.007019409842393754
842.0, 0.01043232502012229
843.0, 0.011855277946676101
844.0, 0.007551953831747314
845.0, 0.008068227670445793
846.0, 0.004751899716059528
847.0, 0.006008827251145365
848.0, 0.005640492639902587
849.0, 0.007331271382511144
850.0, 0.007938631133188623
851.0, 0.00424056053473953
852.0, 0.0026204689940267506
853.0, 0.004373482853529197
854.0, 0.006948367116746619
855.0, 0.003684069426881396
856.0, 0.006041133217772816
857.0, 0.00723707930511843
858.0, 0.0068682871629669245
859.0, 0.0070866348555810805
860.0, 0.006910141164896347
861.0, 0.004705138393653035
862.0, 0.003618658767846789
863.0, 0.006872383249962189
864.0, 0.013580322921073907
865.0, 0.016331974812576765
866.0, 0.018829246240955215
867.0, 0.024305139106376078
868.0, 0.025911715292097924
869.0, 0.014839302625701089
870.0, 0.013868001143080644
871.0, 0.007121476224236921
872.0, 0.012725682657976627
873.0, 0.010727525394337014
874.0, 0.009271908575921044
875.0, 0.008900802512328951
876.0, 0.006015667132976657
877.0, 0.004307783866688801
878.0, 0.013678510752058927
879.0, 0.008891996410180143
880.0, 0.0018311819379085463
881.0, 0.010669373491583634
882.0, 0.00806822084665873
883.0, 0.006911661591155544
884.0, 0.010750635825977016
885.0, 0.012177563456116893
886.0, 0.011766227921848173
887.0, 0.02109236480457875
888.0, 0.020115674645179195
889.0, 0.017690307028653277
890.0, 0.022000883221750613
891.0, 0.02903505221142898
892.0, 0.03346854219036533
893.0, 0.039720537542526205
894.0, 0.049461706859165976
895.0, 0.052407216797672504
896.0, 0.056341991068254126
897.0, 0.06826559188593584
898.0, 0.08624656891257992
899.0, 0.11070454651576404
900.0, 0.1417153735978313
901.0, 0.18593819372161358
902.0, 0.2466303859435489
903.0, 0.32779823044059003
904.0, 0.43918154778075746
905.0, 0.5626605107705624
906.0, 0.7044295819977578
907.0, 0.8078334749732101
908.0, 0.7890528957760912
909.0, 0.6995788181042101
910.0, 0.5758026523564476
911.0, 0.4446273592050047
912.0, 0.3346186578369437
913.0, 0.25130305147424586
914.0, 0.17385379236671294
915.0, 0.12649822386175696
916.0, 0.10051695125463189
917.0, 0.08337011773779474
918.0, 0.06548367303392146
919.0, 0.051290428975034684
920.0, 0.046136606319587485
921.0, 0.04548861114538522
922.0, 0.04129894496622253
923.0, 0.04752936853065428
924.0, 0.04038399676452208
925.0, 0.042042934491246436
926.0, 0.050165654711429294
927.0, 0.054263634359440246
928.0, 0.052802864302337355
929.0, 0.05002638631571524
930.0, 0.04684083762495589
931.0, 0.039656336148443674
932.0, 0.03908077650211085
933.0, 0.03231443391730523
934.0, 0.023986291961056196
935.0, 0.026167791755015487
936.0, 0.022811932314423668
937.0, 0.01707645028520481
938.0, 0.014507262496803914
939.0, 0.01328022035999721
940.0, 0.01269146751379899
941.0, 0.008957555944279553
942.0, 0.009865439772302703
943.0, 0.011876521629284034
944.0, 0.015842687175348428
945.0, 0.020146438730909332
946.0, 0.026097252399317854
947.0, 0.0343155190874027
948.0, 0.042187245338531694
949.0, 0.04813979857377071
950.0, 0.061100071847148246
951.0, 0.07557355988336698
952.0, 0.08014001422915748
953.0, 0.08019856198077517
954.0, 0.07717965237725395
955.0, 0.06954085944494938
956.0, 0.056216307924014705
957.0, 0.0385436688197406
958.0, 0.025500090635252548
959.0, 0.03347048980704564
960.0, 0.027889786081381058
961.0, 0.017613936442050334
962.0, 0.01875110829353106
963.0, 0.008450252716907889
964.0, 0.011272778369643134
965.0, 0.013548283103416268
966.0, 0.007901213889905164
967.0, 0.009044342298208654
968.0, 0.011561072670709065
969.0, 0.004234744150458351
970.0, 0.011816321729954116
971.0, 0.006830963956747536
972.0, 0.006987532698491972
973.0, 0.013259098894066066
974.0, 0.017568324479966993
975.0, 0.01977313413478852
976.0, 0.02146813603068296
977.0, 0.021741255680691067
978.0, 0.03071258858233014
979.0, 0.027967996754015692
980.0, 0.030337824054688066
981.0, 0.030860819834647876
982.0, 0.03779126136017351
983.0, 0.04291635210485559
984.0, 0.03940694154191616
985.0, 0.031039007965270562
986.0, 0.023730557906551427
987.0, 0.015702039821826413
988.0, 0.010892119522767415
989.0, 0.006506526217965991
990.0, 0.003226948646133135
991.0, 0.002833466315048064
992.0, 0.003097612907325486
993.0, 0.006456995513524262
994.0, 0.01342400865271559
995.0, 0.015294234152016029
996.0, 0.006053967911381113
997.0, 0.0010339710420156092
998.0, 0.008051779538014303
999.0, 0.01256701538032737
1000.0, 0.01467253417419468
1001.0, 0.014161952257338139
1002.0, 0.02094581320294804
1003.0, 0.02052558645029471
1004.0, 0.01760054616834709
1005.0, 0.02157826509600263
1006.0, 0.02383968404640951
1007.0, 0.023134860935184944
1008.0, 0.038011028302254106
1009.0, 0.033886517300416974
1010.0, 0.02965084885890817
1011.0, 0.04210188019086653
1012.0, 0.05410188025914956
1013.0, 0.05897839751942069
1014.0, 0.05129111685921091
1015.0, 0.03580696370188508
1016.0, 0.030167701284126266
1017.0, 0.03352729408426003
1018.0, 0.01986587785270634
1019.0, 0.021603752895276596
1020.0, 0.018397296095921375
1021.0, 0.01641598623675215
1022.0, 0.017193000479780795
1023.0, 0.019517509617207295
1024.0, 0.016030117160669332
1025.0, 0.009818068116401521
1026.0, 0.011364906592373493
1027.0, 0.007578447832198711
1028.0, 0.005562185916522065
1029.0, 0.006351376509663804
1030.0, 0.011741478046040865
1031.0, 0.008187551289775436
1032.0, 0.0032231384825089984
1033.0, 0.004342931999801008
1034.0, 0.005334733053504704
1035.0, 0.004333134616656431
1036.0, 0.006398129409634471
1037.0, 0.0024636721359775422
1038.0, 0.0002440514058549922
1039.0, 0.0014745248570379038
1040.0, 0.0014540387967430354
1041.0, 0.003138859526525143
1042.0, 0.004258869967823146
1043.0, 0.007086136302848363
1044.0, 0.008449847348003586
1045.0, 0.007567032192440604
1046.0, 0.00908466390914906
1047.0, 0.013448578757352374
1048.0, 0.013506539409338096
1049.0, 0.0020333076978266583
1050.0, 0.0047879071974971515
1051.0, 0.003595844919243879
1052.0, 0.0011188272847735582
1053.0, 0.0006251610052970799
1054.0, 0.0011538321727918742
1055.0, 0.00262484334066163
1056.0, 0.006162624280352004
1057.0, 0.010150263693455676
1058.0, 0.011563855681791866
1059.0, 0.017199676641189487
1060.0, 0.013375019529233902
1061.0, 0.012913442614917602
1062.0, 0.009518833264360902
1063.0, 0.012809146322046161
1064.0, 0.013337891957654275
1065.0, 0.009649091543787609
1066.0, 0.012268544679133546
1067.0, 0.019845257141187192
1068.0, 0.014954381193798067
1069.0, 0.013579419667759624
1070.0, 0.019660400971718985
1071.0, 0.02977093296035193
1072.0, 0.03255061967907722
1073.0, 0.04904999229896716
1074.0, 0.06910490988462799
1075.0, 0.10266416275878919
1076.0, 0.15217549078236325
1077.0, 0.23077956026598778
1078.0, 0.3725995649511648
1079.0, 0.5468311459001475
1080.0, 0.5501215950079557
1081.0, 0.5559031547112127
1082.0, 0.5832678110308873
1083.0, 0.4441898268922574
1084.0, 0.3220391853312209
1085.0, 0.22544432076542434
1086.0, 0.1711795559453054
1087.0, 0.15004714672284417
1088.0, 0.15241519855939292
1089.0, 0.1983682108795985
1090.0, 0.270919216973656
1091.0, 0.39324272959378564
1092.0, 0.6264404715851863
1093.0, 0.9500433054507879
1094.0, 0.9940077408726068
1095.0, 0.7761966940654643
1096.0, 0.5343261059735194
1097.0, 0.3623429077179152
1098.0, 0.23405862963227117
1099.0, 0.13329801594791574
1100.0, 0.07470763106588088
1101.0, 0.04268516671122467
1102.0, 0.03537820595821085
1103.0, 0.02351878364840082
1104.0, 0.02531001253758969
1105.0, 0.018990906285470417
1106.0, 0.017846226467927065
1107.0, 0.015486748221382995
1108.0, 0.009209163204575524
1109.0, 0.008461356298187653
1110.0, 0.011477182197013783
1111.0, 0.00784600885422472
1112.0, 0.007589956156691656
1113.0, 0.01085010182438195
1114.0, 0.008472900814063655
1115.0, 0.009500040794107057
1116.0, 0.007068634944814446
1117.0, 0.00903412384771068
1118.0, 0.014316582792419532
1119.0, 0.021702806989915734
1120.0, 0.024412986004120483
1121.0, 0.02132665563671823
1122.0, 0.018637655921838338
1123.0, 0.01879814854245495
1124.0, 0.02140105825950872
1125.0, 0.019932261226931116
1126.0, 0.026025150899721138
1127.0, 0.012910178248455386
1128.0, 0.00883492766915781
1129.0, 0.003676693586725001
1130.0, 0.003672587945292175
1131.0, 0.003027555728219857
1132.0, 0.004318539150358371
1133.0, 0.006653678567289245
1134.0, 0.0031744324977333073
1135.0, 0.007282664225642972
1136.0, 0.007983673200198299
1137.0, 0.0030525838449591857
1138.0, 0.010098546348073124
1139.0, 0.012543529447643831
1140.0, 0.004032022213359786
1141.0, 0.0006387163091223062
1142.0, 0.0025346371086706907
1143.0, 0.004342838475044148
1144.0, 0.003355434207286621
1145.0, 0.001082025846437163
1146.0, 0.0011884789139326281
1147.0, 0.0046942929088648385
1148.0, 0.008570348327857538
1149.0, 0.007265044959027174
1150.0, 0.002032385558108127
1151.0, 0.0022541022663268876
1152.0, 0.002104226826491926
1153.0, 0.004270631712786303
1154.0, 0.007846671383500628
1155.0, 0.007766206493028942
1156.0, 0.006707533693890388
1157.0, 0.009504456511699929
1158.0, 0.009600923567360971
1159.0, 0.0020375124094371626
1160.0, 0.0105137018751639
1161.0, 0.013208044112389607
1162.0, 0.008424389907596622
1163.0, 0.0025056473586287497
1164.0, 0.004399485426384723
1165.0, 0.009631308075533706
1166.0, 0.005674930342892323
1167.0, 0.006947204247793666
1168.0, 0.00826934885651347
1169.0, 0.001917880940953516
1170.0, 0.0037362894106668914
1171.0, 0.006374128251607022
1172.0, 0.004793482333472223
1173.0, 0.001842671336075392
1174.0, 0.00483346542831874
1175.0, 0.0024615496887251936
1176.0, 0.009272990673645055
1177.0, 0.006381229259924226
1178.0, 0.002904338988820812
1179.0, 0.004030376115053142
1180.0, 0.004598225970448391
1181.0, 0.003904943738072948
1182.0, 0.006161650505939212
1183.0, 0.008836797680431621
1184.0, 0.00922285888012341
1185.0, 0.009652505807273264
1186.0, 0.007167012184292346
1187.0, 0.009142663194261429
1188.0, 0.011735422251885867
1189.0, 0.01297573073263216
1190.0, 0.010159859787657835
1191.0, 0.010264961686429142
1192.0, 0.006140996227347359
1193.0, 0.007318854496287249
1194.0, 0.014382443574197042
1195.0, 0.010357570696248725
1196.0, 0.009984777800765959
1197.0, 0.0028820201574742475
1198.0, 0.009597101759463827
1199.0, 0.0044935334563416095
1200.0, 0.004602519584113361
1201.0, 0.007591061799598706
1202.0, 0.004936834189600195
1203.0, 0.00728845224058728
1204.0, 0.0074063292795615585
1205.0, 0.00860373809632647
1206.0, 0.011001901777585773
1207.0, 0.009651448025444168
1208.0, 0.009591181671341098
1209.0, 0.011857601872431851
1210.0, 0.0039979824748883055
1211.0, 0.005896042243621179
1212.0, 0.0031827766212357777
1213.0, 0.007123622524198436
1214.0, 0.012811895501755644
1215.0, 0.005628088301346786
1216.0, 0.009228278266620158
1217.0, 0.008455071852897966
1218.0, 0.010086514470773
1219.0, 0.012371152281397766
1220.0, 0.010905817212777178
1221.0, 0.011644275127304099
1222.0, 0.006039141473721254
1223.0, 0.009750555186010326
1224.0, 0.01266054214268987
1225.0, 0.00027032676433718685
1226.0, 0.006236775373337956
1227.0, 0.014083615820888976
1228.0, 0.0124307169955052
1229.0, 0.009878867370797061
1230.0, 0.011847115840590007
1231.0, 0.006649116328410334
1232.0, 0.004964856922995263
1233.0, 0.009327535444507895
1234.0, 0.00889910224136813
1235.0, 0.010584687307307232
1236.0, 0.012071156571193196
1237.0, 0.001470408012414888
1238.0, 0.010820477931644418
1239.0, 0.023325109048234125
1240.0, 0.013367034935097619
1241.0, 0.009568988221134797
1242.0, 0.010861068620464834
1243.0, 0.01749904592405511
1244.0, 0.012038166247814834
1245.0, 0.011198675423847306
1246.0, 0.011531135443194257
1247.0, 0.01088822222721181
1248.0, 0.015409558522361548
1249.0, 0.010693259501521642
1250.0, 0.009195113637476745
1251.0, 0.011126023697360352
1252.0, 0.009523497202025727
1253.0, 0.013460173319571011
1254.0, 0.002035147305313274
1255.0, 0.0034277452511578647
1256.0, 0.010505022839079607
1257.0, 0.008371621761913419
1258.0, 0.003657730146871432
1259.0, 0.0039891439787244805
1260.0, 0.004725647548449793
1261.0, 0.004287910699687416
1262.0, 0.005712339056586065
1263.0, 0.0048422301800849915
1264.0, 0.00224307519312119
1265.0, 0.011191745479053375
1266.0, 0.013004272559127384
1267.0, 0.0060041195867640545
1268.0, 0.0054494263959644915
1269.0, 0.005951508715687452
1270.0, 0.005504154780344147
1271.0, 0.006039793186325328
1272.0, 0.008828048397582439
1273.0, 0.007309286651050706
1274.0, 0.005959112211013009
1275.0, 0.006886479534648274
1276.0, 0.004632520041631439
1277.0, 0.0021639842141298496
1278.0, 0.007997938287013126
1279.0, 0.014373358626678578
1280.0, 0.01415244457095968
1281.0, 0.01341560540737551
1282.0, 0.014754056248330347
1283.0, 0.01087424330936382
1284.0, 0.011831327963551061
1285.0, 0.013415161065570417
1286.0, 0.01203221525447932
1287.0, 0.012120264869900506
1288.0, 0.010766356995573064
1289.0, 0.011371865491423067
1290.0, 0.012832528636591576
1291.0, 0.01082382375244946
1292.0, 0.009023866286622283
1293.0, 0.011610334674475047
1294.0, 0.013991553239987629
1295.0, 0.013549263796086956
1296.0, 0.021456150768230233
1297.0, 0.014112318084231322
1298.0, 0.014123413824522812
1299.0, 0.009590399281106013
1300.0, 0.012584255706034785
1301.0, 0.00805832740067942
1302.0, 0.006303507103952225
1303.0, 0.007007352455964664
1304.0, 0.007477167799739261
1305.0, 0.004942760278675462
1306.0, 0.002083752892253854
1307.0, 0.0018718612735418713
1308.0, 0.00445026335283326
1309.0, 0.010319700138997558
1310.0, 0.008422919161066963
1311.0, 0.012309529187940454
1312.0, 0.015170235768443067
1313.0, 0.001134658970240338
1314.0, 0.012911490310575601
1315.0, 0.006542809809873207
1316.0, 0.0106732606129346
1317.0, 0.016847569328723395
1318.0, 0.015411678397937145
1319.0, 0.011933689435993601
1320.0, 0.01182556411179831
1321.0, 0.014882475253148548
1322.0, 0.010942454123944843
1323.0, 0.007664713548390284
1324.0, 0.015245608904424175
1325.0, 0.010586735487686088
1326.0, 0.006783745634429834
1327.0, 0.01062463210812853
1328.0, 0.016000529169601003
1329.0, 0.008226254354132986
1330.0, 0.014841632607218413
1331.0, 0.013764039836143478
1332.0, 0.016117455164710637
1333.0, 0.01586250798880664
1334.0, 0.011542435784858156
1335.0, 0.008714637920506137
1336.0, 0.011302779348061572
1337.0, 0.011962147875185762
1338.0, 0.011257274323281895
1339.0, 0.011620192265781397
1340.0, 0.012299383570875153
1341.0, 0.014493192634581101
1342.0, 0.01443650039032555
1343.0, 0.018853864137126707
1344.0, 0.01758333282169366
1345.0, 0.018977093806717166
1346.0, 0.016357178271404933
1347.0, 0.01721274177154771
1348.0, 0.01824598427815825
1349.0, 0.016679608399210035
1350.0, 0.01736456697798368
1351.0, 0.015483991897073437
1352.0, 0.01697775342706015
1353.0, 0.018551664075263707
1354.0, 0.018715010160474835
1355.0, 0.01824267767993517
1356.0, 0.013379492492853425
1357.0, 0.010134965124255619
1358.0, 0.012679189743598473
1359.0, 0.00864955752120593
1360.0, 0.009407508418463262
1361.0, 0.008807397467369754
1362.0, 0.014061414683921233
1363.0, 0.014669367312762204
1364.0, 0.00940490027645001
1365.0, 0.004499819963339827
1366.0, 0.0051401456357155675
1367.0, 0.0015376936470006591
1368.0, 0.0003534800105996555
1369.0, 0.006327180269954634
1370.0, 0.010875244297010938
1371.0, 0.014193765861613155
1372.0, 0.016985457698650883
1373.0, 0.012989325906909929
1374.0, 0.004694080162461166
1375.0, 0.006723931040162538
1376.0, 0.012681834961611587
1377.0, 0.007112032270455539
1378.0, 0.01222693520496935
1379.0, 0.011250264493535498
1380.0, 0.016571411858509928
1381.0, 0.008207028843095186
1382.0, 0.01804404035103044
1383.0, 0.007447918344420873
1384.0, 0.006537601408587723
1385.0, 0.003573060686775192
1386.0, 0.01090459038758885
1387.0, 0.010948663540515827
1388.0, 0.005136789789069635
1389.0, 0.013160940359500925
1390.0, 0.009525820323706382
1391.0, 0.007501215549643263
1392.0, 0.006084210145146989
1393.0, 0.0020474436315048557
1394.0, 0.003303794121486175
1395.0, 0.0039616377731453035
1396.0, 0.007178180574127584
1397.0, 0.005024105873528105
1398.0, 0.01027279755614098
1399.0, 0.006079957434998423
1400.0, 0.008689588800462712
1401.0, 0.011525360480763368
1402.0, 0.0066542246705969844
1403.0, 0.010218732999170574
1404.0, 0.01668562872487642
1405.0, 0.00636576128895795
1406.0, 0.017664356028298654
1407.0, 0.012230440500015365
1408.0, 0.020643257020068684
1409.0, 0.01795154964056464
1410.0, 0.01369742239674037
1411.0, 0.01576768672614026
1412.0, 0.015637264953444373
1413.0, 0.014037293035706014
1414.0, 0.015810580578939422
1415.0, 0.01625737800169778
1416.0, 0.011679091585602638
1417.0, 0.011021702022505195
1418.0, 0.010512008657721094
1419.0, 0.009395963471458895
1420.0, 0.007649084564302126
1421.0, 0.013727839397142037
1422.0, 0.0010143482760677528
1423.0, 0.0018231263038338244
1424.0, 0.022450367515756582
1425.0, 0.011842464528822774
1426.0, 0.014091685561522651
1427.0, 0.009774619619642369
1428.0, 0.008833231690689634
1429.0, 0.008654768005052793
1430.0, 0.009824912180889237
1431.0, 0.007221148368605216
1432.0, 0.004461464446098588
1433.0, 0.007765743504244997
1434.0, 0.008673100614050742
1435.0, 0.006733714430555946
1436.0, 0.008421280484062994
1437.0, 0.010209786480603836
1438.0, 0.013908057637036526
1439.0, 0.009679625846496983
1440.0, 0.014098567539815345
1441.0, 0.011133092656386456
1442.0, 0.007534606620052447
1443.0, 0.002810180589367504
1444.0, 0.009117160516730324
1445.0, 0.0018649845852312915
1446.0, 0.0027786093402709672
1447.0, 0.000806714920431015
1448.0, 0.003887306462662837
1449.0, 0.005859748723408908
1450.0, 0.0023640154501680956
1451.0, 0.005563961181741333
1452.0, 0.005069819527281869
1453.0, 0.003860927026673053
1454.0, 0.007764873670141516
1455.0, 0.00537710619313358
1456.0, 0.006845540369206395
1457.0, 0.011116595010093957
1458.0, 0.006826249161193071
1459.0, 0.003794221773652354
1460.0, 0.0032996256602771256
1461.0, 0.005252544288360444
1462.0, 0.004903591146522892
1463.0, 0.013201711405103901
1464.0, 0.014565385670646878
1465.0, 0.0032037850525464978
1466.0, 0.01053057884205523
1467.0, 0.006240448958149082
1468.0, 0.003162990064775528
1469.0, 0.011511018941991958
1470.0, 0.009214542266149942
1471.0, 0.006608939851518576
1472.0, 0.0034713806340623595
1473.0, 0.003195275315705786
1474.0, 0.015526054772619712
1475.0, 0.007832197632672646
1476.0, 0.00903189065739539
1477.0, 0.004530395267008855
1478.0, 0.00033833706304424194
1479.0, 0.002477572340763715
1480.0, 0.003942508661417912
1481.0, 0.005108721030550487
1482.0, 0.007721975208486134
1483.0, 0.0095807033970573
1484.0, 0.010946433851615185
1485.0, 0.012553262320681581
1486.0, 0.01172429856873692
1487.0, 0.009132475541766853
1488.0, 0.008719486523454549
1489.0, 0.008258933617310064
1490.0, 0.01222157527067806
1491.0, 0.017775748932463205
1492.0, 0.006470981989112585
1493.0, 0.014616578784074314
1494.0, 0.00743292495240414
1495.0, 0.0018358443165851649
1496.0, 0.0022903762962730593
1497.0, 0.008809826830306167
1498.0, 0.01120578947032355
1499.0, 0.014791765797240381
1500.0, 0.015932770840040283
1501.0, 0.01835385296575297
1502.0, 0.016891394495559053
1503.0, 0.013799530572326921
1504.0, 0.008350905727578703
1505.0, 0.006329030317868947
1506.0, 0.008043527535288513
1507.0, 0.008577468967272621
1508.0, 0.0105504359860438
1509.0, 0.014531150394386311
1510.0, 0.014468004292179813
1511.0, 0.009056963205997446
1512.0, 0.008641864147183704
1513.0, 0.013475619262492671
1514.0, 0.007605467689978185
1515.0, 0.01254317699621733
1516.0, 0.012480899041199662
1517.0, 0.005247785355371226
1518.0, 0.01620445999767507
1519.0, 0.0056117778117353995
1520.0, 0.0034433069039750707
1521.0, 0.009288107009434974
1522.0, 0.015161819162797501
1523.0, 0.012733942668492464
1524.0, 0.003812281982788563
1525.0, 0.011520660410460574
1526.0, 0.01389788519300764
1527.0, 0.013180031529669536
1528.0, 0.01673388913484574
1529.0, 0.009783938593350035
1530.0, 0.011480296684654558
1531.0, 0.004073935473667021
1532.0, 0.002061828345043015
1533.0, 0.008524731255550599
1534.0, 0.010237728577837191
1535.0, 0.01301545683181034
1536.0, 0.012832772600813211
1537.0, 0.006712293292342806
1538.0, 0.006925582425005752
1539.0, 0.009374205523807235
1540.0, 0.007553310002657981
1541.0, 0.008427718954403423
1542.0, 0.008343377432955358
1543.0, 0.004117857467562864
1544.0, 0.004761197195324865
1545.0, 0.009941646409093575
1546.0, 0.010805925588327252
1547.0, 0.005813570199529132
1548.0, 0.0011775905308186807
1549.0, 0.004394935049418448
1550.0, 0.012780365719423002
1551.0, 0.006731745498968223
1552.0, 0.013398454245474336
1553.0, 0.011816042334337749
1554.0, 0.011853122584896958
1555.0, 0.013118074471214804
1556.0, 0.015517256016936255
1557.0, 0.0075607417070284
1558.0, 0.012228890080526675
1559.0, 0.019469878957423907
1560.0, 0.011214722089221918
1561.0, 0.005127893131175314
1562.0, 0.005849692486251396
1563.0, 0.0031542148226950243
1564.0, 0.004638344073096722
1565.0, 0.004749085185954228
1566.0, 0.004717196831651296
1567.0, 0.007694591981245511
1568.0, 0.007054761140086349
1569.0, 0.006003415475060098
1570.0, 0.0022392612396348816
1571.0, 1.4855619762860502e-05
1572, 0.0
1573, 0.0
1574, 0.0
1575, 0.0
1576, 0.0
1577, 0.0
1578, 0.0
1579, 0.0
1580, 0.0
1581, 0.0
1582, 0.0
1583, 0.0
1584, 0.0
1585, 0.0
1586, 0.0
1587, 0.0
1588, 0.0
1589, 0.0
1590, 0.0
1591, 0.0
1592, 0.0
1593, 0.0
1594, 0.0
1595, 0.0
1596, 0.0
1597, 0.0
1598, 0.0
1599, 0.0
