30, 0.0
31, 0.0
32, 0.0
33, 0.0
34, 0.0
35, 0.0
36, 0.0
37, 0.0
38, 0.0
39, 0.0
40, 0.0
41, 0.0
42, 0.0
43, 0.0
44, 0.0
45, 0.0
46, 0.0
47, 0.0
48, 0.0
49, 0.0
50, 0.0
51, 0.0
52, 0.0
53, 0.0
54, 0.0
55, 0.0
56, 0.0
57, 0.0
58, 0.0
59, 0.0
60, 0.0
61, 0.0
62, 0.0
63, 0.0
64, 0.0
65, 0.0
66, 0.0
67, 0.0
68, 0.0
69, 0.0
70, 0.0
71, 0.0
72, 0.0
73, 0.0
74, 0.0
75, 0.0
76, 0.0
77, 0.0
78, 0.0
79, 0.0
80, 0.0
81, 0.0
82, 0.0
83, 0.0
84, 0.0
85, 0.0
86, 0.0
87, 0.0
88, 0.0
89, 0.0
90, 0.0
91, 0.0
92, 0.0
93, 0.0
94, 0.0
95, 0.0
96, 0.0
97, 0.0
98, 0.0
99, 0.0
100, 0.0
101, 0.0
102, 0.0
103, 0.0
104, 0.0
105, 0.0
106, 0.0
107, 0.0
108, 0.0
109, 0.0
110, 0.0
111, 0.0
112, 0.0
113, 0.0
114, 0.0
115, 0.0
116, 0.0
117, 0.0
118, 0.0
119, 0.0
120, 0.0
121, 0.0
122, 0.0
123, 0.0
124, 0.0
125, 0.0
126, 0.0
127, 0.0
128, 0.0
129, 0.0
130, 0.0
131, 0.0
132, 0.0
133, 0.0
134, 0.0
135, 0.0
136, 0.0
137, 0.0
138, 0.0
139, 0.0
140, 0.0
141, 0.0
142, 0.0
143, 0.0
144, 0.0
145, 0.0
146, 0.0
147, 0.0
148, 0.0
149, 0.0
150, 0.0
151, 0.0
152, 0.0
153, 0.0
154, 0.0
155, 0.0
156, 0.0
157.0, 0.003544802000237614
158.0, 0.00308913538666673
159.0, 0.003503227674017399
160.0, 0.009429129389205836
161.0, 0.008171601644515532
162.0, 0.0019723179412890405
163.0, 0.0012445924741468254
164.0, 0.007215741936867939
165.0, 0.008316277251007387
166.0, 0.016354977957918293
167.0, 0.02366616965280947
168.0, 0.009397624914033089
169.0, 0.007317718460879224
170.0, 0.010150159499542878
171.0, 0.0136822185120806
172.0, 0.020740595694763494
173.0, 0.03403360420144946
174.0, 0.0365748691225608
175.0, 0.036221258176232646
176.0, 0.04309632681222344
177.0, 0.03709862709645071
178.0, 0.03768649483650749
179.0, 0.04334963057823568
180.0, 0.04579788070794298
181.0, 0.0354501388169734
182.0, 0.027042128734356498
183.0, 0.025320120741876354
184.0, 0.02089137759978182
185.0, 0.013071821033893519
186.0, 0.008241916325713671
187.0, 0.0028149625162425997
188.0, 0.0006831136424446299
189.0, 0.00310007397877359
190.0, 0.0024368702650474847
191.0, 0.0022657291972760824
192.0, 0.006881885238124468
193.0, 0.014541693308316906
194.0, 0.016420651867813052
195.0, 0.019784535630949368
196.0, 0.024031676615002884
197.0, 0.02644315442073054
198.0, 0.025382230408526704
199.0, 0.023970766614490248
200.0, 0.022891747780236768
201.0, 0.019699412098971043
202.0, 0.01247815582288194
203.0, 0.012060088452294377
204.0, 0.008984088996012501
205.0, 0.00500678645220728
206.0, 0.0029135613877319406
207.0, 0.007877341937768335
208.0, 0.009998153903899134
209.0, 0.0114897865669663
210.0, 0.012592585227040131
211.0, 0.0017240996179009626
212.0, 0.011417429703223859
213.0, 0.021543862532579724
214.0, 0.008980824414265627
215.0, 0.028296359437969276
216.0, 0.02429867350514396
217.0, 0.022734573662489828
218.0, 0.026136225958129363
219.0, 0.025169051737658744
220.0, 0.021252825647612862
221.0, 0.022192088335181655
222.0, 0.02112492020244254
223.0, 0.015600474457971194
224.0, 0.012619201564931175
225.0, 0.020756369180913652
226.0, 0.017571500400239703
227.0, 0.01283162481222583
228.0, 0.02445930821800263
229.0, 0.03013191433997416
230.0, 0.02931420191158497
231.0, 0.03381674043931443
232.0, 0.04556875686868388
233.0, 0.047068931301267034
234.0, 0.05141405584709387
235.0, 0.055525801858986916
236.0, 0.06069038094997544
237.0, 0.07111746169220792
238.0, 0.07928477182403232
239.0, 0.08697212898420725
240.0, 0.09954110936908563
241.0, 0.11702628605635168
242.0, 0.12751320169889183
243.0, 0.13699653273051074
244.0, 0.14522431838909747
245.0, 0.15221494295595345
246.0, 0.15970654723714692
247.0, 0.17233409896600727
248.0, 0.1837884407447599
249.0, 0.1948950726430194
250.0, 0.20838106851872418
251.0, 0.22012845833484104
252.0, 0.23318337010663454
253.0, 0.24377093155550433
254.0, 0.24834284371254767
255.0, 0.246181893257456
256.0, 0.23266021291778902
257.0, 0.22260342103297703
258.0, 0.21724626757536453
259.0, 0.21025722631417829
260.0, 0.1952974223598947
261.0, 0.19012475461343378
262.0, 0.1844223217364822
263.0, 0.17335494832544654
264.0, 0.17189375059745718
265.0, 0.1616207058319646
266.0, 0.15191687881553334
267.0, 0.14896629254028337
268.0, 0.15223559102537476
269.0, 0.16144112786178796
270.0, 0.15817380560496294
271.0, 0.14693079483064644
272.0, 0.1371611647023908
273.0, 0.12939656344620679
274.0, 0.12398891774055117
275.0, 0.11933355383528695
276.0, 0.11224790092796075
277.0, 0.10344793510863946
278.0, 0.10925934723258385
279.0, 0.11789258668015992
280.0, 0.12182327624893648
281.0, 0.12383824374149223
282.0, 0.1339054027860375
283.0, 0.13589424483012252
284.0, 0.1507149999518787
285.0, 0.16685136407592818
286.0, 0.16384916567354388
287.0, 0.17990744122570762
288.0, 0.1974634306098356
289.0, 0.20815277455935555
290.0, 0.21685446861281132
291.0, 0.23699396184406976
292.0, 0.24922339144958125
293.0, 0.2603791489450113
294.0, 0.2774877733859883
295.0, 0.2988130148652014
296.0, 0.3116465125881134
297.0, 0.33671173361088713
298.0, 0.36712112520255624
299.0, 0.39040233963113313
300.0, 0.40000726158402256
301.0, 0.41489020859245995
302.0, 0.43274132528503356
303.0, 0.44781759272526306
304.0, 0.4587026818146687
305.0, 0.47171855254685613
306.0, 0.4777462626066692
307.0, 0.4734681274433929
308.0, 0.4659649317803532
309.0, 0.4626186907646447
310.0, 0.4509701497650123
311.0, 0.4372738141092836
312.0, 0.41572147714072133
313.0, 0.38747161681877373
314.0, 0.3698764279660943
315.0, 0.35265580767828525
316.0, 0.3316365838556302
317.0, 0.30857047265837717
318.0, 0.29156332986348804
319.0, 0.29541241738984353
320.0, 0.27676820408491415
321.0, 0.25913428206564015
322.0, 0.25350387937557595
323.0, 0.24124115961943834
324.0, 0.22580443298808825
325.0, 0.21453449635715297
326.0, 0.2000461139852577
327.0, 0.18075169313950548
328.0, 0.18391232173457966
329.0, 0.17458440159732244
330.0, 0.1651320771379594
331.0, 0.15795151423455017
332.0, 0.14754495196797046
333.0, 0.14521651066866603
334.0, 0.13944935367976077
335.0, 0.1281719590397793
336.0, 0.11474709574255601
337.0, 0.10401718841763807
338.0, 0.09501642133743933
339.0, 0.08224540169826777
340.0, 0.06978853394604442
341.0, 0.06303097629306813
342.0, 0.06040212767244481
343.0, 0.05909763465468653
344.0, 0.05198612077087344
345.0, 0.042342446463156366
346.0, 0.04028059434013929
347.0, 0.04455871510007148
348.0, 0.04855165308051942
349.0, 0.05252118042789832
350.0, 0.05548143329807632
351.0, 0.054491060107288075
352.0, 0.057143264350488145
353.0, 0.06255336722904153
354.0, 0.05915202202320188
355.0, 0.04451182462064862
356.0, 0.03445900117422092
357.0, 0.034474308782552615
358.0, 0.02653160913174618
359.0, 0.01343326388986344
360.0, 0.006214015171280932
361.0, 0.00069825019347223
362.0, 0.007422290105223445
363.0, 0.007353423535777094
364.0, 0.002170400288596824
365.0, 0.004950746465262256
366.0, 0.004521353674159799
367.0, 0.0009419512568870199
368.0, 0.0010225690760098363
369.0, 0.006391361487152603
370.0, 0.010633104671748512
371.0, 0.010183724800126142
372.0, 0.012798244885066664
373.0, 0.010065778239947833
374.0, 0.0016360012584458392
375.0, 0.011144729207915167
376.0, 0.00899157305403164
377.0, 0.007921249901568379
378.0, 0.007442987620570087
379.0, 0.002084905356890997
380.0, 0.007957532213891571
381.0, 0.005804822891828238
382.0, 0.0020798595672064787
383.0, 0.0020997855312938933
384.0, 0.009707983942602092
385.0, 0.01089299876847727
386.0, 0.01976422463381182
387.0, 0.025939579085812493
388.0, 0.029351335032034027
389.0, 0.041678646788811086
390.0, 0.052408698693043855
391.0, 0.06456109354963005
392.0, 0.07422879381432854
393.0, 0.0800832469661012
394.0, 0.08639767695716087
395.0, 0.09585342982847689
396.0, 0.10505533058921183
397.0, 0.11662363403147402
398.0, 0.1287760875704397
399.0, 0.1303605359321585
400.0, 0.1438933972062326
401.0, 0.15723469997447348
402.0, 0.16740634656279818
403.0, 0.1763779949082915
404.0, 0.18305079846568315
405.0, 0.19075187632175084
406.0, 0.2044717191611723
407.0, 0.2167072897693982
408.0, 0.21915447482594888
409.0, 0.22159683917603698
410.0, 0.22986074840509885
411.0, 0.2360138685897077
412.0, 0.24164499896042144
413.0, 0.25025423804901253
414.0, 0.2495847543522609
415.0, 0.2564470224677985
416.0, 0.26526179270035066
417.0, 0.2697365568928362
418.0, 0.2692289111116561
419.0, 0.2614940873150031
420.0, 0.262871563790733
421.0, 0.2604685201208488
422.0, 0.25123777756306964
423.0, 0.2420236313729128
424.0, 0.23011540943931755
425.0, 0.23343635069240692
426.0, 0.2330606308705808
427.0, 0.22482334722310984
428.0, 0.2225504260984047
429.0, 0.21130710122859458
430.0, 0.2076277590078118
431.0, 0.20598923956448295
432.0, 0.2009405330122218
433.0, 0.19344268808692108
434.0, 0.195002574826741
435.0, 0.19255089105221354
436.0, 0.1875158248082013
437.0, 0.18357449062806522
438.0, 0.1793472097078708
439.0, 0.17666328295352243
440.0, 0.17862254304868505
441.0, 0.17835861216995127
442.0, 0.17623484931682062
443.0, 0.1789325556452267
444.0, 0.17847224860905586
445.0, 0.17606683686641947
446.0, 0.17257849862911245
447.0, 0.16817829580006202
448.0, 0.1624757803266929
449.0, 0.15812117934990616
450.0, 0.1528528340735815
451.0, 0.1457614905996938
452.0, 0.13897600429723775
453.0, 0.13603970170383364
454.0, 0.1303881714660867
455.0, 0.12145634636831
456.0, 0.1140491541359577
457.0, 0.10978207026430925
458.0, 0.10567464992910088
459.0, 0.09975530688626623
460.0, 0.09677658494651958
461.0, 0.09280379215171194
462.0, 0.08524311450827392
463.0, 0.07562640242825593
464.0, 0.06769168168458094
465.0, 0.061974476609740085
466.0, 0.05162923155968949
467.0, 0.039183873870047355
468.0, 0.03330966022013722
469.0, 0.030153493016685348
470.0, 0.027236710934140946
471.0, 0.023882908284035186
472.0, 0.02221510085303617
473.0, 0.02375380293124531
474.0, 0.020336167128545645
475.0, 0.021222515693688212
476.0, 0.024492828710252147
477.0, 0.02432269845519187
478.0, 0.0200431076071221
479.0, 0.023798519018783548
480.0, 0.02521227038453777
481.0, 0.020248387853797383
482.0, 0.017643937691935216
483.0, 0.021277296464375314
484.0, 0.01780856314380354
485.0, 0.022400637622589842
486.0, 0.021040348199179264
487.0, 0.016862684838575878
488.0, 0.015771987875798286
489.0, 0.009671466370582901
490.0, 0.01442984139084543
491.0, 0.016590203176850046
492.0, 0.015359485893690005
493.0, 0.013444361229356118
494.0, 0.010089354411981246
495.0, 0.00907241263485777
496.0, 0.006908016623860482
497.0, 0.00669586627359695
498.0, 0.00851575769912888
499.0, 0.006973712767175944
500.0, 0.0024848292362723012
501.0, 0.004952957775173239
502.0, 0.006788000258672111
503.0, 0.006147719452325575
504.0, 0.007734849201540278
505.0, 0.005728042210522711
506.0, 0.007379138078189426
507.0, 0.008939346206499109
508.0, 0.008822927510434217
509.0, 0.008475996316124135
510.0, 0.00715465477452541
511.0, 0.007833679681119192
512.0, 0.008859401199214375
513.0, 0.009381548839484138
514.0, 0.009899112329271362
515.0, 0.011051841999100741
516.0, 0.011849997677207283
517.0, 0.015080601001525733
518.0, 0.019847326107979266
519.0, 0.022759139958641515
520.0, 0.01982930619315961
521.0, 0.013955440805713364
522.0, 0.015299076410746676
523.0, 0.01573413800490099
524.0, 0.01299058866153471
525.0, 0.013259893453509492
526.0, 0.011100908940089959
527.0, 0.005145021900791746
528.0, 0.002295469558044736
529.0, 0.004909670967749626
530.0, 0.0077226475817165656
531.0, 0.0013399773842557945
532.0, 0.0011134963536312832
533.0, 0.00408267974671239
534.0, 0.0038441255733611974
535.0, 0.004347039475888002
536.0, 0.0011903577856189598
537.0, 0.0032334685200227867
538.0, 0.001463303075964636
539.0, 0.0003173722297336592
540.0, 0.0009723070553988217
541.0, 0.00269749449611535
542.0, 0.0042268233507527725
543.0, 0.008801301483965024
544.0, 0.006641551167950969
545.0, 0.002542013964049592
546.0, 0.0029963838767841718
547.0, 0.006515701689662686
548.0, 0.0026601135181960043
549.0, 0.002375284571065866
550.0, 0.0031327486391202653
551.0, 0.0006023271307512483
552.0, 0.0031862368551505184
553.0, 0.0002757274560439639
554.0, 0.002163521360021436
555.0, 0.006808116965850697
556.0, 0.00790105496291071
557.0, 0.004956295247092626
558.0, 0.011141050167820122
559.0, 0.01166113867073275
560.0, 0.01469364466234162
561.0, 0.016595567045737062
562.0, 0.013390961459489304
563.0, 0.016863703201924776
564.0, 0.01933026094252106
565.0, 0.020989141000683508
566.0, 0.0210252591433588
567.0, 0.02087281040040553
568.0, 0.023201596244263916
569.0, 0.023997040537879842
570.0, 0.024088825714878612
571.0, 0.02549694582521548
572.0, 0.028325003299882044
573.0, 0.030540496419950068
574.0, 0.030081236478918052
575.0, 0.03431916456394428
576.0, 0.03456416480392819
577.0, 0.03554608851110366
578.0, 0.04038548747950269
579.0, 0.044712822044564296
580.0, 0.04717227977758955
581.0, 0.050905163190064225
582.0, 0.05491471501111137
583.0, 0.05670253564968328
584.0, 0.05827143498612768
585.0, 0.06803634030762575
586.0, 0.06662275974625069
587.0, 0.07087009162858157
588.0, 0.0751476977346082
589.0, 0.07564147817407765
590.0, 0.07931502744452913
591.0, 0.08080327248651818
592.0, 0.08287550783124377
593.0, 0.08285075515042772
594.0, 0.08408832359504374
595.0, 0.08570355743496738
596.0, 0.07718004964593077
597.0, 0.07141550995861012
598.0, 0.06921418168845203
599.0, 0.06866391041739829
600.0, 0.06344657084342598
601.0, 0.050862171982685986
602.0, 0.04819633245823426
603.0, 0.04615982286874987
604.0, 0.041777704211485876
605.0, 0.03729065818266125
606.0, 0.034343369340552106
607.0, 0.029757286806852752
608.0, 0.024181859808931946
609.0, 0.025695276669291313
610.0, 0.02528806227445942
611.0, 0.023723180494135448
612.0, 0.02605298385492692
613.0, 0.024040871719547822
614.0, 0.028410848357581515
615.0, 0.027068096615886546
616.0, 0.026853870287181458
617.0, 0.02841531147762911
618.0, 0.023065936831196638
619.0, 0.021516986191581555
620.0, 0.021593630813126895
621.0, 0.01861836474840436
622.0, 0.016896615881951266
623.0, 0.01767538104116278
624.0, 0.012948191839074856
625.0, 0.009063968368516442
626.0, 0.009689263062093511
627.0, 0.010476001642941542
628.0, 0.011715438999508738
629.0, 0.01376495415719619
630.0, 0.009659932646239959
631.0, 0.005453871131165262
632.0, 0.0049373215967709475
633.0, 0.006430252315220247
634.0, 0.0066402432541340034
635.0, 0.00396854806764006
636.0, 0.0006355459744837658
637.0, 0.0005591512144481962
638.0, 0.0003552162962036503
639.0, 0.0015320204506024814
640.0, 0.0016590548992406475
641.0, 0.0013283825613379908
642.0, 0.0003554193489027061
643.0, 0.00031469357651190376
644.0, 0.0008323336915750997
645.0, 0.0034503686085533983
646.0, 0.006727890638841567
647.0, 0.005555801967484306
648.0, 0.010094103922663114
649.0, 0.012806668098637423
650.0, 0.01601443481145754
651.0, 0.018902876960985956
652.0, 0.021977343339803446
653.0, 0.032203364362624214
654.0, 0.038758354235860965
655.0, 0.04419504557366377
656.0, 0.05390255204024806
657.0, 0.06773656212105626
658.0, 0.08236057151099437
659.0, 0.096961525491605
660.0, 0.10609924334806525
661.0, 0.12728726045667907
662.0, 0.14932007963637126
663.0, 0.1716479437037185
664.0, 0.20288699238559788
665.0, 0.22692753867390103
666.0, 0.23908234012793345
667.0, 0.2524595869531796
668.0, 0.26148623791094194
669.0, 0.25761987901142214
670.0, 0.24021116039657722
671.0, 0.21776949337238807
672.0, 0.19326847440936384
673.0, 0.1663860352413742
674.0, 0.14417674685277948
675.0, 0.1256176127888917
676.0, 0.10396156687303769
677.0, 0.08764180129107693
678.0, 0.07760952428891812
679.0, 0.07196080524677574
680.0, 0.0655348353556425
681.0, 0.05897571820816191
682.0, 0.05814102811651304
683.0, 0.05859336411306113
684.0, 0.05908131619774335
685.0, 0.059328144446605835
686.0, 0.05677943041478472
687.0, 0.054238201843489375
688.0, 0.057322976496905785
689.0, 0.06040290088382325
690.0, 0.0624136636023921
691.0, 0.06629585777525915
692.0, 0.07224120770622008
693.0, 0.07392673683446187
694.0, 0.0673803855014858
695.0, 0.06659533143230176
696.0, 0.061283104374738225
697.0, 0.05103695807954563
698.0, 0.045873016033635014
699.0, 0.04323529207378796
700.0, 0.03151416970915391
701.0, 0.019597302987499874
702.0, 0.020519858672285264
703.0, 0.020183384033675877
704.0, 0.015400368234402521
705.0, 0.01099109328275507
706.0, 0.01064436185024708
707.0, 0.00921288123984292
708.0, 0.011847382181534468
709.0, 0.011301794941294815
710.0, 0.008224147564451363
711.0, 0.006821576283329922
712.0, 0.008717297414922887
713.0, 0.01216988978064013
714.0, 0.01147846753382526
715.0, 0.011999538262092515
716.0, 0.013280709314050078
717.0, 0.013404039044997743
718.0, 0.012001060983173032
719.0, 0.010679608615961816
720.0, 0.007134558348600483
721.0, 0.006432978400984307
722.0, 0.00900712719109753
723.0, 0.0065350053505447755
724.0, 0.0008294307093606333
725.0, 0.0020688393417697187
726.0, 0.0009971352164202675
727.0, 0.0012285465073372524
728.0, 0.002384022444438886
729.0, 0.0032358894257905053
730.0, 0.0037553283334583643
731.0, 0.000173282174929679
732.0, 0.0005697048347732942
733.0, 0.0015778747888244137
734.0, 0.0015479193310656628
735.0, 0.001112622316770206
736.0, 0.0031928295377240887
737.0, 0.0032494502380583028
738.0, 0.00408210355608843
739.0, 0.0009821266302490624
740.0, 0.0009098411943070586
741.0, 0.0020059007007858644
742.0, 0.0028655394180442757
743.0, 0.004993049675288709
744.0, 0.003544787416553199
745.0, 0.00010037714487693624
746.0, 0.0016425608488865615
747.0, 0.002872066195422928
748.0, 0.0011498069489981992
749.0, 0.002318903485012404
750.0, 0.002111610142010281
751.0, 0.002448326404043894
752.0, 0.0009535565352878077
753.0, 0.0001794107958335916
754.0, 0.0007763574517285707
755.0, 0.0006792373535084465
756.0, 0.0009399513991220517
757.0, 0.0001208350578831622
758.0, 0.002240694494987392
759.0, 0.0016181871367804978
760.0, 0.0023569457056286363
761.0, 0.004051326174760372
762.0, 0.0038172173788267347
763.0, 0.005427839087608324
764.0, 0.004495570502819263
765.0, 0.004682172733162599
766.0, 0.007769761350094111
767.0, 0.008428012356534441
768.0, 0.006322143131884691
769.0, 0.008228495661885282
770.0, 0.012026150176308334
771.0, 0.01452127057340322
772.0, 0.018206324383341983
773.0, 0.019445120398607567
774.0, 0.019238509422631778
775.0, 0.020485285173146697
776.0, 0.0183991969892264
777.0, 0.021809182483552552
778.0, 0.021144894225255676
779.0, 0.016865259552777262
780.0, 0.014682762196178454
781.0, 0.016006298456970238
782.0, 0.016988691935290512
783.0, 0.015228057397775148
784.0, 0.014127658908734186
785.0, 0.009474637981843033
786.0, 0.009537506239655016
787.0, 0.009351120129089044
788.0, 0.0027362612765250123
789.0, 0.004646636191184539
790.0, 0.002481005791822948
791.0, 0.0031854997008926565
792.0, 0.0012652223794110144
793.0, 0.000746777281145694
794.0, 0.0029310003418133216
795.0, 0.0029321885101224973
796.0, 0.0041633643959740115
797.0, 0.006931984873730008
798.0, 0.008338194073084771
799.0, 0.006832860095829854
800.0, 0.006175099281720599
801.0, 0.011242366731136214
802.0, 0.01753255626321985
803.0, 0.012715779811390448
804.0, 0.0145222743681033
805.0, 0.01930821041911872
806.0, 0.019603219692748818
807.0, 0.01660254098608707
808.0, 0.016110006552240486
809.0, 0.01698462458728665
810.0, 0.013688245848016414
811.0, 0.019781072609627713
812.0, 0.01899796265515905
813.0, 0.01839135414459923
814.0, 0.02222712172521037
815.0, 0.021877978148073938
816.0, 0.023746204165588838
817.0, 0.027587721512277348
818.0, 0.024908972172125714
819.0, 0.021720953400922945
820.0, 0.022830321088190476
821.0, 0.022510324427004662
822.0, 0.014952084156075709
823.0, 0.013843794232951843
824.0, 0.01213929244958425
825.0, 0.01262004522979337
826.0, 0.011003688438570759
827.0, 0.01052480448497135
828.0, 0.01167235661403198
829.0, 0.00568356598194497
830.0, 0.006971702857726819
831.0, 0.007031956456896318
832.0, 0.008600275809172967
833.0, 0.005429122517952276
834.0, 0.004939361894894738
835.0, 0.010313527512779143
836.0, 0.005856379417586559
837.0, 0.007946843944283946
838.0, 0.007996253992554346
839.0, 0.013079261733699082
840.0, 0.017256341969908537
841.0, 0.019338599513041115
842.0, 0.023494660515590956
843.0, 0.028351378194751007
844.0, 0.03434203965235732
845.0, 0.03984520796862013
846.0, 0.042323282313460275
847.0, 0.04315169237689657
848.0, 0.04230780969348142
849.0, 0.038712687030344736
850.0, 0.0336627924742034
851.0, 0.028325530466262724
852.0, 0.015271529094904911
853.0, 0.01339883154600865
854.0, 0.011320566014727713
855.0, 0.006006545681812104
856.0, 0.0061935756668162695
857.0, 0.006023858636496168
858.0, 0.0018536182076422166
859.0, 0.0016905262893657973
860.0, 0.0013480788311218115
861.0, 0.0018324439537147224
862.0, 0.0006983264065954018
863.0, 0.0022234169242361817
864.0, 0.0005902417136708437
865.0, 0.0011088899885907772
866.0, 0.0014027986507937694
867.0, 0.002337839310611441
868.0, 0.0015744929088389588
869.0, 0.00143880002335426
870.0, 0.003601856409364542
871.0, 0.0011378029715629536
872.0, 0.0029887698560199286
873.0, 0.0031555014233293167
874.0, 0.00948191122078426
875.0, 0.011497631256273998
876.0, 0.010357440897847814
877.0, 0.0131049579480902
878.0, 0.017293116345711453
879.0, 0.01980069644951271
880.0, 0.02144190219901867
881.0, 0.02963171861944007
882.0, 0.03384898908739752
883.0, 0.0371944111422983
884.0, 0.043625313606530644
885.0, 0.047619326532270564
886.0, 0.051153677185349855
887.0, 0.06003910023502112
888.0, 0.06697107307634592
889.0, 0.07287986568835329
890.0, 0.0780623552162912
891.0, 0.08297700092238565
892.0, 0.08773698394620431
893.0, 0.08999676825865283
894.0, 0.09335625587567377
895.0, 0.10136123471429337
896.0, 0.10269915034890173
897.0, 0.10918718377452995
898.0, 0.12016816736350422
899.0, 0.12647251801847537
900.0, 0.13224860728621426
901.0, 0.14141290083642713
902.0, 0.1444043260705462
903.0, 0.1492728438628895
904.0, 0.1530123812567517
905.0, 0.15149780100949345
906.0, 0.14685410964241405
907.0, 0.14364972996229003
908.0, 0.14008967879826403
909.0, 0.1308144091032726
910.0, 0.11580615640067642
911.0, 0.10289691297922994
912.0, 0.09356243420044488
913.0, 0.08478603001390074
914.0, 0.0770107021909024
915.0, 0.0731292719602531
916.0, 0.06805746753786707
917.0, 0.0644984105684965
918.0, 0.057808683933178916
919.0, 0.05414586701951185
920.0, 0.050904934276612974
921.0, 0.046397686755858425
922.0, 0.044289061590080316
923.0, 0.04129383550829469
924.0, 0.04003762588686606
925.0, 0.03740906741813749
926.0, 0.033320351439469126
927.0, 0.03006127781754308
928.0, 0.02649677031462052
929.0, 0.025050356241335885
930.0, 0.02914914217247037
931.0, 0.023372828693342708
932.0, 0.0227312931399762
933.0, 0.022653568100867508
934.0, 0.023915005974036268
935.0, 0.019461238504736255
936.0, 0.013956602308597988
937.0, 0.014513241969962879
938.0, 0.011329194928578585
939.0, 0.010278012864812874
940.0, 0.00719861265103969
941.0, 0.006930393208426869
942.0, 0.004493297675849654
943.0, 0.0013656157953979228
944.0, 0.0022512397080820448
945.0, 0.0010666451757753751
946.0, 0.0014134840222806643
947.0, 0.003807184044585037
948.0, 0.006385371232211554
949.0, 0.00744723266485337
950.0, 0.0034951411178824627
951.0, 0.0014889846565526636
952.0, 0.004085551513723309
953.0, 0.005119910541896166
954.0, 0.0033941975361200024
955.0, 0.010407946071551353
956.0, 0.009567840330917097
957.0, 0.013079464991293229
958.0, 0.015240838485769773
959.0, 0.016379197902323315
960.0, 0.020239689746342656
961.0, 0.024197206494173097
962.0, 0.02847537164436379
963.0, 0.0316346572196199
964.0, 0.03246108762424289
965.0, 0.03628203433198466
966.0, 0.03795680629127586
967.0, 0.03993492584380241
968.0, 0.04469756359830274
969.0, 0.047187774846498574
970.0, 0.05045050371216544
971.0, 0.059647586555996286
972.0, 0.07153221263010066
973.0, 0.08159443314195573
974.0, 0.09665415591447117
975.0, 0.11230903551119777
976.0, 0.12847182962428924
977.0, 0.1532403005091103
978.0, 0.17694762449165477
979.0, 0.20838232130860246
980.0, 0.2350573014845236
981.0, 0.2616546803352479
982.0, 0.2761382933940349
983.0, 0.27846746713528286
984.0, 0.28347465260603244
985.0, 0.2984840839158711
986.0, 0.31830908396504165
987.0, 0.3557111696880713
988.0, 0.378862932093808
989.0, 0.39145562103783405
990.0, 0.385878116367856
991.0, 0.3781986909495414
992.0, 0.37528644576012604
993.0, 0.36373995943405896
994.0, 0.34455731308804827
995.0, 0.32242779135535327
996.0, 0.2887986192971053
997.0, 0.25885044770186866
998.0, 0.2245690337298214
999.0, 0.191674019922687
1000.0, 0.16232432857366297
1001.0, 0.13557572202136242
1002.0, 0.1152879434891187
1003.0, 0.089160294233701
1004.0, 0.07242667271647477
1005.0, 0.06004715879053143
1006.0, 0.04312248003738856
1007.0, 0.0326136317558852
1008.0, 0.025146126268205275
1009.0, 0.014741613294352878
1010.0, 0.009498651829436685
1011.0, 0.008975560297287306
1012.0, 0.0037914869150576683
1013.0, 0.0006712312039704263
1014.0, 0.003819849673873094
1015.0, 0.006883274330377017
1016.0, 0.006301505979187486
1017.0, 0.0020304137988950183
1018.0, 0.0018729535412811105
1019.0, 0.0011637731710638808
1020.0, 0.007238971374031986
1021.0, 0.013835102633928982
1022.0, 0.02218670741501711
1023.0, 0.03472102671898535
1024.0, 0.0512345184093976
1025.0, 0.07097594575145423
1026.0, 0.09552178757006696
1027.0, 0.12623249086217803
1028.0, 0.16234073958615514
1029.0, 0.21677610387452909
1030.0, 0.2641632991424356
1031.0, 0.33022636893441515
1032.0, 0.4044039535985029
1033.0, 0.47690411762151413
1034.0, 0.5601467163445515
1035.0, 0.6559483607097327
1036.0, 0.7425784231894927
1037.0, 0.8195420388926923
1038.0, 0.8845057281929887
1039.0, 0.938918996632613
1040.0, 0.9701069618724599
1041.0, 0.9931210405522346
1042.0, 0.9993000197534893
1043.0, 0.9832463273391289
1044.0, 0.9578279108353986
1045.0, 0.930003435933988
1046.0, 0.8954793019543592
1047.0, 0.8776913516679857
1048.0, 0.8309432499805259
1049.0, 0.7345806298641208
1050.0, 0.6217919801648806
1051.0, 0.5204028074024679
1052.0, 0.4253397544768283
1053.0, 0.3347240293271765
1054.0, 0.2693704804896574
1055.0, 0.2244086764332179
1056.0, 0.17447629099273498
1057.0, 0.12319174469797388
1058.0, 0.09188042592070338
1059.0, 0.07058166490257732
1060.0, 0.05591183858508645
1061.0, 0.04776056423056722
1062.0, 0.04080525378294167
1063.0, 0.034245061343221764
1064.0, 0.0284020022970079
1065.0, 0.025287361285528696
1066.0, 0.018538112953167398
1067.0, 0.019668581381679855
1068.0, 0.018927788652652527
1069.0, 0.01735939884923436
1070.0, 0.016871709281430506
1071.0, 0.016320475788620635
1072.0, 0.016235648838406534
1073.0, 0.01341191181726061
1074.0, 0.014442079433979923
1075.0, 0.019591556051815347
1076.0, 0.019526712183350996
1077.0, 0.020307026164760742
1078.0, 0.022141339433885916
1079.0, 0.021858950221315534
1080.0, 0.02252103471208245
1081.0, 0.02725948010797843
1082.0, 0.029228155169534316
1083.0, 0.03068880919094414
1084.0, 0.030760177021045932
1085.0, 0.035670336178681206
1086.0, 0.039628791304123175
1087.0, 0.04105162198381767
1088.0, 0.042361484842640115
1089.0, 0.04567457196475724
1090.0, 0.04894519516215889
1091.0, 0.05016916459305245
1092.0, 0.05657024946766673
1093.0, 0.05815480006334591
1094.0, 0.05993297909423699
1095.0, 0.06276780997640975
1096.0, 0.061744987370629
1097.0, 0.05906715914774322
1098.0, 0.05952928558377785
1099.0, 0.0600508373001215
1100.0, 0.05519594705583536
1101.0, 0.051203004589917146
1102.0, 0.04746670117700234
1103.0, 0.043223649977023014
1104.0, 0.03788542243487598
1105.0, 0.03353403984864548
1106.0, 0.026871264773584418
1107.0, 0.023500046990278654
1108.0, 0.020150280955856185
1109.0, 0.013900667543774737
1110.0, 0.014205577034017385
1111.0, 0.011896043840168687
1112.0, 0.003753519255692895
1113.0, 0.0016801472003382459
1114.0, 0.0010657393784757247
1115.0, 0.0007468047567521981
1116.0, 0.0011750107475361133
1117.0, 0.0019840791009683523
1118.0, 0.0016709606210245152
1119.0, 0.0002541109298002728
1120.0, 0.004802722595016998
1121.0, 0.009632826804846737
1122.0, 0.002235618580846476
1123.0, 0.0022226709193093218
1124.0, 0.0021051080888334355
1125.0, 0.0028668359002711093
1126.0, 0.003780723048266126
1127.0, 0.0014604092907047634
1128.0, 0.0025338267162509425
1129.0, 0.0011161712105839325
1130.0, 0.002249143184366603
1131.0, 0.0016216856486636097
1132.0, 0.001654802436284139
1133.0, 0.0025974131121525718
1134.0, 0.0029747796595610276
1135.0, 0.004318019538506197
1136.0, 0.005583165939655995
1137.0, 0.005939277563876195
1138.0, 0.00789176480546327
1139.0, 0.010113685886396561
1140.0, 0.009351360041724308
1141.0, 0.010552301437945596
1142.0, 0.005495528994748073
1143.0, 0.005510274567881169
1144.0, 0.009968923289640438
1145.0, 0.013061884826196312
1146.0, 0.012533558137222822
1147.0, 0.013415598778772322
1148.0, 0.015499257118657172
1149.0, 0.015179991643247848
1150.0, 0.014150635209475501
1151.0, 0.01576638596760603
1152.0, 0.01698622525407127
1153.0, 0.017404130712547195
1154.0, 0.018446168692891035
1155.0, 0.01776687233551011
1156.0, 0.024861136507923296
1157.0, 0.025207096965959252
1158.0, 0.0232185567552588
1159.0, 0.02689344582626442
1160.0, 0.03055579314303994
1161.0, 0.034397576953152625
1162.0, 0.03702606777597219
1163.0, 0.04072835780941476
1164.0, 0.041749290814649946
1165.0, 0.04120916378354626
1166.0, 0.04238355631032969
1167.0, 0.04504113282686549
1168.0, 0.04663144666650539
1169.0, 0.04845554852435147
1170.0, 0.0509498175077168
1171.0, 0.05228738944177972
1172.0, 0.05687250155846696
1173.0, 0.06642838579267464
1174.0, 0.0601669823833236
1175.0, 0.06405529678657507
1176.0, 0.06429429978808346
1177.0, 0.07179442253191237
1178.0, 0.07417817339854717
1179.0, 0.07164113807549258
1180.0, 0.07063203121533457
1181.0, 0.06958636630383823
1182.0, 0.0694277768020897
1183.0, 0.07169751212304715
1184.0, 0.07297680723868037
1185.0, 0.07650900175549458
1186.0, 0.07353090215654935
1187.0, 0.07221346221099317
1188.0, 0.07250479991077055
1189.0, 0.07314600651208188
1190.0, 0.07635370082587119
1191.0, 0.07524046570563449
1192.0, 0.0717626066379275
1193.0, 0.07406032259812476
1194.0, 0.07020189978517541
1195.0, 0.0712272252093522
1196.0, 0.07072933394504675
1197.0, 0.06546449008117007
1198.0, 0.0672596714936559
1199.0, 0.0681408865531811
1200.0, 0.06411846861558326
1201.0, 0.0617425713339195
1202.0, 0.061030106149103605
1203.0, 0.06500710914354617
1204.0, 0.06789835039421752
1205.0, 0.06011647002121522
1206.0, 0.06270143399754738
1207.0, 0.05593564149783872
1208.0, 0.05707101348169299
1209.0, 0.05610191796059526
1210.0, 0.058509418668894655
1211.0, 0.05538173973721191
1212.0, 0.05446619186074991
1213.0, 0.05368889209384146
1214.0, 0.05332224624279753
1215.0, 0.05439954541161821
1216.0, 0.05460418185006682
1217.0, 0.057802793098252654
1218.0, 0.05984667677085858
1219.0, 0.058465180328375346
1220.0, 0.05940240308153845
1221.0, 0.06449712507831484
1222.0, 0.06466637748875666
1223.0, 0.0625012699114608
1224.0, 0.06215996368394102
1225.0, 0.06006374012190595
1226.0, 0.055925577268937224
1227.0, 0.0542780909081682
1228.0, 0.05516352443802197
1229.0, 0.054602892889478366
1230.0, 0.05211795497089549
1231.0, 0.053261876823010555
1232.0, 0.04940053657692062
1233.0, 0.048067564027380966
1234.0, 0.047681210141594946
1235.0, 0.04243277150887455
1236.0, 0.04035124457666779
1237.0, 0.03979337995948513
1238.0, 0.03816275727967011
1239.0, 0.037650323182942175
1240.0, 0.037040580613618666
1241.0, 0.033945850406577306
1242.0, 0.028633508350276907
1243.0, 0.028602500608697498
1244.0, 0.023707753049814644
1245.0, 0.02095986906245792
1246.0, 0.017923827645410763
1247.0, 0.014094618560924678
1248.0, 0.014259530185586724
1249.0, 0.015922291805394197
1250.0, 0.014391654570258311
1251.0, 0.01375428912527481
1252.0, 0.013040326181074136
1253.0, 0.007343161814891289
1254.0, 0.004724703137665907
1255.0, 0.0062661433935217205
1256.0, 0.0073374165843258276
1257.0, 0.007090335531370589
1258.0, 0.006290158896921902
1259.0, 0.0031255661294415384
1260.0, 0.004510604049623371
1261.0, 0.003970026021308988
1262.0, 0.0022234068741524018
1263.0, 0.0011290148227782386
1264.0, 0.0006263345855275461
1265.0, 0.0006847054806720927
1266.0, 0.0001134155318806683
1267.0, 0.0010217404838517678
1268.0, 0.0020150138338046178
1269.0, 0.0008919467893444981
1270.0, 0.0021423051517413905
1271.0, 0.001635313819249482
1272.0, 0.0017585944760314886
1273.0, 0.0034048107171860686
1274.0, 0.0020926984106826828
1275.0, 0.0024321056643915543
1276.0, 0.00408185400253847
1277.0, 0.0028012055580389147
1278.0, 0.0014087231122384821
1279.0, 0.000711521618257044
1280.0, 0.0012130895713203548
1281.0, 0.001811639677595082
1282.0, 0.002475263987732484
1283.0, 0.0034913540302572797
1284.0, 0.0027797097613666538
1285.0, 0.0010323009686261232
1286.0, 0.0014203537849738345
1287.0, 0.0053309439167946735
1288.0, 0.008460582129905343
1289.0, 0.005775254993445396
1290.0, 0.0031151085171745303
1291.0, 0.0014242711715359755
1292.0, 0.000965392957464844
1293.0, 0.0037220167699879175
1294.0, 0.0032223042381856544
1295.0, 0.006102432086524113
1296.0, 0.005341763755421462
1297.0, 0.00315492059237138
1298, 0.0
1299, 0.0
1300, 0.0
1301, 0.0
1302, 0.0
1303, 0.0
1304, 0.0
1305, 0.0
1306, 0.0
1307, 0.0
1308, 0.0
1309, 0.0
1310, 0.0
1311, 0.0
1312, 0.0
1313, 0.0
1314, 0.0
1315, 0.0
1316, 0.0
1317, 0.0
1318, 0.0
1319, 0.0
1320, 0.0
1321, 0.0
1322, 0.0
1323, 0.0
1324, 0.0
1325, 0.0
1326, 0.0
1327, 0.0
1328, 0.0
1329, 0.0
1330, 0.0
1331, 0.0
1332, 0.0
1333, 0.0
1334, 0.0
1335, 0.0
1336, 0.0
1337, 0.0
1338, 0.0
1339, 0.0
1340, 0.0
1341, 0.0
1342, 0.0
1343, 0.0
1344, 0.0
1345, 0.0
1346, 0.0
1347, 0.0
1348, 0.0
1349, 0.0
1350, 0.0
1351, 0.0
1352, 0.0
1353, 0.0
1354, 0.0
1355, 0.0
1356, 0.0
1357, 0.0
1358, 0.0
1359, 0.0
1360, 0.0
1361, 0.0
1362, 0.0
1363, 0.0
1364, 0.0
1365, 0.0
1366, 0.0
1367, 0.0
1368, 0.0
1369, 0.0
1370, 0.0
1371, 0.0
1372, 0.0
1373, 0.0
1374, 0.0
1375, 0.0
1376, 0.0
1377, 0.0
1378, 0.0
1379, 0.0
1380, 0.0
1381, 0.0
1382, 0.0
1383, 0.0
1384, 0.0
1385, 0.0
1386, 0.0
1387, 0.0
1388, 0.0
1389, 0.0
1390, 0.0
1391, 0.0
1392, 0.0
1393, 0.0
1394, 0.0
1395, 0.0
1396, 0.0
1397, 0.0
1398, 0.0
1399, 0.0
1400, 0.0
1401, 0.0
1402, 0.0
1403, 0.0
1404, 0.0
1405, 0.0
1406, 0.0
1407, 0.0
1408, 0.0
1409, 0.0
1410, 0.0
1411, 0.0
1412, 0.0
1413, 0.0
1414, 0.0
1415, 0.0
1416, 0.0
1417, 0.0
1418, 0.0
1419, 0.0
1420, 0.0
1421, 0.0
1422, 0.0
1423, 0.0
1424, 0.0
1425, 0.0
1426, 0.0
1427, 0.0
1428, 0.0
1429, 0.0
1430, 0.0
1431, 0.0
1432, 0.0
1433, 0.0
1434, 0.0
1435, 0.0
1436, 0.0
1437, 0.0
1438, 0.0
1439, 0.0
1440, 0.0
1441, 0.0
1442, 0.0
1443, 0.0
1444, 0.0
1445, 0.0
1446, 0.0
1447, 0.0
1448, 0.0
1449, 0.0
1450, 0.0
1451, 0.0
1452, 0.0
1453, 0.0
1454, 0.0
1455, 0.0
1456, 0.0
1457, 0.0
1458, 0.0
1459, 0.0
1460, 0.0
1461, 0.0
1462, 0.0
1463, 0.0
1464, 0.0
1465, 0.0
1466, 0.0
1467, 0.0
1468, 0.0
1469, 0.0
1470, 0.0
1471, 0.0
1472, 0.0
1473, 0.0
1474, 0.0
1475, 0.0
1476, 0.0
1477, 0.0
1478, 0.0
1479, 0.0
1480, 0.0
1481, 0.0
1482, 0.0
1483, 0.0
1484, 0.0
1485, 0.0
1486, 0.0
1487, 0.0
1488, 0.0
1489, 0.0
1490, 0.0
1491, 0.0
1492, 0.0
1493, 0.0
1494, 0.0
1495, 0.0
1496, 0.0
1497, 0.0
1498, 0.0
1499, 0.0
1500, 0.0
1501, 0.0
1502, 0.0
1503, 0.0
1504, 0.0
1505, 0.0
1506, 0.0
1507, 0.0
1508, 0.0
1509, 0.0
1510, 0.0
1511, 0.0
1512, 0.0
1513, 0.0
1514, 0.0
1515, 0.0
1516, 0.0
1517, 0.0
1518, 0.0
1519, 0.0
1520, 0.0
1521, 0.0
1522, 0.0
1523, 0.0
1524, 0.0
1525, 0.0
1526, 0.0
1527, 0.0
1528, 0.0
1529, 0.0
1530, 0.0
1531, 0.0
1532, 0.0
1533, 0.0
1534, 0.0
1535, 0.0
1536, 0.0
1537, 0.0
1538, 0.0
1539, 0.0
1540, 0.0
1541, 0.0
1542, 0.0
1543, 0.0
1544, 0.0
1545, 0.0
1546, 0.0
1547, 0.0
1548, 0.0
1549, 0.0
1550, 0.0
1551, 0.0
1552, 0.0
1553, 0.0
1554, 0.0
1555, 0.0
1556, 0.0
1557, 0.0
1558, 0.0
1559, 0.0
1560, 0.0
1561, 0.0
1562, 0.0
1563, 0.0
1564, 0.0
1565, 0.0
1566, 0.0
1567, 0.0
1568, 0.0
1569, 0.0
1570, 0.0
1571, 0.0
1572, 0.0
1573, 0.0
1574, 0.0
1575, 0.0
1576, 0.0
1577, 0.0
1578, 0.0
1579, 0.0
1580, 0.0
1581, 0.0
1582, 0.0
1583, 0.0
1584, 0.0
1585, 0.0
1586, 0.0
1587, 0.0
1588, 0.0
1589, 0.0
1590, 0.0
1591, 0.0
1592, 0.0
1593, 0.0
1594, 0.0
1595, 0.0
1596, 0.0
1597, 0.0
1598, 0.0
1599, 0.0
