30, 0.0
31, 0.0
32, 0.0
33, 0.0
34, 0.0
35, 0.0
36, 0.0
37, 0.0
38, 0.0
39, 0.0
40, 0.0
41, 0.0
42, 0.0
43, 0.0
44, 0.0
45, 0.0
46, 0.0
47, 0.0
48, 0.0
49, 0.0
50, 0.0
51, 0.0
52, 0.0
53, 0.0
54, 0.0
55, 0.0
56, 0.0
57, 0.0
58, 0.0
59, 0.0
60, 0.0
61, 0.0
62, 0.0
63, 0.0
64, 0.0
65, 0.0
66, 0.0
67, 0.0
68, 0.0
69, 0.0
70, 0.0
71, 0.0
72, 0.0
73, 0.0
74, 0.0
75, 0.0
76, 0.0
77, 0.0
78, 0.0
79, 0.0
80, 0.0
81, 0.0
82, 0.0
83, 0.0
84, 0.0
85, 0.0
86, 0.0
87, 0.0
88, 0.0
89, 0.0
90, 0.0
91, 0.0
92, 0.0
93, 0.0
94, 0.0
95, 0.0
96, 0.0
97, 0.0
98, 0.0
99, 0.0
100, 0.0
101, 0.0
102, 0.0
103, 0.0
104, 0.0
105, 0.0
106, 0.0
107, 0.0
108, 0.0
109, 0.0
110, 0.0
111, 0.0
112, 0.0
113, 0.0
114, 0.0
115, 0.0
116, 0.0
117, 0.0
118, 0.0
119, 0.0
120, 0.0
121, 0.0
122, 0.0
123, 0.0
124, 0.0
125, 0.0
126, 0.0
127, 0.0
128, 0.0
129, 0.0
130, 0.0
131, 0.0
132, 0.0
133, 0.0
134, 0.0
135, 0.0
136, 0.0
137, 0.0
138.0, 0.0017460315213088029
139.0, 0.005141224513384139
140.0, 0.010531789820784121
141.0, 0.0057853269864812
142.0, 0.01340654742563856
143.0, 0.029520354836230223
144.0, 0.02642887364881538
145.0, 0.045277316012653515
146.0, 0.05406201284945045
147.0, 0.034032462295019675
148.0, 0.010989597704112699
149.0, 0.02219645393991267
150.0, 0.046026123127352075
151.0, 0.03224951998482117
152.0, 0.023750891321612108
153.0, 0.029064741304655986
154.0, 0.04732015488788745
155.0, 0.017858657070792264
156.0, 0.02688443183731514
157.0, 0.04785944440223288
158.0, 0.05272071017895755
159.0, 0.05940377564205701
160.0, 0.07848567378585013
161.0, 0.10278816135098037
162.0, 0.08986195186599669
163.0, 0.08815013906029444
164.0, 0.09551183343475095
165.0, 0.11208710340429029
166.0, 0.11020967539852111
167.0, 0.11533441937566874
168.0, 0.12109246483310471
169.0, 0.1126181977855513
170.0, 0.15099517806233795
171.0, 0.18361681389874185
172.0, 0.1970410607837934
173.0, 0.1882685511232751
174.0, 0.2253157597149683
175.0, 0.26195469214351824
176.0, 0.25335433065649515
177.0, 0.2889617561591423
178.0, 0.3054063232778973
179.0, 0.31379221788722733
180.0, 0.37190569049804095
181.0, 0.38853673973209674
182.0, 0.40480888632341105
183.0, 0.43726708516566254
184.0, 0.4931454149560353
185.0, 0.5325112075610554
186.0, 0.5475321419277102
187.0, 0.5206650128909484
188.0, 0.5445366394233517
189.0, 0.5403337436787446
190.0, 0.506958815712847
191.0, 0.49937726038671953
192.0, 0.4675702139389791
193.0, 0.4357199039808052
194.0, 0.4171695736192309
195.0, 0.4168912396509758
196.0, 0.3967302629890021
197.0, 0.36789146337415757
198.0, 0.35090145020309893
199.0, 0.33525463117915333
200.0, 0.3161121499506281
201.0, 0.292894131093147
202.0, 0.2686948566620001
203.0, 0.25550480199473524
204.0, 0.2394771079154911
205.0, 0.21074726418923978
206.0, 0.20984376693006557
207.0, 0.19295467733810062
208.0, 0.16898842609150136
209.0, 0.15908507176409176
210.0, 0.15003591942282332
211.0, 0.1439627464402778
212.0, 0.1405874448474117
213.0, 0.1328812977501991
214.0, 0.14567590039024716
215.0, 0.1523784256381284
216.0, 0.13257108011164828
217.0, 0.10512485569162125
218.0, 0.10596949695219113
219.0, 0.11026890007956361
220.0, 0.05920847367302508
221.0, 0.05799928823299654
222.0, 0.07235899470183058
223.0, 0.08725912103268729
224.0, 0.04077407071489454
225.0, 0.05713854515443998
226.0, 0.07358350285857174
227.0, 0.04710685654881259
228.0, 0.074550475903359
229.0, 0.07393809666591375
230.0, 0.05393862948683505
231.0, 0.03190447148176856
232.0, 0.020125793570999896
233.0, 0.01006745096040013
234.0, 0.006785041807322433
235.0, 0.052958991536786515
236.0, 0.031981815703797614
237.0, 0.004046220644794712
238.0, 0.0025268421712603545
239.0, 0.02792561266452298
240.0, 0.022192459074988184
241.0, 0.009009788638110023
242.0, 0.025685453746407176
243.0, 0.015412347847727204
244.0, 0.01760831824375315
245.0, 0.02839759757284725
246.0, 0.006180422655385822
247.0, 0.017621374461454654
248.0, 0.023107865104963272
249.0, 0.007622225135464583
250.0, 0.016924764267787353
251.0, 0.021702718534040065
252.0, 0.02497931123806127
253.0, 0.029882390857537296
254.0, 0.04230602890240966
255.0, 0.030895082760482088
256.0, 0.006550003867540495
257.0, 0.005613172870333997
258.0, 0.03734454100966817
259.0, 0.052813753962805236
260.0, 0.04095814109542075
261.0, 0.024934394240570715
262.0, 0.012162311087095272
263.0, 0.01592135370301749
264.0, 0.04700576895748605
265.0, 0.039572199204029254
266.0, 0.020637340394625725
267.0, 0.007398735242454374
268.0, 0.02985277392764768
269.0, 0.014909678148672733
270.0, 0.021828537351388348
271.0, 0.04753902066028817
272.0, 0.046553699542857103
273.0, 0.04794417226706167
274.0, 0.057274522106249955
275.0, 0.07399913299109036
276.0, 0.05512959381607263
277.0, 0.05643492480587599
278.0, 0.05663124615254944
279.0, 0.03712209420231352
280.0, 0.053178502487993606
281.0, 0.04980381072184002
282.0, 0.034303680925170214
283.0, 0.02318936645749965
284.0, 0.05131928524831631
285.0, 0.044568227471029544
286.0, 0.013468420131103578
287.0, 0.06434888211475057
288.0, 0.04886575624453287
289.0, 0.023822730029029394
290.0, 0.012764681676758855
291.0, 0.03653575288080152
292.0, 0.02445974912158958
293.0, 0.015611568936595032
294.0, 0.044420637244518904
295.0, 0.027921338168740262
296.0, 0.012993000504971423
297.0, 0.003995638363723679
298.0, 0.007355914331861507
299.0, 0.004597343363010795
300.0, 0.006040822316298632
301.0, 0.009771752648438083
302.0, 0.001975397664057795
303.0, 0.048918752483990496
304.0, 0.0754112009996566
305.0, 0.06082198582568606
306.0, 0.06662638614385305
307.0, 0.07146305941714998
308.0, 0.06924160959108323
309.0, 0.055237786986691434
310.0, 0.08942705382277594
311.0, 0.0882428847273471
312.0, 0.08326314092478335
313.0, 0.11906110416527206
314.0, 0.119340697180248
315.0, 0.10960260343356959
316.0, 0.10837657232577814
317.0, 0.16130993899480967
318.0, 0.11553549304850796
319.0, 0.10657739883512185
320.0, 0.14482921015160388
321.0, 0.11435870575752187
322.0, 0.13836661171864673
323.0, 0.1459764743292056
324.0, 0.11191607015374853
325.0, 0.14923392767796223
326.0, 0.157627694946629
327.0, 0.1591268324350376
328.0, 0.17116365402768474
329.0, 0.17066343398777803
330.0, 0.15185736808529207
331.0, 0.13335580739999606
332.0, 0.1441386528413136
333.0, 0.15038736214659704
334.0, 0.13101310555314108
335.0, 0.11030147503775795
336.0, 0.16091588088193487
337.0, 0.11509039890856593
338.0, 0.11028592121000147
339.0, 0.15251955312751947
340.0, 0.11787287048088052
341.0, 0.14862580094728386
342.0, 0.17168351478631544
343.0, 0.16025072612655794
344.0, 0.14217902273177824
345.0, 0.12963018655262612
346.0, 0.11989928730316918
347.0, 0.11211572531780978
348.0, 0.15878094995346306
349.0, 0.16952279481194735
350.0, 0.16640353818866607
351.0, 0.17376930845002364
352.0, 0.1390703501455636
353.0, 0.14157969536100368
354.0, 0.16193084624741896
355.0, 0.1573959325756587
356.0, 0.16901235350219262
357.0, 0.16998295029204277
358.0, 0.17005529022802734
359.0, 0.21095579169445927
360.0, 0.17942074298569596
361.0, 0.16757467999957285
362.0, 0.18379094679527586
363.0, 0.15546653929796778
364.0, 0.171931498319501
365.0, 0.19687308432539585
366.0, 0.21164187297551273
367.0, 0.16813825876915703
368.0, 0.17703203517674498
369.0, 0.18388080432650883
370.0, 0.15834195142315396
371.0, 0.18126611737340964
372.0, 0.18685803741004192
373.0, 0.18015616980618376
374.0, 0.16498096288145842
375.0, 0.1768832244830155
376.0, 0.1830028723116389
377.0, 0.19057378987374607
378.0, 0.21069765377016272
379.0, 0.17775948039905184
380.0, 0.18069359036343355
381.0, 0.19816285931328637
382.0, 0.1745105537374829
383.0, 0.19875882543501483
384.0, 0.2184318599355417
385.0, 0.22400738002345094
386.0, 0.20756789404742076
387.0, 0.17346578560355289
388.0, 0.17043801664102654
389.0, 0.19732408748847632
390.0, 0.20224412201230924
391.0, 0.21160967817429752
392.0, 0.2167370168452317
393.0, 0.2163061240468234
394.0, 0.22074024243979348
395.0, 0.21446105358518838
396.0, 0.20788687761212504
397.0, 0.20567541059004343
398.0, 0.20796257121075892
399.0, 0.20163413061664423
400.0, 0.19845822074605068
401.0, 0.204757277534578
402.0, 0.19742387200657396
403.0, 0.1870650133354643
404.0, 0.18634679885586236
405.0, 0.2053558488561842
406.0, 0.14752065194254588
407.0, 0.17082653376878157
408.0, 0.20240803844028762
409.0, 0.16360951121510153
410.0, 0.19294966353473042
411.0, 0.19776992655249392
412.0, 0.1880584024269827
413.0, 0.18039587724481823
414.0, 0.17339913887659797
415.0, 0.1652046741085413
416.0, 0.15789108088566436
417.0, 0.15543645160018946
418.0, 0.13086750603467362
419.0, 0.12241099100427205
420.0, 0.12153636784395763
421.0, 0.10119301651091563
422.0, 0.1043530647195161
423.0, 0.10842135212913859
424.0, 0.10784078163276051
425.0, 0.09575992937711408
426.0, 0.10016354172942879
427.0, 0.107748855815871
428.0, 0.11155994024015056
429.0, 0.09610134699572949
430.0, 0.0906176466442314
431.0, 0.07030928175683336
432.0, 0.04254602597974064
433.0, 0.06114383696736103
434.0, 0.05937891787278949
435.0, 0.04961200967474364
436.0, 0.043800030362932584
437.0, 0.08492875869844888
438.0, 0.05623891928868181
439.0, 0.030744933175992657
440.0, 0.029940752856452292
441.0, 0.03905710813019756
442.0, 0.0635271283182181
443.0, 0.06960624586520814
444.0, 0.04745044760201589
445.0, 0.020756040952503496
446.0, 0.0221814307708354
447.0, 0.02147394914767179
448.0, 0.010049191834606577
449.0, 0.024490357969176303
450.0, 0.01368540391385448
451.0, 0.010191091020578254
452.0, 0.02579699253272174
453.0, 0.02283651581420324
454.0, 0.021949207233899842
455.0, 0.02186406606645188
456.0, 0.021138902470299988
457.0, 0.010768495021117546
458.0, 0.005041642913016198
459.0, 0.003003463752138483
460.0, 0.0056586665160854865
461.0, 0.031046052548041915
462.0, 0.03210952642966149
463.0, 0.02047641555468451
464.0, 0.006182545213548163
465.0, 0.03942561076741408
466.0, 0.03434917889003681
467.0, 0.02050449396901273
468.0, 0.016314692022147415
469.0, 0.02942032412367577
470.0, 0.039113762966092765
471.0, 0.03936012053826746
472.0, 0.02689192900741901
473.0, 0.014872080429704077
474.0, 0.006545224748017206
475.0, 0.014015182828355852
476.0, 0.042940047220899315
477.0, 0.05433497577693587
478.0, 0.055407923545597655
479.0, 0.0561557940716828
480.0, 0.06248005230071358
481.0, 0.06805605614020725
482.0, 0.06278385723595672
483.0, 0.059305138236225616
484.0, 0.06607321826152353
485.0, 0.09086133790618416
486.0, 0.08166580734553747
487.0, 0.06907460097882613
488.0, 0.07251816078605397
489.0, 0.10634571748272315
490.0, 0.11445950849769713
491.0, 0.11930739992390586
492.0, 0.13205530432609588
493.0, 0.13559266550857837
494.0, 0.14151225097475212
495.0, 0.14625910326896518
496.0, 0.14704517932516736
497.0, 0.13536316335863485
498.0, 0.15428877488501094
499.0, 0.15258501006680494
500.0, 0.11843677081943355
501.0, 0.1681311800515224
502.0, 0.18057646528779983
503.0, 0.16133369768322642
504.0, 0.12362833364386298
505.0, 0.14868069711912543
506.0, 0.15103214288400424
507.0, 0.15534235610900204
508.0, 0.16580095271295286
509.0, 0.14839751670544793
510.0, 0.16329227677467142
511.0, 0.1893648600341229
512.0, 0.20712787808564004
513.0, 0.15391054974471047
514.0, 0.19183758182914676
515.0, 0.19224855731364135
516.0, 0.1450977901104916
517.0, 0.17089952756546067
518.0, 0.20022939097967798
519.0, 0.19520130338969832
520.0, 0.17541079984063568
521.0, 0.24308426741391706
522.0, 0.2176476419260108
523.0, 0.19842082721028703
524.0, 0.19502274069303327
525.0, 0.17726126126215414
526.0, 0.17961756444065166
527.0, 0.19983334994269095
528.0, 0.2190592213686824
529.0, 0.19405092350547776
530.0, 0.2349535634829333
531.0, 0.23583137134201326
532.0, 0.2074060993786533
533.0, 0.1932642956022992
534.0, 0.22586781794144375
535.0, 0.220408374544953
536.0, 0.20347531915973988
537.0, 0.22540085269041538
538.0, 0.228361123114982
539.0, 0.23275107002657894
540.0, 0.23657665604025688
541.0, 0.23640555394578933
542.0, 0.2400384090253131
543.0, 0.24959581176068105
544.0, 0.2585103975399691
545.0, 0.2600173700567091
546.0, 0.23369772732470043
547.0, 0.24354104716418828
548.0, 0.23970169053015336
549.0, 0.19519751410568476
550.0, 0.25765296944262145
551.0, 0.24296348990971212
552.0, 0.2232205250692988
553.0, 0.2326046582810037
554.0, 0.21888239591596512
555.0, 0.20979272251833958
556.0, 0.20475767212421897
557.0, 0.20667043124159093
558.0, 0.23242426073430195
559.0, 0.22199903585591424
560.0, 0.20855272334747485
561.0, 0.19499153823760168
562.0, 0.15537730009261444
563.0, 0.15802317882468583
564.0, 0.15364949078500417
565.0, 0.13812685990314486
566.0, 0.12689215892624814
567.0, 0.14263042055822692
568.0, 0.12529287447831064
569.0, 0.10005991166597658
570.0, 0.12721487139633866
571.0, 0.10211334765557499
572.0, 0.12126646918442356
573.0, 0.1440097698673316
574.0, 0.11002009978476963
575.0, 0.078014439603077
576.0, 0.09821134395459914
577.0, 0.10911974106164646
578.0, 0.05881412606446207
579.0, 0.0716188881354467
580.0, 0.07141273303043214
581.0, 0.07277837754033194
582.0, 0.08075897494610462
583.0, 0.056287659270714316
584.0, 0.05618817565856234
585.0, 0.05723324333854025
586.0, 0.046866394956057954
587.0, 0.01075864739024978
588.0, 0.01140958000275292
589.0, 0.030702499697946237
590.0, 0.048179308125006905
591.0, 0.014648378412004257
592.0, 0.038060098506609644
593.0, 0.03831511386762068
594.0, 0.019437009320711903
595.0, 0.014750289428195201
596.0, 0.0514002590496193
597.0, 0.046872048588964335
598.0, 0.03258132161938197
599.0, 0.05644010804128658
600.0, 0.020118736297665474
601.0, 0.0060018676795617195
602.0, 0.010032743378599596
603.0, 0.025345207606702468
604.0, 0.010933530708713814
605.0, 0.027237139282661783
606.0, 0.03723485149931
607.0, 0.025473654190451035
608.0, 0.020122348554373087
609.0, 0.050668847593865515
610.0, 0.0674358497561246
611.0, 0.05479328857114686
612.0, 0.013661821883216043
613.0, 0.0356854957652077
614.0, 0.050746193992492195
615.0, 0.046223537699098594
616.0, 0.021804173093669423
617.0, 0.062358786159475314
618.0, 0.05978711915707745
619.0, 0.029710188472683738
620.0, 0.0022178421331233537
621.0, 0.04068812703390193
622.0, 0.07752944219472734
623.0, 0.09516781995327965
624.0, 0.08723351495087128
625.0, 0.12807515870506783
626.0, 0.1049369455260978
627.0, 0.08277421311555247
628.0, 0.08329931747939164
629.0, 0.07266750774065599
630.0, 0.09653493017502797
631.0, 0.10745632068268836
632.0, 0.10634981767400854
633.0, 0.12440741771449537
634.0, 0.12887330081227322
635.0, 0.1185072512197
636.0, 0.11481016147242354
637.0, 0.14781823854479942
638.0, 0.1845275997208354
639.0, 0.15001375638980693
640.0, 0.12635281081140817
641.0, 0.17137945256076037
642.0, 0.15086485764387916
643.0, 0.14724140069291
644.0, 0.16609409627630606
645.0, 0.19235106927481155
646.0, 0.14235009108736593
647.0, 0.16635646722406436
648.0, 0.18610076562584296
649.0, 0.19815348195609767
650.0, 0.23705535001370928
651.0, 0.26141518409017644
652.0, 0.23016611912273788
653.0, 0.20977952106876055
654.0, 0.2858076097266497
655.0, 0.3083046741276543
656.0, 0.2703012459097614
657.0, 0.2606224836595026
658.0, 0.3233167607520121
659.0, 0.3072234497760679
660.0, 0.32990839477466605
661.0, 0.363641502687616
662.0, 0.39719440363594605
663.0, 0.42617075062976023
664.0, 0.4612348355472243
665.0, 0.49821911766549254
666.0, 0.5237445148344881
667.0, 0.5167906754415785
668.0, 0.6036318784163709
669.0, 0.6552591767533287
670.0, 0.6929236071315843
671.0, 0.736098515294096
672.0, 0.7336436000496447
673.0, 0.7848326234179133
674.0, 0.8234296411267831
675.0, 0.8338457525003647
676.0, 0.878996351902458
677.0, 0.9608352244475604
678.0, 0.9780588246626496
679.0, 0.9484938905846807
680.0, 0.9482071514798478
681.0, 0.928686526364475
682.0, 0.8814204652027203
683.0, 0.8299775440583302
684.0, 0.8002495215402141
685.0, 0.8265683041656666
686.0, 0.7462622165418601
687.0, 0.6951776703071142
688.0, 0.7111935897786004
689.0, 0.666068149976416
690.0, 0.6505750614597229
691.0, 0.6379457313163037
692.0, 0.6270812224604997
693.0, 0.6267246687816864
694.0, 0.5733297050965611
695.0, 0.5743516346777545
696.0, 0.5894774074141609
697.0, 0.5767864945486737
698.0, 0.5641215864398329
699.0, 0.5915484267802901
700.0, 0.6073062669853339
701.0, 0.6073255057909249
702.0, 0.6676707222152877
703.0, 0.685265851982715
704.0, 0.6798728652631569
705.0, 0.6876205867727923
706.0, 0.7622889093617604
707.0, 0.7700240156136821
708.0, 0.7372272530832715
709.0, 0.7466081074083806
710.0, 0.8384550994577029
711.0, 0.7925687665652639
712.0, 0.8378869805742133
713.0, 0.8429337339297341
714.0, 0.807391393995571
715.0, 0.8661020781257713
716.0, 0.8795893965884126
717.0, 0.8630398398084338
718.0, 0.8601560526231198
719.0, 0.9194846880649844
720.0, 0.8931501187115956
721.0, 0.8838427242119888
722.0, 0.8833697365071227
723.0, 0.8794086969087634
724.0, 0.8337860891006855
725.0, 0.8041651021386199
726.0, 0.7941088615509838
727.0, 0.7837455471351773
728.0, 0.7336837650628508
729.0, 0.7718518391103151
730.0, 0.7488203337557123
731.0, 0.7178415614714249
732.0, 0.7210028660108322
733.0, 0.6780170481234562
734.0, 0.6264534335725206
735.0, 0.633935776104151
736.0, 0.6709970731837008
737.0, 0.5890379260466684
738.0, 0.558647434654152
739.0, 0.590640728866498
740.0, 0.6177127306374551
741.0, 0.5692033438846291
742.0, 0.5872304562648367
743.0, 0.5605773158371471
744.0, 0.5482875923582868
745.0, 0.5652953393942602
746.0, 0.5592374062815465
747.0, 0.5195251158807958
748.0, 0.537210280621696
749.0, 0.5619428372537191
750.0, 0.5024596216509188
751.0, 0.4678698689848748
752.0, 0.5139412377569059
753.0, 0.5374061464788928
754.0, 0.5048752401351417
755.0, 0.5670902581143797
756.0, 0.5091706440270768
757.0, 0.5262264079098232
758.0, 0.6021635418310494
759.0, 0.6372040513921595
760.0, 0.5271017226456023
761.0, 0.5547223592223546
762.0, 0.5877688388719637
763.0, 0.5469833305970474
764.0, 0.5449997510378192
765.0, 0.5362058257918875
766.0, 0.5344308001733422
767.0, 0.5457405317893401
768.0, 0.5745525104710798
769.0, 0.535335172901063
770.0, 0.5336718900216461
771.0, 0.5446335453007939
772.0, 0.5418053024768906
773.0, 0.49491766769648987
774.0, 0.5017153827736883
775.0, 0.4883517451761163
776.0, 0.45739888426323716
777.0, 0.4533795914206227
778.0, 0.4572814875709747
779.0, 0.42324160073189554
780.0, 0.4025954454029939
781.0, 0.4235850666256734
782.0, 0.4028671296805112
783.0, 0.38524198028224016
784.0, 0.3632644935301187
785.0, 0.3290576970497206
786.0, 0.2718413007939186
787.0, 0.300738295295752
788.0, 0.2809464172193274
789.0, 0.23768643972012118
790.0, 0.2037162556100248
791.0, 0.24266267509634926
792.0, 0.19362734123953754
793.0, 0.1717431806503013
794.0, 0.18693204681383477
795.0, 0.20781844652702475
796.0, 0.1667820587329782
797.0, 0.17625847476665785
798.0, 0.1797914071201566
799.0, 0.14943031052780262
800.0, 0.13310078701110648
801.0, 0.12148055162594926
802.0, 0.11853728240502637
803.0, 0.10442313172634177
804.0, 0.05123929097470579
805.0, 0.04206906616493773
806.0, 0.05126195933019443
807.0, 0.06704084547229182
808.0, 0.07704961622886056
809.0, 0.05967134122781397
810.0, 0.06641140875374571
811.0, 0.03871550035115434
812.0, 0.018892902028270063
813.0, 0.0594479337154225
814.0, 0.05367824341496583
815.0, 0.020936135894290133
816.0, 0.009958987699876787
817.0, 0.023363655709639733
818.0, 0.014191415359597104
819.0, 0.012307516682393486
820.0, 0.012522967278025824
821.0, 0.0172748149410812
822.0, 0.025779521944508617
823.0, 0.012530641662981616
824.0, 0.010328028218446573
825.0, 0.007901471723691735
826.0, 0.008152988903428655
827.0, 0.02220668173911152
828.0, 0.029728812698210157
829.0, 0.03049628852851579
830.0, 0.029948896364572458
831.0, 0.028523596201187554
832.0, 0.01176737562736542
833.0, 0.0347940475528456
834.0, 0.050959537815318035
835.0, 0.04563594732222382
836.0, 0.014064296303639591
837.0, 0.0086989270739797
838.0, 0.028121563685349762
839.0, 0.04935772872426625
840.0, 0.05321326579225211
841.0, 0.01526358203918678
842.0, 0.01322373517353337
843.0, 0.028021178271094026
844.0, 0.04786150700626261
845.0, 0.05693778370539996
846.0, 0.011460183262584162
847.0, 0.018408772143507647
848.0, 0.015622096166220085
849.0, 0.00836010453385249
850.0, 0.025850646149388153
851.0, 0.016703239487326525
852.0, 0.02164147982750038
853.0, 0.017478878465833184
854.0, 0.0017434277293599657
855.0, 0.0025720050144589094
856.0, 0.030683552809608057
857.0, 0.03481537602239004
858.0, 0.036469554554653574
859.0, 0.05128046106558219
860.0, 0.014238344296791893
861.0, 0.005466951551280123
862.0, 0.03172304682319568
863.0, 0.09017780064617875
864.0, 0.16932901223196417
865.0, 0.12811300777499798
866.0, 0.081241587952297
867.0, 0.03795502979056174
868.0, 0.02042761157936737
869.0, 0.0811429395823382
870.0, 0.03496499853802244
871.0, 0.061085891791409955
872.0, 0.09330073428069711
873.0, 0.06795767798632213
874.0, 0.0352810216748591
875.0, 0.07781564411461014
876.0, 0.09362534666241652
877.0, 0.0732525529706525
878.0, 0.04155573359562385
879.0, 0.09406969779652724
880.0, 0.07762327571123308
881.0, 0.059946864027613546
882.0, 0.06007686385569327
883.0, 0.052205238028457814
884.0, 0.07143618923195061
885.0, 0.09565782953282985
886.0, 0.09259776076398712
887.0, 0.06433961250275938
888.0, 0.11891136474756707
889.0, 0.08204746741305707
890.0, 0.07023132800537621
891.0, 0.09799086671103632
892.0, 0.15506045181096945
893.0, 0.19620826899556243
894.0, 0.24158993219168604
895.0, 0.22109009215647932
896.0, 0.15658605936654005
897.0, 0.12339347190249315
898.0, 0.14625079329984644
899.0, 0.13979615556573238
900.0, 0.1456854288625971
901.0, 0.1824428136018762
902.0, 0.24266576383393196
903.0, 0.20876018993785017
904.0, 0.19567621836087448
905.0, 0.17100928598166829
906.0, 0.1265467399738125
907.0, 0.1646306340279474
908.0, 0.17648521305233889
909.0, 0.15706682823962367
910.0, 0.14636457656273133
911.0, 0.17674666690986746
912.0, 0.1369432587920459
913.0, 0.11852894352303986
914.0, 0.14761806825791768
915.0, 0.19337790159453
916.0, 0.19722860113656265
917.0, 0.19031973491344847
918.0, 0.1602985588706806
919.0, 0.1588135916731241
920.0, 0.17566150669064967
921.0, 0.1393085863477191
922.0, 0.15773954048796848
923.0, 0.1681228761933673
924.0, 0.17753629102372792
925.0, 0.18687302985878623
926.0, 0.18103573298163306
927.0, 0.19693122259760512
928.0, 0.17735321070194082
929.0, 0.16597731567064294
930.0, 0.18952980346747442
931.0, 0.17842107103645244
932.0, 0.1420343948418424
933.0, 0.1549455357161493
934.0, 0.1668786331078933
935.0, 0.12241055392345151
936.0, 0.12795988539322858
937.0, 0.15173175543068684
938.0, 0.13464373556926099
939.0, 0.11959277682983499
940.0, 0.17742039408616242
941.0, 0.14300578920825585
942.0, 0.12950621799126363
943.0, 0.14627091320129815
944.0, 0.16487506171661753
945.0, 0.13070214140886996
946.0, 0.14388626933402546
947.0, 0.1638857206054504
948.0, 0.1641290041255895
949.0, 0.14912135217899788
950.0, 0.1577961972727127
951.0, 0.11787421875870915
952.0, 0.1385086217313326
953.0, 0.1601604768100273
954.0, 0.15258985624273233
955.0, 0.13724042021810073
956.0, 0.1488306843073312
957.0, 0.17180670207296864
958.0, 0.15901850498936992
959.0, 0.11549684623182009
960.0, 0.18372504786504903
961.0, 0.11409636601943006
962.0, 0.12555326787499374
963.0, 0.1468873377888043
964.0, 0.10935706465492008
965.0, 0.071685656250331
966.0, 0.1341706904944545
967.0, 0.1366256841426175
968.0, 0.11713646770492007
969.0, 0.13045823816282667
970.0, 0.1322368481728588
971.0, 0.08595695890949591
972.0, 0.08872369400077977
973.0, 0.11328492607903354
974.0, 0.10779491868110926
975.0, 0.07378048499572598
976.0, 0.09907756598017206
977.0, 0.11262221766393804
978.0, 0.10202206982791275
979.0, 0.08005371261063231
980.0, 0.11621433579714974
981.0, 0.07886267182255288
982.0, 0.10985774069916499
983.0, 0.1598198497740702
984.0, 0.11791518167318413
985.0, 0.10456025487199509
986.0, 0.11979499682068806
987.0, 0.10984633778520889
988.0, 0.0889857478326911
989.0, 0.09916068625069635
990.0, 0.08934789665038881
991.0, 0.08537285924254526
992.0, 0.08919878414490415
993.0, 0.08791142616524714
994.0, 0.06508134838104361
995.0, 0.10910217467477393
996.0, 0.10789289778315231
997.0, 0.11365677724877532
998.0, 0.1366347672755766
999.0, 0.1584590682340601
1000.0, 0.07458555866766928
1001.0, 0.06138209537488876
1002.0, 0.08066625038646352
1003.0, 0.09567791877983806
1004.0, 0.07242046840238794
1005.0, 0.08669260310583919
1006.0, 0.09357102944054659
1007.0, 0.09634619235331278
1008.0, 0.09805254278772478
1009.0, 0.10064068428942921
1010.0, 0.07732950518599266
1011.0, 0.08817027302722784
1012.0, 0.09415493773210434
1013.0, 0.08604999513880417
1014.0, 0.0739820279997283
1015.0, 0.08383240954517342
1016.0, 0.08674172288623189
1017.0, 0.09032944995556326
1018.0, 0.09665722070149396
1019.0, 0.10487722485876318
1020.0, 0.12133607360401635
1021.0, 0.12479483499027283
1022.0, 0.1312442662796486
1023.0, 0.13097421426419023
1024.0, 0.10724444691320881
1025.0, 0.14645249694283433
1026.0, 0.11790509587786757
1027.0, 0.11492676581090121
1028.0, 0.13374608399791826
1029.0, 0.1266569206339527
1030.0, 0.08092135086298448
1031.0, 0.12568538546991273
1032.0, 0.13558859834127668
1033.0, 0.11612534029980603
1034.0, 0.11857746662526851
1035.0, 0.1293898134092553
1036.0, 0.11516760169201737
1037.0, 0.14248870242066727
1038.0, 0.1690854425548025
1039.0, 0.13924515057187023
1040.0, 0.14390886071499392
1041.0, 0.15416048514500613
1042.0, 0.12506014707925858
1043.0, 0.10654030922500138
1044.0, 0.14500500056947843
1045.0, 0.1547788239554818
1046.0, 0.13912106526738788
1047.0, 0.17977396463814446
1048.0, 0.19580677336774127
1049.0, 0.13286659925950775
1050.0, 0.13180772967281237
1051.0, 0.1683842838744545
1052.0, 0.17751025370889503
1053.0, 0.16840087506828388
1054.0, 0.15882733431174104
1055.0, 0.16229666450447655
1056.0, 0.13945191386738487
1057.0, 0.1678131968292193
1058.0, 0.16379478547483775
1059.0, 0.11179407558932959
1060.0, 0.1335624463878354
1061.0, 0.1888125634116087
1062.0, 0.16518092741482257
1063.0, 0.16025316862349512
1064.0, 0.19588946571960433
1065.0, 0.19684666113309937
1066.0, 0.19674708573530733
1067.0, 0.2160289986419249
1068.0, 0.183140748158133
1069.0, 0.1422412282016094
1070.0, 0.21198262688967323
1071.0, 0.1733900981602998
1072.0, 0.13477261978160313
1073.0, 0.16939170703035655
1074.0, 0.2209569447138059
1075.0, 0.19006724067447406
1076.0, 0.18219054793061137
1077.0, 0.22078677139007857
1078.0, 0.18500631733975498
1079.0, 0.1506712835106119
1080.0, 0.20685961278782714
1081.0, 0.21700188394170838
1082.0, 0.16497227028796585
1083.0, 0.19774532328194047
1084.0, 0.21599782895800806
1085.0, 0.15858032811899148
1086.0, 0.1782991068152929
1087.0, 0.21955120388555072
1088.0, 0.19550152828527748
1089.0, 0.19636241646351332
1090.0, 0.2334062002649646
1091.0, 0.1784332868116851
1092.0, 0.15805181686408076
1093.0, 0.20399769516145483
1094.0, 0.19491305362522218
1095.0, 0.13436525237626776
1096.0, 0.13111130469999863
1097.0, 0.16571131569951247
1098.0, 0.1302114128687492
1099.0, 0.13904636752297803
1100.0, 0.15204046919196043
1101.0, 0.09075795124031391
1102.0, 0.12189559299164564
1103.0, 0.16950198228455673
1104.0, 0.12799098587837568
1105.0, 0.08062896469298171
1106.0, 0.09935805215840539
1107.0, 0.07119980258717855
1108.0, 0.055836635580981085
1109.0, 0.08634520636416759
1110.0, 0.08294108975773526
1111.0, 0.034212732421386186
1112.0, 0.05432041846211212
1113.0, 0.099079039277267
1114.0, 0.08435736537997003
1115.0, 0.06996707813492921
1116.0, 0.06755257060393692
1117.0, 0.050989148315006
1118.0, 0.057243681273384785
1119.0, 0.1005977664141259
1120.0, 0.08458697468259718
1121.0, 0.041872975768108146
1122.0, 0.04083470116929419
1123.0, 0.07524617347945431
1124.0, 0.04777130773263044
1125.0, 0.06858460645542465
1126.0, 0.0756845250162789
1127.0, 0.030560236893965618
1128.0, 0.0020652056273530797
1129.0, 0.08254257622350483
1130.0, 0.06687342705785852
1131.0, 0.04223568366732949
1132.0, 0.060592500190965924
1133.0, 0.11638791954223633
1134.0, 0.03668226616811523
1135.0, 0.05572009801773091
1136.0, 0.05279281460732301
1137.0, 0.02455784742119266
1138.0, 0.02207062421105454
1139.0, 0.11417168353822985
1140.0, 0.04119825394447986
1141.0, 0.057490218883445514
1142.0, 0.12340325532821078
1143.0, 0.1640979925656545
1144.0, 0.1351058104898182
1145.0, 0.11046214890721953
1146.0, 0.05726574368583123
1147.0, 0.020335897443837122
1148.0, 0.02372578172449213
1149.0, 0.06278708177281367
1150.0, 0.038349886980763026
1151.0, 0.06566197288576965
1152.0, 0.06924428986473155
1153.0, 0.04364179351356779
1154.0, 0.022585607638311703
1155.0, 0.0925644117406896
1156.0, 0.06728233276562937
1157.0, 0.02950642122489599
1158.0, 0.042409484415758994
1159.0, 0.0778514364052045
1160.0, 0.0024364729587868046
1161.0, 0.011461667757728385
1162.0, 0.007689488825430885
1163.0, 0.004274545610084241
1164.0, 0.013535528310562596
1165.0, 0.03899482890186543
1166.0, 0.04258876717006945
1167.0, 0.03204047580335538
1168.0, 0.04854783064051233
1169.0, 0.05123918428538509
1170.0, 0.03552257651983051
1171.0, 0.08545313262448899
1172.0, 0.054735465367956676
1173.0, 0.01928331956297389
1174.0, 0.024860134489035506
1175.0, 0.04369814131526635
1176.0, 0.01789105011287106
1177.0, 0.03094747200184936
1178.0, 0.0503995001816108
1179.0, 0.029662968555599065
1180.0, 0.04470024037778352
1181.0, 0.1083801477347987
1182.0, 0.04575767822041595
1183.0, 0.031132613379037284
1184.0, 0.08184542674064296
1185.0, 0.08880989338061585
1186.0, 0.040351194235647425
1187.0, 0.00749999139529773
1188.0, 0.09343776342192081
1189.0, 0.051414795570670274
1190.0, 0.020924837263269283
1191.0, 0.027008089227944516
1192.0, 0.050105446528917394
1193.0, 0.03731135468289185
1194.0, 0.06340238476973781
1195.0, 0.03471659502091389
1196.0, 0.016720242473135787
1197.0, 0.03962558492919627
1198.0, 0.08655705239471141
1199.0, 0.027154903698962694
1200.0, 0.0516496376678892
1201.0, 0.049309639830863436
1202.0, 0.027134864199363434
1203.0, 0.01698622162288914
1204.0, 0.04686620405235628
1205.0, 0.036284223927166244
1206.0, 0.04194005526275058
1207.0, 0.06119269503102014
1208.0, 0.06933870643563206
1209.0, 0.048174928538307744
1210.0, 0.07850084327935192
1211.0, 0.05772150434595873
1212.0, 0.0621732446045391
1213.0, 0.0937015516216763
1214.0, 0.10785303661110027
1215.0, 0.024527136220457182
1216.0, 0.03788711541239354
1217.0, 0.10348476078459852
1218.0, 0.09420479882530242
1219.0, 0.07337229109048674
1220.0, 0.11948170856211257
1221.0, 0.07507184828541896
1222.0, 0.05812376954484612
1223.0, 0.08528304731290672
1224.0, 0.09101377675377112
1225.0, 0.06217212003319622
1226.0, 0.04539667360496006
1227.0, 0.099061294524633
1228.0, 0.0832240488928781
1229.0, 0.06612204144674301
1230.0, 0.08466434037351396
1231.0, 0.11021436337923884
1232.0, 0.007409878102533671
1233.0, 0.13059496888165076
1234.0, 0.09938087843385217
1235.0, 0.06545593956792173
1236.0, 0.07298845438511481
1237.0, 0.08942618134637237
1238.0, 0.057667682832586165
1239.0, 0.08481573283877625
1240.0, 0.1060869482646692
1241.0, 0.0706341037748459
1242.0, 0.03687987301395752
1243.0, 0.13847379077244662
1244.0, 0.05187881924708231
1245.0, 0.03363179922396395
1246.0, 0.07359193749889982
1247.0, 0.08727277860573603
1248.0, 0.04597332439690716
1249.0, 0.06974929761316356
1250.0, 0.09858623514388307
1251.0, 0.07562262566752248
1252.0, 0.09876593851780821
1253.0, 0.12401272631003686
1254.0, 0.07232698372852463
1255.0, 0.025123075635674844
1256.0, 0.12257044379238113
1257.0, 0.10871400197867342
1258.0, 0.05537183054424666
1259.0, 0.04758252462672766
1260.0, 0.11674568112253765
1261.0, 0.04728709568641687
1262.0, 0.09849846441868604
1263.0, 0.09453560748800864
1264.0, 0.06525481483027061
1265.0, 0.06460808251437034
1266.0, 0.1091144125500651
1267.0, 0.05036263997068407
1268.0, 0.03587549015732761
1269.0, 0.05743248135428721
1270.0, 0.05397186942463677
1271.0, 0.017319401678898307
1272.0, 0.09389996217525719
1273.0, 0.04754301628121272
1274.0, 0.02309258899050708
1275.0, 0.09603416128807078
1276.0, 0.14837532361447173
1277.0, 0.05575889561614714
1278.0, 0.0399912517933773
1279.0, 0.09837631580699625
1280.0, 0.06805479556569888
1281.0, 0.05823435627419657
1282.0, 0.07447747359603256
1283.0, 0.043195880240869976
1284.0, 0.01582123961036963
1285.0, 0.0536674828296674
1286.0, 0.05715848985935915
1287.0, 0.05997417987274487
1288.0, 0.08066131383495143
1289.0, 0.09466080375397803
1290.0, 0.03055597094706548
1291.0, 0.07317400592475895
1292.0, 0.09518192932206221
1293.0, 0.06400537692550341
1294.0, 0.029689407164167698
1295.0, 0.10214022551471821
1296.0, 0.040930277628466766
1297.0, 0.018838725963935307
1298.0, 0.050006764044455664
1299.0, 0.05764984087958354
1300.0, 0.01751158723354282
1301.0, 0.042559154403403666
1302.0, 0.07169847731522491
1303.0, 0.02852368358751303
1304.0, 0.018508924584871685
1305.0, 0.05560148524057115
1306.0, 0.08761899468437812
1307.0, 0.010645166298062683
1308.0, 0.058664856906179175
1309.0, 0.025464391114863615
1310.0, 0.006728829317250184
1311.0, 0.04237120304879803
1312.0, 0.0949477128867641
1313.0, 0.013289370559038775
1314.0, 0.0318752344561364
1315.0, 0.05056466050478239
1316.0, 0.04799644228216787
1317.0, 0.06400336187807454
1318.0, 0.11273666136265847
1319.0, 0.03966828828039601
1320.0, 0.039986942008928814
1321.0, 0.055078773887800275
1322.0, 0.036792031311775
1323.0, 0.011380493929126207
1324.0, 0.028176657427824298
1325.0, 0.06482303829025439
1326.0, 0.017000069068986726
1327.0, 0.05930288692640626
1328.0, 0.09663401624683507
1329.0, 0.07337647211700081
1330.0, 0.020378194493516535
1331.0, 0.12640996220922224
1332.0, 0.03991439572494963
1333.0, 0.046682507323397085
1334.0, 0.07963801687558761
1335.0, 0.07686093418351958
1336.0, 0.03323460606543768
1337.0, 0.06508804893679473
1338.0, 0.10952909457296267
1339.0, 0.04830717962341691
1340.0, 0.03977221746043094
1341.0, 0.07653965332654938
1342.0, 0.06715475225330848
1343.0, 0.040230126358744234
1344.0, 0.09762011716481984
1345.0, 0.05162833331786927
1346.0, 0.023649688412244498
1347.0, 0.03948485070373228
1348.0, 0.05193574078254087
1349.0, 0.010398537792797317
1350.0, 0.06005978284152942
1351.0, 0.0612402774610897
1352.0, 0.054546718472333555
1353.0, 0.0978037796448662
1354.0, 0.17396612794263663
1355.0, 0.06853268344668864
1356.0, 0.0613980978402001
1357.0, 0.08630605491837481
1358.0, 0.05885911528871283
1359.0, 0.04212330775779536
1360.0, 0.08586057044772019
1361.0, 0.05256237379168349
1362.0, 0.01313250971074658
1363.0, 0.06907047254094513
1364.0, 0.0563429401364679
1365.0, 0.017486690284548825
1366.0, 0.04277199850026611
1367.0, 0.1339495510331155
1368.0, 0.048446566036038065
1369.0, 0.025911997356458747
1370.0, 0.0635051260213593
1371.0, 0.07363149403043605
1372.0, 0.040135016666769344
1373.0, 0.07858676033132393
1374.0, 0.09698889761015826
1375.0, 0.032167804973273664
1376.0, 0.06300404302752152
1377.0, 0.09444265660887567
1378.0, 0.07471358850845815
1379.0, 0.0768845160076381
1380.0, 0.1009163116040333
1381.0, 0.09703173639719233
1382.0, 0.09461919501098118
1383.0, 0.12176644532974758
1384.0, 0.132180159727943
1385.0, 0.06769843613083343
1386.0, 0.12668246262260616
1387.0, 0.08458760912610758
1388.0, 0.037141360420418865
1389.0, 0.08313342711108059
1390.0, 0.13080227710358816
1391.0, 0.06678683537218537
1392.0, 0.10708955529687446
1393.0, 0.1272649142517759
1394.0, 0.08390180625288605
1395.0, 0.09108151340825751
1396.0, 0.12933230393683953
1397.0, 0.1187756657167924
1398.0, 0.015292759504856035
1399.0, 0.08759491932809815
1400.0, 0.08182281903996196
1401.0, 0.0454423693982747
1402.0, 0.0739964675521578
1403.0, 0.1357164838486038
1404.0, 0.049266161133261356
1405.0, 0.03576605403128395
1406.0, 0.12750473353262734
1407.0, 0.08277373211689404
1408.0, 0.06380415081981476
1409.0, 0.1297805731214096
1410.0, 0.16670938940345664
1411.0, 0.059517402213702934
1412.0, 0.1213912855939502
1413.0, 0.09862157871235441
1414.0, 0.053734537506092944
1415.0, 0.056824836623192224
1416.0, 0.10271023986006356
1417.0, 0.04319446094694131
1418.0, 0.04603181272528647
1419.0, 0.10508752308612886
1420.0, 0.11029296067664399
1421.0, 0.1158354372636695
1422.0, 0.15753585156367178
1423.0, 0.15061504608991944
1424.0, 0.028996689898671858
1425.0, 0.09277055424073748
1426.0, 0.09342315786677785
1427.0, 0.05270158671989081
1428.0, 0.05157027614045019
1429.0, 0.12017419188318203
1430.0, 0.07133275277476739
1431.0, 0.07717019836716692
1432.0, 0.12009472538193038
1433.0, 0.0798960864343448
1434.0, 0.04608534461471758
1435.0, 0.12022583729707864
1436.0, 0.18057517309636795
1437.0, 0.027984888332739655
1438.0, 0.10121415845779735
1439.0, 0.0989700193601515
1440.0, 0.07041945180218588
1441.0, 0.0990086832404835
1442.0, 0.15659299018471934
1443.0, 0.053421058623207826
1444.0, 0.03970186753849211
1445.0, 0.11729221786147305
1446.0, 0.1036252211945247
1447.0, 0.06556172084211381
1448.0, 0.13312695480243253
1449.0, 0.15650309278163826
1450.0, 0.07028679373688454
1451.0, 0.14531675042429845
1452.0, 0.13540683573283915
1453.0, 0.08923480633094688
1454.0, 0.09356367571246936
1455.0, 0.13435920904937101
1456.0, 0.09327849282016853
1457.0, 0.10253811359145246
1458.0, 0.12664157702871784
1459.0, 0.10646907161742201
1460.0, 0.08975400494078634
1461.0, 0.13908476582956503
1462.0, 0.17342910900841685
1463.0, 0.046925150117530436
1464.0, 0.12654644483501273
1465.0, 0.15504216937421228
1466.0, 0.1296599026598742
1467.0, 0.1282505616029151
1468.0, 0.17846825693586998
1469.0, 0.07638810113622915
1470.0, 0.05679780875588447
1471.0, 0.13165298661224722
1472.0, 0.11680229816451694
1473.0, 0.07694435613462852
1474.0, 0.1298496587153436
1475.0, 0.17209114799621128
1476.0, 0.10795087256504635
1477.0, 0.13258764577636684
1478.0, 0.13531379826976886
1479.0, 0.10601919943462845
1480.0, 0.08656728857609329
1481.0, 0.11070837440669988
1482.0, 0.09300298406020743
1483.0, 0.05794388014669965
1484.0, 0.07434951854606135
1485.0, 0.058137127171269724
1486.0, 0.05079558909993827
1487.0, 0.09088435223950721
1488.0, 0.12120510818376024
1489.0, 0.05618579406668568
1490.0, 0.10466541998470302
1491.0, 0.1544397337075814
1492.0, 0.1329404835780619
1493.0, 0.11047853359526943
1494.0, 0.15657197586514202
1495.0, 0.13341412267159586
1496.0, 0.029890159921832513
1497.0, 0.11888881007603205
1498.0, 0.0995875230733749
1499.0, 0.06038956678979229
1500.0, 0.10270695296736407
1501.0, 0.18551821188843276
1502.0, 0.09788687329481224
1503.0, 0.12751678194725743
1504.0, 0.17181738110871417
1505.0, 0.12219571483755046
1506.0, 0.07089769453690724
1507.0, 0.09381892538591464
1508.0, 0.12229056899969654
1509.0, 0.02128251318647354
1510.0, 0.10622364722486555
1511.0, 0.10112066162303404
1512.0, 0.042956108261608957
1513.0, 0.00023455805458231073
1514, 0.0
1515, 0.0
1516, 0.0
1517, 0.0
1518, 0.0
1519, 0.0
1520, 0.0
1521, 0.0
1522, 0.0
1523, 0.0
1524, 0.0
1525, 0.0
1526, 0.0
1527, 0.0
1528, 0.0
1529, 0.0
1530, 0.0
1531, 0.0
1532, 0.0
1533, 0.0
1534, 0.0
1535, 0.0
1536, 0.0
1537, 0.0
1538, 0.0
1539, 0.0
1540, 0.0
1541, 0.0
1542, 0.0
1543, 0.0
1544, 0.0
1545, 0.0
1546, 0.0
1547, 0.0
1548, 0.0
1549, 0.0
1550, 0.0
1551, 0.0
1552, 0.0
1553, 0.0
1554, 0.0
1555, 0.0
1556, 0.0
1557, 0.0
1558, 0.0
1559, 0.0
1560, 0.0
1561, 0.0
1562, 0.0
1563, 0.0
1564, 0.0
1565, 0.0
1566, 0.0
1567, 0.0
1568, 0.0
1569, 0.0
1570, 0.0
1571, 0.0
1572, 0.0
1573, 0.0
1574, 0.0
1575, 0.0
1576, 0.0
1577, 0.0
1578, 0.0
1579, 0.0
1580, 0.0
1581, 0.0
1582, 0.0
1583, 0.0
1584, 0.0
1585, 0.0
1586, 0.0
1587, 0.0
1588, 0.0
1589, 0.0
1590, 0.0
1591, 0.0
1592, 0.0
1593, 0.0
1594, 0.0
1595, 0.0
1596, 0.0
1597, 0.0
1598, 0.0
1599, 0.0
