30, 0.0
31, 0.0
32, 0.0
33, 0.0
34, 0.0
35, 0.0
36, 0.0
37, 0.0
38, 0.0
39, 0.0
40, 0.0
41, 0.0
42, 0.0
43, 0.0
44, 0.0
45, 0.0
46, 0.0
47, 0.0
48, 0.0
49, 0.0
50, 0.0
51, 0.0
52, 0.0
53, 0.0
54, 0.0
55, 0.0
56, 0.0
57, 0.0
58, 0.0
59, 0.0
60, 0.0
61, 0.0
62, 0.0
63, 0.0
64, 0.0
65, 0.0
66, 0.0
67, 0.0
68, 0.0
69, 0.0
70, 0.0
71, 0.0
72, 0.0
73, 0.0
74, 0.0
75, 0.0
76, 0.0
77, 0.0
78, 0.0
79, 0.0
80, 0.0
81, 0.0
82, 0.0
83, 0.0
84, 0.0
85, 0.0
86, 0.0
87, 0.0
88, 0.0
89, 0.0
90, 0.0
91, 0.0
92, 0.0
93, 0.0
94, 0.0
95, 0.0
96, 0.0
97.0, 0.005074654417884197
98.0, 0.016466708172092913
99.0, 0.03592116084711076
100.0, 0.05065777416999165
101.0, 0.07177405425633597
102.0, 0.09614973689111951
103.0, 0.11446856633414572
104.0, 0.12747612634691274
105.0, 0.13690235820121063
106.0, 0.1429422519478682
107.0, 0.1355091319598966
108.0, 0.12547697255648274
109.0, 0.11386889253781801
110.0, 0.10249228989954919
111.0, 0.09539676777545653
112.0, 0.08848071439503155
113.0, 0.08079248127298895
114.0, 0.07707778799052248
115.0, 0.07656748660957298
116.0, 0.07654630837814995
117.0, 0.07291000308079623
118.0, 0.07121885914427256
119.0, 0.06663656041853928
120.0, 0.05910500456647652
121.0, 0.05852953230646081
122.0, 0.05338332073708749
123.0, 0.04929028740116191
124.0, 0.052480852238145026
125.0, 0.04677028834084014
126.0, 0.042547952398174105
127.0, 0.04078871818093252
128.0, 0.040673095053580466
129.0, 0.03703446161666506
130.0, 0.03443567977879707
131.0, 0.036159579612333285
132.0, 0.02941293919333451
133.0, 0.02412617436074775
134.0, 0.0210663132375559
135.0, 0.021832280613934465
136.0, 0.020327787842429102
137.0, 0.018843633824556647
138.0, 0.018279809071091217
139.0, 0.01683532169709363
140.0, 0.015035886617038976
141.0, 0.012891273662878129
142.0, 0.010321607598947654
143.0, 0.008562949939656778
144.0, 0.0070714739018929995
145.0, 0.005647735470765568
146.0, 0.0032756012520392007
147.0, 0.0015266071095591195
148.0, 0.0009971410649105353
149.0, 0.002658125862773492
150.0, 0.0029567270585618443
151.0, 0.0035736707575209983
152.0, 0.004372423364512915
153.0, 0.003786609394419745
154.0, 0.0032791319264212616
155.0, 0.0033205574609207144
156.0, 0.004264408088141532
157.0, 0.00454413244127223
158.0, 0.004488444977683246
159.0, 0.003871445225795735
160.0, 0.001974828206863115
161.0, 0.002541988191141121
162.0, 0.0026117465249518687
163.0, 0.0014198076176325642
164.0, 0.0006691209795458637
165.0, 0.00046793926742092206
166.0, 0.001792618929810338
167.0, 0.006214369490557832
168.0, 0.007616712041593915
169.0, 0.01046974485140705
170.0, 0.01437864372397501
171.0, 0.014731596714875856
172.0, 0.018915259051760586
173.0, 0.024069059853738743
174.0, 0.028750732006508864
175.0, 0.03255506778761641
176.0, 0.036868257137426
177.0, 0.04175710092657774
178.0, 0.04747207748617427
179.0, 0.056672948804688546
180.0, 0.06588857163019746
181.0, 0.07464343945130647
182.0, 0.08682402498992187
183.0, 0.10374678869221093
184.0, 0.12368866332111506
185.0, 0.1457032963688493
186.0, 0.18355303961072547
187.0, 0.22297419027435803
188.0, 0.2669701148875346
189.0, 0.33088469200655024
190.0, 0.39260011271979967
191.0, 0.4699024090022658
192.0, 0.5696263346321718
193.0, 0.653291550681294
194.0, 0.7262388634829536
195.0, 0.7864399718153046
196.0, 0.8278925899877414
197.0, 0.8190675479188075
198.0, 0.7916814280910792
199.0, 0.7461261900903046
200.0, 0.6612699158442387
201.0, 0.5719723446264108
202.0, 0.4845108820183288
203.0, 0.40235838933678225
204.0, 0.33175795071719333
205.0, 0.2724038278075338
206.0, 0.22267790148697533
207.0, 0.18173313546539224
208.0, 0.15215404933767646
209.0, 0.12967133445625903
210.0, 0.11272842481698771
211.0, 0.09569759119202628
212.0, 0.0824716044326784
213.0, 0.07176008803404421
214.0, 0.06311180485426564
215.0, 0.05893935332969232
216.0, 0.052291678481969625
217.0, 0.04441113998127555
218.0, 0.037808208871831755
219.0, 0.03440462630370244
220.0, 0.02951320216582858
221.0, 0.023086672430076116
222.0, 0.021777518554299928
223.0, 0.016263642364935108
224.0, 0.011956711259528319
225.0, 0.01256079759199037
226.0, 0.0093342698318808
227.0, 0.008562259568394343
228.0, 0.008450566472714808
229.0, 0.005228214562722842
230.0, 0.004035659301866309
231.0, 0.004138396243009749
232.0, 0.004921171099689627
233.0, 0.003099179828782767
234.0, 0.0026963599233177774
235.0, 0.0021855950370402283
236.0, 0.000637552190893783
237.0, 0.0021531224918494877
238.0, 0.0022602550914527
239.0, 0.0018775192248068956
240.0, 0.0026040929585335704
241.0, 0.0019782206258395856
242.0, 0.0024311899709950698
243.0, 0.004092819339508174
244.0, 0.005606263295190221
245.0, 0.00539562869715643
246.0, 0.0053205364385552605
247.0, 0.006251770800959989
248.0, 0.005573965688079165
249.0, 0.004228081015186776
250.0, 0.0034635405633769746
251.0, 0.005118918488432882
252.0, 0.007212488795368111
253.0, 0.005878635431983652
254.0, 0.002474980547030322
255.0, 0.003459084251182973
256.0, 0.0016663259288271447
257.0, 0.0023655294357445315
258.0, 0.00671645163767885
259.0, 0.0022651154329428515
260.0, 0.005332723786191309
261.0, 0.009830022341772032
262.0, 0.010309562621867817
263.0, 0.013994904757555434
264.0, 0.020008106221381904
265.0, 0.027136632766505023
266.0, 0.03274940257078962
267.0, 0.04133598277080308
268.0, 0.05083197846386668
269.0, 0.06089179182492397
270.0, 0.07212224596385511
271.0, 0.09242788688762822
272.0, 0.11437069995638295
273.0, 0.1340130894392423
274.0, 0.15414893712366046
275.0, 0.177638664308127
276.0, 0.20175146464957588
277.0, 0.22277643656223634
278.0, 0.23361252810533334
279.0, 0.2364261440076606
280.0, 0.23101575455047701
281.0, 0.21484086299985347
282.0, 0.1929120800350602
283.0, 0.17121911566034664
284.0, 0.15069385614334052
285.0, 0.12313422698885147
286.0, 0.10560051883407519
287.0, 0.09220100145831725
288.0, 0.07929247887630723
289.0, 0.07354762342716804
290.0, 0.06871673074913509
291.0, 0.0635727023461196
292.0, 0.0561475993630422
293.0, 0.054735811633402735
294.0, 0.052094914460095676
295.0, 0.04958681581954114
296.0, 0.05541311541306505
297.0, 0.05699331939669995
298.0, 0.05898956737156074
299.0, 0.06265817083543351
300.0, 0.06569422904288091
301.0, 0.07134832191457012
302.0, 0.07958566086736435
303.0, 0.09062010157783015
304.0, 0.09552381172474476
305.0, 0.10809264564040302
306.0, 0.12449659033879162
307.0, 0.1394933940078511
308.0, 0.15610788792002644
309.0, 0.17253085645059021
310.0, 0.18833348090940974
311.0, 0.20269477128295124
312.0, 0.2173642426936906
313.0, 0.2315679597912179
314.0, 0.24426398921085388
315.0, 0.249634278484452
316.0, 0.2572176516255804
317.0, 0.2612726982799663
318.0, 0.25892752532623525
319.0, 0.26402737955863503
320.0, 0.26335474702055495
321.0, 0.26016972358278745
322.0, 0.2576544316536509
323.0, 0.25210458511703415
324.0, 0.24510677791166752
325.0, 0.23647109702353716
326.0, 0.22540135376384407
327.0, 0.20753051711570986
328.0, 0.19295796608967783
329.0, 0.18177341348112425
330.0, 0.1678529190931615
331.0, 0.15223736566944626
332.0, 0.13775334109792442
333.0, 0.1251021471524674
334.0, 0.11165987352896092
335.0, 0.10097734835173938
336.0, 0.09232541017429852
337.0, 0.08533805199183009
338.0, 0.07643863549405774
339.0, 0.0703361521320377
340.0, 0.06559066502167357
341.0, 0.060699190514828597
342.0, 0.05633417867558291
343.0, 0.05281590193040699
344.0, 0.04985561062807823
345.0, 0.04689563646748992
346.0, 0.045207136079470314
347.0, 0.04327557904776897
348.0, 0.04124424971561578
349.0, 0.04047179832759824
350.0, 0.039500918785129936
351.0, 0.03855059930472414
352.0, 0.03781260470667683
353.0, 0.03818430099093613
354.0, 0.03910719543572306
355.0, 0.03950806651100851
356.0, 0.038880455327483555
357.0, 0.03838489495820007
358.0, 0.04006269373997333
359.0, 0.0423207296849178
360.0, 0.043871875493621135
361.0, 0.04635222205192993
362.0, 0.04706947840850182
363.0, 0.04950267805792029
364.0, 0.05876385896758656
365.0, 0.062451916766901476
366.0, 0.06878627456761263
367.0, 0.07825603582984327
368.0, 0.09088503885687027
369.0, 0.09605473794485477
370.0, 0.09990387616948654
371.0, 0.1031107493716494
372.0, 0.10445546256959
373.0, 0.09889664528800077
374.0, 0.09238829313960237
375.0, 0.08573466437658381
376.0, 0.07387451152701419
377.0, 0.06753940502698387
378.0, 0.06119278971380474
379.0, 0.05276807313107719
380.0, 0.04656820278623292
381.0, 0.042660153403137155
382.0, 0.03940953285746437
383.0, 0.035832173281226405
384.0, 0.03404932596269687
385.0, 0.030339321418280808
386.0, 0.027152075523751304
387.0, 0.026964024530818014
388.0, 0.028167649293899935
389.0, 0.028719985893716864
390.0, 0.02771605862868689
391.0, 0.02376245598519303
392.0, 0.02191427428211985
393.0, 0.02324550548705023
394.0, 0.025089689159511566
395.0, 0.021698254684761952
396.0, 0.02203774979214365
397.0, 0.021287689901708522
398.0, 0.019311909893076695
399.0, 0.017661688772167124
400.0, 0.018961394745338478
401.0, 0.018850570779421767
402.0, 0.01724690872122718
403.0, 0.01787280534700888
404.0, 0.01712054074013708
405.0, 0.015310405351026254
406.0, 0.013184316874942575
407.0, 0.014994179385678583
408.0, 0.011999528010086956
409.0, 0.010734913233297056
410.0, 0.013124857937958492
411.0, 0.009895094998564785
412.0, 0.009712694294258162
413.0, 0.00955921599001347
414.0, 0.007709904361450245
415.0, 0.004118822253012138
416.0, 0.005607251673620755
417.0, 0.007135728349305997
418.0, 0.0050202459406669085
419.0, 0.0036000925297789673
420.0, 0.003272085344938522
421.0, 0.0026419046757210334
422.0, 0.0003457045072598208
423.0, 0.003105842375564859
424.0, 0.002635303344959585
425.0, 0.0020402414952966656
426.0, 0.005302064863117005
427.0, 0.0031875630507751996
428.0, 0.003930072527465315
429.0, 0.0058469419765149536
430.0, 0.005888575873048362
431.0, 0.006447937624899114
432.0, 0.0065521992618832155
433.0, 0.006450226395783504
434.0, 0.006732427609308802
435.0, 0.007842118162926593
436.0, 0.00982353052970492
437.0, 0.011676007460310486
438.0, 0.011099420663246639
439.0, 0.014652798434056594
440.0, 0.014884499981198276
441.0, 0.012804569786109993
442.0, 0.013906501431043048
443.0, 0.017069621848622336
444.0, 0.018759500958090685
445.0, 0.01921050581263108
446.0, 0.0211514506808069
447.0, 0.022686956876223463
448.0, 0.0242455862740828
449.0, 0.026177249861095677
450.0, 0.02946335266168637
451.0, 0.031141145133808376
452.0, 0.032916124550128906
453.0, 0.03484796802733842
454.0, 0.03535601640851837
455.0, 0.033829925816556576
456.0, 0.03388459169834293
457.0, 0.03534418612403191
458.0, 0.0322412590549728
459.0, 0.03174305662728212
460.0, 0.029886797562491095
461.0, 0.026763677922761953
462.0, 0.029944419051871254
463.0, 0.031667162718529554
464.0, 0.031515229852562186
465.0, 0.0297596676747667
466.0, 0.029142440759162995
467.0, 0.025949141559273508
468.0, 0.023237469318071864
469.0, 0.021242753398248916
470.0, 0.013910675401538121
471.0, 0.010034607128301393
472.0, 0.005637143128343025
473.0, 7.51381367963271e-05
474.0, 1.436451967017736e-05
475.0, 0.0006764305778891485
476.0, 0.002061893345364017
477.0, 0.0036719088166997857
478.0, 0.0017694273092796796
479.0, 0.002179911440158138
480.0, 0.002930915014575789
481.0, 0.002965134463515138
482.0, 0.0006045550546128432
483.0, 0.0020055070414998475
484.0, 0.00422387900075439
485.0, 0.005770123541025918
486.0, 0.004810939372584332
487.0, 0.006003321150360219
488.0, 0.00869654146402225
489.0, 0.012156505099972272
490.0, 0.012851371176871386
491.0, 0.01863338109477505
492.0, 0.023222896346301772
493.0, 0.02470912425927875
494.0, 0.02801013467724889
495.0, 0.03037696501094798
496.0, 0.03286010603576652
497.0, 0.03603817905171308
498.0, 0.040926849745733754
499.0, 0.04017929814712428
500.0, 0.04088333312987538
501.0, 0.044493926866323176
502.0, 0.0436306620885761
503.0, 0.04195248540198469
504.0, 0.04259184819477548
505.0, 0.04531456781850159
506.0, 0.04275228333985467
507.0, 0.043833033242827356
508.0, 0.04426072628854607
509.0, 0.04345595105484175
510.0, 0.045272411390359694
511.0, 0.046279183047515215
512.0, 0.044047653611703215
513.0, 0.03970574184681584
514.0, 0.041061935834756126
515.0, 0.03538726946462893
516.0, 0.03110794925983702
517.0, 0.029275301297025793
518.0, 0.025927225010627355
519.0, 0.022188852223587754
520.0, 0.02165361305158445
521.0, 0.022384580413809734
522.0, 0.015776825471655723
523.0, 0.012048720120202246
524.0, 0.01153120448946596
525.0, 0.01259051572868005
526.0, 0.010720656945381102
527.0, 0.010136766838028489
528.0, 0.00910432995204603
529.0, 0.008354607969609726
530.0, 0.010130102761515634
531.0, 0.008017953781069719
532.0, 0.007445007041734918
533.0, 0.007819307280354038
534.0, 0.006901708875100686
535.0, 0.006379730284891535
536.0, 0.005972495470609195
537.0, 0.005620630340672108
538.0, 0.005268332084443925
539.0, 0.004941171884043516
540.0, 0.004753278235024718
541.0, 0.004573380215931993
542.0, 0.004230000561067409
543.0, 0.004887059415249074
544.0, 0.005162894499605038
545.0, 0.0056028606518736986
546.0, 0.006775178685013263
547.0, 0.008120895006690556
548.0, 0.005505963304885319
549.0, 0.004052416829180945
550.0, 0.007306043389605414
551.0, 0.0018374139304907252
552.0, 0.0021776642168967863
553.0, 0.004283600655348806
554.0, 0.005660533105166048
555.0, 0.007004094446183946
556.0, 0.0072209950752407225
557.0, 0.006518486308035951
558.0, 0.0052129230704002945
559.0, 0.0048855397284320356
560.0, 0.004721097041269865
561.0, 0.004672763410076102
562.0, 0.004695712729995266
563.0, 0.004654554342198148
564.0, 0.003786426482112394
565.0, 0.0040812470425676045
566.0, 0.005495675266052603
567.0, 0.006129951935828595
568.0, 0.007166521037710784
569.0, 0.005093889771536026
570.0, 0.0019136538597285529
571.0, 0.0039039989397242573
572.0, 0.004731245535840417
573.0, 0.004415730563800648
574.0, 0.004076749648654553
575.0, 0.005625519132205668
576.0, 0.0035011439685796765
577.0, 0.0017268522539560416
578.0, 0.0006995616931506591
579.0, 0.0006181524003447397
580.0, 0.0013185370056424362
581.0, 0.0016688072391810886
582.0, 0.0013764402015478262
583.0, 0.0003361427652844349
584.0, 0.0014454468211817684
585.0, 0.001291661637274408
586.0, 0.001482511293151918
587.0, 0.0026895224428713127
588.0, 0.0020582929270685684
589.0, 0.0022839815431227534
590.0, 0.003168691460706786
591.0, 0.0040817699153271065
592.0, 0.0022084414632534185
593.0, 0.002338279711540128
594.0, 0.0016151894855371
595.0, 3.936424381332649e-05
596.0, 5.211086491169212e-05
597.0, 0.00037919547260736457
598.0, 0.0012281514032799659
599.0, 0.0022649789873736286
600.0, 0.0027383892090633486
601.0, 0.0038441114053984296
602.0, 0.005458362478434919
603.0, 0.00586456508603147
604.0, 0.002834384830858444
605.0, 0.00722460487443525
606.0, 0.006607793840723982
607.0, 0.006392256131034658
608.0, 0.010924292028110608
609.0, 0.00949926439044973
610.0, 0.010828982302541534
611.0, 0.01431594924748021
612.0, 0.01854709183656046
613.0, 0.01576030526743017
614.0, 0.020591920619124567
615.0, 0.024475139341608304
616.0, 0.025270390061683457
617.0, 0.026273055185520297
618.0, 0.033661793683150004
619.0, 0.03601080703089357
620.0, 0.035635058329415784
621.0, 0.042934351640100094
622.0, 0.04290768033973644
623.0, 0.04766581898289729
624.0, 0.05622994913362302
625.0, 0.06564599552369144
626.0, 0.06588778012806058
627.0, 0.07188354852771205
628.0, 0.08009110452588253
629.0, 0.0871433363178695
630.0, 0.09125975821408265
631.0, 0.09730190332507258
632.0, 0.10352651149684601
633.0, 0.10978967432419191
634.0, 0.12043842323221172
635.0, 0.12197972508516396
636.0, 0.12707038055435926
637.0, 0.13634914011766064
638.0, 0.14086620121063867
639.0, 0.1400600422492381
640.0, 0.14166029492871285
641.0, 0.1442012592104615
642.0, 0.1434160981949669
643.0, 0.1442754938373672
644.0, 0.14584759028815078
645.0, 0.14643701514138338
646.0, 0.14481532437229777
647.0, 0.14907519873256356
648.0, 0.15006749515543052
649.0, 0.14979874799841023
650.0, 0.15061225705383985
651.0, 0.1601188729908602
652.0, 0.15992881794328062
653.0, 0.162327905743335
654.0, 0.1687130827050272
655.0, 0.17222181596937278
656.0, 0.17769070843931034
657.0, 0.18489259460385485
658.0, 0.19218268307065503
659.0, 0.19702030438991236
660.0, 0.20467031747621509
661.0, 0.21514130724592723
662.0, 0.22480184936712214
663.0, 0.23162106065385862
664.0, 0.2522911313324946
665.0, 0.2648009968944111
666.0, 0.2803639153410984
667.0, 0.3029551039221946
668.0, 0.3261601865101045
669.0, 0.34936490486119887
670.0, 0.37722711842134804
671.0, 0.4087343297083082
672.0, 0.43913942649353477
673.0, 0.499087423001499
674.0, 0.5492313156161392
675.0, 0.5978918256467456
676.0, 0.6584410198518157
677.0, 0.7285046592976981
678.0, 0.7926481184599872
679.0, 0.8538540004606546
680.0, 0.911771263039582
681.0, 0.950908217777969
682.0, 0.9771341860251879
683.0, 0.9930168844830302
684.0, 0.9944894035475838
685.0, 0.9679961513725021
686.0, 0.944724686397638
687.0, 0.9094426229414564
688.0, 0.8640985231166407
689.0, 0.8140603991715359
690.0, 0.754983824838434
691.0, 0.6987856773180099
692.0, 0.6456399212133673
693.0, 0.5941604363862901
694.0, 0.5333014257540079
695.0, 0.48056601201114857
696.0, 0.4357955143368177
697.0, 0.39412014793156225
698.0, 0.3413173283714475
699.0, 0.30860850320930355
700.0, 0.27568256529619034
701.0, 0.2445809247554674
702.0, 0.2212696361545973
703.0, 0.20449509670797747
704.0, 0.1840593067980229
705.0, 0.16619826674672375
706.0, 0.15390877248012283
707.0, 0.13865825068132348
708.0, 0.129720541608815
709.0, 0.12180503847179473
710.0, 0.11297118928619515
711.0, 0.10231199948194149
712.0, 0.09875621684439476
713.0, 0.09451549374760526
714.0, 0.08899688963574476
715.0, 0.08254775581113771
716.0, 0.07848604158044636
717.0, 0.0749121282917052
718.0, 0.07267663638095391
719.0, 0.07145007487427243
720.0, 0.06712325997496765
721.0, 0.06335326670360909
722.0, 0.06355185191909155
723.0, 0.06506373959305234
724.0, 0.06094541839514632
725.0, 0.059591682909797605
726.0, 0.058909301188071174
727.0, 0.057892842081105775
728.0, 0.0559198147890855
729.0, 0.05540247373089205
730.0, 0.05680764359561187
731.0, 0.05691319848098332
732.0, 0.055387748233414545
733.0, 0.055471238328442134
734.0, 0.05929296216002353
735.0, 0.05744780756707239
736.0, 0.053491029507065774
737.0, 0.05406406909902436
738.0, 0.05750818443733927
739.0, 0.053746101255227316
740.0, 0.05041980794536292
741.0, 0.05181162554754202
742.0, 0.055394708163680174
743.0, 0.05195832445403298
744.0, 0.05095092156765545
745.0, 0.0524837773181175
746.0, 0.052371630741439926
747.0, 0.05101895972556375
748.0, 0.051605273075925766
749.0, 0.05082584787234016
750.0, 0.04696987458172977
751.0, 0.05061477025838247
752.0, 0.048600757168714454
753.0, 0.045880189956974515
754.0, 0.04508667404515857
755.0, 0.0487256416429127
756.0, 0.04196963178307328
757.0, 0.04295167591461407
758.0, 0.04475008332859626
759.0, 0.03893534039417676
760.0, 0.03657770290330309
761.0, 0.03869042813373451
762.0, 0.03822815179429058
763.0, 0.03416936231845061
764.0, 0.03346872722528439
765.0, 0.03603521961009774
766.0, 0.03501254953465539
767.0, 0.03331839647557669
768.0, 0.03559163148739676
769.0, 0.036128572579591366
770.0, 0.036099728238669526
771.0, 0.036170661386534714
772.0, 0.035993030693478915
773.0, 0.03277504346821712
774.0, 0.035063944396232956
775.0, 0.035811333453475605
776.0, 0.036598077077229944
777.0, 0.041060505411476086
778.0, 0.040173965664307185
779.0, 0.038569225296550574
780.0, 0.03971447174120868
781.0, 0.04343855582060119
782.0, 0.040508461879061146
783.0, 0.0435092112784195
784.0, 0.046360914938625625
785.0, 0.047251996414491716
786.0, 0.045329008914225005
787.0, 0.048864354553225145
788.0, 0.047783735162194495
789.0, 0.046342905865869456
790.0, 0.04754944720201131
791.0, 0.0536002056775575
792.0, 0.05069143398251445
793.0, 0.05048547423293145
794.0, 0.05163902783732435
795.0, 0.04934562311315497
796.0, 0.050179173554595925
797.0, 0.05031800832016438
798.0, 0.04730052249829596
799.0, 0.042126108591074664
800.0, 0.044131251991046824
801.0, 0.03946382607885726
802.0, 0.037658737331753726
803.0, 0.03845412182745547
804.0, 0.039152307366999914
805.0, 0.032003944720700006
806.0, 0.03267311747274233
807.0, 0.031678420987688576
808.0, 0.026192786324927688
809.0, 0.022559878578352833
810.0, 0.023584739524693383
811.0, 0.02189119619181296
812.0, 0.020412383471668526
813.0, 0.022824714214799625
814.0, 0.0184920233783568
815.0, 0.01779511751609659
816.0, 0.01813560148118899
817.0, 0.017348861209080108
818.0, 0.012465943193576875
819.0, 0.013185182480882997
820.0, 0.014433014206570213
821.0, 0.013499622162406938
822.0, 0.009503570423299041
823.0, 0.01294293939996499
824.0, 0.010908485230359876
825.0, 0.00792944261681159
826.0, 0.006200515628993921
827.0, 0.0073294522387161495
828.0, 0.004105086376924967
829.0, 0.006224817702948265
830.0, 0.007469564861267938
831.0, 0.004090737946130782
832.0, 0.0009975698410615212
833.0, 0.0027766721317578815
834.0, 0.0024564635246317156
835.0, 0.0011392513398236158
836.0, 0.0024089680282645127
837.0, 0.0010392822029798008
838.0, 0.0010427203414454245
839.0, 0.0019214435910116347
840.0, 0.0031137654096829105
841.0, 0.003671047346347598
842.0, 0.0029214953836337243
843.0, 0.0029671739717219902
844.0, 0.0029183523679265785
845.0, 0.0018867947050299906
846.0, 0.0024031177564000535
847.0, 0.001341352068279687
848.0, 0.0008615889234328476
849.0, 0.001061366993420184
850.0, 0.0007195576009863729
851.0, 0.0032673314569298304
852.0, 0.0018425400572563884
853.0, 0.0005244520485556706
854.0, 0.0013666133864555844
855.0, 0.0004190332004927718
856.0, 0.00038242917807527473
857.0, 0.0011623531564447648
858.0, 0.0026263384243305635
859.0, 0.0043556948159729995
860.0, 0.002310452043953313
861.0, 0.002527324912952617
862.0, 0.0024294222563456583
863.0, 0.0014044666931661378
864.0, 0.00046520877750205866
865.0, 0.002306462243259963
866.0, 0.0016895236274687615
867.0, 0.0007990953775413689
868.0, 0.001579305567066723
869.0, 0.004400805000760977
870.0, 0.002959487718414056
871.0, 0.0017513794347127206
872.0, 0.0011785506295809186
873.0, 0.0007131775148241813
874.0, 0.0023935882842439074
875.0, 0.0030100665290440317
876.0, 0.003899672811137051
877.0, 0.004125099007107934
878.0, 0.0001744265271304002
879.0, 0.0027825985586290634
880.0, 0.004233832784740211
881.0, 0.0037175277484688043
882.0, 0.0016671501474785394
883.0, 0.001410263371146764
884.0, 0.0019157568355205636
885.0, 0.001676127294884841
886.0, 0.0013391272075950744
887.0, 0.001959609853725636
888.0, 0.0030213129483775947
889.0, 0.0031045945302435847
890.0, 0.0037075328651601618
891.0, 0.005541246751187129
892.0, 0.008921927200171521
893.0, 0.002572543350494714
894.0, 0.003307520566076793
895.0, 0.004397534939178153
896.0, 0.0030169159302310014
897.0, 0.004588099257326419
898.0, 0.004037638025764073
899.0, 0.0033968692859925897
900.0, 0.004246045515374133
901.0, 0.007114096787150188
902.0, 0.006801541204947784
903.0, 0.003915816071958793
904.0, 0.005701651223920475
905.0, 0.00803371078642291
906.0, 0.0028323884020530466
907.0, 0.0037826906713632753
908.0, 0.004846918929900914
909.0, 0.004812681496953364
910.0, 0.003928982375752072
911.0, 0.003953180916613853
912.0, 0.004013297944789808
913.0, 0.005480565407492986
914.0, 0.006040888364824261
915.0, 0.004592686611469213
916.0, 0.0028355743273176105
917.0, 0.005543733247993431
918.0, 0.00431080892255532
919.0, 0.001433375564131416
920.0, 0.0006853300216786203
921.0, 0.005757613343791756
922.0, 0.0026507681814251275
923.0, 0.0038683145577135753
924.0, 0.006493492537432826
925.0, 0.003247058921908093
926.0, 0.0047948352298885655
927.0, 0.0060795103669602805
928.0, 0.005290946895801699
929.0, 0.0034786724953353894
930.0, 0.003949676709245163
931.0, 0.0063464493806606286
932.0, 0.004173095936713251
933.0, 0.004246048240425676
934.0, 0.007054898105017329
935.0, 0.003437152913962571
936.0, 0.003679997164019598
937.0, 0.005520730834595681
938.0, 0.004867249172271429
939.0, 0.0010971347693117053
940.0, 0.003915213225680636
941.0, 0.0049645326026736165
942.0, 0.0030015152526861244
943.0, 0.0015916629322949981
944.0, 0.003421415329493862
945.0, 0.0018084465013101408
946.0, 0.006651821043557277
947.0, 0.00671330069830723
948.0, 0.004426370818206426
949.0, 0.005664032789598
950.0, 0.0051309562726749545
951.0, 0.004687752939062182
952.0, 0.0047552572757353345
953.0, 0.005719846041787844
954.0, 0.007685098776217083
955.0, 0.0016691099660629972
956.0, 0.005534207182674067
957.0, 0.005667111971328319
958.0, 0.0018635380933242406
959.0, 0.00573007243153271
960.0, 0.007641406299768491
961.0, 0.004809259292708456
962.0, 0.004588709842108298
963.0, 0.008594659919729382
964.0, 0.010372862951311717
965.0, 0.0051590921732076744
966.0, 0.00864132020050717
967.0, 0.011084865302315611
968.0, 0.00761445318195374
969.0, 0.005699131635355543
970.0, 0.011729136769092903
971.0, 0.009820073177232429
972.0, 0.009724376587648392
973.0, 0.01673002259184957
974.0, 0.014886415246005143
975.0, 0.011534685034289149
976.0, 0.0135690132036766
977.0, 0.015175356754880725
978.0, 0.012167780072224221
979.0, 0.016193077914807615
980.0, 0.01855401528334413
981.0, 0.018965698710658736
982.0, 0.018845855094030087
983.0, 0.01950409618764402
984.0, 0.01888732994410034
985.0, 0.02069545970211337
986.0, 0.022774777430420525
987.0, 0.02321307892240227
988.0, 0.021142988934071405
989.0, 0.023783224917042583
990.0, 0.02198234846862513
991.0, 0.02144934193716883
992.0, 0.024388640358399508
993.0, 0.030370186859650056
994.0, 0.024442348620158837
995.0, 0.02754181782083225
996.0, 0.03127301868739498
997.0, 0.03180600476677099
998.0, 0.02835695462897891
999.0, 0.03663936405826359
1000.0, 0.03661462647170215
1001.0, 0.03989459396008589
1002.0, 0.0459701282555951
1003.0, 0.0482943841222643
1004.0, 0.04654550309935687
1005.0, 0.04839356860841167
1006.0, 0.04763581961904849
1007.0, 0.04428810675350967
1008.0, 0.04197807699483336
1009.0, 0.04312406218344873
1010.0, 0.03958053929072157
1011.0, 0.039949999901329816
1012.0, 0.04314941550127752
1013.0, 0.04244186691782769
1014.0, 0.04190218369249924
1015.0, 0.04480274793181436
1016.0, 0.04128700160857058
1017.0, 0.035716611917691266
1018.0, 0.04066995271949757
1019.0, 0.03957928026586016
1020.0, 0.03399031360918529
1021.0, 0.03538049920066526
1022.0, 0.04005643130335485
1023.0, 0.035660904116903466
1024.0, 0.03866695050257602
1025.0, 0.04335113236097298
1026.0, 0.04363844322318448
1027.0, 0.04358287011129884
1028.0, 0.05243585210931419
1029.0, 0.05644895526017013
1030.0, 0.059653972707112396
1031.0, 0.06861060615812116
1032.0, 0.07878889968941712
1033.0, 0.08061142842250317
1034.0, 0.08720460379060625
1035.0, 0.09233072770102002
1036.0, 0.09264048408537967
1037.0, 0.09067105991704077
1038.0, 0.09074199868718963
1039.0, 0.08000851446573021
1040.0, 0.07884448276009311
1041.0, 0.07709281004476172
1042.0, 0.0700244654354817
1043.0, 0.05736170954002429
1044.0, 0.059087359215304724
1045.0, 0.053952621913100685
1046.0, 0.04792248879212518
1047.0, 0.047286472433203434
1048.0, 0.054319291720072355
1049.0, 0.04167608526226167
1050.0, 0.043281514869540266
1051.0, 0.04680314812197805
1052.0, 0.04581464283364078
1053.0, 0.03928093321029552
1054.0, 0.04625320590859748
1055.0, 0.046318259720492985
1056.0, 0.04702208168568731
1057.0, 0.04908488584925341
1058.0, 0.05061845295282656
1059.0, 0.045156300877545755
1060.0, 0.04793276126844285
1061.0, 0.050849298870747656
1062.0, 0.05115341685236351
1063.0, 0.04995410746640545
1064.0, 0.056894140848053235
1065.0, 0.05138705373907275
1066.0, 0.050617452642049775
1067.0, 0.05494811238793359
1068.0, 0.05972247781427995
1069.0, 0.053796158447018946
1070.0, 0.06423361324481495
1071.0, 0.06483586315062083
1072.0, 0.06237804582877882
1073.0, 0.06342288939833786
1074.0, 0.0716606483021791
1075.0, 0.07171722477708037
1076.0, 0.07210017200180299
1077.0, 0.077448138626705
1078.0, 0.08347690000539443
1079.0, 0.0787737246936226
1080.0, 0.09098472154526091
1081.0, 0.09287270377863248
1082.0, 0.09356922704943363
1083.0, 0.09921694842667685
1084.0, 0.11179769840930136
1085.0, 0.10637500725034525
1086.0, 0.11219952261489914
1087.0, 0.11994688255393869
1088.0, 0.12357816079448955
1089.0, 0.12124166998669961
1090.0, 0.1288500659120834
1091.0, 0.12899172722910196
1092.0, 0.13085003898117697
1093.0, 0.13498985284275572
1094.0, 0.1378579820066866
1095.0, 0.12851923076581778
1096.0, 0.1323753506519253
1097.0, 0.13308610638647586
1098.0, 0.13122169100838382
1099.0, 0.13063490762907257
1100.0, 0.13761441055942752
1101.0, 0.13214800532070511
1102.0, 0.12953029538301103
1103.0, 0.1281553804093956
1104.0, 0.1256242084873315
1105.0, 0.11971639476489414
1106.0, 0.115703549704144
1107.0, 0.11177223201287086
1108.0, 0.10488893004442974
1109.0, 0.09762450115227876
1110.0, 0.09464107886705131
1111.0, 0.08565791835532846
1112.0, 0.08162703905571607
1113.0, 0.07566700230071959
1114.0, 0.06671442465860114
1115.0, 0.05744594869056593
1116.0, 0.05839464197467772
1117.0, 0.05272578619781425
1118.0, 0.046511548477652036
1119.0, 0.04421221692417479
1120.0, 0.04482919055437881
1121.0, 0.03625557156820371
1122.0, 0.05050248939338488
1123.0, 0.056713857934013116
1124.0, 0.04963402456420079
1125.0, 0.035778044261644576
1126.0, 0.031799429162121834
1127.0, 0.026078343699571814
1128.0, 0.017796383752252943
1129.0, 0.01526139089129685
1130.0, 0.015535921133971915
1131.0, 0.01141421478543464
1132.0, 0.011103791917160176
1133.0, 0.009639674532225929
1134.0, 0.007747090008822989
1135.0, 0.006675666178310621
1136.0, 0.007316075964860461
1137.0, 0.009169624746350727
1138.0, 0.007007973654090971
1139.0, 0.009998538230184009
1140.0, 0.008703976348855917
1141.0, 0.0033589139338768693
1142.0, 0.009009110175669691
1143.0, 0.010557262222929603
1144.0, 0.004124366189926732
1145.0, 0.0055503275509210005
1146.0, 0.009664437263535513
1147.0, 0.0018033819875779102
1148.0, 0.0007180692200359419
1149.0, 0.008053004893687227
1150.0, 0.006315471906870712
1151.0, 0.0038923350872732926
1152.0, 0.008615805526974976
1153.0, 0.0060388410113287015
1154.0, 0.00215845507172988
1155.0, 0.005444848818511273
1156.0, 0.012128983917745102
1157.0, 0.01854865114598714
1158.0, 0.02243820511181178
1159.0, 0.00798838488505772
1160.0, 0.002678135034818254
1161.0, 0.004142828450454796
1162.0, 0.006536932766681695
1163.0, 0.004063351028161709
1164.0, 0.00119840870350653
1165.0, 0.004870783153401668
1166.0, 0.004241796772635975
1167.0, 0.002999278616935909
1168.0, 0.0045751854766554155
1169.0, 0.006084269685649738
1170.0, 0.002014565414227658
1171.0, 0.003177634726989418
1172.0, 0.003722174794566464
1173.0, 0.0019467046129850202
1174.0, 0.000484850431345581
1175.0, 0.005511837605802311
1176.0, 0.003639546242857246
1177.0, 0.007893489355067606
1178.0, 0.01307402597594236
1179.0, 0.011146626129918003
1180.0, 0.002304272412350215
1181.0, 0.006882257606959388
1182.0, 0.006536736681186166
1183.0, 0.004092542689139544
1184.0, 0.0036719216301007974
1185.0, 0.007923644469549605
1186.0, 0.003650029721128342
1187.0, 0.0024094699024990573
1188.0, 0.0022965843310000797
1189.0, 0.0017742984347184985
1190.0, 0.000670479218492606
1191.0, 0.0033252352786436144
1192.0, 0.0017013731749826572
1193.0, 0.0010828792621435529
1194.0, 0.002080753658306803
1195.0, 0.0038725845428233
1196.0, 0.004693771606133729
1197.0, 0.006518712446835068
1198.0, 0.002738615431069243
1199.0, 0.002157935826597592
1200.0, 0.005394022135734659
1201.0, 0.008637707342685522
1202.0, 0.005429613397584103
1203.0, 0.002327529175607756
1204.0, 0.00390447633693879
1205.0, 0.0038648162218357794
1206.0, 0.0018702463058622688
1207.0, 0.005732091633180892
1208.0, 0.00812455725762237
1209.0, 0.004977990542647118
1210.0, 0.005275772452915428
1211.0, 0.006103361688600973
1212.0, 0.0030344662986699763
1213.0, 0.00368355623885963
1214.0, 0.006732582533906411
1215.0, 0.004934637420422315
1216.0, 0.004064375096485613
1217.0, 0.005809810705422732
1218.0, 0.006084413365138637
1219.0, 0.0009962436610169633
1220.0, 0.008831701157073619
1221.0, 0.00955616727207677
1222.0, 0.006102485328324936
1223.0, 0.006075297313049552
1224.0, 0.00860310886548819
1225.0, 0.0024915700670343744
1226.0, 0.0065056252721496345
1227.0, 0.010303138014713603
1228.0, 0.009282763713383596
1229.0, 0.00607033251162411
1230.0, 0.010337278659508
1231.0, 0.007812175738857625
1232.0, 0.007184757881635365
1233.0, 0.00961315525176226
1234.0, 0.011815764272974863
1235.0, 0.0062241729359315354
1236.0, 0.010921673600547589
1237.0, 0.013458832403643095
1238.0, 0.009239910136155596
1239.0, 0.0061101913218276375
1240.0, 0.01276058981444581
1241.0, 0.013973190573711528
1242.0, 0.007908489406602518
1243.0, 0.01241080461452571
1244.0, 0.011232523351497747
1245.0, 0.0035358075919045516
1246.0, 0.007543656853109738
1247.0, 0.014943406008381914
1248.0, 0.010482848236007935
1249.0, 0.013077800361418998
1250.0, 0.015846024416871773
1251.0, 0.012121080496203205
1252.0, 0.012325054138835858
1253.0, 0.017714966681048393
1254.0, 0.009542035515587789
1255.0, 0.0070630079315952546
1256.0, 0.012062434585356116
1257.0, 0.014631834451519422
1258.0, 0.0038884490997829436
1259.0, 0.010679640628652742
1260.0, 0.01469073048131142
1261.0, 0.011919535829267379
1262.0, 0.006929250346195497
1263.0, 0.009430713450125871
1264.0, 0.011062144724903284
1265.0, 0.011244963380865667
1266.0, 0.014178886332302203
1267.0, 0.013857345723622568
1268.0, 0.009931343491935326
1269.0, 0.016666822243059366
1270.0, 0.016979679550626483
1271.0, 0.013351923421190926
1272.0, 0.017137466203196193
1273.0, 0.02013144319096692
1274.0, 0.012934126683000213
1275.0, 0.012672964344700869
1276.0, 0.020884929492422592
1277.0, 0.013208884661174468
1278.0, 0.009719513745639867
1279.0, 0.01369516227878956
1280.0, 0.014305792721628498
1281.0, 0.011358070863302093
1282.0, 0.01622536632607809
1283.0, 0.01591603803521178
1284.0, 0.012643338403207754
1285.0, 0.012834373283182023
1286.0, 0.021598802116513115
1287.0, 0.008382888398088689
1288.0, 0.01114185721325152
1289.0, 0.014550737031632848
1290.0, 0.012063432969898367
1291.0, 0.007929955633435206
1292.0, 0.018752559380535695
1293.0, 0.014613101745426514
1294.0, 0.013369301378267823
1295.0, 0.017240698626039958
1296.0, 0.01804573153954251
1297.0, 0.011292776798990337
1298.0, 0.011355288486040359
1299.0, 0.020117446047377696
1300.0, 0.011390751751210564
1301.0, 0.011478949050902796
1302.0, 0.017360938847303383
1303.0, 0.013995097280349075
1304.0, 0.007438138673728644
1305.0, 0.013005025257730224
1306.0, 0.010441138531935136
1307.0, 0.008448070314663922
1308.0, 0.011626513927487625
1309.0, 0.017141855645991272
1310.0, 0.010362025577609403
1311.0, 0.012961201988290611
1312.0, 0.016470942007148937
1313.0, 0.014691068759893237
1314.0, 0.010652786622268522
1315.0, 0.012781809581988305
1316.0, 0.010423844520140514
1317.0, 0.009896496042236004
1318.0, 0.014070521257881578
1319.0, 0.01484399365284794
1320.0, 0.012132242837321684
1321.0, 0.015062834227489238
1322.0, 0.01618339993469984
1323.0, 0.00943277593397259
1324.0, 0.01024779773956163
1325.0, 0.01563035198526514
1326.0, 0.018092511450646914
1327.0, 0.012110442871765999
1328.0, 0.016244743751319582
1329.0, 0.009186462251112146
1330.0, 0.0060953602393644495
1331.0, 0.007639386094243962
1332.0, 0.008507529046224666
1333.0, 0.0022550537331303294
1334.0, 0.006763445933849479
1335.0, 0.011447230207936561
1336.0, 0.00668801319870762
1337.0, 0.004506076717233648
1338.0, 0.009260025864201034
1339.0, 0.005524265644670354
1340.0, 0.0038140224074868947
1341.0, 0.008892777335908939
1342.0, 0.007881199556185391
1343.0, 0.0034035905010792854
1344.0, 0.001948238413929296
1345.0, 0.006951618946382147
1346.0, 0.001479968936663322
1347.0, 0.004860820661814581
1348.0, 0.007803787010178979
1349.0, 0.007270983851849392
1350.0, 0.0060376624964041375
1351.0, 0.011297145098913629
1352.0, 0.006175204549604826
1353.0, 0.0017479184645926478
1354.0, 0.00535292146628826
1355.0, 0.00684035489297095
1356.0, 0.003110256656956448
1357.0, 0.008039342405488134
1358.0, 0.008709669003165861
1359.0, 0.0026062075342262086
1360.0, 0.005275060597938795
1361.0, 0.008466392639008785
1362.0, 0.005137967541407667
1363.0, 0.0005405203946569261
1364.0, 0.008870278398966331
1365.0, 0.005554997350351081
1366.0, 0.004816269265394032
1367.0, 0.009138843035926684
1368.0, 0.011336143077977107
1369.0, 0.00033446411641824747
1370.0, 0.004430413948199136
1371.0, 0.007491203266639588
1372.0, 0.005756087787302507
1373.0, 0.00547893414010159
1374.0, 0.006717774994832437
1375.0, 0.0025756185365473235
1376.0, 0.0021853215553581384
1377.0, 0.009670239392578165
1378.0, 0.005299272341961063
1379.0, 0.003025233423428411
1380.0, 0.007864751505188828
1381.0, 0.010842671186574726
1382.0, 0.0021107291440350976
1383.0, 0.013168382657310861
1384.0, 0.011793927323619799
1385.0, 0.007970916448175852
1386.0, 0.009005676126647036
1387.0, 0.013013616259991515
1388.0, 0.00696017141665232
1389.0, 0.008026826601440077
1390.0, 0.013284265813934541
1391.0, 0.008745190495392121
1392.0, 0.0035438432693034308
1393.0, 0.011309429598961097
1394.0, 0.018574961126415847
1395.0, 0.004241083218580169
1396.0, 0.010028829350460606
1397.0, 0.010035432473614698
1398.0, 0.004501030069791813
1399.0, 0.00456442529445297
1400.0, 0.01520516852593922
1401.0, 0.010181439853977833
1402.0, 0.0071342777458944465
1403.0, 0.01114233654846736
1404.0, 0.01038851542675532
1405.0, 0.004210557678016432
1406.0, 0.011638876385284007
1407.0, 0.015445838770058465
1408.0, 0.009681976693358203
1409.0, 0.01007788607888134
1410.0, 0.014121170932480866
1411.0, 0.013460164074663373
1412.0, 0.004553443775790935
1413.0, 0.01761173675730546
1414.0, 0.012205352329800105
1415.0, 0.008108934446622595
1416.0, 0.015174227824220893
1417.0, 0.019484936953065937
1418.0, 0.006607401445824074
1419.0, 0.007808760417026784
1420.0, 0.016053096722639663
1421.0, 0.0059713556548543776
1422.0, 0.008401012264603864
1423.0, 0.013752841151458216
1424.0, 0.008599818458577893
1425.0, 0.009605933897747887
1426.0, 0.01993687996242355
1427.0, 0.012419900991564755
1428.0, 0.007751791322051225
1429.0, 0.011006896286203242
1430.0, 0.015029861682482994
1431.0, 0.008836309279502654
1432.0, 0.01410033435825034
1433.0, 0.013759149935543488
1434.0, 0.009434417768119872
1435.0, 0.01471010509828115
1436.0, 0.022382834941585994
1437.0, 0.017684436837933304
1438.0, 0.01530058188467883
1439.0, 0.02679601099324102
1440.0, 0.023994837875638622
1441.0, 0.02445122369186096
1442.0, 0.028361562938701464
1443.0, 0.027056889467884062
1444.0, 0.015419220078066138
1445.0, 0.03272790094763746
1446.0, 0.03461481009920359
1447.0, 0.030650483221988073
1448.0, 0.032494104780506954
1449.0, 0.03649345609845699
1450.0, 0.029478332215344686
1451.0, 0.02887790337348651
1452.0, 0.03963718096002945
1453.0, 0.03452008142235691
1454.0, 0.030516185357617135
1455.0, 0.035295154975270415
1456.0, 0.04117785109745559
1457.0, 0.02774708774110386
1458.0, 0.034633608914383655
1459.0, 0.041958954244588564
1460.0, 0.033213535205204966
1461.0, 0.02999997944914301
1462.0, 0.03744010873785514
1463.0, 0.033119225192122834
1464.0, 0.02663439427141642
1465.0, 0.034200561298993376
1466.0, 0.02865518955243339
1467.0, 0.023579957022971162
1468.0, 0.027970838631441224
1469.0, 0.035045098099957483
1470.0, 0.018669817315067526
1471.0, 0.024902962255648278
1472.0, 0.026664841367850703
1473.0, 0.01985610519831598
1474.0, 0.021851294998645823
1475.0, 0.031132104348505316
1476.0, 0.02355413735711316
1477.0, 0.013872548658380099
1478.0, 0.026492139541270388
1479.0, 0.020607006274468355
1480.0, 0.015668369623152958
1481.0, 0.020412860046269472
1482.0, 0.025820654493047178
1483.0, 0.01131107322165418
1484.0, 0.017566698984904358
1485.0, 0.021783842532963123
1486.0, 0.015706187896997747
1487.0, 0.014562512447464624
1488.0, 0.020325174363627872
1489.0, 0.01788811307962802
1490.0, 0.0034616725191953315
1491.0, 0.018522645292342883
1492.0, 0.016056173405716447
1493.0, 0.009365950177396004
1494.0, 0.010624294593448555
1495.0, 0.01664025285948735
1496.0, 0.007903477457152162
1497.0, 0.005833411502699154
1498.0, 0.013759192201841535
1499.0, 0.007714887897073478
1500.0, 0.007540375448626386
1501.0, 0.014858137386120221
1502.0, 0.014638802420316479
1503.0, 0.0016763976270679814
1504.0, 0.013229464701054992
1505.0, 0.013468514882075578
1506.0, 0.0058799795388360795
1507.0, 0.007200082092896063
1508.0, 0.015214647808788942
1509.0, 0.010051881383189796
1510.0, 0.007678715634225507
1511.0, 0.017411149288918692
1512.0, 0.008516091064750863
1513.0, 0.007810402597640036
1514.0, 0.013523584797686918
1515.0, 0.012036280106043143
1516.0, 0.00113923839672037
1517.0, 0.011209808099480396
1518.0, 0.014123343321821044
1519.0, 0.00670553315687954
1520.0, 0.004194154116830266
1521.0, 0.004562120688825371
1522, 0.0
1523, 0.0
1524, 0.0
1525, 0.0
1526, 0.0
1527, 0.0
1528, 0.0
1529, 0.0
1530, 0.0
1531, 0.0
1532, 0.0
1533, 0.0
1534, 0.0
1535, 0.0
1536, 0.0
1537, 0.0
1538, 0.0
1539, 0.0
1540, 0.0
1541, 0.0
1542, 0.0
1543, 0.0
1544, 0.0
1545, 0.0
1546, 0.0
1547, 0.0
1548, 0.0
1549, 0.0
1550, 0.0
1551, 0.0
1552, 0.0
1553, 0.0
1554, 0.0
1555, 0.0
1556, 0.0
1557, 0.0
1558, 0.0
1559, 0.0
1560, 0.0
1561, 0.0
1562, 0.0
1563, 0.0
1564, 0.0
1565, 0.0
1566, 0.0
1567, 0.0
1568, 0.0
1569, 0.0
1570, 0.0
1571, 0.0
1572, 0.0
1573, 0.0
1574, 0.0
1575, 0.0
1576, 0.0
1577, 0.0
1578, 0.0
1579, 0.0
1580, 0.0
1581, 0.0
1582, 0.0
1583, 0.0
1584, 0.0
1585, 0.0
1586, 0.0
1587, 0.0
1588, 0.0
1589, 0.0
1590, 0.0
1591, 0.0
1592, 0.0
1593, 0.0
1594, 0.0
1595, 0.0
1596, 0.0
1597, 0.0
1598, 0.0
1599, 0.0
