30, 0.0
31, 0.0
32, 0.0
33, 0.0
34, 0.0
35, 0.0
36, 0.0
37, 0.0
38, 0.0
39, 0.0
40, 0.0
41, 0.0
42, 0.0
43, 0.0
44, 0.0
45, 0.0
46, 0.0
47, 0.0
48, 0.0
49, 0.0
50, 0.0
51, 0.0
52, 0.0
53, 0.0
54, 0.0
55, 0.0
56, 0.0
57, 0.0
58, 0.0
59, 0.0
60, 0.0
61, 0.0
62, 0.0
63, 0.0
64, 0.0
65, 0.0
66, 0.0
67, 0.0
68, 0.0
69, 0.0
70, 0.0
71, 0.0
72, 0.0
73, 0.0
74, 0.0
75, 0.0
76, 0.0
77, 0.0
78, 0.0
79, 0.0
80, 0.0
81, 0.0
82, 0.0
83, 0.0
84, 0.0
85, 0.0
86, 0.0
87, 0.0
88, 0.0
89, 0.0
90, 0.0
91, 0.0
92, 0.0
93, 0.0
94, 0.0
95, 0.0
96, 0.0
97, 0.0
98, 0.0
99, 0.0
100, 0.0
101, 0.0
102, 0.0
103, 0.0
104, 0.0
105, 0.0
106, 0.0
107, 0.0
108, 0.0
109, 0.0
110, 0.0
111, 0.0
112, 0.0
113, 0.0
114, 0.0
115, 0.0
116, 0.0
117, 0.0
118, 0.0
119, 0.0
120, 0.0
121, 0.0
122, 0.0
123, 0.0
124, 0.0
125, 0.0
126, 0.0
127, 0.0
128, 0.0
129, 0.0
130, 0.0
131, 0.0
132, 0.0
133, 0.0
134, 0.0
135, 0.0
136, 0.0
137, 0.0
138, 0.0
139, 0.0
140, 0.0
141, 0.0
142, 0.0
143, 0.0
144, 0.0
145, 0.0
146, 0.0
147, 0.0
148, 0.0
149, 0.0
150.0, 0.007094499917697019
151.0, 0.008087448271808477
152.0, 0.006737729527287933
153.0, 0.00719374786860285
154.0, 0.010066990699099974
155.0, 0.0071898511894156565
156.0, 0.0019274185649136803
157.0, 0.0003763761835718497
158.0, 0.0014680988236486418
159.0, 0.0009763307036203559
160.0, 0.006220439956174104
161.0, 0.011892811690338042
162.0, 0.019280786292420925
163.0, 0.02548094877914763
164.0, 0.030156765830391473
165.0, 0.036252114760491935
166.0, 0.0421232899187254
167.0, 0.046043802015511996
168.0, 0.050943686944823124
169.0, 0.05782812765759973
170.0, 0.058134593746068115
171.0, 0.05989231027397481
172.0, 0.06361540747379456
173.0, 0.06736785444761781
174.0, 0.07001698116051348
175.0, 0.07404411657952227
176.0, 0.07918608639593204
177.0, 0.08733392309605595
178.0, 0.10002279890919534
179.0, 0.11028191465215793
180.0, 0.12472681440610946
181.0, 0.1430909172270232
182.0, 0.16428627731548603
183.0, 0.1908376337903763
184.0, 0.23015156213738713
185.0, 0.27777473726337226
186.0, 0.3329852676948739
187.0, 0.3976478677340515
188.0, 0.47004655002940304
189.0, 0.5509368482086126
190.0, 0.6394085680533892
191.0, 0.7309666239965379
192.0, 0.8201189661224305
193.0, 0.904221665205782
194.0, 0.9681607640209398
195.0, 0.9979898929539243
196.0, 0.9858167236782839
197.0, 0.9299558368050141
198.0, 0.8467570772804529
199.0, 0.7427157578105117
200.0, 0.6287183051960753
201.0, 0.524631979585339
202.0, 0.43616500591723817
203.0, 0.36619009836535493
204.0, 0.3142291890107143
205.0, 0.276950471741017
206.0, 0.24619896977589473
207.0, 0.2167901112261415
208.0, 0.19104139735266817
209.0, 0.17129635009565142
210.0, 0.15715768388486417
211.0, 0.14451325748762692
212.0, 0.13101960002163388
213.0, 0.12036987726489692
214.0, 0.11197560372484183
215.0, 0.09818157425690127
216.0, 0.09001029020457585
217.0, 0.08483655322059445
218.0, 0.0771784804234586
219.0, 0.06602760461371625
220.0, 0.05892146523474236
221.0, 0.052638981733881506
222.0, 0.047875465037504054
223.0, 0.04449667328484362
224.0, 0.04059283473112228
225.0, 0.03630983784231976
226.0, 0.0285309355239901
227.0, 0.023401542267511663
228.0, 0.024918286864179948
229.0, 0.023608537228352638
230.0, 0.02102695185164871
231.0, 0.020223629957001187
232.0, 0.02004284615437483
233.0, 0.01657922433275695
234.0, 0.011429141415454697
235.0, 0.008799492439215894
236.0, 0.008978012848030277
237.0, 0.0098016484577012
238.0, 0.008445441249150679
239.0, 0.005232744124885899
240.0, 0.005299604975975259
241.0, 0.004308896636667712
242.0, 0.0008603063815849142
243.0, 0.0007350224161475154
244.0, 0.0004499459138495918
245.0, 0.0021674221576863315
246.0, 0.00330394875711918
247.0, 0.0014802293114093096
248.0, 0.005273233013025477
249.0, 0.00597162629124156
250.0, 0.004654741438855946
251.0, 0.004593189705782525
252.0, 0.00551659021805315
253.0, 0.0024475557234161557
254.0, 0.0014878071907669338
255.0, 0.0046305672682972025
256.0, 0.005867340382012284
257.0, 0.0036346037600475953
258.0, 0.008029439450652475
259.0, 0.018126862735089736
260.0, 0.03187495930790835
261.0, 0.04222092422059731
262.0, 0.0336550126267723
263.0, 0.02991863149264978
264.0, 0.03401433242790695
265.0, 0.0409553005203261
266.0, 0.046836099924455574
267.0, 0.05570303086332955
268.0, 0.06667317343837738
269.0, 0.07951565779896248
270.0, 0.09585914030024753
271.0, 0.12065496076069337
272.0, 0.13701161571182072
273.0, 0.15788943693160645
274.0, 0.18435179086602316
275.0, 0.21051906163044964
276.0, 0.226763729219732
277.0, 0.2375346595178752
278.0, 0.23426105190567792
279.0, 0.21774179955542547
280.0, 0.19491740287190978
281.0, 0.1673328275921388
282.0, 0.1349690143979927
283.0, 0.10873607035888225
284.0, 0.08902450063462096
285.0, 0.07085515663321611
286.0, 0.05413691290843507
287.0, 0.04379698786341299
288.0, 0.037211885859628514
289.0, 0.03241460484070261
290.0, 0.02940697572467273
291.0, 0.02745572337243247
292.0, 0.026324608513741243
293.0, 0.02332165727312535
294.0, 0.02000782738790692
295.0, 0.019902330505229063
296.0, 0.02061493329842006
297.0, 0.02700620012102857
298.0, 0.03169325095443699
299.0, 0.03494067466116007
300.0, 0.04438271184010345
301.0, 0.04894870830245985
302.0, 0.05694293516766408
303.0, 0.06419057425415639
304.0, 0.07134028198983046
305.0, 0.08587959531402897
306.0, 0.09753767906668248
307.0, 0.11034345010796
308.0, 0.12609687209153111
309.0, 0.1409288511283585
310.0, 0.14710174955534958
311.0, 0.1566697763367465
312.0, 0.16675631828145293
313.0, 0.17586905112241716
314.0, 0.18200124704573517
315.0, 0.18157490723693567
316.0, 0.18608594766208603
317.0, 0.18726674608755778
318.0, 0.18533951883108885
319.0, 0.18305711336712835
320.0, 0.17927692475084492
321.0, 0.18039884000206907
322.0, 0.1762265162415321
323.0, 0.16599683299826173
324.0, 0.1552136886473458
325.0, 0.14619064431247986
326.0, 0.12828976585524784
327.0, 0.11511262178996903
328.0, 0.10301999451339901
329.0, 0.0894151073154625
330.0, 0.08133269818975318
331.0, 0.0678592033760456
332.0, 0.056767226303606456
333.0, 0.04831134371293117
334.0, 0.04016935522447013
335.0, 0.03300992319299683
336.0, 0.02432407483319308
337.0, 0.016135160668585467
338.0, 0.011706751223095838
339.0, 0.010421792271142873
340.0, 0.007810862095159351
341.0, 0.0028104604360214094
342.0, 0.0021607135207964393
343.0, 0.0030464123935613416
344.0, 0.0014440139268522881
345.0, 0.0023921053037424494
346.0, 0.002039318197076781
347.0, 0.0028838907072083397
348.0, 0.0027540697618775845
349.0, 0.0054177654806552185
350.0, 0.01065501340292999
351.0, 0.010879119809166653
352.0, 0.009797781557448104
353.0, 0.012925517003942013
354.0, 0.018494441456153934
355.0, 0.017685761066142225
356.0, 0.017865039118438366
357.0, 0.015685164409539654
358.0, 0.013748670212240783
359.0, 0.015884226144735187
360.0, 0.021490688597712155
361.0, 0.023644512231374402
362.0, 0.023990840907765865
363.0, 0.029692863348101062
364.0, 0.03602733229355702
365.0, 0.03534377671828637
366.0, 0.037061192222289235
367.0, 0.04518341301302422
368.0, 0.050312376237838664
369.0, 0.05176430686946274
370.0, 0.05344378404619751
371.0, 0.05191128926574697
372.0, 0.05042664606918007
373.0, 0.044323807125516916
374.0, 0.035859120939953276
375.0, 0.030877516434394285
376.0, 0.028813165690492214
377.0, 0.01882277260796161
378.0, 0.017063414677546813
379.0, 0.01649510901045157
380.0, 0.01138446685923522
381.0, 0.007851408100185229
382.0, 0.004865228709284081
383.0, 0.0018191321014804362
384.0, 0.0005546377608265829
385.0, 0.0015410006248857272
386.0, 0.0025110276974384905
387.0, 0.0015237997336743924
388.0, 0.00027631761795130513
389.0, 0.004408484152686205
390.0, 0.007960826126769509
391.0, 0.005439118186523238
392.0, 0.0068646795931555146
393.0, 0.00843672804410918
394.0, 0.008882418577996844
395.0, 0.008704309646080943
396.0, 0.008650500283337434
397.0, 0.008862437678662047
398.0, 0.007662261134888632
399.0, 0.005455354255852288
400.0, 0.006390010072637266
401.0, 0.008726794815558877
402.0, 0.006489448772659085
403.0, 0.0013278692123193804
404.0, 0.0029679017522096845
405.0, 0.004169681170256555
406.0, 0.0018366826832942199
407.0, 0.0007279416789702278
408.0, 0.0002779160710761566
409.0, 0.0032230648773504465
410.0, 0.0013622168638647856
411.0, 0.0008532219569920964
412.0, 0.0011572491636358925
413.0, 0.0028236896718019603
414.0, 0.005038556278157722
415.0, 0.002357797942643331
416.0, 7.513521460274828e-05
417.0, 0.00034161043605468466
418.0, 0.000654311545405261
419.0, 0.0029957916598059085
420.0, 0.0024971626180863597
421.0, 0.0026669723904063705
422.0, 0.0037928058104271358
423.0, 0.0011357206315830972
424.0, 0.0013551992146904244
425.0, 0.0008801199299651657
426.0, 0.0008093828347574412
427.0, 0.0004382888135166337
428.0, 0.00048637610780142226
429.0, 0.004128447967421801
430.0, 0.0030316620410371226
431.0, 0.0031965295642543573
432.0, 0.002976063924305607
433.0, 0.003195481724826527
434.0, 0.005320910799218309
435.0, 0.00688701524974354
436.0, 0.009897936531143169
437.0, 0.011486928959925351
438.0, 0.011155149370178443
439.0, 0.012455672827464855
440.0, 0.01793144031488931
441.0, 0.019491479140608028
442.0, 0.020039699656689197
443.0, 0.024730826403887816
444.0, 0.03114581885401905
445.0, 0.03509428396977681
446.0, 0.03744068917527537
447.0, 0.039996192739193644
448.0, 0.045274503803770065
449.0, 0.051619781411494016
450.0, 0.056833121833868884
451.0, 0.06113110362325421
452.0, 0.06805219938344019
453.0, 0.0803567947604043
454.0, 0.09253142626088867
455.0, 0.10714137271557016
456.0, 0.12783401139210293
457.0, 0.15286646189069886
458.0, 0.18017485833838862
459.0, 0.20544104674601932
460.0, 0.23426967939510815
461.0, 0.26570962650363517
462.0, 0.2919711325235592
463.0, 0.3102783357440683
464.0, 0.30955780094860585
465.0, 0.29060113149815947
466.0, 0.25545937604623065
467.0, 0.2131264040433497
468.0, 0.17616600301780527
469.0, 0.14181755250015132
470.0, 0.11056034648705003
471.0, 0.08875947987889232
472.0, 0.07301247215059342
473.0, 0.05888826947005992
474.0, 0.051098427245540035
475.0, 0.042226061738192065
476.0, 0.03385037446415125
477.0, 0.03183407430295672
478.0, 0.030838109248964535
479.0, 0.024153345129316408
480.0, 0.023191989448876155
481.0, 0.018610285426190084
482.0, 0.01662464892205203
483.0, 0.01761858149091516
484.0, 0.018017139681084426
485.0, 0.01512244536241383
486.0, 0.01480272673391222
487.0, 0.015433087042233253
488.0, 0.015276370693791964
489.0, 0.01696160142913918
490.0, 0.019373783714428498
491.0, 0.016180292459919702
492.0, 0.014349103922492336
493.0, 0.014699247410867535
494.0, 0.01848272575261711
495.0, 0.021311030668952523
496.0, 0.020299880181442888
497.0, 0.019403635719771224
498.0, 0.018304483098416115
499.0, 0.01700924706808771
500.0, 0.018124963660141935
501.0, 0.020697764390485353
502.0, 0.020543931892581493
503.0, 0.016097174375433284
504.0, 0.015887068486035185
505.0, 0.01544225154303837
506.0, 0.014327248822863119
507.0, 0.014159852274124444
508.0, 0.015013164289078387
509.0, 0.014834711096089316
510.0, 0.013336860040717055
511.0, 0.015429487160702226
512.0, 0.012921073032934969
513.0, 0.01129944159992481
514.0, 0.010247895024989916
515.0, 0.012240116084781885
516.0, 0.011762470512384103
517.0, 0.013316028394282073
518.0, 0.010651815571013306
519.0, 0.010060155119689461
520.0, 0.011082828034104033
521.0, 0.010649370316963877
522.0, 0.010492396143916841
523.0, 0.007035730015788541
524.0, 0.005195975034547502
525.0, 0.008049716740414013
526.0, 0.010893020235474083
527.0, 0.0075567793458178835
528.0, 0.006215726272126285
529.0, 0.005075722620644087
530.0, 0.0020643538254699234
531.0, 0.0009909189345310718
532.0, 0.004773603806318734
533.0, 0.0048975148917950375
534.0, 0.002843136985592163
535.0, 0.004876358615078609
536.0, 0.0063525331848851676
537.0, 0.006953161624280946
538.0, 0.009307207827966613
539.0, 0.004675172818597329
540.0, 0.0024478097981692694
541.0, 0.004848062555716185
542.0, 0.005909909588963032
543.0, 0.005191061367761885
544.0, 0.00578602277571495
545.0, 0.006323303242768726
546.0, 0.004191258495938709
547.0, 0.007522927378355342
548.0, 0.008105528225242086
549.0, 0.005195578001231527
550.0, 0.005224938023801746
551.0, 0.003392994068629277
552.0, 0.00626950833132741
553.0, 0.00550538595152838
554.0, 0.00434056257070339
555.0, 0.005728997048189897
556.0, 0.006963284164898152
557.0, 0.004383752998776431
558.0, 0.003164082371475399
559.0, 0.004606855741405239
560.0, 0.004973125429676524
561.0, 0.003599114379790164
562.0, 0.003952099233879812
563.0, 0.00571896064463389
564.0, 0.0011619299806114567
565.0, 0.0016128285386916566
566.0, 0.002288730644474109
567.0, 0.0007969994816101263
568.0, 0.0013510922580878065
569.0, 0.0026444592658391125
570.0, 0.003954737242752776
571.0, 0.0008898451114086633
572.0, 0.0011032581189863052
573.0, 0.0011029941230640264
574.0, 0.0033558482364922917
575.0, 0.0022670733492356995
576.0, 0.0032645180325599366
577.0, 0.002145383183381222
578.0, 0.0008956908262442597
579.0, 0.0002100466063650968
580.0, 0.0006401778082035721
581.0, 0.0004087017280238808
582.0, 0.004018587485248728
583.0, 0.0008515996435457297
584.0, 5.294275099078711e-05
585.0, 0.0008184173604935653
586.0, 0.0007365358762076348
587.0, 0.0007789581857859555
588.0, 0.002811021550212354
589.0, 0.0004808866203879232
590.0, 0.002001890356271856
591.0, 0.003684263153707585
592.0, 0.0017767797360925962
593.0, 0.00079702340978509
594.0, 0.0006120782629869582
595.0, 0.001217713854170423
596.0, 0.00043319884784025117
597.0, 0.001142346347140413
598.0, 0.0034372478454515435
599.0, 0.003673655887885171
600.0, 0.002969172306728476
601.0, 0.005583499669559919
602.0, 0.005841051953724208
603.0, 0.005615633188239384
604.0, 0.00581034714948963
605.0, 0.0057748432776064
606.0, 0.006941533742370514
607.0, 0.009534501929466645
608.0, 0.009505780266649527
609.0, 0.011043003917693472
610.0, 0.01106544308412718
611.0, 0.011400704134073262
612.0, 0.0118316199805255
613.0, 0.012759781701159323
614.0, 0.016228804153696697
615.0, 0.01844919233066976
616.0, 0.02010462321340048
617.0, 0.020764473801726142
618.0, 0.022772972919909727
619.0, 0.02623482134104986
620.0, 0.030250691724743855
621.0, 0.03628963090319021
622.0, 0.04064201312010729
623.0, 0.04278405534785711
624.0, 0.047405512026914155
625.0, 0.052572430436478024
626.0, 0.05628571950036752
627.0, 0.06080190340140288
628.0, 0.06388727634625808
629.0, 0.06763096615457281
630.0, 0.07510246561804702
631.0, 0.08013468922331109
632.0, 0.08282684828413178
633.0, 0.08665950695600523
634.0, 0.09002757356779925
635.0, 0.0940207816576332
636.0, 0.09813208800198822
637.0, 0.0999845773136713
638.0, 0.09815889812842027
639.0, 0.0968026005664508
640.0, 0.09704329888618932
641.0, 0.09368605079968224
642.0, 0.09035501224634887
643.0, 0.08483862467985359
644.0, 0.08725648299726937
645.0, 0.08890815139275797
646.0, 0.08637874119493413
647.0, 0.08391301228024733
648.0, 0.08247535525224527
649.0, 0.08548351777415182
650.0, 0.08252405575819724
651.0, 0.08657842800086615
652.0, 0.09020199445111811
653.0, 0.0894160233032102
654.0, 0.08999300890981725
655.0, 0.09275348982818797
656.0, 0.09777819806791975
657.0, 0.10149547023496837
658.0, 0.10549721676448334
659.0, 0.11126799511399293
660.0, 0.11682822642138187
661.0, 0.12167230407377772
662.0, 0.13009421882183392
663.0, 0.1409948489780363
664.0, 0.1453630100341942
665.0, 0.15363647836621638
666.0, 0.16911390300133008
667.0, 0.18626432587488445
668.0, 0.20096780427996175
669.0, 0.21866236046624266
670.0, 0.2415244925400605
671.0, 0.26331308016111454
672.0, 0.28957366886521946
673.0, 0.31935490263066474
674.0, 0.3517219396915458
675.0, 0.38725631173404085
676.0, 0.41909223926369304
677.0, 0.4464456772093948
678.0, 0.4748014105853768
679.0, 0.4996792682142328
680.0, 0.5193214122327865
681.0, 0.530044693961805
682.0, 0.5277245701385379
683.0, 0.515505118131343
684.0, 0.503969798455415
685.0, 0.47930271558807536
686.0, 0.4503804310150872
687.0, 0.4221647503762626
688.0, 0.39047195501969467
689.0, 0.3494015330170279
690.0, 0.33841680281229686
691.0, 0.2916835434016042
692.0, 0.26377434305998737
693.0, 0.23713114765410476
694.0, 0.2086247162179119
695.0, 0.18511718005042335
696.0, 0.16096959825369828
697.0, 0.1409067228463874
698.0, 0.11801108405894828
699.0, 0.1016301165076703
700.0, 0.0879301874844115
701.0, 0.07868600308290508
702.0, 0.06651180884428357
703.0, 0.05269671569544748
704.0, 0.048889301479865775
705.0, 0.04379416909808599
706.0, 0.03497762886962727
707.0, 0.03194134078960008
708.0, 0.029310338526601136
709.0, 0.025911289250213895
710.0, 0.021580178279433586
711.0, 0.01691285551555166
712.0, 0.0146597305655579
713.0, 0.013276086802348402
714.0, 0.009594409677052957
715.0, 0.009420590546601186
716.0, 0.00836725842006034
717.0, 0.006416850122725951
718.0, 0.006060511544452365
719.0, 0.00628262569022563
720.0, 0.004491740615439042
721.0, 0.007700904046744048
722.0, 0.0034722740241367664
723.0, 0.0017317180970328847
724.0, 0.0008440024486130885
725.0, 0.0008719729286353532
726.0, 0.0036601805117504405
727.0, 0.0030375963811926626
728.0, 0.0009715410989082321
729.0, 0.0018031894264875783
730.0, 0.0007840575296111005
731.0, 0.00025066526809292596
732.0, 0.0005664913399930738
733.0, 0.0019898265608430856
734.0, 0.001623007415359131
735.0, 0.0011768963681633383
736.0, 0.0014867378366758895
737.0, 0.002815517762521465
738.0, 0.0016814093299339623
739.0, 0.001981619107217746
740.0, 0.0011988731582455064
741.0, 0.0019364205647841688
742.0, 0.000503698379543991
743.0, 0.0016199846945318247
744.0, 0.00042757593619208845
745.0, 0.0004385829783462601
746.0, 0.0008548372928494849
747.0, 0.00043013791896939757
748.0, 0.001983260048001811
749.0, 0.0017617897378073431
750.0, 0.00018324099279440743
751.0, 0.00010071951589289165
752.0, 0.0009891530110906121
753.0, 0.001292419184503469
754.0, 0.0013578735846618598
755.0, 0.0009561838033638439
756.0, 0.0002575454229698452
757.0, 0.002782090137716778
758.0, 9.879891864611549e-05
759.0, 0.0008375774032607834
760.0, 0.001978589959573532
761.0, 0.0004933632801377769
762.0, 0.0006274832689869574
763.0, 0.0006329557290107315
764.0, 0.0008154258412014983
765.0, 0.00017925065424242265
766.0, 0.0004973960665524385
767.0, 0.0003067155485151182
768.0, 0.0020695585711289015
769.0, 0.005678474068148591
770.0, 0.005474134791268911
771.0, 0.0038653169441937385
772.0, 0.0034305957650537042
773.0, 0.0033747773372371486
774.0, 0.0028315714636199868
775.0, 0.0029641057513912733
776.0, 0.005452112791184126
777.0, 0.005567716558069601
778.0, 0.006089455101349456
779.0, 0.006574609518098994
780.0, 0.006107043588651061
781.0, 0.006677851533117952
782.0, 0.010008716693814307
783.0, 0.012333534733566645
784.0, 0.010166332687021
785.0, 0.012179117712636037
786.0, 0.012188523196146368
787.0, 0.009749330466210675
788.0, 0.009979556588946207
789.0, 0.01261860942195621
790.0, 0.014770155167436842
791.0, 0.017490618944189285
792.0, 0.014257180922623035
793.0, 0.015665570259878345
794.0, 0.015839577591244835
795.0, 0.015260487248225936
796.0, 0.01756520011867317
797.0, 0.02094033353806123
798.0, 0.020593383964593027
799.0, 0.018431118805151036
800.0, 0.018372345918502987
801.0, 0.016504827197513644
802.0, 0.015976792997589778
803.0, 0.014750295950775046
804.0, 0.016029071642424765
805.0, 0.014670731009356118
806.0, 0.016207420242620403
807.0, 0.014536615317280833
808.0, 0.015370491450827306
809.0, 0.015423014381407429
810.0, 0.014087142327638764
811.0, 0.014565083791884996
812.0, 0.011550199770718101
813.0, 0.009965195751931407
814.0, 0.010232920357121837
815.0, 0.008993272887877265
816.0, 0.009994268229861387
817.0, 0.007662835767947051
818.0, 0.007127791386288368
819.0, 0.010707279365377735
820.0, 0.009222810559214393
821.0, 0.008063251608286451
822.0, 0.008873015012066892
823.0, 0.007869682543968392
824.0, 0.005500048968189943
825.0, 0.007271382568072318
826.0, 0.0069602541193082255
827.0, 0.008739183838795982
828.0, 0.006451474330650103
829.0, 0.005407270417256917
830.0, 0.005720926933004916
831.0, 0.003975996799077471
832.0, 0.0018165645922678085
833.0, 0.003226827539103644
834.0, 0.005208767145524447
835.0, 0.003808576096275773
836.0, 0.0010103311158606444
837.0, 0.0006352857672500926
838.0, 0.004785566099859126
839.0, 0.002680797395108739
840.0, 0.0007679985216439077
841.0, 0.004017283737286889
842.0, 0.0031913201083529977
843.0, 0.0042198511312067895
844.0, 0.0038485315843666086
845.0, 0.0021063050993489693
846.0, 0.0028260059897401847
847.0, 0.0035394882036202447
848.0, 0.003510680637652579
849.0, 0.0022287282739012902
850.0, 0.0002863305539427813
851.0, 0.000580628175200688
852.0, 0.003781692890981632
853.0, 0.0031859698156978112
854.0, 0.0026238838912533186
855.0, 0.0005597159433481446
856.0, 0.0007404838336753166
857.0, 0.0014969800290902978
858.0, 0.0005899748484092621
859.0, 0.0009626996212630381
860.0, 0.003716556925937911
861.0, 0.0032094584918069173
862.0, 0.0026026998893423398
863.0, 0.0032989060923616803
864.0, 0.0023092467408017056
865.0, 0.0039568181405908
866.0, 0.0020772262645820765
867.0, 0.0005878295882199436
868.0, 0.0006253698827192464
869.0, 0.002639956385031305
870.0, 0.003022288677305731
871.0, 0.003420854208785302
872.0, 0.004428056438964149
873.0, 0.005728934524104587
874.0, 0.003751936982416899
875.0, 0.003179400443939362
876.0, 0.004000560189761178
877.0, 0.002957084144586487
878.0, 0.0033551867849566067
879.0, 0.0045823717329647705
880.0, 0.0005591276349341827
881.0, 0.0034042972975586202
882.0, 0.004163461399277901
883.0, 0.007060141678005343
884.0, 0.004396291615330245
885.0, 0.0008477140675683992
886.0, 0.004015239614239962
887.0, 0.007049991096737759
888.0, 0.004864860030754496
889.0, 0.004271058992321385
890.0, 0.006760243321419149
891.0, 0.006185426665264357
892.0, 0.006090562608834619
893.0, 0.008142378117389494
894.0, 0.005025180815833152
895.0, 0.00507126682014477
896.0, 0.005533951158181387
897.0, 0.004862544088232949
898.0, 0.005666221070436347
899.0, 0.006747416744613512
900.0, 0.005851278313683597
901.0, 0.005233154354427368
902.0, 0.00148520360528301
903.0, 0.0066812652108846375
904.0, 0.0054112511269575935
905.0, 0.003708292373597826
906.0, 0.00461156758401891
907.0, 0.005692297851277747
908.0, 0.008184956595035526
909.0, 0.010156823364257102
910.0, 0.005502922409930124
911.0, 0.003933749220184179
912.0, 0.00627000257282422
913.0, 0.00667919948166003
914.0, 0.0031785519353132977
915.0, 0.004602637641536993
916.0, 0.0058636246774515805
917.0, 0.004530750732562629
918.0, 0.002076484135671073
919.0, 0.0008948414402257968
920.0, 0.0035239777737871634
921.0, 0.004765567855490869
922.0, 0.0041930778389247785
923.0, 0.003534990856941851
924.0, 0.003946971112721383
925.0, 0.0035925578304202978
926.0, 0.0035099018952519027
927.0, 0.0008516306260749373
928.0, 0.0009640042068340901
929.0, 0.0013147484664323785
930.0, 0.003770350458546217
931.0, 0.0041775676836660475
932.0, 0.00483660330721341
933.0, 0.0034481582403469197
934.0, 0.003049226805560292
935.0, 0.0035458829813000492
936.0, 0.0012393703623869107
937.0, 0.0014829429697434395
938.0, 0.0027888860050300844
939.0, 0.001922886599673479
940.0, 0.0010935672600560034
941.0, 0.0013056385942850973
942.0, 0.0013538173292134304
943.0, 0.0012082815647092495
944.0, 0.00312309044216452
945.0, 0.002209754213911678
946.0, 0.00010392740990501898
947.0, 1.785939740578161e-05
948.0, 0.00048543320040153186
949.0, 0.0004992122589461822
950.0, 0.0010506188444931153
951.0, 0.001045441722827487
952.0, 0.0008995908318322558
953.0, 0.003913393466416392
954.0, 0.0021309747063841676
955.0, 0.0007757798874264532
956.0, 0.001138208593057541
957.0, 0.0007574590633452811
958.0, 0.0007609016843869816
959.0, 0.001698033539320746
960.0, 0.0007194347698075824
961.0, 0.0013777460348589348
962.0, 0.003022739595096772
963.0, 0.0031752111036577736
964.0, 0.0012364866400369527
965.0, 0.0009011057861551566
966.0, 0.0024397944073017244
967.0, 0.00031034541569081745
968.0, 0.0021689243075740856
969.0, 0.0038135221532873
970.0, 0.002072488646460983
971.0, 0.0009537982198462021
972.0, 0.0021245362867000858
973.0, 0.004621699676883983
974.0, 0.005769796067084189
975.0, 0.005204382952570742
976.0, 0.006346683402255937
977.0, 0.005984791867268667
978.0, 0.00415856549878624
979.0, 0.006183902954047199
980.0, 0.007117028774597136
981.0, 0.005851347322889474
982.0, 0.010933188252912073
983.0, 0.007236555028348544
984.0, 0.00828232424608161
985.0, 0.011041136030169279
986.0, 0.008667575165798518
987.0, 0.0051652124522911305
988.0, 0.003957140468496794
989.0, 0.008681014860528444
990.0, 0.006090745994672437
991.0, 0.003026670524968294
992.0, 0.005988801620480604
993.0, 0.00422630030371197
994.0, 0.00518531528423322
995.0, 0.008753390383228376
996.0, 0.013636971072602673
997.0, 0.01466272887490486
998.0, 0.01378076867635
999.0, 0.014754915965536335
1000.0, 0.014243913729333937
1001.0, 0.016212016397535407
1002.0, 0.0199878658209116
1003.0, 0.01915530762351423
1004.0, 0.02074852757493603
1005.0, 0.021851836510956592
1006.0, 0.020622367426696202
1007.0, 0.021032603769524
1008.0, 0.02481804607412941
1009.0, 0.024205376616874098
1010.0, 0.02492936374507447
1011.0, 0.02727166086247814
1012.0, 0.023069591092235327
1013.0, 0.0207913977260814
1014.0, 0.02345264441134103
1015.0, 0.022808449147922516
1016.0, 0.021438135553571554
1017.0, 0.020498685504053177
1018.0, 0.023582113359093083
1019.0, 0.01842247208720778
1020.0, 0.01704259047062108
1021.0, 0.019420019183326125
1022.0, 0.02056018014799413
1023.0, 0.022164344413116356
1024.0, 0.027580723758717087
1025.0, 0.03543755753772882
1026.0, 0.041717314918109386
1027.0, 0.04525322442247581
1028.0, 0.05341429416047297
1029.0, 0.06831087043639669
1030.0, 0.078499355183759
1031.0, 0.0875177257903959
1032.0, 0.0895750735819539
1033.0, 0.09687822018752688
1034.0, 0.09778672141086397
1035.0, 0.09405450786142357
1036.0, 0.08977608053236674
1037.0, 0.0820683453744443
1038.0, 0.07359387322305791
1039.0, 0.06726306493677771
1040.0, 0.05811417775174917
1041.0, 0.04737907441450753
1042.0, 0.04314090225130704
1043.0, 0.03659891188475094
1044.0, 0.029278235714672925
1045.0, 0.02347019690601643
1046.0, 0.022439829283842107
1047.0, 0.01932053659127655
1048.0, 0.016692179674027873
1049.0, 0.01697722443797053
1050.0, 0.016167698755365483
1051.0, 0.013794492226850185
1052.0, 0.011784166643924782
1053.0, 0.009304438527373575
1054.0, 0.007850915802872165
1055.0, 0.011066287606106675
1056.0, 0.010021464562145274
1057.0, 0.007436546324435486
1058.0, 0.009905338452934577
1059.0, 0.00905574121612294
1060.0, 0.009674478387457748
1061.0, 0.0081087627957273
1062.0, 0.007717108918144596
1063.0, 0.00717532299698191
1064.0, 0.006200744115803606
1065.0, 0.007050086499683093
1066.0, 0.008271371646570873
1067.0, 0.008788626568302272
1068.0, 0.00975988426367428
1069.0, 0.009369018548076959
1070.0, 0.007797202648089968
1071.0, 0.007382571108262461
1072.0, 0.007246751348262467
1073.0, 0.008566720296909707
1074.0, 0.008182144688134047
1075.0, 0.009244870971146627
1076.0, 0.01045302176599816
1077.0, 0.01315428256196503
1078.0, 0.013570300071258529
1079.0, 0.014549056428317199
1080.0, 0.01566243291171454
1081.0, 0.015561652330398084
1082.0, 0.01636967726496283
1083.0, 0.017860561087058344
1084.0, 0.01770224528012521
1085.0, 0.016218484320782663
1086.0, 0.02065196450943775
1087.0, 0.022578924505158467
1088.0, 0.01939109055449486
1089.0, 0.02078142155807698
1090.0, 0.022559692724311388
1091.0, 0.01956158536010747
1092.0, 0.021277108732060093
1093.0, 0.024052364583958673
1094.0, 0.02570344094228305
1095.0, 0.024489967540677993
1096.0, 0.023584180590203827
1097.0, 0.025022073880419927
1098.0, 0.024682156149621024
1099.0, 0.022475808799966586
1100.0, 0.022686794354651298
1101.0, 0.023646701966277186
1102.0, 0.023334325564564343
1103.0, 0.022330313909888325
1104.0, 0.020218699493488874
1105.0, 0.019195758154834666
1106.0, 0.01642324596569446
1107.0, 0.015718189159582507
1108.0, 0.014865510155974284
1109.0, 0.014209382865676232
1110.0, 0.013935584530237131
1111.0, 0.00982644029049592
1112.0, 0.014622894596345542
1113.0, 0.01014320584678571
1114.0, 0.009647835430135249
1115.0, 0.009552879336629308
1116.0, 0.007870212369103348
1117.0, 0.007093497086535312
1118.0, 0.007649835768297316
1119.0, 0.002925390629512228
1120.0, 0.0044338170818611295
1121.0, 0.0017300194661266765
1122.0, 0.0029748509736043064
1123.0, 0.0020081968225215126
1124.0, 0.0009514629876204938
1125.0, 0.001338729190470146
1126.0, 0.0023003544185504605
1127.0, 0.0017314924954234963
1128.0, 0.0027593311033027217
1129.0, 0.0012642364547494173
1130.0, 0.00055290920231157
1131.0, 0.0005334520698001949
1132.0, 0.0009108329236762907
1133.0, 0.0009245030915985015
1134.0, 0.0016475483005240548
1135.0, 0.0006677033800200525
1136.0, 0.0005475489158862061
1137.0, 0.00218719901793499
1138.0, 0.0005516149467215929
1139.0, 0.000954975448860816
1140.0, 0.000473676177850795
1141.0, 0.0009465937288993631
1142.0, 0.0012069580987525237
1143.0, 0.0007762649402324899
1144.0, 0.0013654559672783952
1145.0, 0.002038747595312452
1146.0, 0.0011018618819773245
1147.0, 0.0035084657226634834
1148.0, 0.0025367038038582278
1149.0, 0.0007472765451151913
1150.0, 9.62060036696154e-05
1151.0, 0.0017269228191220004
1152.0, 0.0021103036905466685
1153.0, 0.0017386210493826404
1154.0, 0.0022781258660713954
1155.0, 0.003994453314628891
1156.0, 0.006957956339121431
1157.0, 0.006564411656810629
1158.0, 0.006421700764868569
1159.0, 0.00811914468543878
1160.0, 0.010677272005304262
1161.0, 0.007068046382529758
1162.0, 0.004732663620886059
1163.0, 0.00446674032341668
1164.0, 0.0024076651252813957
1165.0, 0.00218052128872888
1166.0, 0.0017100457470352163
1167.0, 0.003757239722205515
1168.0, 0.0034191071355931997
1169.0, 0.0009635722065917233
1170.0, 0.00023588850683268163
1171.0, 0.002854510395915617
1172.0, 0.0036032497791880433
1173.0, 0.0011769016714242705
1174.0, 0.004418384894379302
1175.0, 0.006351925142760403
1176.0, 0.00371155422209323
1177.0, 0.004159394613432486
1178.0, 0.001991579914817019
1179.0, 0.0027414498654963577
1180.0, 0.005200534306753514
1181.0, 0.005437775316855312
1182.0, 0.004698738435255002
1183.0, 0.005221243115470033
1184.0, 0.0034621320844783225
1185.0, 0.005985550076965364
1186.0, 0.002510785211887534
1187.0, 0.004042914684571021
1188.0, 0.0032206529276974927
1189.0, 0.0016761989117646087
1190.0, 0.0020953257335679146
1191.0, 0.0034061864674325994
1192.0, 0.004921970005314591
1193.0, 0.004112883143064494
1194.0, 0.0026542917384334325
1195.0, 0.002925102020738214
1196.0, 0.005658935862187568
1197.0, 0.004256255035025896
1198.0, 0.0036701777800048963
1199.0, 0.005543668345903484
1200.0, 0.005252483911188071
1201.0, 0.002716773813396113
1202.0, 0.0016901686781620514
1203.0, 0.002648349345714953
1204.0, 0.0011790382200780676
1205.0, 0.0014550113025998679
1206.0, 0.0009531650499773501
1207.0, 0.004742106313948424
1208.0, 0.004042059602963218
1209.0, 0.006852439098558225
1210.0, 0.005970518164391963
1211.0, 0.0011940645853094798
1212.0, 0.006746526134653129
1213.0, 0.0033613549951451265
1214.0, 0.00555533554855539
1215.0, 0.008763914784276869
1216.0, 0.008664932182023372
1217.0, 0.0059529998473231245
1218.0, 0.004419006385109117
1219.0, 0.004053606875506191
1220.0, 0.0034502382335261823
1221.0, 0.003222328878754565
1222.0, 0.003071331809340932
1223.0, 0.005828216280055784
1224.0, 0.005210003955376896
1225.0, 0.0041552199816856
1226.0, 0.004560188974630528
1227.0, 0.004554298557629746
1228.0, 0.00424392915260976
1229.0, 0.0033348017118082648
1230.0, 0.004018938400082254
1231.0, 0.004236096898206945
1232.0, 0.0034568599626042403
1233.0, 0.004313896963365237
1234.0, 0.0016112813680431357
1235.0, 0.00035205094869905456
1236.0, 0.0014990309397368456
1237.0, 0.0002362509844019323
1238.0, 0.0010352224266158298
1239.0, 0.005238886751439793
1240.0, 0.0024911913629964777
1241.0, 0.002801218933928249
1242.0, 0.005212912624996975
1243.0, 0.004058692482032007
1244.0, 0.003580297183430667
1245.0, 0.005886742870515013
1246.0, 0.0034682007421282285
1247.0, 0.003249580992598026
1248.0, 0.0023826489431468065
1249.0, 0.0014485646065911324
1250.0, 0.002914748689497753
1251.0, 0.003064366251355575
1252.0, 0.0018668154533073992
1253.0, 0.00027041774375967024
1254.0, 0.0012372165082099877
1255.0, 0.0006667475243276656
1256.0, 0.0028081596439167933
1257.0, 0.002586182562211646
1258.0, 0.0025869774486731146
1259.0, 0.002058419623645479
1260, 0.0
1261, 0.0
1262, 0.0
1263, 0.0
1264, 0.0
1265, 0.0
1266, 0.0
1267, 0.0
1268, 0.0
1269, 0.0
1270, 0.0
1271, 0.0
1272, 0.0
1273, 0.0
1274, 0.0
1275, 0.0
1276, 0.0
1277, 0.0
1278, 0.0
1279, 0.0
1280, 0.0
1281, 0.0
1282, 0.0
1283, 0.0
1284, 0.0
1285, 0.0
1286, 0.0
1287, 0.0
1288, 0.0
1289, 0.0
1290, 0.0
1291, 0.0
1292, 0.0
1293, 0.0
1294, 0.0
1295, 0.0
1296, 0.0
1297, 0.0
1298, 0.0
1299, 0.0
1300, 0.0
1301, 0.0
1302, 0.0
1303, 0.0
1304, 0.0
1305, 0.0
1306, 0.0
1307, 0.0
1308, 0.0
1309, 0.0
1310, 0.0
1311, 0.0
1312, 0.0
1313, 0.0
1314, 0.0
1315, 0.0
1316, 0.0
1317, 0.0
1318, 0.0
1319, 0.0
1320, 0.0
1321, 0.0
1322, 0.0
1323, 0.0
1324, 0.0
1325, 0.0
1326, 0.0
1327, 0.0
1328, 0.0
1329, 0.0
1330, 0.0
1331, 0.0
1332, 0.0
1333, 0.0
1334, 0.0
1335, 0.0
1336, 0.0
1337, 0.0
1338, 0.0
1339, 0.0
1340, 0.0
1341, 0.0
1342, 0.0
1343, 0.0
1344, 0.0
1345, 0.0
1346, 0.0
1347, 0.0
1348, 0.0
1349, 0.0
1350, 0.0
1351, 0.0
1352, 0.0
1353, 0.0
1354, 0.0
1355, 0.0
1356, 0.0
1357, 0.0
1358, 0.0
1359, 0.0
1360, 0.0
1361, 0.0
1362, 0.0
1363, 0.0
1364, 0.0
1365, 0.0
1366, 0.0
1367, 0.0
1368, 0.0
1369, 0.0
1370, 0.0
1371, 0.0
1372, 0.0
1373, 0.0
1374, 0.0
1375, 0.0
1376, 0.0
1377, 0.0
1378, 0.0
1379, 0.0
1380, 0.0
1381, 0.0
1382, 0.0
1383, 0.0
1384, 0.0
1385, 0.0
1386, 0.0
1387, 0.0
1388, 0.0
1389, 0.0
1390, 0.0
1391, 0.0
1392, 0.0
1393, 0.0
1394, 0.0
1395, 0.0
1396, 0.0
1397, 0.0
1398, 0.0
1399, 0.0
1400, 0.0
1401, 0.0
1402, 0.0
1403, 0.0
1404, 0.0
1405, 0.0
1406, 0.0
1407, 0.0
1408, 0.0
1409, 0.0
1410, 0.0
1411, 0.0
1412, 0.0
1413, 0.0
1414, 0.0
1415, 0.0
1416, 0.0
1417, 0.0
1418, 0.0
1419, 0.0
1420, 0.0
1421, 0.0
1422, 0.0
1423, 0.0
1424, 0.0
1425, 0.0
1426, 0.0
1427, 0.0
1428, 0.0
1429, 0.0
1430, 0.0
1431, 0.0
1432, 0.0
1433, 0.0
1434, 0.0
1435, 0.0
1436, 0.0
1437, 0.0
1438, 0.0
1439, 0.0
1440, 0.0
1441, 0.0
1442, 0.0
1443, 0.0
1444, 0.0
1445, 0.0
1446, 0.0
1447, 0.0
1448, 0.0
1449, 0.0
1450, 0.0
1451, 0.0
1452, 0.0
1453, 0.0
1454, 0.0
1455, 0.0
1456, 0.0
1457, 0.0
1458, 0.0
1459, 0.0
1460, 0.0
1461, 0.0
1462, 0.0
1463, 0.0
1464, 0.0
1465, 0.0
1466, 0.0
1467, 0.0
1468, 0.0
1469, 0.0
1470, 0.0
1471, 0.0
1472, 0.0
1473, 0.0
1474, 0.0
1475, 0.0
1476, 0.0
1477, 0.0
1478, 0.0
1479, 0.0
1480, 0.0
1481, 0.0
1482, 0.0
1483, 0.0
1484, 0.0
1485, 0.0
1486, 0.0
1487, 0.0
1488, 0.0
1489, 0.0
1490, 0.0
1491, 0.0
1492, 0.0
1493, 0.0
1494, 0.0
1495, 0.0
1496, 0.0
1497, 0.0
1498, 0.0
1499, 0.0
1500, 0.0
1501, 0.0
1502, 0.0
1503, 0.0
1504, 0.0
1505, 0.0
1506, 0.0
1507, 0.0
1508, 0.0
1509, 0.0
1510, 0.0
1511, 0.0
1512, 0.0
1513, 0.0
1514, 0.0
1515, 0.0
1516, 0.0
1517, 0.0
1518, 0.0
1519, 0.0
1520, 0.0
1521, 0.0
1522, 0.0
1523, 0.0
1524, 0.0
1525, 0.0
1526, 0.0
1527, 0.0
1528, 0.0
1529, 0.0
1530, 0.0
1531, 0.0
1532, 0.0
1533, 0.0
1534, 0.0
1535, 0.0
1536, 0.0
1537, 0.0
1538, 0.0
1539, 0.0
1540, 0.0
1541, 0.0
1542, 0.0
1543, 0.0
1544, 0.0
1545, 0.0
1546, 0.0
1547, 0.0
1548, 0.0
1549, 0.0
1550, 0.0
1551, 0.0
1552, 0.0
1553, 0.0
1554, 0.0
1555, 0.0
1556, 0.0
1557, 0.0
1558, 0.0
1559, 0.0
1560, 0.0
1561, 0.0
1562, 0.0
1563, 0.0
1564, 0.0
1565, 0.0
1566, 0.0
1567, 0.0
1568, 0.0
1569, 0.0
1570, 0.0
1571, 0.0
1572, 0.0
1573, 0.0
1574, 0.0
1575, 0.0
1576, 0.0
1577, 0.0
1578, 0.0
1579, 0.0
1580, 0.0
1581, 0.0
1582, 0.0
1583, 0.0
1584, 0.0
1585, 0.0
1586, 0.0
1587, 0.0
1588, 0.0
1589, 0.0
1590, 0.0
1591, 0.0
1592, 0.0
1593, 0.0
1594, 0.0
1595, 0.0
1596, 0.0
1597, 0.0
1598, 0.0
1599, 0.0
