30, 0.0
31, 0.0
32, 0.0
33, 0.0
34, 0.0
35, 0.0
36, 0.0
37, 0.0
38, 0.0
39, 0.0
40, 0.0
41, 0.0
42, 0.0
43, 0.0
44, 0.0
45, 0.0
46, 0.0
47, 0.0
48, 0.0
49, 0.0
50, 0.0
51, 0.0
52, 0.0
53, 0.0
54, 0.0
55, 0.0
56, 0.0
57, 0.0
58, 0.0
59, 0.0
60, 0.0
61, 0.0
62, 0.0
63, 0.0
64, 0.0
65, 0.0
66, 0.0
67, 0.0
68, 0.0
69, 0.0
70, 0.0
71, 0.0
72, 0.0
73, 0.0
74, 0.0
75, 0.0
76, 0.0
77, 0.0
78, 0.0
79, 0.0
80, 0.0
81, 0.0
82, 0.0
83, 0.0
84, 0.0
85, 0.0
86, 0.0
87, 0.0
88, 0.0
89, 0.0
90, 0.0
91, 0.0
92, 0.0
93, 0.0
94, 0.0
95, 0.0
96, 0.0
97, 0.0
98, 0.0
99, 0.0
100, 0.0
101, 0.0
102, 0.0
103, 0.0
104, 0.0
105, 0.0
106, 0.0
107, 0.0
108, 0.0
109, 0.0
110, 0.0
111, 0.0
112, 0.0
113, 0.0
114, 0.0
115, 0.0
116, 0.0
117, 0.0
118, 0.0
119, 0.0
120, 0.0
121, 0.0
122, 0.0
123, 0.0
124, 0.0
125, 0.0
126, 0.0
127, 0.0
128, 0.0
129, 0.0
130, 0.0
131, 0.0
132, 0.0
133, 0.0
134, 0.0
135, 0.0
136, 0.0
137, 0.0
138, 0.0
139, 0.0
140, 0.0
141, 0.0
142, 0.0
143, 0.0
144, 0.0
145, 0.0
146, 0.0
147, 0.0
148, 0.0
149, 0.0
150, 0.0
151, 0.0
152, 0.0
153, 0.0
154, 0.0
155, 0.0
156, 0.0
157, 0.0
158, 0.0
159.0, 0.004625639210202197
160.0, 0.01903573020771692
161.0, 0.006936434759840418
162.0, 0.004474448352685522
163.0, 0.010669156042964973
164.0, 0.012499916328533832
165.0, 0.016510999858790516
166.0, 0.018745859625580612
167.0, 0.017272190703407
168.0, 0.03462795931089574
169.0, 0.043384918194340344
170.0, 0.049410460561810234
171.0, 0.06386716738315741
172.0, 0.0748695602890562
173.0, 0.0907548403499383
174.0, 0.11255955930158665
175.0, 0.1292768007707471
176.0, 0.14940794254072598
177.0, 0.172405306469386
178.0, 0.19843346330595385
179.0, 0.2288123921741747
180.0, 0.26245343422834977
181.0, 0.2975562571764815
182.0, 0.32752375660078864
183.0, 0.36753034552840236
184.0, 0.40540865018302674
185.0, 0.43572192829811
186.0, 0.4728145396105916
187.0, 0.5001886994150987
188.0, 0.5143590214811045
189.0, 0.5057990042011449
190.0, 0.5120144956453208
191.0, 0.5024707696817537
192.0, 0.4745769442379776
193.0, 0.4545052999471888
194.0, 0.43091947365144484
195.0, 0.4077032848047346
196.0, 0.38784434957183533
197.0, 0.34909656615884704
198.0, 0.31805465331741906
199.0, 0.29613194768104995
200.0, 0.2859986882576039
201.0, 0.27385845932915887
202.0, 0.2578379377775374
203.0, 0.23739128066733986
204.0, 0.21633654240488187
205.0, 0.19643609097005912
206.0, 0.17879481777303435
207.0, 0.16515167499454525
208.0, 0.1380751943860073
209.0, 0.1340678895382751
210.0, 0.14551279105815618
211.0, 0.13181114086009943
212.0, 0.1164779874969458
213.0, 0.10130705202925827
214.0, 0.08718815115206603
215.0, 0.07863489149310524
216.0, 0.06518400392973898
217.0, 0.05562653126378554
218.0, 0.06322515866636816
219.0, 0.046985764197103444
220.0, 0.036447078959848424
221.0, 0.035620103675023676
222.0, 0.046570114112153435
223.0, 0.03811318207397605
224.0, 0.024438229975665953
225.0, 0.01196760614432476
226.0, 0.012086352768951952
227.0, 0.015193462978755993
228.0, 0.016131487606582333
229.0, 0.006336067110928637
230.0, 0.009875684968948927
231.0, 0.01197689681419468
232.0, 0.011978571398145494
233.0, 0.017151301368643675
234.0, 0.008254484345326107
235.0, 0.0021622353869692086
236.0, 0.007178944281153723
237.0, 0.007558218702350397
238.0, 0.004368584214658234
239.0, 0.002819510774015155
240.0, 0.011187126165625637
241.0, 0.007037356876982585
242.0, 0.0052682506505579065
243.0, 0.0063944265174521436
244.0, 0.0038155414531981574
245.0, 0.006636949266185768
246.0, 0.007024632907664193
247.0, 0.0017911304048638613
248.0, 0.00572773795968811
249.0, 0.009744382111918201
250.0, 0.012263944404583177
251.0, 0.010960928793170665
252.0, 0.012625140463419117
253.0, 0.011701906773480158
254.0, 0.009641891959812693
255.0, 0.013709337054060126
256.0, 0.009679103846405596
257.0, 0.005977223010166718
258.0, 0.005703203421543655
259.0, 0.010533723316677703
260.0, 0.020669683351752427
261.0, 0.027926330722472668
262.0, 0.02394772437552346
263.0, 0.03079526261159876
264.0, 0.02882366156977298
265.0, 0.024974753313966255
266.0, 0.03964035178399404
267.0, 0.04191516658544129
268.0, 0.04244862526057205
269.0, 0.045321477812488166
270.0, 0.06255449943637068
271.0, 0.061236955035018685
272.0, 0.05246537101864232
273.0, 0.04237304147154103
274.0, 0.05356316841362886
275.0, 0.0758190953630469
276.0, 0.09834806058131873
277.0, 0.10354315259411942
278.0, 0.09808244029905239
279.0, 0.09299425020205954
280.0, 0.09000893201635356
281.0, 0.09048924292567442
282.0, 0.08762882776825
283.0, 0.08087942520944803
284.0, 0.0705724638462665
285.0, 0.06765748528648019
286.0, 0.07497110910372529
287.0, 0.07230565633502242
288.0, 0.04030893952193938
289.0, 0.05326443530145235
290.0, 0.042960953566634104
291.0, 0.026803497690409864
292.0, 0.046026700732187065
293.0, 0.04430292018427551
294.0, 0.03081550785635807
295.0, 0.014045602306281447
296.0, 0.028929893566084955
297.0, 0.030066644454303137
298.0, 0.025157718744484102
299.0, 0.01825584187162905
300.0, 0.03062719946441923
301.0, 0.03959270844984737
302.0, 0.03835812737474096
303.0, 0.01886056811049284
304.0, 0.02619878100284603
305.0, 0.039207640311143946
306.0, 0.051012866845669635
307.0, 0.048786066552204285
308.0, 0.06584066711922869
309.0, 0.061479941541455155
310.0, 0.03959758957413024
311.0, 0.05286719921280609
312.0, 0.06520767683587003
313.0, 0.06589107106184279
314.0, 0.052521059351227264
315.0, 0.0632004698292663
316.0, 0.07831199786285192
317.0, 0.08830004778713431
318.0, 0.08459436727551466
319.0, 0.08496594347452364
320.0, 0.08785888187328529
321.0, 0.08901759178568022
322.0, 0.08086195855765135
323.0, 0.08626364814124719
324.0, 0.08576627482926757
325.0, 0.07871604466771076
326.0, 0.07091024146116146
327.0, 0.06575480518680323
328.0, 0.06193631927524606
329.0, 0.05928479009975608
330.0, 0.05917088366285193
331.0, 0.05843286210918718
332.0, 0.060778647363158626
333.0, 0.06832444275383015
334.0, 0.07237752130969144
335.0, 0.07950166072753936
336.0, 0.08333613270089096
337.0, 0.07645111394224957
338.0, 0.06889220817210225
339.0, 0.06916935909206806
340.0, 0.07310523077456256
341.0, 0.07160564863318163
342.0, 0.08274520760383915
343.0, 0.08951792180564537
344.0, 0.09223798593066904
345.0, 0.10210398525928939
346.0, 0.09214443957336962
347.0, 0.09110627799340282
348.0, 0.10356779207286627
349.0, 0.09245517002859235
350.0, 0.09748849044951348
351.0, 0.10621207165471537
352.0, 0.11180581008188441
353.0, 0.11029071450076632
354.0, 0.1143780899277124
355.0, 0.11634259477499843
356.0, 0.10842234245574198
357.0, 0.11776066949039095
358.0, 0.11802050679502905
359.0, 0.112111956576347
360.0, 0.1056745482593002
361.0, 0.11713195204606128
362.0, 0.11901926972713407
363.0, 0.11268558542251653
364.0, 0.10986269818341152
365.0, 0.11811452415523505
366.0, 0.1220359238889609
367.0, 0.11888048061801168
368.0, 0.11167919324403433
369.0, 0.1160436101574641
370.0, 0.12042439353212595
371.0, 0.11981037997965291
372.0, 0.1075420877491068
373.0, 0.11424888116942669
374.0, 0.11814904448982022
375.0, 0.10718687342527494
376.0, 0.11680214442477713
377.0, 0.11546497057018316
378.0, 0.11103563192173288
379.0, 0.1107446104012735
380.0, 0.10968906157535283
381.0, 0.10781256892963448
382.0, 0.10628420539597143
383.0, 0.1068818087794656
384.0, 0.11881809802911468
385.0, 0.12664874429279066
386.0, 0.12591805651726068
387.0, 0.10862916369478019
388.0, 0.11524635926618983
389.0, 0.1170828517148861
390.0, 0.11266934277779783
391.0, 0.1120842218422221
392.0, 0.11341766858412926
393.0, 0.11350266016030962
394.0, 0.11263703100043623
395.0, 0.1166883138833905
396.0, 0.11307526028861958
397.0, 0.11353279526659074
398.0, 0.12062775043159112
399.0, 0.11692361850736759
400.0, 0.12168044795872415
401.0, 0.12315394307706003
402.0, 0.11592452834082433
403.0, 0.11930412619455613
404.0, 0.1279325996459808
405.0, 0.12952973625787081
406.0, 0.11491532686584083
407.0, 0.11896124886557745
408.0, 0.12356204883908384
409.0, 0.12852812119346727
410.0, 0.13368086427966872
411.0, 0.11688925949009613
412.0, 0.10330867086547402
413.0, 0.09381299069271301
414.0, 0.08900523510518843
415.0, 0.08615851855973422
416.0, 0.08865742694465506
417.0, 0.09196020007056162
418.0, 0.08705813380298923
419.0, 0.08569476402594085
420.0, 0.08116095813976626
421.0, 0.07557034923096911
422.0, 0.07599138833961312
423.0, 0.07986822932318426
424.0, 0.07374918204252662
425.0, 0.061371977602244034
426.0, 0.0617369709503163
427.0, 0.06657271548532072
428.0, 0.07105651067832494
429.0, 0.07254896493339023
430.0, 0.06445559527650348
431.0, 0.0615196073880477
432.0, 0.05324318661501967
433.0, 0.04031094251902792
434.0, 0.04344713062427374
435.0, 0.039101185741308574
436.0, 0.03544653939032504
437.0, 0.03586805005989108
438.0, 0.043224720415325935
439.0, 0.03402017653648984
440.0, 0.022920224315714218
441.0, 0.016734698752096704
442.0, 0.01882914316834819
443.0, 0.016752563145257145
444.0, 0.01607967758843954
445.0, 0.018689052989963883
446.0, 0.010192252424162478
447.0, 0.009858383771015293
448.0, 0.013781770619280776
449.0, 0.01867140344033443
450.0, 0.0055083168863133145
451.0, 0.007304823332875423
452.0, 0.01093656014264331
453.0, 0.007475320003807316
454.0, 0.007647723438771197
455.0, 0.00931199667939118
456.0, 0.008985646230405712
457.0, 0.00413226340408112
458.0, 0.012617296001431052
459.0, 0.010284398268722544
460.0, 0.004122688248373398
461.0, 0.00040310888293384334
462.0, 0.008216938756869106
463.0, 0.014354112412552068
464.0, 0.019563254797495717
465.0, 0.024574260926483366
466.0, 0.029292892814511355
467.0, 0.02596542652443176
468.0, 0.017756493361067383
469.0, 0.008041359983529022
470.0, 0.010237622798447027
471.0, 0.007001609147849385
472.0, 0.002832431848776819
473.0, 0.0031006176602723728
474.0, 0.01046981321429706
475.0, 0.01050812643731678
476.0, 0.008633306925580399
477.0, 0.01158695066158177
478.0, 0.016585579193746397
479.0, 0.01627412300863556
480.0, 0.020809697765803038
481.0, 0.042951162604912746
482.0, 0.03199415145785798
483.0, 0.02776758092875392
484.0, 0.033138177544456825
485.0, 0.05056148446912107
486.0, 0.04645874757898055
487.0, 0.0544201792449249
488.0, 0.06396022921464013
489.0, 0.06098683176002831
490.0, 0.07511927206113567
491.0, 0.09099586404740334
492.0, 0.09546578889720518
493.0, 0.0728220493755673
494.0, 0.09824661978182689
495.0, 0.10891628607739993
496.0, 0.10770074747950152
497.0, 0.0995386974223105
498.0, 0.09489046274897435
499.0, 0.1034952424430445
500.0, 0.11542302834411679
501.0, 0.11938347774313257
502.0, 0.12168016924009552
503.0, 0.11383159050825829
504.0, 0.11141312764067056
505.0, 0.1307585126220523
506.0, 0.13254053395864154
507.0, 0.1353158699699255
508.0, 0.14190611893774324
509.0, 0.1547421383688054
510.0, 0.14604460641675931
511.0, 0.14722492957500968
512.0, 0.14731108585659788
513.0, 0.1372285580486532
514.0, 0.1425909512672944
515.0, 0.1429499122705324
516.0, 0.14547633135116098
517.0, 0.15482400758346668
518.0, 0.14506233652955441
519.0, 0.19196739211762956
520.0, 0.23202398602388502
521.0, 0.2228504688609326
522.0, 0.20155098211023573
523.0, 0.19420325180424
524.0, 0.18475518101107138
525.0, 0.16520895255670864
526.0, 0.15723131494566972
527.0, 0.16179472323304128
528.0, 0.1723700652880673
529.0, 0.1847498942133408
530.0, 0.19103727565999193
531.0, 0.1837567103826618
532.0, 0.17826397784587478
533.0, 0.17882903539094014
534.0, 0.16902780760904132
535.0, 0.18449859330548674
536.0, 0.18306460134250038
537.0, 0.1649219217061978
538.0, 0.2088239959318008
539.0, 0.1945717254266187
540.0, 0.1811216408767325
541.0, 0.1795468989007243
542.0, 0.16607384187325844
543.0, 0.17347419850097257
544.0, 0.17955873575326478
545.0, 0.18332549181299665
546.0, 0.19711206567514777
547.0, 0.19027710346817198
548.0, 0.17970613148073075
549.0, 0.17554241206795873
550.0, 0.19524805830640218
551.0, 0.19216855808962535
552.0, 0.1943356640464646
553.0, 0.19765599678358187
554.0, 0.18852298961437075
555.0, 0.18216240857993413
556.0, 0.17892159610163144
557.0, 0.17624862012707726
558.0, 0.17052952822043066
559.0, 0.16392529786735682
560.0, 0.1701751918151252
561.0, 0.18002868044325251
562.0, 0.18298952550151903
563.0, 0.16499503627127066
564.0, 0.16295950711397833
565.0, 0.16096076469026316
566.0, 0.1469565976718128
567.0, 0.14010249381433193
568.0, 0.13871741053603687
569.0, 0.13175757727447604
570.0, 0.11743118822864738
571.0, 0.1408466837951458
572.0, 0.12470290874765998
573.0, 0.10538282709548989
574.0, 0.09915036990304488
575.0, 0.10914266570556357
576.0, 0.10026363168022016
577.0, 0.08748503762691955
578.0, 0.07696284454628698
579.0, 0.07488950070950665
580.0, 0.06946771113412721
581.0, 0.06497032343523948
582.0, 0.05839463849766975
583.0, 0.04012153833173105
584.0, 0.04408112206836022
585.0, 0.04621846198221202
586.0, 0.04316374142117978
587.0, 0.0339757631080216
588.0, 0.0496047228964435
589.0, 0.0425730966709759
590.0, 0.03351943457457948
591.0, 0.04884312411883176
592.0, 0.04366238595533527
593.0, 0.03518857328192399
594.0, 0.029816006496454685
595.0, 0.031175340105931683
596.0, 0.016621161013908085
597.0, 0.022079804241327296
598.0, 0.022279465846476262
599.0, 0.010482607434671932
600.0, 0.033559970419354754
601.0, 0.03202346710517994
602.0, 0.03749474035540376
603.0, 0.05091908022217687
604.0, 0.03377255243629533
605.0, 0.02714846829773767
606.0, 0.02404557447909852
607.0, 0.022438825119587016
608.0, 0.020908913765791553
609.0, 0.03300607889961549
610.0, 0.03718160924442695
611.0, 0.03685576231039394
612.0, 0.04050768953018766
613.0, 0.04520626033372023
614.0, 0.046666453481904915
615.0, 0.048645941346620335
616.0, 0.05431439629525943
617.0, 0.051630623552177575
618.0, 0.05552564385308323
619.0, 0.06425831396786863
620.0, 0.07400630144620378
621.0, 0.06375288392362852
622.0, 0.06721254352756793
623.0, 0.07555815733290736
624.0, 0.08296542824862256
625.0, 0.07910429013276091
626.0, 0.08512201462878158
627.0, 0.09142176060755441
628.0, 0.09507533199059204
629.0, 0.0937581082629415
630.0, 0.09724469960547626
631.0, 0.10763685780276117
632.0, 0.1214096952467625
633.0, 0.1337706419090311
634.0, 0.12927099169178435
635.0, 0.14859262189182854
636.0, 0.15229402865356828
637.0, 0.11656909131956182
638.0, 0.11610260539953823
639.0, 0.11237069168338036
640.0, 0.11579816502922816
641.0, 0.12919803821118256
642.0, 0.14416203007728895
643.0, 0.1247968521049
644.0, 0.13155928631942057
645.0, 0.15605604985574775
646.0, 0.14380498319965818
647.0, 0.15287327582415272
648.0, 0.1687500211825554
649.0, 0.1822144938278565
650.0, 0.18306087684219496
651.0, 0.19836746185868487
652.0, 0.19603733476424368
653.0, 0.19836128678817438
654.0, 0.2189763261660083
655.0, 0.2209714374015527
656.0, 0.27017554187787113
657.0, 0.3278559784823011
658.0, 0.3668161748439307
659.0, 0.3405093200695131
660.0, 0.3171899046638096
661.0, 0.31105317632704205
662.0, 0.3174900985237583
663.0, 0.3211501493271243
664.0, 0.37133429673302565
665.0, 0.3877592503585016
666.0, 0.40197355172568344
667.0, 0.45149974315426566
668.0, 0.4733674526048613
669.0, 0.5058903012315644
670.0, 0.551210784055132
671.0, 0.6052469436833192
672.0, 0.6359448894319839
673.0, 0.67999732923079
674.0, 0.7139413308491763
675.0, 0.7498365375135566
676.0, 0.8382715330670499
677.0, 0.8598792545223545
678.0, 0.90802065945436
679.0, 0.9651224128856709
680.0, 0.9940781216455573
681.0, 0.9986439492125909
682.0, 0.9976744016052587
683.0, 0.9868693795082331
684.0, 0.962453264849819
685.0, 0.9161499414911092
686.0, 0.8512807774620226
687.0, 0.7873155682982226
688.0, 0.7291892605260396
689.0, 0.6721616937518178
690.0, 0.6361664635468944
691.0, 0.5947461364807775
692.0, 0.5519023955810793
693.0, 0.5180798804589213
694.0, 0.5096314615648235
695.0, 0.4906372654989269
696.0, 0.4694750124079761
697.0, 0.4512703163884264
698.0, 0.427413849023296
699.0, 0.4348863596003609
700.0, 0.4405576408077996
701.0, 0.43908142553665547
702.0, 0.44642610822602774
703.0, 0.4460469552959922
704.0, 0.44459398545961637
705.0, 0.44849380231794095
706.0, 0.4644706835239321
707.0, 0.4665857026031179
708.0, 0.4825607138145715
709.0, 0.4936593816856563
710.0, 0.49433655831880885
711.0, 0.5235364658732328
712.0, 0.5280545662491222
713.0, 0.5407731483761986
714.0, 0.5576238765883307
715.0, 0.5483929326643674
716.0, 0.5651102458098903
717.0, 0.5858302408581927
718.0, 0.5917602752259861
719.0, 0.569253536101837
720.0, 0.5886243810692663
721.0, 0.5796993853418714
722.0, 0.5759642164078705
723.0, 0.586402269090792
724.0, 0.5816798532640926
725.0, 0.5738744158345835
726.0, 0.5644146255637277
727.0, 0.5540892542746985
728.0, 0.5438083379907875
729.0, 0.5311478900309221
730.0, 0.532628945505994
731.0, 0.528078345276413
732.0, 0.5078183601604102
733.0, 0.5121007423575396
734.0, 0.4769370068598793
735.0, 0.4644695794579703
736.0, 0.47120732280693456
737.0, 0.4426920234184662
738.0, 0.4193595677233193
739.0, 0.4133841275892615
740.0, 0.416758982999827
741.0, 0.41837338368812543
742.0, 0.39587062800023665
743.0, 0.38562105511754174
744.0, 0.380797317650692
745.0, 0.3769218998761642
746.0, 0.3690204311915918
747.0, 0.36943674031730434
748.0, 0.36598342485634466
749.0, 0.3612753894602899
750.0, 0.36102548672308893
751.0, 0.3596419721279226
752.0, 0.34837559865583795
753.0, 0.34283730970874454
754.0, 0.3494208764370775
755.0, 0.35633658672075796
756.0, 0.35113129885998684
757.0, 0.3531970784704635
758.0, 0.3618282481684829
759.0, 0.36930413746663093
760.0, 0.3705264823000968
761.0, 0.3706951895145883
762.0, 0.3750602007804009
763.0, 0.38601986860024007
764.0, 0.3971823604382143
765.0, 0.39959911815908716
766.0, 0.4006970375084799
767.0, 0.4025973582897699
768.0, 0.4058756567053431
769.0, 0.4075666603587987
770.0, 0.4072921195303716
771.0, 0.40455467508001525
772.0, 0.3996675583836194
773.0, 0.39664623046624564
774.0, 0.3918905212302597
775.0, 0.38688954554500826
776.0, 0.3820526773599008
777.0, 0.37739033790354953
778.0, 0.353325609037513
779.0, 0.34462083769376445
780.0, 0.34613578364432473
781.0, 0.34870369285891867
782.0, 0.32604866876892546
783.0, 0.2949287842474424
784.0, 0.2881449837300967
785.0, 0.2941238774650951
786.0, 0.2714660484651333
787.0, 0.2646445747344865
788.0, 0.2463590443032756
789.0, 0.23062921154700783
790.0, 0.22529990758820387
791.0, 0.20589095458043624
792.0, 0.19250657651708916
793.0, 0.18456681133762426
794.0, 0.17937908746081846
795.0, 0.17212200871508512
796.0, 0.1547710608691602
797.0, 0.13410120714429177
798.0, 0.12597277033181542
799.0, 0.13224532388882176
800.0, 0.10437724253483698
801.0, 0.0945894883061032
802.0, 0.09731492226396041
803.0, 0.09886002973485862
804.0, 0.07970357791913318
805.0, 0.08460421090688483
806.0, 0.0805460188529272
807.0, 0.07147285716348097
808.0, 0.06241830460836212
809.0, 0.06388469482684932
810.0, 0.06643579691513835
811.0, 0.061207894678784236
812.0, 0.05106872182631546
813.0, 0.04188564193954557
814.0, 0.03270698644020115
815.0, 0.026175961995787096
816.0, 0.024627061002328355
817.0, 0.027403173233918526
818.0, 0.02922785482322674
819.0, 0.015342883435407611
820.0, 0.014668291706438888
821.0, 0.01556104606893209
822.0, 0.0050035173108481
823.0, 0.00348035141307523
824.0, 0.002344381111070516
825.0, 0.0016236173501485774
826.0, 0.0018972538026557943
827.0, 0.004370398487868846
828.0, 0.005120766049861072
829.0, 0.006139889678390593
830.0, 0.006923580652134976
831.0, 0.006953377777719905
832.0, 0.005715747832615774
833.0, 0.005088013220775907
834.0, 0.002941259874926659
835.0, 0.0004671937649531571
836.0, 9.62466308117168e-05
837.0, 0.0025962599223490384
838.0, 0.013928222488763794
839.0, 0.013645149222634358
840.0, 0.0023493020019439625
841.0, 0.013950702047603465
842.0, 0.015338084608942796
843.0, 0.011587001852016035
844.0, 0.009704870672788107
845.0, 0.013835521278652434
846.0, 0.004911439882228828
847.0, 0.006564804880715566
848.0, 0.005254096150298385
849.0, 0.0008602581950276595
850.0, 0.0004820980604913734
851.0, 0.003520095920800493
852.0, 0.00228190949117608
853.0, 0.005237341985858339
854.0, 0.013821769184788356
855.0, 0.013655557903710999
856.0, 0.01424100053867292
857.0, 0.011446432959331012
858.0, 0.008535893033333925
859.0, 0.009010917084541596
860.0, 0.005420539523469338
861.0, 0.015241779866981229
862.0, 0.01263346655218622
863.0, 0.00432617237168699
864.0, 0.019844726354830033
865.0, 0.01026246437788213
866.0, 0.014384945811023
867.0, 0.014387425898857328
868.0, 0.005132564582334156
869.0, 0.011379845003110714
870.0, 0.010195645066664257
871.0, 0.014383953350852576
872.0, 0.02076214723898705
873.0, 0.024419305714044014
874.0, 0.02828639970729482
875.0, 0.017722868611987984
876.0, 0.013356728596048069
877.0, 0.022791336014252733
878.0, 0.04757946388103129
879.0, 0.03322158894434075
880.0, 0.01781116334841221
881.0, 0.023310209686702037
882.0, 0.043308008605917554
883.0, 0.02135149735378327
884.0, 0.030698724908502385
885.0, 0.029693867709273816
886.0, 0.027332003675509187
887.0, 0.032661142880093
888.0, 0.03151395110833627
889.0, 0.03981925376268302
890.0, 0.042913480622416386
891.0, 0.04304828328677156
892.0, 0.0477504303198536
893.0, 0.0560612342248887
894.0, 0.06344764080691974
895.0, 0.05787659101701841
896.0, 0.05030522796133295
897.0, 0.07449539676740906
898.0, 0.06652161200806227
899.0, 0.0765895695414759
900.0, 0.07705142694809533
901.0, 0.06402244143951677
902.0, 0.08988060864906507
903.0, 0.08291969850717504
904.0, 0.0681274327794838
905.0, 0.06407216249738744
906.0, 0.0793306349799094
907.0, 0.0745685778280149
908.0, 0.06738958054772033
909.0, 0.06806367091704328
910.0, 0.07303449427059895
911.0, 0.07373111560956959
912.0, 0.061592808583285655
913.0, 0.06908110119686982
914.0, 0.08299843229273811
915.0, 0.09134864151490901
916.0, 0.08085627088721954
917.0, 0.09471438751538423
918.0, 0.09514400535951675
919.0, 0.08614189243424322
920.0, 0.078369970655903
921.0, 0.09519435804536595
922.0, 0.07849747818824672
923.0, 0.08269048336314497
924.0, 0.0863180584026929
925.0, 0.079805030571512
926.0, 0.10757386043818158
927.0, 0.09960283086566102
928.0, 0.0920929577666133
929.0, 0.08716403265182843
930.0, 0.08175169069570208
931.0, 0.07740327205944945
932.0, 0.08127147054736564
933.0, 0.07798020998283023
934.0, 0.07363061063277496
935.0, 0.07998933540801811
936.0, 0.07849444740620384
937.0, 0.07604828857191173
938.0, 0.07579137381919485
939.0, 0.07738519602608303
940.0, 0.0782256790027683
941.0, 0.0723782115802417
942.0, 0.07811193062425413
943.0, 0.08640183632121982
944.0, 0.09144700091276631
945.0, 0.08987506590759185
946.0, 0.09408194497706812
947.0, 0.08754193861281473
948.0, 0.08473512782557953
949.0, 0.088361528681499
950.0, 0.07996841206030574
951.0, 0.0684303433789572
952.0, 0.05963659125413163
953.0, 0.06124401388353943
954.0, 0.07232781917876586
955.0, 0.06970099014769979
956.0, 0.06492228746208857
957.0, 0.05932466173980056
958.0, 0.060326639566832006
959.0, 0.06869523584258949
960.0, 0.05621563743043145
961.0, 0.06495008617015925
962.0, 0.0658091002146318
963.0, 0.06389662129206357
964.0, 0.06614304965883401
965.0, 0.04912517123625938
966.0, 0.0693618540326807
967.0, 0.06782653424829645
968.0, 0.05611658541980685
969.0, 0.06125198589981956
970.0, 0.06351926672446784
971.0, 0.05479271136092176
972.0, 0.056119227622649724
973.0, 0.05703986299565479
974.0, 0.0399205305799876
975.0, 0.05371550991305391
976.0, 0.047889667412674315
977.0, 0.03653958241851911
978.0, 0.0268334097759242
979.0, 0.022880754795026235
980.0, 0.02393823921909742
981.0, 0.02305836475314771
982.0, 0.021116831321836463
983.0, 0.020723153156938498
984.0, 0.025089346863013597
985.0, 0.021586675429782386
986.0, 0.020594147981842652
987.0, 0.022158389455416976
988.0, 0.026268756166692483
989.0, 0.03264068750630216
990.0, 0.03561980844873208
991.0, 0.028144381211313508
992.0, 0.022083636742415105
993.0, 0.02284213177799317
994.0, 0.030738958933353537
995.0, 0.036653704464021386
996.0, 0.03623731214094733
997.0, 0.030958042932533392
998.0, 0.02601768083993154
999.0, 0.02973088053333167
1000.0, 0.021334270803333052
1001.0, 0.014208366659868993
1002.0, 0.013094824331971469
1003.0, 0.018403677837222493
1004.0, 0.026487128651015115
1005.0, 0.025506035656230552
1006.0, 0.01431411747885717
1007.0, 0.009389320988266569
1008.0, 0.010448922756066289
1009.0, 0.0023011588716318025
1010.0, 0.0010504241016275986
1011.0, 0.012787373291272513
1012.0, 0.014068879840006772
1013.0, 0.005201777772326094
1014.0, 0.006623972987488408
1015.0, 0.001593198578220263
1016.0, 0.0023773505333746343
1017.0, 0.00406094709527019
1018.0, 0.005171861843404583
1019.0, 0.0069533331324388836
1020.0, 0.009302493030996626
1021.0, 0.008431213291303356
1022.0, 0.011188824110311675
1023.0, 0.016691036878270612
1024.0, 0.019051489035732727
1025.0, 0.03119361450765662
1026.0, 0.025500619173804757
1027.0, 0.03137140829781586
1028.0, 0.04071571812477798
1029.0, 0.025697970276395025
1030.0, 0.02742654298201809
1031.0, 0.03842161810651174
1032.0, 0.03936401578420581
1033.0, 0.035528035150150614
1034.0, 0.04225212989951972
1035.0, 0.038352286523888626
1036.0, 0.029885016067378756
1037.0, 0.025962277848793604
1038.0, 0.023120185867717812
1039.0, 0.01601663332925253
1040.0, 0.029030826539167297
1041.0, 0.0307098090914797
1042.0, 0.03388306396748543
1043.0, 0.032367039752985535
1044.0, 0.019762404297136882
1045.0, 0.023559387700397616
1046.0, 0.027606282902087345
1047.0, 0.02435571977901841
1048.0, 0.023885192856610685
1049.0, 0.03373128246000589
1050.0, 0.033769220014445246
1051.0, 0.024962995878547452
1052.0, 0.017766685810908227
1053.0, 0.01575694109048111
1054.0, 0.019267528285803893
1055.0, 0.02318549763411144
1056.0, 0.014821520125981442
1057.0, 0.017519160400929285
1058.0, 0.024759933411169402
1059.0, 0.02845633907909919
1060.0, 0.023427683789019646
1061.0, 0.038168482101825364
1062.0, 0.02496413898597612
1063.0, 0.024824555641948777
1064.0, 0.04277610289911882
1065.0, 0.031464109302943355
1066.0, 0.028341084762232332
1067.0, 0.01943404195346387
1068.0, 0.017597008822457093
1069.0, 0.020865379066567193
1070.0, 0.015758310127114584
1071.0, 0.027065048802858052
1072.0, 0.0152822617947813
1073.0, 0.018411366867515908
1074.0, 0.026637406278587943
1075.0, 0.01132768497951528
1076.0, 0.015738693838249395
1077.0, 0.024031074652126967
1078.0, 0.017655495178209676
1079.0, 0.011201198615100487
1080.0, 0.021276788124003836
1081.0, 0.021174646617512054
1082.0, 0.0320732026176562
1083.0, 0.03467662997653823
1084.0, 0.029945835010750713
1085.0, 0.022765499676360556
1086.0, 0.0180418245645443
1087.0, 0.029742226499616952
1088.0, 0.02530468143961882
1089.0, 0.023568142501246836
1090.0, 0.03206879898033252
1091.0, 0.03518344518142794
1092.0, 0.03984008644813385
1093.0, 0.032161058071710096
1094.0, 0.032188910546886856
1095.0, 0.03642143162870412
1096.0, 0.024548695359443998
1097.0, 0.039100425391674694
1098.0, 0.02745061428642446
1099.0, 0.017940898316164505
1100.0, 0.013532842619672863
1101.0, 0.007148706102327637
1102.0, 0.0008455425095724159
1103.0, 0.006150667676685526
1104.0, 0.01554911645556303
1105.0, 0.014823134037030342
1106, 0.0
1107, 0.0
1108, 0.0
1109, 0.0
1110, 0.0
1111, 0.0
1112, 0.0
1113, 0.0
1114, 0.0
1115, 0.0
1116, 0.0
1117, 0.0
1118, 0.0
1119, 0.0
1120, 0.0
1121, 0.0
1122, 0.0
1123, 0.0
1124, 0.0
1125, 0.0
1126, 0.0
1127, 0.0
1128, 0.0
1129, 0.0
1130, 0.0
1131, 0.0
1132, 0.0
1133, 0.0
1134, 0.0
1135, 0.0
1136, 0.0
1137, 0.0
1138, 0.0
1139, 0.0
1140, 0.0
1141, 0.0
1142, 0.0
1143, 0.0
1144, 0.0
1145, 0.0
1146, 0.0
1147, 0.0
1148, 0.0
1149, 0.0
1150, 0.0
1151, 0.0
1152, 0.0
1153, 0.0
1154, 0.0
1155, 0.0
1156, 0.0
1157, 0.0
1158, 0.0
1159, 0.0
1160, 0.0
1161, 0.0
1162, 0.0
1163, 0.0
1164, 0.0
1165, 0.0
1166, 0.0
1167, 0.0
1168, 0.0
1169, 0.0
1170, 0.0
1171, 0.0
1172, 0.0
1173, 0.0
1174, 0.0
1175, 0.0
1176, 0.0
1177, 0.0
1178, 0.0
1179, 0.0
1180, 0.0
1181, 0.0
1182, 0.0
1183, 0.0
1184, 0.0
1185, 0.0
1186, 0.0
1187, 0.0
1188, 0.0
1189, 0.0
1190, 0.0
1191, 0.0
1192, 0.0
1193, 0.0
1194, 0.0
1195, 0.0
1196, 0.0
1197, 0.0
1198, 0.0
1199, 0.0
1200, 0.0
1201, 0.0
1202, 0.0
1203, 0.0
1204, 0.0
1205, 0.0
1206, 0.0
1207, 0.0
1208, 0.0
1209, 0.0
1210, 0.0
1211, 0.0
1212, 0.0
1213, 0.0
1214, 0.0
1215, 0.0
1216, 0.0
1217, 0.0
1218, 0.0
1219, 0.0
1220, 0.0
1221, 0.0
1222, 0.0
1223, 0.0
1224, 0.0
1225, 0.0
1226, 0.0
1227, 0.0
1228, 0.0
1229, 0.0
1230, 0.0
1231, 0.0
1232, 0.0
1233, 0.0
1234, 0.0
1235, 0.0
1236, 0.0
1237, 0.0
1238, 0.0
1239, 0.0
1240, 0.0
1241, 0.0
1242, 0.0
1243, 0.0
1244, 0.0
1245, 0.0
1246, 0.0
1247, 0.0
1248, 0.0
1249, 0.0
1250, 0.0
1251, 0.0
1252, 0.0
1253, 0.0
1254, 0.0
1255, 0.0
1256, 0.0
1257, 0.0
1258, 0.0
1259, 0.0
1260, 0.0
1261, 0.0
1262, 0.0
1263, 0.0
1264, 0.0
1265, 0.0
1266, 0.0
1267, 0.0
1268, 0.0
1269, 0.0
1270, 0.0
1271, 0.0
1272, 0.0
1273, 0.0
1274, 0.0
1275, 0.0
1276, 0.0
1277, 0.0
1278, 0.0
1279, 0.0
1280, 0.0
1281, 0.0
1282, 0.0
1283, 0.0
1284, 0.0
1285, 0.0
1286, 0.0
1287, 0.0
1288, 0.0
1289, 0.0
1290, 0.0
1291, 0.0
1292, 0.0
1293, 0.0
1294, 0.0
1295, 0.0
1296, 0.0
1297, 0.0
1298, 0.0
1299, 0.0
1300, 0.0
1301, 0.0
1302, 0.0
1303, 0.0
1304, 0.0
1305, 0.0
1306, 0.0
1307, 0.0
1308, 0.0
1309, 0.0
1310, 0.0
1311, 0.0
1312, 0.0
1313, 0.0
1314, 0.0
1315, 0.0
1316, 0.0
1317, 0.0
1318, 0.0
1319, 0.0
1320, 0.0
1321, 0.0
1322, 0.0
1323, 0.0
1324, 0.0
1325, 0.0
1326, 0.0
1327, 0.0
1328, 0.0
1329, 0.0
1330, 0.0
1331, 0.0
1332, 0.0
1333, 0.0
1334, 0.0
1335, 0.0
1336, 0.0
1337, 0.0
1338, 0.0
1339, 0.0
1340, 0.0
1341, 0.0
1342, 0.0
1343, 0.0
1344, 0.0
1345, 0.0
1346, 0.0
1347, 0.0
1348, 0.0
1349, 0.0
1350, 0.0
1351, 0.0
1352, 0.0
1353, 0.0
1354, 0.0
1355, 0.0
1356, 0.0
1357, 0.0
1358, 0.0
1359, 0.0
1360, 0.0
1361, 0.0
1362, 0.0
1363, 0.0
1364, 0.0
1365, 0.0
1366, 0.0
1367, 0.0
1368, 0.0
1369, 0.0
1370, 0.0
1371, 0.0
1372, 0.0
1373, 0.0
1374, 0.0
1375, 0.0
1376, 0.0
1377, 0.0
1378, 0.0
1379, 0.0
1380, 0.0
1381, 0.0
1382, 0.0
1383, 0.0
1384, 0.0
1385, 0.0
1386, 0.0
1387, 0.0
1388, 0.0
1389, 0.0
1390, 0.0
1391, 0.0
1392, 0.0
1393, 0.0
1394, 0.0
1395, 0.0
1396, 0.0
1397, 0.0
1398, 0.0
1399, 0.0
1400, 0.0
1401, 0.0
1402, 0.0
1403, 0.0
1404, 0.0
1405, 0.0
1406, 0.0
1407, 0.0
1408, 0.0
1409, 0.0
1410, 0.0
1411, 0.0
1412, 0.0
1413, 0.0
1414, 0.0
1415, 0.0
1416, 0.0
1417, 0.0
1418, 0.0
1419, 0.0
1420, 0.0
1421, 0.0
1422, 0.0
1423, 0.0
1424, 0.0
1425, 0.0
1426, 0.0
1427, 0.0
1428, 0.0
1429, 0.0
1430, 0.0
1431, 0.0
1432, 0.0
1433, 0.0
1434, 0.0
1435, 0.0
1436, 0.0
1437, 0.0
1438, 0.0
1439, 0.0
1440, 0.0
1441, 0.0
1442, 0.0
1443, 0.0
1444, 0.0
1445, 0.0
1446, 0.0
1447, 0.0
1448, 0.0
1449, 0.0
1450, 0.0
1451, 0.0
1452, 0.0
1453, 0.0
1454, 0.0
1455, 0.0
1456, 0.0
1457, 0.0
1458, 0.0
1459, 0.0
1460, 0.0
1461, 0.0
1462, 0.0
1463, 0.0
1464, 0.0
1465, 0.0
1466, 0.0
1467, 0.0
1468, 0.0
1469, 0.0
1470, 0.0
1471, 0.0
1472, 0.0
1473, 0.0
1474, 0.0
1475, 0.0
1476, 0.0
1477, 0.0
1478, 0.0
1479, 0.0
1480, 0.0
1481, 0.0
1482, 0.0
1483, 0.0
1484, 0.0
1485, 0.0
1486, 0.0
1487, 0.0
1488, 0.0
1489, 0.0
1490, 0.0
1491, 0.0
1492, 0.0
1493, 0.0
1494, 0.0
1495, 0.0
1496, 0.0
1497, 0.0
1498, 0.0
1499, 0.0
1500, 0.0
1501, 0.0
1502, 0.0
1503, 0.0
1504, 0.0
1505, 0.0
1506, 0.0
1507, 0.0
1508, 0.0
1509, 0.0
1510, 0.0
1511, 0.0
1512, 0.0
1513, 0.0
1514, 0.0
1515, 0.0
1516, 0.0
1517, 0.0
1518, 0.0
1519, 0.0
1520, 0.0
1521, 0.0
1522, 0.0
1523, 0.0
1524, 0.0
1525, 0.0
1526, 0.0
1527, 0.0
1528, 0.0
1529, 0.0
1530, 0.0
1531, 0.0
1532, 0.0
1533, 0.0
1534, 0.0
1535, 0.0
1536, 0.0
1537, 0.0
1538, 0.0
1539, 0.0
1540, 0.0
1541, 0.0
1542, 0.0
1543, 0.0
1544, 0.0
1545, 0.0
1546, 0.0
1547, 0.0
1548, 0.0
1549, 0.0
1550, 0.0
1551, 0.0
1552, 0.0
1553, 0.0
1554, 0.0
1555, 0.0
1556, 0.0
1557, 0.0
1558, 0.0
1559, 0.0
1560, 0.0
1561, 0.0
1562, 0.0
1563, 0.0
1564, 0.0
1565, 0.0
1566, 0.0
1567, 0.0
1568, 0.0
1569, 0.0
1570, 0.0
1571, 0.0
1572, 0.0
1573, 0.0
1574, 0.0
1575, 0.0
1576, 0.0
1577, 0.0
1578, 0.0
1579, 0.0
1580, 0.0
1581, 0.0
1582, 0.0
1583, 0.0
1584, 0.0
1585, 0.0
1586, 0.0
1587, 0.0
1588, 0.0
1589, 0.0
1590, 0.0
1591, 0.0
1592, 0.0
1593, 0.0
1594, 0.0
1595, 0.0
1596, 0.0
1597, 0.0
1598, 0.0
1599, 0.0
