30, 0.0
31, 0.0
32, 0.0
33, 0.0
34, 0.0
35, 0.0
36, 0.0
37, 0.0
38, 0.0
39, 0.0
40, 0.0
41, 0.0
42, 0.0
43, 0.0
44, 0.0
45, 0.0
46, 0.0
47, 0.0
48, 0.0
49, 0.0
50, 0.0
51, 0.0
52, 0.0
53, 0.0
54, 0.0
55, 0.0
56, 0.0
57, 0.0
58, 0.0
59, 0.0
60, 0.0
61, 0.0
62, 0.0
63, 0.0
64, 0.0
65, 0.0
66, 0.0
67, 0.0
68, 0.0
69, 0.0
70, 0.0
71, 0.0
72, 0.0
73, 0.0
74, 0.0
75, 0.0
76, 0.0
77, 0.0
78, 0.0
79, 0.0
80, 0.0
81, 0.0
82, 0.0
83, 0.0
84, 0.0
85, 0.0
86, 0.0
87, 0.0
88, 0.0
89, 0.0
90, 0.0
91, 0.0
92, 0.0
93, 0.0
94, 0.0
95, 0.0
96, 0.0
97, 0.0
98, 0.0
99, 0.0
100, 0.0
101, 0.0
102, 0.0
103, 0.0
104.0, 5.7345004012032955e-06
105.0, 1.7005448744896918e-05
106.0, 0.00013225585499162257
107.0, 0.0002705070781476231
108.0, 0.00024020765680786592
109.0, 0.00022934711761305387
110.0, 0.00010380904440976339
111.0, 0.00028702763811877237
112.0, 0.0003410660757258001
113.0, 0.00011979875930769317
114.0, 5.8163336618420724e-05
115.0, 9.34846483575696e-05
116.0, 0.0001647128883175622
117.0, 0.0001657652125493957
118.0, 0.00011376936360524933
119.0, 0.00010524353234809405
120.0, 9.618854969078589e-05
121.0, 5.1938437942375455e-05
122.0, 0.00017706645183225212
123.0, 0.00020895576244682742
124.0, 0.00021770723381117383
125.0, 0.00022923074050940661
126.0, 0.0003545964739701829
127.0, 0.0007179137309179383
128.0, 0.0009343333519280541
129.0, 0.001364805705370374
130.0, 0.001873651311852648
131.0, 0.002111755044187125
132.0, 0.0025616798341899583
133.0, 0.0029665475019923977
134.0, 0.003464665190670223
135.0, 0.004209896442704301
136.0, 0.0046803661632014186
137.0, 0.005080867022859107
138.0, 0.005756859894266292
139.0, 0.006670722414945152
140.0, 0.007007010566784423
141.0, 0.007662854834909482
142.0, 0.008386126633955777
143.0, 0.009115939144908117
144.0, 0.010482747522960592
145.0, 0.011992973183147035
146.0, 0.013577805042277706
147.0, 0.015262547515388176
148.0, 0.016919878533147113
149.0, 0.01723333021974012
150.0, 0.017272552767037347
151.0, 0.01727050714933386
152.0, 0.017131733014472964
153.0, 0.017906718215587224
154.0, 0.018843485522510497
155.0, 0.01983499981033516
156.0, 0.020874234128192566
157.0, 0.021669499836150914
158.0, 0.021501610669633547
159.0, 0.020314814302704792
160.0, 0.018118393791292556
161.0, 0.01496267143325552
162.0, 0.012291442558311765
163.0, 0.009575016590009379
164.0, 0.007035397840924521
165.0, 0.0054932764979747925
166.0, 0.004163147930441192
167.0, 0.00295265905364366
168.0, 0.0020804052255503727
169.0, 0.001699051838466815
170.0, 0.001344716014816939
171.0, 0.0011891608375739337
172.0, 0.0009909281490039848
173.0, 0.0006692181244587096
174.0, 0.0006201335646268915
175.0, 0.0007170520597333116
176.0, 0.0005813011549110321
177.0, 0.00037146466274601145
178.0, 0.0006636445122404694
179.0, 0.0004788275647170628
180.0, 0.0005795847211513115
181.0, 0.0009575571551156177
182.0, 0.0010468577968803282
183.0, 0.0011123629657633636
184.0, 0.0013012524242414698
185.0, 0.0015954757402212364
186.0, 0.0019849083077074863
187.0, 0.002599142622477935
188.0, 0.0030147522917098233
189.0, 0.0031545066657448994
190.0, 0.0032976784065025647
191.0, 0.003917621360513625
192.0, 0.005186358864951535
193.0, 0.006166250027531661
194.0, 0.0068056694822341
195.0, 0.007728588769076061
196.0, 0.009047076181853825
197.0, 0.010112974253273913
198.0, 0.010789077923907245
199.0, 0.011183393208845415
200.0, 0.01142920922869964
201.0, 0.01120296103216387
202.0, 0.010202249775297538
203.0, 0.008767400107163509
204.0, 0.00789845200669258
205.0, 0.006642068440271483
206.0, 0.005399280832447832
207.0, 0.004480001535366083
208.0, 0.0038646670858574457
209.0, 0.0028561117418604435
210.0, 0.0020098106388377257
211.0, 0.0014056671290819161
212.0, 0.00097974513750137
213.0, 0.0007816569294313465
214.0, 0.0008769795825635452
215.0, 0.0005755402501877292
216.0, 3.466455915711981e-05
217.0, 0.0003646810657163879
218.0, 0.0005541517655395956
219.0, 0.0005021171533338454
220.0, 0.0005199404358068564
221.0, 0.0008220927414311451
222.0, 0.000795188026024495
223.0, 0.0008183096281709015
224.0, 0.0011031977633241673
225.0, 0.0015177465164633607
226.0, 0.001514431407466565
227.0, 0.0017758808408170786
228.0, 0.0021588670226909035
229.0, 0.002656814038027706
230.0, 0.0033489531988452345
231.0, 0.0037179658184040404
232.0, 0.004248656507566504
233.0, 0.005041983467547873
234.0, 0.005997371913510124
235.0, 0.007027258317951066
236.0, 0.008033341590540909
237.0, 0.009059836837351034
238.0, 0.010121849732540064
239.0, 0.011145816848405097
240.0, 0.011194369096526526
241.0, 0.010882103049923037
242.0, 0.01051350815410107
243.0, 0.010233525561433315
244.0, 0.010101899055108148
245.0, 0.0101160298987341
246.0, 0.010118554944211607
247.0, 0.01020445947999029
248.0, 0.010728224823721082
249.0, 0.011148246113125284
250.0, 0.011344535463787494
251.0, 0.011437998782529869
252.0, 0.011492337907454667
253.0, 0.01080452462804733
254.0, 0.010132482918610387
255.0, 0.009116793951219712
256.0, 0.007645221518464116
257.0, 0.006354844981067801
258.0, 0.005680600669206027
259.0, 0.0048027458560992295
260.0, 0.0038452137667131024
261.0, 0.0032632274260677354
262.0, 0.0026625925817987087
263.0, 0.0021372502540434723
264.0, 0.0016498122462186013
265.0, 0.0012518825651041117
266.0, 0.0011040171753476037
267.0, 0.0006263628675607859
268.0, 0.00038263474732989683
269.0, 0.00026076046962428045
270.0, 4.0276557105612814e-05
271.0, 2.113759275938303e-05
272.0, 5.006731219106171e-06
273.0, 5.6907747046469826e-05
274.0, 6.599021993200552e-05
275.0, 0.000247104823817389
276.0, 0.000308402264893625
277.0, 0.0003458721154958161
278.0, 0.00028585388199694583
279.0, 4.5912905123593544e-05
280.0, 7.29767603422636e-05
281.0, 0.00016283217213953037
282.0, 0.00013125638243665223
283.0, 0.0002735135872619083
284.0, 0.0003382217180470429
285.0, 0.0001131151329279638
286.0, 0.00023732411670944999
287.0, 0.00045199946342645473
288.0, 0.0004311645000225605
289.0, 0.000494654338655793
290.0, 0.0006174654684017726
291.0, 0.0006872518167452233
292.0, 0.0006146746146757483
293.0, 0.0004077632113475429
294.0, 0.00035256041437053997
295.0, 0.00030878799542465116
296.0, 0.0002821938040040878
297.0, 0.00018411037054003995
298.0, 0.0001436224036568431
299.0, 7.797204375841474e-05
300.0, 0.00022306989842342322
301.0, 0.00022981677545010052
302.0, 0.00016132239172624168
303.0, 0.00028434729610372775
304.0, 0.00040287489688854065
305.0, 0.00040449234915676335
306.0, 0.0003583360641754067
307.0, 0.00045988456993827293
308.0, 0.0007691373556596453
309.0, 0.0010671649196085243
310.0, 0.001279836610513376
311.0, 0.0014846187978759765
312.0, 0.0018323053150314868
313.0, 0.0022603470136428297
314.0, 0.0025189730676243825
315.0, 0.002990269257979285
316.0, 0.0039463265611433766
317.0, 0.003992333785339006
318.0, 0.004623426394097745
319.0, 0.005202790062292433
320.0, 0.005406014516808301
321.0, 0.005663854966083775
322.0, 0.006124601206591184
323.0, 0.005965833239153902
324.0, 0.00547055205503643
325.0, 0.0051803634613447214
326.0, 0.005196884235027875
327.0, 0.004312477840506012
328.0, 0.003606211720349628
329.0, 0.0032085936458983036
330.0, 0.002685150654791409
331.0, 0.002563675990987343
332.0, 0.0022397304517608884
333.0, 0.001768002734479754
334.0, 0.0013056371916680856
335.0, 0.0010006001669667474
336.0, 0.0011579739516923073
337.0, 0.0010809776187386895
338.0, 0.0008592275701468382
339.0, 0.0007335357856450717
340.0, 0.0005760651927004278
341.0, 0.0007496365920111187
342.0, 0.0007032108546771707
343.0, 0.0004984578269494143
344.0, 0.0004336980337354893
345.0, 0.00023626392739679972
346.0, 5.421632317193135e-05
347.0, 8.958182445821831e-05
348.0, 0.000248033859437328
349.0, 0.00022242642451380756
350.0, 5.4935994605496936e-05
351.0, 5.549865919749213e-05
352.0, 0.00012083282991944939
353.0, 0.00011855709124744966
354.0, 8.404068986645601e-05
355.0, 8.722570649976413e-05
356.0, 0.00010798823999255846
357.0, 0.00024100634549132152
358.0, 0.0002069259908725724
359.0, 0.00035304611212798667
360.0, 0.0002734437289387028
361.0, 0.00024356638215707822
362.0, 0.0002601702624150682
363.0, 0.0001856100217378649
364.0, 5.09667040640154e-05
365.0, 4.802677971878965e-05
366.0, 9.081614741327422e-05
367.0, 6.683891584863314e-05
368.0, 5.4818255864723474e-05
369.0, 0.0001113249010122382
370.0, 6.269830361799888e-05
371.0, 2.8279858218679816e-05
372.0, 6.542343035349127e-05
373.0, 0.00015027400915401703
374.0, 0.0002365699773372565
375.0, 0.0003526981872369906
376.0, 0.0003880803471866629
377.0, 0.0003710950311805372
378.0, 0.0005359908938717766
379.0, 0.000758904171390991
380.0, 0.0008120406844508454
381.0, 0.0008524769784231494
382.0, 0.0009957650650256771
383.0, 0.0010667653535033034
384.0, 0.001216462449864456
385.0, 0.001570522985132149
386.0, 0.0016989489147936038
387.0, 0.0015413561492902204
388.0, 0.0020393809074298937
389.0, 0.0024036596124411835
390.0, 0.002626983229566443
391.0, 0.0028624275128707717
392.0, 0.0031713911207167733
393.0, 0.0034855640362342014
394.0, 0.004191855429494535
395.0, 0.004390133102544916
396.0, 0.004386662402707783
397.0, 0.004972751356621084
398.0, 0.005670817016806404
399.0, 0.005971800112548494
400.0, 0.00640870730506427
401.0, 0.0068799731753414525
402.0, 0.00695342251484308
403.0, 0.007245708445593014
404.0, 0.0076132044531383
405.0, 0.007997653315699
406.0, 0.00827082663270788
407.0, 0.008400516616806788
408.0, 0.008998465640606397
409.0, 0.009236031272146608
410.0, 0.009349348017103905
411.0, 0.009708254691953789
412.0, 0.010435958928981432
413.0, 0.011623702799503336
414.0, 0.011818195185223906
415.0, 0.012100981836229206
416.0, 0.012989030160029577
417.0, 0.013749457267463006
418.0, 0.01473377618135345
419.0, 0.01535926299219123
420.0, 0.016356287497209205
421.0, 0.01768580265561457
422.0, 0.0183882786611419
423.0, 0.01958169163773174
424.0, 0.021025649033148457
425.0, 0.022002559932305592
426.0, 0.022535440457085422
427.0, 0.023408470285195423
428.0, 0.024647430951803724
429.0, 0.0260973466869536
430.0, 0.02718294272591683
431.0, 0.028154341502089963
432.0, 0.029839507332183827
433.0, 0.030465257576066117
434.0, 0.031582717843414355
435.0, 0.03273121698985766
436.0, 0.03344745449571754
437.0, 0.034234730486899685
438.0, 0.03524511120705704
439.0, 0.03519314190652566
440.0, 0.035853529115850546
441.0, 0.037026840571107916
442.0, 0.03651374958345488
443.0, 0.03701739474108848
444.0, 0.037365689595907234
445.0, 0.03645212591024704
446.0, 0.034673882753519285
447.0, 0.03343326389573593
448.0, 0.03239758274036365
449.0, 0.030936866947437934
450.0, 0.02916195019587866
451.0, 0.0271378296241298
452.0, 0.024803568540066996
453.0, 0.022915307329610717
454.0, 0.021282752248710776
455.0, 0.019888612993404022
456.0, 0.018352540820950815
457.0, 0.01647633898778752
458.0, 0.015553781132170567
459.0, 0.01414729455147165
460.0, 0.01289399856869368
461.0, 0.012039326108813666
462.0, 0.011099891159557423
463.0, 0.009923975838039716
464.0, 0.009515811684848545
465.0, 0.008762191718330014
466.0, 0.007923338872031482
467.0, 0.007694734518798034
468.0, 0.007039563879270651
469.0, 0.006370634835139164
470.0, 0.005816831062491355
471.0, 0.005311093298163704
472.0, 0.004868057529551732
473.0, 0.004707290290694969
474.0, 0.004389318773465275
475.0, 0.00412646184717995
476.0, 0.0038070355710886628
477.0, 0.0034695725887022174
478.0, 0.0035564882803607954
479.0, 0.003327503600628918
480.0, 0.002903998915055215
481.0, 0.0025865365567314287
482.0, 0.0024388929781351608
483.0, 0.0023065608885628904
484.0, 0.0019903009500251917
485.0, 0.001930102600778437
486.0, 0.0018654207895843883
487.0, 0.0017723801664011741
488.0, 0.0019167525961015603
489.0, 0.0017729923996930963
490.0, 0.0015420081518996074
491.0, 0.0013384186197163447
492.0, 0.0010998215806162597
493.0, 0.0008055656824349406
494.0, 0.0008456114496843937
495.0, 0.0006596481419945112
496.0, 0.0005548586038232225
497.0, 0.0005457073786515022
498.0, 0.0004977210245205287
499.0, 0.0005425333114048522
500.0, 0.00043594897207664186
501.0, 0.00019874680965807891
502.0, 2.7530161336182114e-05
503.0, 9.992284267004595e-05
504.0, 0.00016653098130640183
505.0, 6.537451892682011e-05
506.0, 5.0037838107586386e-05
507.0, 4.094997888103014e-05
508.0, 3.5740136373813074e-05
509.0, 3.285434346082018e-05
510.0, 5.5554286400601535e-05
511.0, 8.041487445474525e-05
512.0, 4.7642594711545156e-05
513.0, 2.6274780793641625e-05
514.0, 9.197632933246862e-05
515.0, 7.133226394013914e-05
516.0, 0.00012815249781032936
517.0, 1.8190079370266212e-05
518.0, 0.00011116141661480142
519.0, 6.180431177792164e-05
520.0, 7.078976145009757e-05
521.0, 0.0001132000086034095
522.0, 0.00026484846531011675
523.0, 0.00032481986151898366
524.0, 0.00027809032829322273
525.0, 0.00011788469380194601
526.0, 0.0001718746556966489
527.0, 0.00016410775562638439
528.0, 9.171326150403401e-05
529.0, 0.00011614720782857382
530.0, 0.00022863420274019352
531.0, 7.095940223751333e-05
532.0, 1.1641331460488013e-05
533.0, 8.914957373604128e-05
534.0, 5.262957967603963e-05
535.0, 0.00030847707066481144
536.0, 0.00012042551325853454
537.0, 6.219999330324099e-05
538.0, 0.00013526030692596856
539.0, 0.00013967546236225468
540.0, 0.00039654702357540077
541.0, 0.00014663419063671782
542.0, 1.4462349546155958e-05
543.0, 0.0002070097789499214
544.0, 0.0005486511097131041
545.0, 0.0006731288372144653
546.0, 0.0005674737684025319
547.0, 0.0009494451176718398
548.0, 0.0010913243018203882
549.0, 0.0014278938996129223
550.0, 0.0016942951900921878
551.0, 0.0017435325086282102
552.0, 0.001995100668625546
553.0, 0.0026580372529611414
554.0, 0.0028082169152606204
555.0, 0.002989908894923347
556.0, 0.003450785335018967
557.0, 0.003982389264862049
558.0, 0.004670809898845059
559.0, 0.005139673182288864
560.0, 0.005981104133819331
561.0, 0.006912914384133107
562.0, 0.007779091571570686
563.0, 0.00901012665618899
564.0, 0.010713639507323866
565.0, 0.011958160423280205
566.0, 0.01318353344320073
567.0, 0.015078249090685869
568.0, 0.017343365513153672
569.0, 0.01871679762642295
570.0, 0.020931087943379164
571.0, 0.022999502870431853
572.0, 0.02460891760775988
573.0, 0.026030158318854354
574.0, 0.027385247858832916
575.0, 0.027681912669644003
576.0, 0.027761894525678954
577.0, 0.02736645880148506
578.0, 0.026296414640398832
579.0, 0.02484691682508247
580.0, 0.02371806306271245
581.0, 0.02262829754043823
582.0, 0.022455331311961698
583.0, 0.022735019237161997
584.0, 0.02357219610213701
585.0, 0.02554927613428661
586.0, 0.027050160585506144
587.0, 0.029912313125498878
588.0, 0.03228012176893744
589.0, 0.033551010827945524
590.0, 0.0336941550454993
591.0, 0.032190142248655226
592.0, 0.028982818694084943
593.0, 0.025630642517733074
594.0, 0.02268068865174432
595.0, 0.019986094303569894
596.0, 0.017377364218019112
597.0, 0.014968098620852898
598.0, 0.013558668417251002
599.0, 0.01198942303703701
600.0, 0.010213586755558416
601.0, 0.008616528010140852
602.0, 0.007382543219586153
603.0, 0.006258234304184746
604.0, 0.005938860515280362
605.0, 0.005479920433537375
606.0, 0.004813411723679044
607.0, 0.0044619023659285845
608.0, 0.004375169909135675
609.0, 0.004528671376516783
610.0, 0.004550396412134384
611.0, 0.005153718332181268
612.0, 0.006119983822075427
613.0, 0.006888463480499065
614.0, 0.008204267202045958
615.0, 0.009729573581877397
616.0, 0.012031906503648512
617.0, 0.01476289587092141
618.0, 0.01774746722314381
619.0, 0.02106170189376856
620.0, 0.024143194431129732
621.0, 0.028698230879511396
622.0, 0.033282974532788286
623.0, 0.03804458175759343
624.0, 0.043593056980811264
625.0, 0.049758914772517655
626.0, 0.055801587072933014
627.0, 0.06200153905280113
628.0, 0.06679222234548628
629.0, 0.06849111768436145
630.0, 0.06619885411566243
631.0, 0.060249900352536995
632.0, 0.05158593791007814
633.0, 0.042388041495963195
634.0, 0.03386380127755672
635.0, 0.026695979908744838
636.0, 0.021226366366170677
637.0, 0.017368026910398966
638.0, 0.01427406433493051
639.0, 0.01179141169415009
640.0, 0.010003754110609086
641.0, 0.008785658353020592
642.0, 0.007830899724008022
643.0, 0.006979778546961247
644.0, 0.005971804044048516
645.0, 0.00539471935658399
646.0, 0.0049454704643666185
647.0, 0.004455586406899234
648.0, 0.0040942108563239155
649.0, 0.0035769541556588363
650.0, 0.0029604685835044556
651.0, 0.002273606153106579
652.0, 0.002066284090997001
653.0, 0.0021734281447075266
654.0, 0.001866148264558713
655.0, 0.0015660700198443969
656.0, 0.0012121176890376572
657.0, 0.0012760086315998908
658.0, 0.0012002317462623032
659.0, 0.000858244965373331
660.0, 0.0008510854931838393
661.0, 0.00041542212489006447
662.0, 0.0003855760958261927
663.0, 0.00024075006865763396
664.0, 3.310154211502509e-05
665.0, 2.0401936158064673e-05
666.0, 9.873082828638514e-05
667.0, 5.93804839109249e-05
668.0, 7.641095162082791e-05
669.0, 0.000143576580722147
670.0, 7.517991267219793e-05
671.0, 3.0332698385395346e-05
672.0, 5.505224082602638e-05
673.0, 0.0001448078966135403
674.0, 5.909670768167612e-05
675.0, 8.360679832162118e-05
676.0, 4.8561498588107254e-05
677.0, 7.416693778910902e-05
678.0, 6.491669973076739e-05
679.0, 1.1224535837867056e-05
680.0, 0.00020791653164830708
681.0, 6.527981498550716e-05
682.0, 0.00016762446542348098
683.0, 0.0003856237446155716
684.0, 0.00012730577032209786
685.0, 5.4074697213101175e-05
686.0, 0.00011843845747588384
687.0, 0.0002332919186049839
688.0, 0.00014496728241955988
689.0, 0.00010774582625354481
690.0, 0.0003510506957152699
691.0, 0.00014502592880406728
692.0, 0.0001482916569822338
693.0, 7.651398445984015e-05
694.0, 2.717432698899513e-07
695.0, 0.00017218587764888742
696.0, 0.00041174774766152813
697.0, 0.00014140067182202208
698.0, 0.00013798187107998326
699.0, 0.00021511654921996858
700.0, 0.00020740924724631737
701.0, 0.0001631068571921678
702.0, 0.00017008203851148589
703.0, 0.0001649070763242749
704.0, 0.00017284842503234834
705.0, 0.00019452540252466952
706.0, 0.0002587002359344226
707.0, 0.0003128835912998581
708.0, 0.0002881864957208484
709.0, 0.0002377992104784236
710.0, 0.00044550793757224357
711.0, 0.0004510220458628042
712.0, 0.0003449882424300043
713.0, 0.00029373417482860063
714.0, 0.00022292322517614138
715.0, 1.368234275992719e-05
716.0, 0.00015857574904116673
717.0, 0.0004226465423231139
718.0, 0.0005397321179385086
719.0, 0.00043786862166050135
720.0, 0.0003758499816879917
721.0, 0.0005724003460977778
722.0, 0.0005030249966328729
723.0, 0.0008065661466917401
724.0, 0.0007113971385891211
725.0, 0.0005981843653330337
726.0, 0.0006189680207485626
727.0, 0.000534025707441857
728.0, 0.0005536500560769139
729.0, 0.0008055668648756601
730.0, 0.0009082891964942649
731.0, 0.0007897401317693673
732.0, 0.000614590990798836
733.0, 0.0006316685047415005
734.0, 0.0009855955576214708
735.0, 0.0009719044472146301
736.0, 0.0008528042290339833
737.0, 0.0009559645366099359
738.0, 0.0010102864630024417
739.0, 0.0009072728077639796
740.0, 0.0008874934619461589
741.0, 0.000995341514452939
742.0, 0.0007094252053161626
743.0, 0.0006277159444682247
744.0, 0.0008855309025745144
745.0, 0.0010884857433432966
746.0, 0.0010047696814725552
747.0, 0.000847161231898714
748.0, 0.0008492293635246419
749.0, 0.0007929830128855292
750.0, 0.0006856556621538222
751.0, 0.0008441797808709219
752.0, 0.0011083162094493201
753.0, 0.00081280206796952
754.0, 0.0007050398099336469
755.0, 0.000719528861592358
756.0, 0.0006630615718122395
757.0, 0.000567549662763606
758.0, 0.0004838231251934554
759.0, 0.00045395259554145836
760.0, 0.0005113775634277533
761.0, 0.0004418098751246669
762.0, 0.0006808152899407755
763.0, 0.0009013369164814022
764.0, 0.0008555872866666944
765.0, 0.0007615968552214621
766.0, 0.0009746964753952428
767.0, 0.0008962192966196022
768.0, 0.000831844203594196
769.0, 0.000792170287813259
770.0, 0.0006619356861299083
771.0, 0.0005956073982279243
772.0, 0.0007174517650516478
773.0, 0.0008272310932861284
774.0, 0.0011530695624574294
775.0, 0.0008122701740141957
776.0, 0.0006976408184871584
777.0, 0.0007808146665853196
778.0, 0.0007221040326322391
779.0, 0.0006493669642502752
780.0, 0.0009140362444746066
781.0, 0.0010744748142410133
782.0, 0.0006555503704023321
783.0, 0.0004875857304925537
784.0, 0.0006051164178367617
785.0, 0.000700790171287455
786.0, 0.0008839306205681813
787.0, 0.0006924362236734383
788.0, 0.0007349914136419617
789.0, 0.0007082885435081394
790.0, 0.0006499089311465156
791.0, 0.0006609502226489125
792.0, 0.0006703920043606203
793.0, 0.0005518258722202078
794.0, 0.0006664898130966045
795.0, 0.0006450395895794419
796.0, 0.0005811499216160796
797.0, 0.000688179592802904
798.0, 0.0005149910640934448
799.0, 8.905478301205556e-05
800.0, 0.00019269632925939892
801.0, 0.0003680081508517327
802.0, 0.00041259174505833373
803.0, 0.00020379883558283016
804.0, 0.00017024479761678843
805.0, 0.0004281595259547416
806.0, 0.00044872042208946597
807.0, 0.00011721410200148727
808.0, 0.00026101593321550885
809.0, 0.00047108021208883225
810.0, 0.00046232826604820454
811.0, 0.0003635795251764197
812.0, 0.00034631104079510137
813.0, 0.0003302119598144418
814.0, 0.00021167030597859637
815.0, 0.0004874353819888709
816.0, 0.00046719883285096836
817.0, 0.0002694400854495999
818.0, 0.00024391897281603818
819.0, 0.0004820763840219718
820.0, 0.0007959275944799354
821.0, 0.0007514689812665474
822.0, 0.0008705114299391694
823.0, 0.0007137002948396999
824.0, 0.00046796818871645563
825.0, 0.0006623130035803675
826.0, 0.0010949667576695228
827.0, 0.001033427282467609
828.0, 0.001022829250427067
829.0, 0.0011739224880016595
830.0, 0.0011482757845247276
831.0, 0.0011162229186811043
832.0, 0.0011605872946319877
833.0, 0.0011371042402160167
834.0, 0.0009941701959138407
835.0, 0.0013864018812054664
836.0, 0.0017779892174943118
837.0, 0.0017468984084722887
838.0, 0.0016413222429297538
839.0, 0.0017039916328840886
840.0, 0.00180987703975296
841.0, 0.0018977579637106674
842.0, 0.002159192728867378
843.0, 0.0019071356532035456
844.0, 0.0016656453278494385
845.0, 0.0018379272992079072
846.0, 0.0020094322602329916
847.0, 0.001880145355556814
848.0, 0.0019161128665426085
849.0, 0.0020665108529350526
850.0, 0.0018546210649501025
851.0, 0.001819014967280247
852.0, 0.001761730688945143
853.0, 0.0015642825481561806
854.0, 0.0014532632885576287
855.0, 0.0015190543406789776
856.0, 0.0013472679640730602
857.0, 0.001275129763370967
858.0, 0.0011642869364818472
859.0, 0.0009843760995191758
860.0, 0.000819395608437201
861.0, 0.0008657163532166107
862.0, 0.0010496211617025812
863.0, 0.0007578154067107525
864.0, 0.0008942007546114848
865.0, 0.0008029344695191489
866.0, 0.0002226751839065581
867.0, 0.00011889245956085318
868.0, 0.00026604517538837225
869.0, 1.2449488327044392e-05
870.0, 5.6946448922287175e-05
871.0, 0.00017945739103103703
872.0, 4.675568123486365e-05
873.0, 0.0001955087124713871
874.0, 0.00012504293845962743
875.0, 0.00023693284318854356
876.0, 0.00027951483586052285
877.0, 0.00021765930977190126
878.0, 0.0004385236168439488
879.0, 0.0004155667782309852
880.0, 0.0002436288237092184
881.0, 7.211288541848453e-05
882.0, 0.0001489869549206925
883.0, 0.00034918548056040723
884.0, 0.0003109707163526903
885.0, 0.0002548117505554558
886.0, 0.00047499379784747623
887.0, 9.918712981084863e-05
888.0, 0.0001436476020848907
889.0, 0.00036256747913395744
890.0, 0.00037756484104085235
891.0, 0.00040661025751611207
892.0, 0.00015435968054784512
893.0, 8.108294643008825e-05
894.0, 0.0003394909821019866
895.0, 0.00017290857948563758
896.0, 1.8346341621307476e-05
897.0, 5.375104878205647e-06
898.0, 0.00010699749859236112
899.0, 9.433769001827806e-05
900.0, 9.440854291681782e-05
901.0, 0.00028488402716620814
902.0, 0.0004406040727325814
903.0, 0.0006011988964861058
904.0, 0.0004077789125830972
905.0, 5.113272922126909e-05
906.0, 0.0002206730098150141
907.0, 0.000990602077949437
908.0, 0.0010859508216706521
909.0, 0.0010039474918374482
910.0, 0.0015609033465154125
911.0, 0.0019467150464347071
912.0, 0.002131785543737997
913.0, 0.0023332385431567193
914.0, 0.0025659660474458552
915.0, 0.003123129153129459
916.0, 0.003745075143568922
917.0, 0.004218913953918542
918.0, 0.004792465860195298
919.0, 0.00565105245729616
920.0, 0.006575560297596103
921.0, 0.007554118464437749
922.0, 0.008690076589761729
923.0, 0.00953791143083312
924.0, 0.010965712412488206
925.0, 0.011968600865440068
926.0, 0.013044078547645478
927.0, 0.01401447797391701
928.0, 0.0156411134440355
929.0, 0.01819812178498269
930.0, 0.020326993077186342
931.0, 0.022413369908483017
932.0, 0.025573367899268645
933.0, 0.029185233502990796
934.0, 0.03417971780110874
935.0, 0.040793453621249934
936.0, 0.048100431168940555
937.0, 0.05726148564178489
938.0, 0.07186736506638644
939.0, 0.09170470092809803
940.0, 0.12058455571992285
941.0, 0.15666941873358714
942.0, 0.20298848223391897
943.0, 0.26051396734724486
944.0, 0.328318401414004
945.0, 0.40647016267406766
946.0, 0.4949958515561681
947.0, 0.595162304789313
948.0, 0.7042932216621955
949.0, 0.8284529394013862
950.0, 0.9502991236864229
951.0, 0.9994394179985563
952.0, 0.9454266550316711
953.0, 0.8055993198387674
954.0, 0.632096600984927
955.0, 0.47147397185039036
956.0, 0.3477611048000948
957.0, 0.25370502831045066
958.0, 0.18302370560755557
959.0, 0.13300536893045087
960.0, 0.09787505340002498
961.0, 0.07260282210586662
962.0, 0.05512686861993667
963.0, 0.04496484859890676
964.0, 0.03734816881997187
965.0, 0.03126718719462224
966.0, 0.027687176288134323
967.0, 0.024470399687925908
968.0, 0.02178892648712878
969.0, 0.02042159559476179
970.0, 0.01889567506564645
971.0, 0.018016895833683117
972.0, 0.01762514181895865
973.0, 0.01750871677600573
974.0, 0.016520974388939662
975.0, 0.01538970138350765
976.0, 0.014489995876301554
977.0, 0.014040286574267926
978.0, 0.014219078154361284
979.0, 0.014350029202624662
980.0, 0.014382037806021283
981.0, 0.014813731756708453
982.0, 0.015194640981062988
983.0, 0.016270655044148683
984.0, 0.01779233600755386
985.0, 0.019088040752065764
986.0, 0.02035428374259402
987.0, 0.0223070894942048
988.0, 0.025294909192250904
989.0, 0.02829899037416718
990.0, 0.03105265052106225
991.0, 0.03427219178322115
992.0, 0.03852401920359036
993.0, 0.04347873486977864
994.0, 0.048231568791272494
995.0, 0.052949295953870566
996.0, 0.059356215284248025
997.0, 0.06549176540378253
998.0, 0.0719821129527072
999.0, 0.07740844043799976
1000.0, 0.081791426587456
1001.0, 0.08572907040419817
1002.0, 0.08671149409803484
1003.0, 0.08309861172002721
1004.0, 0.07762435166184406
1005.0, 0.07010727811111774
1006.0, 0.059712203946394246
1007.0, 0.04995637845751296
1008.0, 0.04078340412120908
1009.0, 0.033855944040598634
1010.0, 0.028560712088599505
1011.0, 0.02355635003534295
1012.0, 0.019660964783415003
1013.0, 0.017256103448533087
1014.0, 0.014546830197802773
1015.0, 0.013073606285134395
1016.0, 0.012738891528983342
1017.0, 0.012060366186594909
1018.0, 0.011047121454400418
1019.0, 0.010227325957629478
1020.0, 0.009290266521630411
1021.0, 0.007708420414485368
1022.0, 0.0063121047616778204
1023.0, 0.005112886274710088
1024.0, 0.0037462389922654628
1025.0, 0.0029322024972845365
1026.0, 0.0022464210019258386
1027.0, 0.0015149836599527083
1028.0, 0.0009413777575253495
1029.0, 0.0005364813937795201
1030.0, 0.00021361120279340528
1031.0, 0.00010360410265139679
1032.0, 7.424170695166814e-05
1033.0, 9.237404743621565e-05
1034.0, 0.00037533049670174717
1035.0, 0.0005285595163414575
1036.0, 0.0005527624664897014
1037.0, 0.0006062500418614414
1038.0, 0.0007243365924321001
1039.0, 0.0008133431376094338
1040.0, 0.0006426123376401212
1041.0, 0.0006581302950061836
1042.0, 0.0004259117388311562
1043.0, 0.0003692028453981163
1044.0, 0.0006069609654457895
1045.0, 0.0005772533686659691
1046.0, 0.0003815530827593936
1047.0, 0.00029177563095877343
1048.0, 0.00010555522669318469
1049.0, 0.0004394546430736615
1050.0, 0.000395372333967983
1051.0, 0.0007874893026847629
1052.0, 0.0011782938023080774
1053.0, 0.0017368390722812682
1054.0, 0.00252870311071469
1055.0, 0.0035351184381749983
1056.0, 0.004956820872261366
1057.0, 0.006767514596500277
1058.0, 0.008622853455947672
1059.0, 0.011809813614795873
1060.0, 0.016090577072089055
1061.0, 0.020118335226824997
1062.0, 0.025569264539978584
1063.0, 0.03177193887687196
1064.0, 0.03956753104397746
1065.0, 0.04806061098109809
1066.0, 0.05571307136854162
1067.0, 0.0645724227054219
1068.0, 0.07300179716181676
1069.0, 0.0770392774116179
1070.0, 0.07421075349331088
1071.0, 0.06434424793528552
1072.0, 0.051603641229920484
1073.0, 0.03956245315830924
1074.0, 0.030422191877161442
1075.0, 0.024482797656633182
1076.0, 0.020607992039028553
1077.0, 0.017996387267090297
1078.0, 0.016420812868588222
1079.0, 0.01604788394518778
1080.0, 0.016015538155797506
1081.0, 0.016559186868896018
1082.0, 0.016531987257132816
1083.0, 0.015432649548411868
1084.0, 0.013263301565676053
1085.0, 0.010702658621623161
1086.0, 0.008871975503750676
1087.0, 0.00671252644035057
1088.0, 0.0059669450351767525
1089.0, 0.0046535727209332176
1090.0, 0.004083224891941399
1091.0, 0.003478952872448824
1092.0, 0.0027429004923966807
1093.0, 0.002426310166711549
1094.0, 0.0023751697751250014
1095.0, 0.0020134032607919887
1096.0, 0.0015321208655045431
1097.0, 0.0016716127979655734
1098.0, 0.0013203870211244899
1099.0, 0.0009618759534373057
1100.0, 0.0008933597510957103
1101.0, 0.000573017293557875
1102.0, 0.0004892271506384444
1103.0, 0.0006725443560026297
1104.0, 0.000686484249968373
1105.0, 0.0005378490513662465
1106.0, 0.0003648653555603411
1107.0, 0.00032347067950987693
1108.0, 0.000509251629848729
1109.0, 0.000321152038310428
1110.0, 3.109450931868216e-05
1111.0, 0.00012145386049500494
1112.0, 6.623036909223903e-05
1113.0, 0.00025859163696081934
1114.0, 0.0004305421606734005
1115.0, 2.4710461464952133e-05
1116.0, 0.00022413432757353475
1117.0, 0.00013992130412580927
1118.0, 4.444893476837318e-05
1119.0, 8.002308208711502e-05
1120.0, 0.0003321174393189992
1121.0, 0.0005286132420429721
1122.0, 0.0002714676673454068
1123.0, 4.879461368811104e-05
1124.0, 0.00023644560928159507
1125.0, 0.0003406462169008121
1126.0, 0.00016947686364453978
1127.0, 0.0005274395133173891
1128.0, 0.00046317205997233735
1129.0, 0.00021953880160301134
1130.0, 0.00032934712717383365
1131.0, 0.0005085613916701369
1132.0, 0.0006614319731344996
1133.0, 0.0005945233207975643
1134.0, 0.0005567666008832373
1135.0, 0.0006606572532599773
1136.0, 0.0005053922721266676
1137.0, 0.0002380376653457151
1138.0, 0.0004337250326909737
1139.0, 0.00025274371479746627
1140.0, 0.0002611832985510669
1141.0, 0.00047260393031943525
1142.0, 0.0003072379724753646
1143.0, 0.000310785101942714
1144.0, 0.00016920007114356233
1145.0, 0.0001308757358302131
1146.0, 0.00024672201362185126
1147.0, 5.6249853142788237e-05
1148.0, 5.708851827468191e-05
1149.0, 0.0003542771615348026
1150.0, 0.0004951796480545155
1151.0, 0.00020505863241612906
1152.0, 4.227946063295053e-05
1153.0, 0.00017127130348889235
1154.0, 0.0003021561645916371
1155.0, 0.00018144194716247496
1156.0, 5.402991593721945e-05
1157.0, 0.00010291426796076855
1158.0, 0.00024206732038763103
1159.0, 5.233065581118589e-05
1160.0, 8.550379883966476e-05
1161.0, 5.3740489689474e-05
1162.0, 0.00030643063232817523
1163.0, 0.0006300277495725411
1164.0, 0.00032721444070734577
1165.0, 0.00028852764568293996
1166.0, 0.00016534133808227797
1167.0, 0.0001429253687848444
1168.0, 0.0005933559414589094
1169.0, 0.0006496833423332786
1170.0, 0.0005172829600612089
1171.0, 0.0004412980284694912
1172.0, 0.0007515031691291014
1173.0, 0.0007780102574715
1174.0, 0.0009940067690860162
1175.0, 0.0011877781878803445
1176.0, 0.0008247738286219247
1177.0, 0.0007446790647466882
1178.0, 0.0010469384438545446
1179.0, 0.0012075479054995668
1180.0, 0.001297855753758615
1181.0, 0.0013030562226433332
1182.0, 0.0015950308086834682
1183.0, 0.0011510502238749997
1184.0, 0.0009649677889288436
1185.0, 0.0013103452933231475
1186.0, 0.0011840310508870976
1187.0, 0.0011480907789330932
1188.0, 0.001147454280645769
1189.0, 0.0010995672376564434
1190.0, 0.0009023045148417404
1191.0, 0.001428359281104915
1192.0, 0.002604704461531484
1193.0, 0.000909979252245624
1194.0, 0.0011639124962574542
1195.0, 0.0010095434320923997
1196.0, 0.0008256778285569611
1197.0, 0.0006793701086833903
1198.0, 0.0008248832807327473
1199.0, 0.00039610643336339613
1200.0, 0.00033075471652801633
1201.0, 0.0005240244119603189
1202.0, 0.00037070067496556625
1203.0, 0.0002702105725636067
1204.0, 0.0001800282859471902
1205.0, 0.00016836009146584615
1206.0, 2.314589231047584e-06
1207.0, 0.0004299270642144027
1208.0, 0.0004519116679474121
1209.0, 0.000253316049684373
1210.0, 0.00036056550337340527
1211.0, 0.00013384166667302293
1212.0, 0.00010920366734670043
1213.0, 0.00010346161111579011
1214.0, 4.41950857720174e-05
1215.0, 2.480564742360597e-05
1216.0, 3.4907951915488596e-05
1217.0, 3.699995576437196e-05
1218.0, 7.2116136658392e-05
1219.0, 2.889918857936238e-05
1220.0, 0.00013935632019227651
1221.0, 0.00011447140062258518
1222.0, 0.00017338055968989827
1223.0, 0.0001385314469746275
1224.0, 0.00013195369996981882
1225.0, 0.00015875739538857015
1226.0, 6.445044416526172e-05
1227.0, 0.00012042369966880191
1228.0, 0.0001801078908890044
1229.0, 8.034632736591761e-05
1230.0, 8.398482645777158e-05
1231.0, 0.00017966079983132826
1232.0, 0.00025692512444543385
1233.0, 0.00016001354482360087
1234.0, 0.00023374925013189992
1235.0, 5.409450244163937e-05
1236.0, 0.00016800584061617884
1237.0, 3.569023658424284e-05
1238.0, 8.185710550993975e-05
1239.0, 0.00020699751833461514
1240.0, 0.00018396975704591839
1241.0, 9.806402504754912e-05
1242.0, 0.00015120420050450297
1243.0, 0.0002602810755464614
1244.0, 0.0003922903711877738
1245.0, 0.00016976482838045205
1246.0, 0.00041939775797604603
1247.0, 0.0005259577287460559
1248.0, 0.00032852177674167474
1249.0, 0.0003554606671516709
1250.0, 0.0005848519829655515
1251.0, 0.0006368087111684684
1252.0, 0.000785558362935545
1253.0, 0.001015494189840712
1254.0, 0.0008582979679262827
1255.0, 0.0007574861762759061
1256.0, 0.0005850932580130868
1257.0, 0.0008229010449406805
1258.0, 0.0008712166120047676
1259.0, 0.0008708821642506194
1260.0, 0.001026929068656943
1261.0, 0.0011946747296342616
1262.0, 0.0013431278535951945
1263.0, 0.0012795674784004802
1264.0, 0.0013697200591908177
1265.0, 0.0014481905021246197
1266.0, 0.001124432027150398
1267.0, 0.0010115188938419146
1268.0, 0.0012823116803522472
1269.0, 0.0011419421993967601
1270.0, 0.001384898439464204
1271.0, 0.0013237659242347406
1272.0, 0.0009304157976916214
1273.0, 0.001230529948701746
1274.0, 0.0013082653497450787
1275.0, 0.0010689044974500508
1276.0, 0.0009730364329536888
1277.0, 0.0012014231962569394
1278.0, 0.0011175514851613003
1279.0, 0.0010908205322877037
1280.0, 0.0012472083208378076
1281.0, 0.0011706144538149096
1282.0, 0.0011277401447717767
1283.0, 0.0009513850278656984
1284.0, 0.0011686611331405432
1285.0, 0.0011643716384966483
1286.0, 0.0010158516630936149
1287.0, 0.0011393864551889265
1288.0, 0.0008156337524221961
1289.0, 0.0009171831695277113
1290.0, 0.0010483141335070156
1291.0, 0.0009241375335945966
1292.0, 0.0008736034946679701
1293.0, 0.0007318728004884892
1294.0, 0.0009126928748352762
1295.0, 0.000952650155556765
1296.0, 0.0005062672208703627
1297.0, 0.0009718302076095911
1298.0, 0.0008379391513599017
1299.0, 0.0010189541474801543
1300.0, 0.0010461019864112329
1301.0, 0.001063509874332208
1302.0, 0.0005993442857754434
1303.0, 0.0009475215739526041
1304.0, 0.000880778368200244
1305.0, 0.000764730704099046
1306.0, 0.0007643395784831633
1307.0, 0.0008624712571940197
1308.0, 0.000993989530427968
1309.0, 0.0010988830014394475
1310.0, 0.0012033190428261391
1311.0, 0.0011656957520695464
1312.0, 0.001054116441233725
1313.0, 0.0012683090226022163
1314.0, 0.0015196849974246436
1315.0, 0.0017526457974359558
1316.0, 0.0016890354583814584
1317.0, 0.0023468862182586523
1318.0, 0.0020117207610583906
1319, 0.0
1320, 0.0
1321, 0.0
1322, 0.0
1323, 0.0
1324, 0.0
1325, 0.0
1326, 0.0
1327, 0.0
1328, 0.0
1329, 0.0
1330, 0.0
1331, 0.0
1332, 0.0
1333, 0.0
1334, 0.0
1335, 0.0
1336, 0.0
1337, 0.0
1338, 0.0
1339, 0.0
1340, 0.0
1341, 0.0
1342, 0.0
1343, 0.0
1344, 0.0
1345, 0.0
1346, 0.0
1347, 0.0
1348, 0.0
1349, 0.0
1350, 0.0
1351, 0.0
1352, 0.0
1353, 0.0
1354, 0.0
1355, 0.0
1356, 0.0
1357, 0.0
1358, 0.0
1359, 0.0
1360, 0.0
1361, 0.0
1362, 0.0
1363, 0.0
1364, 0.0
1365, 0.0
1366, 0.0
1367, 0.0
1368, 0.0
1369, 0.0
1370, 0.0
1371, 0.0
1372, 0.0
1373, 0.0
1374, 0.0
1375, 0.0
1376, 0.0
1377, 0.0
1378, 0.0
1379, 0.0
1380, 0.0
1381, 0.0
1382, 0.0
1383, 0.0
1384, 0.0
1385, 0.0
1386, 0.0
1387, 0.0
1388, 0.0
1389, 0.0
1390, 0.0
1391, 0.0
1392, 0.0
1393, 0.0
1394, 0.0
1395, 0.0
1396, 0.0
1397, 0.0
1398, 0.0
1399, 0.0
1400, 0.0
1401, 0.0
1402, 0.0
1403, 0.0
1404, 0.0
1405, 0.0
1406, 0.0
1407, 0.0
1408, 0.0
1409, 0.0
1410, 0.0
1411, 0.0
1412, 0.0
1413, 0.0
1414, 0.0
1415, 0.0
1416, 0.0
1417, 0.0
1418, 0.0
1419, 0.0
1420, 0.0
1421, 0.0
1422, 0.0
1423, 0.0
1424, 0.0
1425, 0.0
1426, 0.0
1427, 0.0
1428, 0.0
1429, 0.0
1430, 0.0
1431, 0.0
1432, 0.0
1433, 0.0
1434, 0.0
1435, 0.0
1436, 0.0
1437, 0.0
1438, 0.0
1439, 0.0
1440, 0.0
1441, 0.0
1442, 0.0
1443, 0.0
1444, 0.0
1445, 0.0
1446, 0.0
1447, 0.0
1448, 0.0
1449, 0.0
1450, 0.0
1451, 0.0
1452, 0.0
1453, 0.0
1454, 0.0
1455, 0.0
1456, 0.0
1457, 0.0
1458, 0.0
1459, 0.0
1460, 0.0
1461, 0.0
1462, 0.0
1463, 0.0
1464, 0.0
1465, 0.0
1466, 0.0
1467, 0.0
1468, 0.0
1469, 0.0
1470, 0.0
1471, 0.0
1472, 0.0
1473, 0.0
1474, 0.0
1475, 0.0
1476, 0.0
1477, 0.0
1478, 0.0
1479, 0.0
1480, 0.0
1481, 0.0
1482, 0.0
1483, 0.0
1484, 0.0
1485, 0.0
1486, 0.0
1487, 0.0
1488, 0.0
1489, 0.0
1490, 0.0
1491, 0.0
1492, 0.0
1493, 0.0
1494, 0.0
1495, 0.0
1496, 0.0
1497, 0.0
1498, 0.0
1499, 0.0
1500, 0.0
1501, 0.0
1502, 0.0
1503, 0.0
1504, 0.0
1505, 0.0
1506, 0.0
1507, 0.0
1508, 0.0
1509, 0.0
1510, 0.0
1511, 0.0
1512, 0.0
1513, 0.0
1514, 0.0
1515, 0.0
1516, 0.0
1517, 0.0
1518, 0.0
1519, 0.0
1520, 0.0
1521, 0.0
1522, 0.0
1523, 0.0
1524, 0.0
1525, 0.0
1526, 0.0
1527, 0.0
1528, 0.0
1529, 0.0
1530, 0.0
1531, 0.0
1532, 0.0
1533, 0.0
1534, 0.0
1535, 0.0
1536, 0.0
1537, 0.0
1538, 0.0
1539, 0.0
1540, 0.0
1541, 0.0
1542, 0.0
1543, 0.0
1544, 0.0
1545, 0.0
1546, 0.0
1547, 0.0
1548, 0.0
1549, 0.0
1550, 0.0
1551, 0.0
1552, 0.0
1553, 0.0
1554, 0.0
1555, 0.0
1556, 0.0
1557, 0.0
1558, 0.0
1559, 0.0
1560, 0.0
1561, 0.0
1562, 0.0
1563, 0.0
1564, 0.0
1565, 0.0
1566, 0.0
1567, 0.0
1568, 0.0
1569, 0.0
1570, 0.0
1571, 0.0
1572, 0.0
1573, 0.0
1574, 0.0
1575, 0.0
1576, 0.0
1577, 0.0
1578, 0.0
1579, 0.0
1580, 0.0
1581, 0.0
1582, 0.0
1583, 0.0
1584, 0.0
1585, 0.0
1586, 0.0
1587, 0.0
1588, 0.0
1589, 0.0
1590, 0.0
1591, 0.0
1592, 0.0
1593, 0.0
1594, 0.0
1595, 0.0
1596, 0.0
1597, 0.0
1598, 0.0
1599, 0.0
