30, 0.0
31, 0.0
32, 0.0
33, 0.0
34, 0.0
35, 0.0
36, 0.0
37, 0.0
38, 0.0
39, 0.0
40, 0.0
41, 0.0
42, 0.0
43, 0.0
44, 0.0
45, 0.0
46, 0.0
47, 0.0
48, 0.0
49, 0.0
50, 0.0
51, 0.0
52, 0.0
53, 0.0
54, 0.0
55, 0.0
56, 0.0
57, 0.0
58, 0.0
59, 0.0
60, 0.0
61, 0.0
62, 0.0
63, 0.0
64, 0.0
65, 0.0
66, 0.0
67, 0.0
68, 0.0
69, 0.0
70, 0.0
71, 0.0
72, 0.0
73, 0.0
74, 0.0
75, 0.0
76, 0.0
77, 0.0
78, 0.0
79, 0.0
80, 0.0
81, 0.0
82, 0.0
83, 0.0
84, 0.0
85, 0.0
86, 0.0
87, 0.0
88, 0.0
89, 0.0
90, 0.0
91, 0.0
92, 0.0
93, 0.0
94, 0.0
95, 0.0
96, 0.0
97, 0.0
98, 0.0
99, 0.0
100, 0.0
101, 0.0
102, 0.0
103, 0.0
104, 0.0
105, 0.0
106, 0.0
107, 0.0
108, 0.0
109, 0.0
110, 0.0
111, 0.0
112, 0.0
113, 0.0
114, 0.0
115, 0.0
116, 0.0
117, 0.0
118, 0.0
119, 0.0
120, 0.0
121, 0.0
122, 0.0
123, 0.0
124, 0.0
125, 0.0
126, 0.0
127, 0.0
128, 0.0
129, 0.0
130, 0.0
131, 0.0
132, 0.0
133, 0.0
134, 0.0
135, 0.0
136, 0.0
137, 0.0
138, 0.0
139, 0.0
140, 0.0
141, 0.0
142, 0.0
143, 0.0
144, 0.0
145, 0.0
146, 0.0
147, 0.0
148, 0.0
149, 0.0
150, 0.0
151, 0.0
152, 0.0
153, 0.0
154.0, 0.0007088823357662161
155.0, 0.0021948180301134533
156.0, 0.003991170732613332
157.0, 0.004945797106773156
158.0, 0.004952688509022947
159.0, 0.005166621276944621
160.0, 0.004074998893560967
161.0, 0.002534118858662172
162.0, 0.0011293954614884948
163.0, 0.0002315493791352382
164.0, 0.0006647259010825479
165.0, 0.0003277584949269174
166.0, 4.877595657376589e-05
167.0, 0.0004680781106594266
168.0, 0.0013999282114707573
169.0, 0.002860235220214914
170.0, 0.004211730775483777
171.0, 0.0057224743321557855
172.0, 0.007531470102317882
173.0, 0.00927388221683265
174.0, 0.010746118682936977
175.0, 0.011975173809176147
176.0, 0.012919913063324434
177.0, 0.01359245201943255
178.0, 0.014877531930418724
179.0, 0.01628153703882391
180.0, 0.017734935488892448
181.0, 0.019356244835510957
182.0, 0.020664595767984725
183.0, 0.021872679701537622
184.0, 0.02260217038171968
185.0, 0.02274595838919252
186.0, 0.023071488361177235
187.0, 0.02268618974270076
188.0, 0.02229191098376561
189.0, 0.02183046009785077
190.0, 0.020243162769934403
191.0, 0.018467052453129792
192.0, 0.0167789962259222
193.0, 0.015266059104664194
194.0, 0.013983119114077135
195.0, 0.013214074141399667
196.0, 0.012720671414019488
197.0, 0.012685221810822978
198.0, 0.013118846645647568
199.0, 0.013338898746220466
200.0, 0.01446903868517062
201.0, 0.015835433876497693
202.0, 0.016951152799666414
203.0, 0.01807963652783764
204.0, 0.019642311181798995
205.0, 0.02061617717924291
206.0, 0.021455419638765245
207.0, 0.02305845430734886
208.0, 0.02403460242846334
209.0, 0.025543763072075863
210.0, 0.027463763732041003
211.0, 0.029422229371232934
212.0, 0.03198908296449892
213.0, 0.0335681383203723
214.0, 0.03501301708309285
215.0, 0.036834590802952545
216.0, 0.038558555609740315
217.0, 0.038943338269099036
218.0, 0.03989220037983498
219.0, 0.040502323282743356
220.0, 0.03967251429769713
221.0, 0.03986705591887592
222.0, 0.04005402594340208
223.0, 0.04011085220868629
224.0, 0.039984629427995626
225.0, 0.03954272109990257
226.0, 0.04035379724023555
227.0, 0.04073048310099636
228.0, 0.04080571682626508
229.0, 0.04166035593878871
230.0, 0.04241857843589703
231.0, 0.042084690000089936
232.0, 0.041047975974967656
233.0, 0.03964623471400421
234.0, 0.03731052854891807
235.0, 0.037337969388548435
236.0, 0.035243326610149214
237.0, 0.03071046652082483
238.0, 0.02685350192754327
239.0, 0.023605730809171836
240.0, 0.020161423069037565
241.0, 0.017097351144584147
242.0, 0.014833097256148686
243.0, 0.012200786015249081
244.0, 0.010226446856185133
245.0, 0.008480449385480563
246.0, 0.006692436207870576
247.0, 0.005045407114659141
248.0, 0.0043290779033152375
249.0, 0.0035680096178244474
250.0, 0.002805709047690153
251.0, 0.002334008403300997
252.0, 0.0018645745628721178
253.0, 0.0018542020971634935
254.0, 0.0020538824191889326
255.0, 0.002320010115788576
256.0, 0.0026783429091254674
257.0, 0.003349102577173474
258.0, 0.003693723930031983
259.0, 0.0036664274612860314
260.0, 0.0036827859580593424
261.0, 0.004020102437185855
262.0, 0.003662708334958179
263.0, 0.0034027458916477946
264.0, 0.003455893647688859
265.0, 0.0030215346958922134
266.0, 0.0025022257017453435
267.0, 0.0024482364619497037
268.0, 0.002528379449986811
269.0, 0.002315278832227968
270.0, 0.0021180043728380843
271.0, 0.001961318238965182
272.0, 0.002306019658407529
273.0, 0.0031058874248893397
274.0, 0.003821731566339102
275.0, 0.004115349013915442
276.0, 0.004669066221696429
277.0, 0.005566865859851125
278.0, 0.006586343052321799
279.0, 0.007475520479429456
280.0, 0.009163012919341185
281.0, 0.010170885988460998
282.0, 0.01055550959594624
283.0, 0.011774717095793589
284.0, 0.012797950789750906
285.0, 0.014116113204928992
286.0, 0.015269792854206808
287.0, 0.01612499194848821
288.0, 0.017596451724100733
289.0, 0.018949347744815777
290.0, 0.02007383604950824
291.0, 0.021315773643225164
292.0, 0.023048533208702527
293.0, 0.024941385479463632
294.0, 0.026508053429850516
295.0, 0.027425932261778856
296.0, 0.027878324856483738
297.0, 0.028320092100597542
298.0, 0.027825077286138714
299.0, 0.02671986472136631
300.0, 0.025027675721791872
301.0, 0.022594913914901576
302.0, 0.01960838640466332
303.0, 0.016839744152143052
304.0, 0.013900303692275368
305.0, 0.010468657331727194
306.0, 0.006807169117460195
307.0, 0.004259333017148247
308.0, 0.002068885280062067
309.0, 0.00039544928914993975
310.0, 0.0011384826985673755
311.0, 0.0022084126638788034
312.0, 0.003562677597779192
313.0, 0.0045268238719478986
314.0, 0.005039382209113378
315.0, 0.005327413004317507
316.0, 0.005088390526475587
317.0, 0.005286209939122591
318.0, 0.004772526551647075
319.0, 0.003834378347402548
320.0, 0.004080547120557073
321.0, 0.004230979674714136
322.0, 0.0013397532781652798
323.0, 0.00237677020062005
324.0, 0.001836196097765582
325.0, 0.003704265395538529
326.0, 0.0072543149943656675
327.0, 0.010103809094591394
328.0, 0.012973400556842356
329.0, 0.01724825898362015
330.0, 0.02069513411805106
331.0, 0.023881463471188902
332.0, 0.026084798913565115
333.0, 0.027637672995438907
334.0, 0.02988522132012396
335.0, 0.032544447578479505
336.0, 0.035420897947570154
337.0, 0.038680628377852515
338.0, 0.04221930945005863
339.0, 0.04540316015849518
340.0, 0.04895929301724719
341.0, 0.05038415935459914
342.0, 0.048895587036372166
343.0, 0.045010451741089356
344.0, 0.03967807903494146
345.0, 0.036202480630749906
346.0, 0.03350851775886252
347.0, 0.031545607901245415
348.0, 0.03144642417254434
349.0, 0.03280850958009438
350.0, 0.03442113458425702
351.0, 0.03681704951021101
352.0, 0.0400784829800519
353.0, 0.04348445106204765
354.0, 0.04762369737000878
355.0, 0.05208681499596766
356.0, 0.05726342399587984
357.0, 0.06281895691318033
358.0, 0.06717212681119678
359.0, 0.07145853433531905
360.0, 0.07415638444583994
361.0, 0.07577518692596191
362.0, 0.07729770197745908
363.0, 0.07814699809521945
364.0, 0.07581165220478796
365.0, 0.0726670712081472
366.0, 0.07019436000770429
367.0, 0.06886837485415351
368.0, 0.06956327443611515
369.0, 0.07416826049950223
370.0, 0.08055937960244239
371.0, 0.08791118153591623
372.0, 0.09701315886292645
373.0, 0.10978046902005832
374.0, 0.11806377457349336
375.0, 0.12530181188719808
376.0, 0.13362300332303448
377.0, 0.1394205319784479
378.0, 0.14489252521012191
379.0, 0.14817517201278396
380.0, 0.1490846540006493
381.0, 0.1477425497908335
382.0, 0.1440269857131234
383.0, 0.1384001422947754
384.0, 0.12987883633403574
385.0, 0.11945808229668056
386.0, 0.10923993432577217
387.0, 0.10108282071183933
388.0, 0.09214718868668491
389.0, 0.08229553144477561
390.0, 0.07370016758115064
391.0, 0.06805057839349629
392.0, 0.06394608065808977
393.0, 0.06133059136526343
394.0, 0.05894618190402438
395.0, 0.05659234903051518
396.0, 0.05483344742091149
397.0, 0.054493352454046864
398.0, 0.053132269736212386
399.0, 0.051926705853045034
400.0, 0.05103817886534424
401.0, 0.049720374289137864
402.0, 0.046868279643676715
403.0, 0.04439994634861666
404.0, 0.04202526126805535
405.0, 0.03936111828402111
406.0, 0.0361163250027318
407.0, 0.03113895778052318
408.0, 0.02617435588243629
409.0, 0.022236004329277925
410.0, 0.018655050786572328
411.0, 0.014538510768326242
412.0, 0.01225189624647363
413.0, 0.010002501883514807
414.0, 0.009208558850900475
415.0, 0.009192009625797543
416.0, 0.007963653231661918
417.0, 0.009931818464270839
418.0, 0.012209218328004711
419.0, 0.014237762252548601
420.0, 0.017455013056778306
421.0, 0.022755271973296083
422.0, 0.025986271092142677
423.0, 0.030607198712698472
424.0, 0.03653522796454504
425.0, 0.04244043496401651
426.0, 0.046967188380625406
427.0, 0.05359334253844502
428.0, 0.05986670965575253
429.0, 0.06545207597719452
430.0, 0.07029716206533272
431.0, 0.0742391768203106
432.0, 0.07850959313516559
433.0, 0.08249663529407864
434.0, 0.08537228367619763
435.0, 0.08748006354944807
436.0, 0.0896543975816288
437.0, 0.09050110326852792
438.0, 0.09135418906782226
439.0, 0.09204450925115876
440.0, 0.09258461914364442
441.0, 0.09360491048610561
442.0, 0.09494198233884464
443.0, 0.09596634903525378
444.0, 0.09630339590867251
445.0, 0.0963706965230043
446.0, 0.09623577797161985
447.0, 0.09189264018456457
448.0, 0.08886923708825592
449.0, 0.08619208254525976
450.0, 0.08191404340957081
451.0, 0.07526908496575822
452.0, 0.06860737904175117
453.0, 0.062387709316500825
454.0, 0.05675661606716708
455.0, 0.050831887956807355
456.0, 0.04408702720058297
457.0, 0.03931310794106644
458.0, 0.03511859553392592
459.0, 0.031259253400206216
460.0, 0.028919086205750393
461.0, 0.028354629807683128
462.0, 0.026944621370124502
463.0, 0.02725395145554516
464.0, 0.02837467005950176
465.0, 0.030051767803068653
466.0, 0.03278433490646814
467.0, 0.03686270449751604
468.0, 0.04111597345574669
469.0, 0.04527303803923956
470.0, 0.04958971781006681
471.0, 0.05432542033859928
472.0, 0.059020935708111136
473.0, 0.06225143373199149
474.0, 0.0652419073760178
475.0, 0.06708634620879311
476.0, 0.06707557736854715
477.0, 0.06638970581525082
478.0, 0.06425126869924354
479.0, 0.05955107393011182
480.0, 0.05348812849693003
481.0, 0.047571614822699185
482.0, 0.04236822523225228
483.0, 0.03583041080158851
484.0, 0.02973140180002297
485.0, 0.024177185977882692
486.0, 0.019306340827920168
487.0, 0.015553315637641866
488.0, 0.01174567136614171
489.0, 0.008473093574005278
490.0, 0.0057429128898133786
491.0, 0.0036837231780587733
492.0, 0.002411260186764764
493.0, 0.001243183597039687
494.0, 0.0003307470800592648
495.0, 0.0009028722953029079
496.0, 0.0016709931738531384
497.0, 0.0016012766762789118
498.0, 0.0021068943788409324
499.0, 0.002285922232612035
500.0, 0.0015978947480293168
501.0, 0.0012695244328466957
502.0, 0.0014950128641882637
503.0, 0.0006991851908794688
504.0, 0.0012362404900673495
505.0, 0.0010347773870153152
506.0, 0.0006976630462930595
507.0, 0.0008375669952774685
508.0, 0.0012160286407322174
509.0, 0.0017770633076507336
510.0, 0.0015688510717729788
511.0, 0.0015563486723166947
512.0, 0.001990364329243528
513.0, 0.002174640706417724
514.0, 0.001789141161198324
515.0, 0.0014481722308398377
516.0, 0.001373022703650186
517.0, 0.0016692824961808557
518.0, 0.002086471218562056
519.0, 0.0018612905888675615
520.0, 0.0016732246859027348
521.0, 0.0012782074678043917
522.0, 0.0009468452506051271
523.0, 0.0008819985632732061
524.0, 0.0009630898316924952
525.0, 0.0010412513119807403
526.0, 0.0005896676178776425
527.0, 0.00011682325998260008
528.0, 1.1096244509260708e-05
529.0, 3.52278128321317e-05
530.0, 0.00040625096522698697
531.0, 0.0008954896898753389
532.0, 0.001023163777063442
533.0, 0.0011255758135370305
534.0, 0.0016474016914318171
535.0, 0.0025953405745064427
536.0, 0.002280635760570845
537.0, 0.0025659790103401818
538.0, 0.0032334717410150617
539.0, 0.0037479166109254804
540.0, 0.004192185224972876
541.0, 0.00469286206636974
542.0, 0.004756707158232062
543.0, 0.005690737988387931
544.0, 0.006639559619992204
545.0, 0.006687194750974136
546.0, 0.0072319354521392844
547.0, 0.007855467569104449
548.0, 0.008199025596033306
549.0, 0.008914381638619424
550.0, 0.00989115530326702
551.0, 0.010168574574233877
552.0, 0.01086156182034798
553.0, 0.011517592237445898
554.0, 0.01169426695742818
555.0, 0.012024831286585238
556.0, 0.012979913311555156
557.0, 0.013672521138128656
558.0, 0.014141667287018609
559.0, 0.014214349071516178
560.0, 0.014271950170723968
561.0, 0.014785292836044767
562.0, 0.015729404421860105
563.0, 0.015698280812454092
564.0, 0.015729009024464797
565.0, 0.016385369253015286
566.0, 0.01691844929975163
567.0, 0.016473256473714174
568.0, 0.01612071145251722
569.0, 0.016361619422765632
570.0, 0.016532136093548425
571.0, 0.0162588525013748
572.0, 0.015721079480451945
573.0, 0.015327463071240695
574.0, 0.015568596117486911
575.0, 0.0156457383164365
576.0, 0.01540425581164302
577.0, 0.01495563450195981
578.0, 0.014430690863932004
579.0, 0.014158350968827893
580.0, 0.014433789909621464
581.0, 0.014404347434249405
582.0, 0.0144170626572665
583.0, 0.014207755169145738
584.0, 0.013442468785721437
585.0, 0.014202717422138703
586.0, 0.014129423773025439
587.0, 0.014184701015212924
588.0, 0.01436485247997162
589.0, 0.014423034104473124
590.0, 0.014842428204805243
591.0, 0.014449641884330896
592.0, 0.014430839864672184
593.0, 0.015016998877862103
594.0, 0.015394660759021605
595.0, 0.015117710906308774
596.0, 0.015148264883701783
597.0, 0.01568578551516326
598.0, 0.016086976580567947
599.0, 0.016365101492380227
600.0, 0.016595482624376722
601.0, 0.016692305216701012
602.0, 0.017243984086354153
603.0, 0.017203292845897823
604.0, 0.017272250154307067
605.0, 0.017510363057668867
606.0, 0.017633009952171194
607.0, 0.017925775829731126
608.0, 0.018948773997043134
609.0, 0.01932078030345813
610.0, 0.019462596850744616
611.0, 0.019737951008078923
612.0, 0.01997824603271207
613.0, 0.020075530743954843
614.0, 0.02019476217866364
615.0, 0.02102547129657594
616.0, 0.02183050021250517
617.0, 0.022213119618447952
618.0, 0.022478401955163173
619.0, 0.022296220995787264
620.0, 0.02269485057946367
621.0, 0.022726878289776497
622.0, 0.022818894564346305
623.0, 0.023598748614454598
624.0, 0.024738923816642916
625.0, 0.025830099812992263
626.0, 0.025581466671674467
627.0, 0.025760960574864537
628.0, 0.026186156277051672
629.0, 0.026443556386057224
630.0, 0.027576695772375235
631.0, 0.028168380874882756
632.0, 0.0284690447828481
633.0, 0.028702345925168543
634.0, 0.028816691392823807
635.0, 0.028887649646649506
636.0, 0.029358380029893164
637.0, 0.030049282348597904
638.0, 0.030175412173182443
639.0, 0.030370465163771208
640.0, 0.030890081903830437
641.0, 0.03155018471773263
642.0, 0.03256182845883604
643.0, 0.032699742664814284
644.0, 0.032812687588883165
645.0, 0.03284174884480479
646.0, 0.032979183635148374
647.0, 0.033753056791410045
648.0, 0.034608699069514644
649.0, 0.03424081190264616
650.0, 0.03467810512285887
651.0, 0.03559234056653517
652.0, 0.03588222619633522
653.0, 0.0356533534011222
654.0, 0.03659710434500661
655.0, 0.03714619747903271
656.0, 0.03736175470211361
657.0, 0.03779442018580827
658.0, 0.03838770652266271
659.0, 0.03883364669775431
660.0, 0.03939534547447052
661.0, 0.039794971750644045
662.0, 0.04054618186772
663.0, 0.040820566122580726
664.0, 0.0409578798358933
665.0, 0.042206704305369665
666.0, 0.04306884918737306
667.0, 0.043792944939922446
668.0, 0.043729244165708864
669.0, 0.04364018041455584
670.0, 0.04410385662863337
671.0, 0.04482213632492047
672.0, 0.045849916659026276
673.0, 0.045674542301792485
674.0, 0.045135430210258884
675.0, 0.04488694666311715
676.0, 0.04502439645584202
677.0, 0.045150545333626314
678.0, 0.044122185406001685
679.0, 0.044438362739894446
680.0, 0.04416846867063327
681.0, 0.043256327768296084
682.0, 0.04256154797714028
683.0, 0.042093209142659696
684.0, 0.0407204734327162
685.0, 0.04043118386495196
686.0, 0.03896066534156748
687.0, 0.03734158423274024
688.0, 0.0364789500259588
689.0, 0.035529976729957405
690.0, 0.03410924029639685
691.0, 0.03284109108423398
692.0, 0.03176398311159079
693.0, 0.03060777428105707
694.0, 0.02913299321130469
695.0, 0.02739131185695561
696.0, 0.025967471736725672
697.0, 0.02546534919910904
698.0, 0.024436287180447727
699.0, 0.0231776772647858
700.0, 0.022096542818455193
701.0, 0.020813970066655724
702.0, 0.018930799976181356
703.0, 0.017607404652000166
704.0, 0.016764634822513058
705.0, 0.01495298119643272
706.0, 0.013150205755115158
707.0, 0.012408289119953574
708.0, 0.011434768149063575
709.0, 0.009418253003262392
710.0, 0.007879629277420634
711.0, 0.006444297376622464
712.0, 0.005672708379714367
713.0, 0.005096367555223507
714.0, 0.0031542279961150627
715.0, 0.0024019516593800725
716.0, 0.0016423177855856654
717.0, 0.0006476159384600108
718.0, 0.0007489138202076853
719.0, 0.0019238042222597383
720.0, 0.002303858529266195
721.0, 0.0031713751689109704
722.0, 0.004575100210586919
723.0, 0.006129311258656568
724.0, 0.006801959893798977
725.0, 0.006795062339418206
726.0, 0.0071453979172518365
727.0, 0.007879999605577276
728.0, 0.007995898556791852
729.0, 0.008533184784678492
730.0, 0.009269167061838893
731.0, 0.009743308464070182
732.0, 0.009761700658418146
733.0, 0.00930089946127206
734.0, 0.008687874873508701
735.0, 0.008813617767940391
736.0, 0.00929985073198541
737.0, 0.009439265221204628
738.0, 0.00902178798882633
739.0, 0.00833248805279747
740.0, 0.007424768504210835
741.0, 0.005704432709280289
742.0, 0.003632459245285017
743.0, 0.0024446425460515134
744.0, 0.0018760068065157
745.0, 0.000364044374557969
746.0, 0.002988226200038876
747.0, 0.0034176622607182067
748.0, 0.005749899347064901
749.0, 0.009195232058374383
750.0, 0.011920090858459643
751.0, 0.013668567219512887
752.0, 0.016081711034405522
753.0, 0.02038368317869472
754.0, 0.02283027994456416
755.0, 0.025323488131645422
756.0, 0.029199866128545166
757.0, 0.03314364105950043
758.0, 0.03577037036673944
759.0, 0.038055741617284054
760.0, 0.041434158019823815
761.0, 0.04473435735976377
762.0, 0.047904253828935955
763.0, 0.05225745204586379
764.0, 0.056748586071447144
765.0, 0.059091280156161274
766.0, 0.06381875815209964
767.0, 0.06946762097960649
768.0, 0.07459640199591928
769.0, 0.07967263054864
770.0, 0.08539350989754033
771.0, 0.09261843306373539
772.0, 0.1016965059109864
773.0, 0.10872130777510122
774.0, 0.12050176103044176
775.0, 0.13282283753627644
776.0, 0.14596794944455463
777.0, 0.16164461274037764
778.0, 0.1790338695740378
779.0, 0.1952672225384045
780.0, 0.2143338476677992
781.0, 0.23453178261249968
782.0, 0.25737012918333385
783.0, 0.281090640707335
784.0, 0.3035926246112631
785.0, 0.3263295046559463
786.0, 0.3517844149819525
787.0, 0.3805746012435232
788.0, 0.40745900804161794
789.0, 0.43414624192848067
790.0, 0.4606124177812202
791.0, 0.4847017750124626
792.0, 0.5058098038252162
793.0, 0.5270393453476161
794.0, 0.5460262267276975
795.0, 0.5618782680643454
796.0, 0.572860558170975
797.0, 0.5801249889254562
798.0, 0.5846887836940728
799.0, 0.5820698216708624
800.0, 0.571372354599304
801.0, 0.5575680697347589
802.0, 0.5348976588319317
803.0, 0.5065770782081004
804.0, 0.4755792768060048
805.0, 0.43992854222103206
806.0, 0.4046299489866712
807.0, 0.3703462856214985
808.0, 0.3384658685484822
809.0, 0.3082063905209115
810.0, 0.27982009452620243
811.0, 0.25470242159784023
812.0, 0.23351668929843822
813.0, 0.21548435525195905
814.0, 0.20176646089328173
815.0, 0.19165514828097166
816.0, 0.18387873864186943
817.0, 0.17747813125374726
818.0, 0.17360264122757635
819.0, 0.17425714866882117
820.0, 0.17533349914656854
821.0, 0.177835331051245
822.0, 0.1843337697813906
823.0, 0.19023596076517685
824.0, 0.19734907420449369
825.0, 0.2064161967607411
826.0, 0.2124025369524067
827.0, 0.22090999805102082
828.0, 0.22822217883149726
829.0, 0.23575932285697546
830.0, 0.24383054660818146
831.0, 0.24940004566828047
832.0, 0.25203554963035524
833.0, 0.25527213232882134
834.0, 0.2543159006371346
835.0, 0.24493319641876096
836.0, 0.23339443581433122
837.0, 0.21452391035317417
838.0, 0.19090936320486293
839.0, 0.16652196778613734
840.0, 0.14013919696854352
841.0, 0.119665944948343
842.0, 0.10356346175697095
843.0, 0.09224176815314088
844.0, 0.0869191095589292
845.0, 0.08645177175954048
846.0, 0.09024423613992026
847.0, 0.0992859085378584
848.0, 0.11151247263817694
849.0, 0.12447999297582472
850.0, 0.14207232215188187
851.0, 0.16024294010415213
852.0, 0.17872888042643525
853.0, 0.19729078945641132
854.0, 0.21338618809423027
855.0, 0.22758574707124507
856.0, 0.2465023120727119
857.0, 0.2622314429770212
858.0, 0.2805425718576254
859.0, 0.2994845058939113
860.0, 0.3182143911120176
861.0, 0.33883878813741103
862.0, 0.3581034290532478
863.0, 0.3799726073998473
864.0, 0.39978063822581344
865.0, 0.41708297487305546
866.0, 0.4311723934067617
867.0, 0.4441005304500599
868.0, 0.4557928844513527
869.0, 0.4609170658508781
870.0, 0.46011408290166467
871.0, 0.4553659658732271
872.0, 0.45033694723392315
873.0, 0.44452212905360716
874.0, 0.43804880369395777
875.0, 0.4318650521426147
876.0, 0.42739169996864584
877.0, 0.42927793611750253
878.0, 0.43776230764638707
879.0, 0.4527188959503964
880.0, 0.47615826953143425
881.0, 0.5080286294343819
882.0, 0.5483579235269244
883.0, 0.5968652053303019
884.0, 0.6501715954555577
885.0, 0.708156595020791
886.0, 0.7691653408345782
887.0, 0.8320301426749335
888.0, 0.8899118911637097
889.0, 0.9368309742489532
890.0, 0.9727441290854975
891.0, 0.9958763899209329
892.0, 0.995417902943811
893.0, 0.9592640020993644
894.0, 0.9000695876742613
895.0, 0.8196866188393087
896.0, 0.7214241189572224
897.0, 0.6184232169154825
898.0, 0.5229906991899388
899.0, 0.43518478171407765
900.0, 0.35866775894474767
901.0, 0.29323310646519923
902.0, 0.23868017447860737
903.0, 0.19412806068571517
904.0, 0.15841771967725082
905.0, 0.12933361399785603
906.0, 0.10573546829603375
907.0, 0.08743790368407821
908.0, 0.07226671191708658
909.0, 0.060479614677367476
910.0, 0.049935009261323555
911.0, 0.04143865511541465
912.0, 0.0356210812193936
913.0, 0.030463207551447206
914.0, 0.024178860339765882
915.0, 0.020983641247294144
916.0, 0.01656791583870973
917.0, 0.01318803580757572
918.0, 0.010088254718405801
919.0, 0.006881653011789684
920.0, 0.004189341913360346
921.0, 0.0019392091536646057
922.0, 0.0006566202562469783
923.0, 0.0029498471605822005
924.0, 0.004762403616381378
925.0, 0.005760014125398114
926.0, 0.00728566888401421
927.0, 0.008607461526250132
928.0, 0.009074770196127391
929.0, 0.009992080517347004
930.0, 0.011360236612494447
931.0, 0.011247315603971032
932.0, 0.01040110177660054
933.0, 0.01023100404230678
934.0, 0.010606071954380583
935.0, 0.01118615497108998
936.0, 0.011045388257122696
937.0, 0.0095933158448397
938.0, 0.00923693529529866
939.0, 0.007792905737709333
940.0, 0.007394218733069697
941.0, 0.006446979083102342
942.0, 0.005339719861012122
943.0, 0.0042486348144847525
944.0, 0.0027789279515040123
945.0, 0.0012635534394439055
946.0, 0.0003946963549705841
947.0, 0.0014887214319883701
948.0, 0.0029718725485992697
949.0, 0.004360692277750074
950.0, 0.005755482570467042
951.0, 0.007036014938461483
952.0, 0.0083501083391513
953.0, 0.0102916969279526
954.0, 0.01221331060222568
955.0, 0.013911138214947827
956.0, 0.0154606242156356
957.0, 0.01668914605676238
958.0, 0.018260383354082237
959.0, 0.02029127906558203
960.0, 0.02198022778276093
961.0, 0.023153677074410548
962.0, 0.02491151237640497
963.0, 0.02680899107060649
964.0, 0.028227637139599374
965.0, 0.029935813654261522
966.0, 0.031663928411867416
967.0, 0.03318974920224192
968.0, 0.034672312638191274
969.0, 0.03628993469647491
970.0, 0.03813225973446185
971.0, 0.04012909776002887
972.0, 0.041623557681833796
973.0, 0.04241143112717932
974.0, 0.043323330527159004
975.0, 0.04418949530418344
976.0, 0.045148903661457414
977.0, 0.04627326736100475
978.0, 0.046513747552595755
979.0, 0.0469595381033122
980.0, 0.047819073817561585
981.0, 0.04832625249601231
982.0, 0.04958165585473691
983.0, 0.05015934449810522
984.0, 0.04981506215368352
985.0, 0.049945104056772396
986.0, 0.050353167538978005
987.0, 0.04976566400318935
988.0, 0.0493981913955898
989.0, 0.04874909260146263
990.0, 0.04843049518771439
991.0, 0.047939613864314605
992.0, 0.047307219205395365
993.0, 0.04643134920880891
994.0, 0.04505812712842534
995.0, 0.0438108148978342
996.0, 0.04238709953025322
997.0, 0.04172583841275412
998.0, 0.04092941573078648
999.0, 0.039664145167410784
1000.0, 0.03841933278260831
1001.0, 0.037117370858931846
1002.0, 0.036089727094705246
1003.0, 0.0355776318112644
1004.0, 0.033520948774571825
1005.0, 0.03225606074030522
1006.0, 0.03204746509227818
1007.0, 0.03142336568209297
1008.0, 0.030604561300648727
1009.0, 0.029766628474144144
1010.0, 0.029290509741728005
1011.0, 0.02903546353610078
1012.0, 0.027918861070181135
1013.0, 0.02696483339380337
1014.0, 0.026849233078396345
1015.0, 0.02641940042596424
1016.0, 0.025844898107526843
1017.0, 0.025069575220801436
1018.0, 0.02444005624694003
1019.0, 0.024203732799086546
1020.0, 0.024003881134583665
1021.0, 0.02357646080261655
1022.0, 0.023905787747883496
1023.0, 0.02316185108534506
1024.0, 0.022494329477064662
1025.0, 0.022160338057100208
1026.0, 0.02160233776730584
1027.0, 0.02182871875275444
1028.0, 0.022358866851177217
1029.0, 0.02164645348940562
1030.0, 0.020834043968041477
1031.0, 0.019592738059708684
1032.0, 0.020463541969223405
1033.0, 0.019679860644078773
1034.0, 0.019693594987283028
1035.0, 0.019645236741799518
1036.0, 0.019195881665273754
1037.0, 0.018760929349683965
1038.0, 0.018042616725103017
1039.0, 0.017451082056580074
1040.0, 0.01721932997991119
1041.0, 0.01722771919778681
1042.0, 0.016459333974321533
1043.0, 0.015502206872505898
1044.0, 0.015164891939132785
1045.0, 0.014938047897090445
1046.0, 0.014477523624796361
1047.0, 0.014034435913581089
1048.0, 0.013374693634589277
1049.0, 0.012518007990534234
1050.0, 0.012728566242738151
1051.0, 0.012320827916290586
1052.0, 0.011534115333976634
1053.0, 0.011545576090760233
1054.0, 0.011505394570665075
1055.0, 0.01096658661668576
1056.0, 0.010783520424696894
1057.0, 0.010969147842571901
1058.0, 0.010660934929714145
1059.0, 0.010448192221928198
1060.0, 0.009605640917770135
1061.0, 0.009415132999960357
1062.0, 0.009846127646731716
1063.0, 0.009654856571315429
1064.0, 0.008895276954078825
1065.0, 0.0086148676608239
1066.0, 0.008605660027419497
1067.0, 0.007967638349518219
1068.0, 0.007648248586398289
1069.0, 0.0076527084275781684
1070.0, 0.007708978819905281
1071.0, 0.00769156854462709
1072.0, 0.007105712484602322
1073.0, 0.0067071161135881675
1074.0, 0.006684823874621045
1075.0, 0.006268091888487486
1076.0, 0.0057266707295287895
1077.0, 0.005276089443368154
1078.0, 0.005472560606731606
1079.0, 0.004797816199212938
1080.0, 0.0045010565578494505
1081.0, 0.004225554933953852
1082.0, 0.004173245610613085
1083.0, 0.003954662081259795
1084.0, 0.0038569973457894882
1085.0, 0.0035190290677902265
1086.0, 0.0033862417439199516
1087.0, 0.003575933623767794
1088.0, 0.0037123500765646644
1089.0, 0.003217699760717055
1090.0, 0.003568301660026864
1091.0, 0.003010459559725427
1092.0, 0.002499214567010009
1093.0, 0.0025112188814910372
1094.0, 0.0025463300261792696
1095.0, 0.0028067539622930195
1096.0, 0.0021528451220673137
1097.0, 0.0017734170057430647
1098.0, 0.0028168438421929923
1099.0, 0.0016302613626948492
1100.0, 0.0017242792239156382
1101.0, 0.0016577330065743342
1102.0, 0.0010166175176089826
1103.0, 0.0008758138361981355
1104.0, 0.0013517390530968438
1105.0, 0.001519983900101532
1106.0, 0.0010820132841243973
1107.0, 0.0010908435254687607
1108.0, 0.001393149756271514
1109.0, 0.0004297141017793573
1110.0, 0.00034120851872974315
1111.0, 0.0008258467906744329
1112.0, 0.0007160634992714733
1113.0, 0.0005643549342192796
1114.0, 0.0008148629247065398
1115.0, 0.0005941255267006653
1116.0, 0.0002615306391113037
1117.0, 0.0004456535840506462
1118.0, 0.00043017198339799625
1119.0, 0.0002646089143553535
1120.0, 7.194866327547017e-05
1121.0, 0.00020676231068694284
1122.0, 0.0002449773473847664
1123.0, 0.00023639516804405006
1124.0, 0.00011474182529530183
1125.0, 0.0002716982055226296
1126.0, 0.00024316224355941927
1127.0, 3.0287631762135166e-05
1128.0, 4.944876687507051e-05
1129.0, 0.0003809765801520317
1130.0, 0.00022093050804875572
1131.0, 0.00038224233424525553
1132.0, 0.0004150045376779701
1133.0, 0.00023397534451690747
1134.0, 0.00022334011447185912
1135.0, 0.0001735942166769533
1136.0, 0.000540598049206846
1137.0, 0.00024160981828792212
1138.0, 7.369002553294804e-05
1139.0, 0.0009131787606681378
1140.0, 7.587086378918702e-05
1141.0, 8.780520370704517e-05
1142.0, 5.480224500880585e-05
1143.0, 0.0003214943409695825
1144.0, 0.00027030289517216533
1145.0, 6.456395337629361e-05
1146.0, 0.0002195109316634303
1147.0, 0.000419082385234519
1148.0, 0.00016836937742741828
1149.0, 9.419218735136808e-05
1150.0, 3.1005794185988314e-05
1151.0, 0.0003029152169536158
1152.0, 0.000531127015263401
1153.0, 0.00013116608755476465
1154.0, 0.00014930203518029078
1155.0, 0.00017054201543775788
1156.0, 0.00011686440860940686
1157.0, 0.00029077001117228476
1158.0, 0.0002833917909270444
1159.0, 0.00031491605360862876
1160.0, 0.00030218082735189466
1161.0, 0.00034525208301675525
1162.0, 0.0005124850763469808
1163.0, 0.0004951556456596402
1164.0, 0.00011579690375933437
1165.0, 0.00034646271159357396
1166.0, 0.00022525666061896298
1167.0, 9.749729196763043e-05
1168.0, 0.00014000045897420645
1169.0, 4.786476496235133e-05
1170.0, 0.0003875057608960238
1171.0, 0.0004985296960750236
1172.0, 0.0001429050778378799
1173.0, 0.00034199556131208947
1174.0, 0.00017783112215101303
1175.0, 0.00023542030002775903
1176.0, 0.00015422837680475457
1177.0, 0.0002068096837856309
1178.0, 0.000245294222751446
1179.0, 0.00037527526547065913
1180.0, 0.0004185196252319968
1181.0, 0.000129080592068631
1182.0, 0.0006632838924559177
1183.0, 0.0006500255398231765
1184.0, 0.0004921573307145445
1185.0, 0.00014545749512043208
1186.0, 0.00014835171869800255
1187.0, 0.00022835047544705642
1188.0, 2.8273763291021018e-05
1189.0, 3.304095522991685e-05
1190.0, 0.00017917446009410012
1191.0, 0.00030985298298271253
1192.0, 4.877644145206404e-05
1193.0, 4.789430494344564e-05
1194.0, 0.000945452993338018
1195.0, 9.685828455598446e-05
1196.0, 0.0004448667907093854
1197.0, 0.00039078769681325426
1198.0, 0.0008808619746522922
1199.0, 0.0008740161366559681
1200.0, 0.00043971894213208
1201.0, 0.0002693933753696454
1202.0, 0.0006422114008508037
1203.0, 0.0012054549461216252
1204.0, 0.001001911066603782
1205.0, 0.0004322792714755384
1206.0, 0.0007074571258569212
1207.0, 0.0012858474581380684
1208.0, 0.0009010729919135222
1209.0, 0.000378751802039105
1210.0, 0.0003738446915919578
1211.0, 0.0006553447110142459
1212.0, 0.0011667622021811408
1213.0, 0.0013720197023235172
1214.0, 0.0010261427813587644
1215.0, 0.0008104294004823954
1216.0, 0.001135122629651964
1217.0, 0.001552111833369755
1218.0, 0.0011935701015833749
1219.0, 0.001600877722282854
1220.0, 0.000991968420491079
1221.0, 0.0011278904605074866
1222.0, 0.0009194380036205284
1223.0, 0.000886888101470346
1224.0, 0.0008777220008754812
1225.0, 0.0006931930906326742
1226.0, 0.0007751849177334911
1227.0, 0.0010942598472223563
1228.0, 0.001209797631860199
1229.0, 0.0011470619703716426
1230.0, 0.0012796832685378632
1231.0, 0.0011290932710260038
1232.0, 0.001535967498578477
1233.0, 0.0011525544315157039
1234.0, 0.001242435480385119
1235.0, 0.0011329616097130975
1236.0, 0.0010544256636894963
1237.0, 0.0013553728755230634
1238.0, 0.0011115994629274074
1239.0, 0.0007955408818340873
1240.0, 0.0011111514950868941
1241.0, 0.0010498991947469802
1242.0, 0.0009459277309580486
1243.0, 0.0009955006659288501
1244.0, 0.00047545345188253224
1245.0, 0.0011657247828757468
1246.0, 0.0007895627511098366
1247.0, 0.0015050881851546264
1248.0, 0.001453993047178813
1249.0, 0.0005704169904259866
1250.0, 0.0007679116213961884
1251.0, 0.0010626137699849352
1252.0, 0.0009281137061048052
1253.0, 0.0008227731373694862
1254.0, 0.0005530979282456864
1255.0, 0.0006084653416830865
1256.0, 0.0005503247405605407
1257.0, 0.0009410882233895514
1258.0, 0.0007859442814241711
1259.0, 0.0011055034409112167
1260.0, 0.0007550390308149053
1261.0, 0.00050266370510728
1262.0, 0.001000668805629486
1263.0, 0.0012112400833647946
1264.0, 0.001252447559740504
1265.0, 0.0008473927879739894
1266.0, 0.0007113430569882396
1267.0, 0.0005916751392288868
1268.0, 0.0004610287791808371
1269.0, 0.0005209000772187944
1270.0, 0.00039224709187585716
1271.0, 0.0006139028712245477
1272.0, 0.0004172399474800784
1273.0, 0.0007323374587895183
1274.0, 0.0009233227978580683
1275.0, 0.0011607441187589153
1276.0, 0.0011459124241188865
1277.0, 0.0007423714259687159
1278.0, 0.00046971848025722607
1279.0, 0.0007751274810970871
1280.0, 0.0011327238066112923
1281.0, 0.001400543410516247
1282.0, 0.0009218310043176343
1283.0, 0.00028976301496214097
1284.0, 0.001396330887645607
1285.0, 0.0009857290577364995
1286.0, 0.0009568516834564662
1287.0, 0.0010554841049881932
1288.0, 0.0007407273502605294
1289.0, 0.0013995549311983135
1290.0, 0.0011619539123244908
1291.0, 0.00042989439384839037
1292.0, 0.0008412566625419121
1293.0, 0.0007566616312362083
1294.0, 0.0006823759349760077
1295.0, 0.0012657493764696305
1296.0, 0.0011290482303724682
1297.0, 0.0008666838784452507
1298.0, 0.0009525789734345454
1299.0, 0.0005640038827460788
1300.0, 0.00034892135517555593
1301.0, 0.0007146971302488539
1302.0, 0.0005539737097785986
1303.0, 0.0005093303190992765
1304.0, 0.0006717158052184203
1305.0, 0.0002737381837409841
1306.0, 0.0007254968707233315
1307.0, 0.0005065560340381083
1308.0, 0.00021847388063362517
1309.0, 0.00018972524247889787
1310.0, 1.651324513883082e-06
1311, 0.0
1312, 0.0
1313, 0.0
1314, 0.0
1315, 0.0
1316, 0.0
1317, 0.0
1318, 0.0
1319, 0.0
1320, 0.0
1321, 0.0
1322, 0.0
1323, 0.0
1324, 0.0
1325, 0.0
1326, 0.0
1327, 0.0
1328, 0.0
1329, 0.0
1330, 0.0
1331, 0.0
1332, 0.0
1333, 0.0
1334, 0.0
1335, 0.0
1336, 0.0
1337, 0.0
1338, 0.0
1339, 0.0
1340, 0.0
1341, 0.0
1342, 0.0
1343, 0.0
1344, 0.0
1345, 0.0
1346, 0.0
1347, 0.0
1348, 0.0
1349, 0.0
1350, 0.0
1351, 0.0
1352, 0.0
1353, 0.0
1354, 0.0
1355, 0.0
1356, 0.0
1357, 0.0
1358, 0.0
1359, 0.0
1360, 0.0
1361, 0.0
1362, 0.0
1363, 0.0
1364, 0.0
1365, 0.0
1366, 0.0
1367, 0.0
1368, 0.0
1369, 0.0
1370, 0.0
1371, 0.0
1372, 0.0
1373, 0.0
1374, 0.0
1375, 0.0
1376, 0.0
1377, 0.0
1378, 0.0
1379, 0.0
1380, 0.0
1381, 0.0
1382, 0.0
1383, 0.0
1384, 0.0
1385, 0.0
1386, 0.0
1387, 0.0
1388, 0.0
1389, 0.0
1390, 0.0
1391, 0.0
1392, 0.0
1393, 0.0
1394, 0.0
1395, 0.0
1396, 0.0
1397, 0.0
1398, 0.0
1399, 0.0
1400, 0.0
1401, 0.0
1402, 0.0
1403, 0.0
1404, 0.0
1405, 0.0
1406, 0.0
1407, 0.0
1408, 0.0
1409, 0.0
1410, 0.0
1411, 0.0
1412, 0.0
1413, 0.0
1414, 0.0
1415, 0.0
1416, 0.0
1417, 0.0
1418, 0.0
1419, 0.0
1420, 0.0
1421, 0.0
1422, 0.0
1423, 0.0
1424, 0.0
1425, 0.0
1426, 0.0
1427, 0.0
1428, 0.0
1429, 0.0
1430, 0.0
1431, 0.0
1432, 0.0
1433, 0.0
1434, 0.0
1435, 0.0
1436, 0.0
1437, 0.0
1438, 0.0
1439, 0.0
1440, 0.0
1441, 0.0
1442, 0.0
1443, 0.0
1444, 0.0
1445, 0.0
1446, 0.0
1447, 0.0
1448, 0.0
1449, 0.0
1450, 0.0
1451, 0.0
1452, 0.0
1453, 0.0
1454, 0.0
1455, 0.0
1456, 0.0
1457, 0.0
1458, 0.0
1459, 0.0
1460, 0.0
1461, 0.0
1462, 0.0
1463, 0.0
1464, 0.0
1465, 0.0
1466, 0.0
1467, 0.0
1468, 0.0
1469, 0.0
1470, 0.0
1471, 0.0
1472, 0.0
1473, 0.0
1474, 0.0
1475, 0.0
1476, 0.0
1477, 0.0
1478, 0.0
1479, 0.0
1480, 0.0
1481, 0.0
1482, 0.0
1483, 0.0
1484, 0.0
1485, 0.0
1486, 0.0
1487, 0.0
1488, 0.0
1489, 0.0
1490, 0.0
1491, 0.0
1492, 0.0
1493, 0.0
1494, 0.0
1495, 0.0
1496, 0.0
1497, 0.0
1498, 0.0
1499, 0.0
1500, 0.0
1501, 0.0
1502, 0.0
1503, 0.0
1504, 0.0
1505, 0.0
1506, 0.0
1507, 0.0
1508, 0.0
1509, 0.0
1510, 0.0
1511, 0.0
1512, 0.0
1513, 0.0
1514, 0.0
1515, 0.0
1516, 0.0
1517, 0.0
1518, 0.0
1519, 0.0
1520, 0.0
1521, 0.0
1522, 0.0
1523, 0.0
1524, 0.0
1525, 0.0
1526, 0.0
1527, 0.0
1528, 0.0
1529, 0.0
1530, 0.0
1531, 0.0
1532, 0.0
1533, 0.0
1534, 0.0
1535, 0.0
1536, 0.0
1537, 0.0
1538, 0.0
1539, 0.0
1540, 0.0
1541, 0.0
1542, 0.0
1543, 0.0
1544, 0.0
1545, 0.0
1546, 0.0
1547, 0.0
1548, 0.0
1549, 0.0
1550, 0.0
1551, 0.0
1552, 0.0
1553, 0.0
1554, 0.0
1555, 0.0
1556, 0.0
1557, 0.0
1558, 0.0
1559, 0.0
1560, 0.0
1561, 0.0
1562, 0.0
1563, 0.0
1564, 0.0
1565, 0.0
1566, 0.0
1567, 0.0
1568, 0.0
1569, 0.0
1570, 0.0
1571, 0.0
1572, 0.0
1573, 0.0
1574, 0.0
1575, 0.0
1576, 0.0
1577, 0.0
1578, 0.0
1579, 0.0
1580, 0.0
1581, 0.0
1582, 0.0
1583, 0.0
1584, 0.0
1585, 0.0
1586, 0.0
1587, 0.0
1588, 0.0
1589, 0.0
1590, 0.0
1591, 0.0
1592, 0.0
1593, 0.0
1594, 0.0
1595, 0.0
1596, 0.0
1597, 0.0
1598, 0.0
1599, 0.0
