30, 0.0
31, 0.0
32, 0.0
33, 0.0
34, 0.0
35, 0.0
36, 0.0
37, 0.0
38, 0.0
39, 0.0
40, 0.0
41, 0.0
42, 0.0
43, 0.0
44, 0.0
45, 0.0
46, 0.0
47, 0.0
48, 0.0
49, 0.0
50, 0.0
51, 0.0
52, 0.0
53, 0.0
54, 0.0
55, 0.0
56, 0.0
57, 0.0
58, 0.0
59, 0.0
60, 0.0
61, 0.0
62, 0.0
63, 0.0
64, 0.0
65, 0.0
66, 0.0
67, 0.0
68, 0.0
69, 0.0
70, 0.0
71, 0.0
72, 0.0
73, 0.0
74, 0.0
75, 0.0
76, 0.0
77, 0.0
78, 0.0
79, 0.0
80, 0.0
81, 0.0
82, 0.0
83, 0.0
84, 0.0
85, 0.0
86, 0.0
87, 0.0
88, 0.0
89, 0.0
90, 0.0
91, 0.0
92, 0.0
93, 0.0
94, 0.0
95, 0.0
96, 0.0
97, 0.0
98, 0.0
99, 0.0
100, 0.0
101, 0.0
102, 0.0
103, 0.0
104, 0.0
105, 0.0
106, 0.0
107, 0.0
108, 0.0
109, 0.0
110, 0.0
111, 0.0
112, 0.0
113, 0.0
114, 0.0
115, 0.0
116, 0.0
117, 0.0
118, 0.0
119, 0.0
120, 0.0
121, 0.0
122, 0.0
123, 0.0
124, 0.0
125, 0.0
126, 0.0
127, 0.0
128, 0.0
129, 0.0
130, 0.0
131, 0.0
132, 0.0
133, 0.0
134, 0.0
135, 0.0
136, 0.0
137, 0.0
138, 0.0
139, 0.0
140, 0.0
141, 0.0
142, 0.0
143, 0.0
144, 0.0
145, 0.0
146.0, 0.0009581551291542117
147.0, 0.010730878274761001
148.0, 0.0319726613935566
149.0, 0.017027716729995725
150.0, 0.012706086592294517
151.0, 0.016129920565294067
152.0, 0.02701663119788428
153.0, 0.04875241061355953
154.0, 0.04215410882583917
155.0, 0.03881147576342315
156.0, 0.03373167636248056
157.0, 0.008250992150484585
158.0, 0.0013886294468528392
159.0, 0.014135340484910514
160.0, 0.01951578311490914
161.0, 0.0033561429582822087
162.0, 0.0023620232435317477
163.0, 0.01110365354783124
164.0, 0.028934321935379287
165.0, 0.04833666334798108
166.0, 0.04905099260692349
167.0, 0.06976421855522684
168.0, 0.08606296298963599
169.0, 0.0901366886401158
170.0, 0.09732661496041393
171.0, 0.12563671422300848
172.0, 0.13233255073438405
173.0, 0.1270474120392983
174.0, 0.1364640805296934
175.0, 0.14887707388076898
176.0, 0.14807893830369337
177.0, 0.14588504943404265
178.0, 0.14787123773214841
179.0, 0.14331467067399936
180.0, 0.16507366139469143
181.0, 0.17065283992697178
182.0, 0.15505712671811178
183.0, 0.14867269689905194
184.0, 0.15188758292449375
185.0, 0.16325359244462564
186.0, 0.1756536613899466
187.0, 0.1844006434456582
188.0, 0.19568730995728664
189.0, 0.2100812157446667
190.0, 0.2278218195021853
191.0, 0.2442704113524841
192.0, 0.2508566324767836
193.0, 0.24012344983220854
194.0, 0.23225474967133986
195.0, 0.23302253771497794
196.0, 0.23399898402000713
197.0, 0.2092955333972905
198.0, 0.22123445313364706
199.0, 0.2300551971574086
200.0, 0.2155749204476173
201.0, 0.2307513890251077
202.0, 0.25288106094264134
203.0, 0.2589159046574576
204.0, 0.258913306914785
205.0, 0.2769120443413489
206.0, 0.2896003853913287
207.0, 0.2885981371294061
208.0, 0.29150129961923527
209.0, 0.3108282204389659
210.0, 0.3299355818882425
211.0, 0.32251049472654003
212.0, 0.31071993826577887
213.0, 0.3053752494534803
214.0, 0.29953663976205436
215.0, 0.2830873657412835
216.0, 0.286581247412026
217.0, 0.2733430126369004
218.0, 0.22557822861745103
219.0, 0.2158892966023411
220.0, 0.18513091401676807
221.0, 0.15394370515659575
222.0, 0.1335477326625585
223.0, 0.11346454582500551
224.0, 0.08642763603861199
225.0, 0.0704364624098795
226.0, 0.06305542482530598
227.0, 0.05662025667796372
228.0, 0.05164992851832013
229.0, 0.051637884453648315
230.0, 0.0508292827024525
231.0, 0.056532483716982516
232.0, 0.08212354522318424
233.0, 0.09443939703442047
234.0, 0.11328492890544795
235.0, 0.1345678784159913
236.0, 0.15045674054564762
237.0, 0.17015776686973544
238.0, 0.19049395285650006
239.0, 0.22802944518339893
240.0, 0.26797478084248283
241.0, 0.2770745789482317
242.0, 0.2979847306714516
243.0, 0.3236267193587292
244.0, 0.3467451261692506
245.0, 0.3655512420422224
246.0, 0.38264771630777683
247.0, 0.41468356181849264
248.0, 0.45900258443270836
249.0, 0.4947308052750653
250.0, 0.498813047341887
251.0, 0.5191915354279496
252.0, 0.5419435563046593
253.0, 0.5520334627311876
254.0, 0.5528796889359191
255.0, 0.5727005163818217
256.0, 0.558745969324305
257.0, 0.563621288732503
258.0, 0.5816338957803537
259.0, 0.5777429043749476
260.0, 0.5743111949400799
261.0, 0.5763950429126004
262.0, 0.5780302367478266
263.0, 0.5773869037550623
264.0, 0.5782184287272695
265.0, 0.5654869804009515
266.0, 0.5618794722425255
267.0, 0.5620685013743266
268.0, 0.5567935763381209
269.0, 0.5606052934791985
270.0, 0.5738149981200067
271.0, 0.5810610926098808
272.0, 0.5820345375914314
273.0, 0.5881989855498047
274.0, 0.5966671731784117
275.0, 0.5959469354190623
276.0, 0.5910387536172972
277.0, 0.583133379577358
278.0, 0.5572022813112695
279.0, 0.5118124981940309
280.0, 0.4678447487905593
281.0, 0.42107460025050936
282.0, 0.36465250454670994
283.0, 0.3274383468580064
284.0, 0.29224125401996176
285.0, 0.25720543088335895
286.0, 0.22686004390705458
287.0, 0.20630650006927473
288.0, 0.20619196227346262
289.0, 0.208557114487569
290.0, 0.2163238904490694
291.0, 0.22981580630618315
292.0, 0.23237865027400123
293.0, 0.2506431515953239
294.0, 0.2828613449781092
295.0, 0.3096230107531562
296.0, 0.3236451568596603
297.0, 0.3567295772186171
298.0, 0.36970977857123977
299.0, 0.391720831523859
300.0, 0.42446821321739864
301.0, 0.43980242901438477
302.0, 0.4518358152541067
303.0, 0.4739722598407518
304.0, 0.4804659767683327
305.0, 0.47269825205313537
306.0, 0.49022951179033364
307.0, 0.4865031788035582
308.0, 0.47837134409320586
309.0, 0.4659379739407891
310.0, 0.44200296983142634
311.0, 0.41273867165221884
312.0, 0.3809095384228701
313.0, 0.35522611544211397
314.0, 0.32790933649914683
315.0, 0.28914657189262255
316.0, 0.2600496196715839
317.0, 0.2280953123963189
318.0, 0.202955358870538
319.0, 0.18864964080967764
320.0, 0.1796485643362663
321.0, 0.16597070870378994
322.0, 0.14711632735847383
323.0, 0.1267089757005096
324.0, 0.11380092206108726
325.0, 0.12156316410984293
326.0, 0.12446958556401608
327.0, 0.11640941310176459
328.0, 0.10423799320314196
329.0, 0.09815730653353266
330.0, 0.11120627206780641
331.0, 0.1086968591373655
332.0, 0.107035343994312
333.0, 0.11403320929818407
334.0, 0.12426319530812005
335.0, 0.11212545792835085
336.0, 0.10070124620139663
337.0, 0.09467076206185372
338.0, 0.0927391059163464
339.0, 0.09187454638641959
340.0, 0.08264605928046509
341.0, 0.07372056466905834
342.0, 0.05772839516660708
343.0, 0.039420386746067
344.0, 0.03928107077209591
345.0, 0.017884634226236092
346.0, 0.004973791925871142
347.0, 0.0021276058104567393
348.0, 0.008985225655048343
349.0, 0.004848583027790668
350.0, 0.01166421481399858
351.0, 0.01954523048016634
352.0, 0.023195339816236733
353.0, 0.02485307718116683
354.0, 0.02740201137243228
355.0, 0.0235464661279981
356.0, 0.025909054379923652
357.0, 0.029322987490957353
358.0, 0.024927223074894492
359.0, 0.022085944860542505
360.0, 0.02737955067682322
361.0, 0.017536217115968873
362.0, 0.0029101621412232297
363.0, 0.005399068437625158
364.0, 0.005480695682792925
365.0, 0.004080780651694531
366.0, 0.004450721290038524
367.0, 0.014431553589477121
368.0, 0.01861684572585717
369.0, 0.022289866200876227
370.0, 0.04056112777832371
371.0, 0.05055804033640307
372.0, 0.04767751192501472
373.0, 0.04624031870580629
374.0, 0.06371925801542294
375.0, 0.06876152608197833
376.0, 0.07239522118294903
377.0, 0.08252862538649103
378.0, 0.09090490466119437
379.0, 0.10496707358675024
380.0, 0.11405498285178195
381.0, 0.12630971210003258
382.0, 0.14162964695481825
383.0, 0.14878614938284748
384.0, 0.17259174302323513
385.0, 0.18765372005021708
386.0, 0.1909451908766775
387.0, 0.1985877478666363
388.0, 0.22782205677197462
389.0, 0.24016256760120644
390.0, 0.2526695220207104
391.0, 0.26559146497270364
392.0, 0.28064287629960155
393.0, 0.30667404447593705
394.0, 0.3191814663198711
395.0, 0.33595112099455854
396.0, 0.3584731081873263
397.0, 0.3761860446015222
398.0, 0.37285687657529815
399.0, 0.3808042833599073
400.0, 0.38225339018750476
401.0, 0.380474696254619
402.0, 0.37967777430257404
403.0, 0.3733149093412129
404.0, 0.35536789780906763
405.0, 0.34517350510277856
406.0, 0.3443824114827694
407.0, 0.3446333069072049
408.0, 0.33679096953418586
409.0, 0.321542570080088
410.0, 0.31350809008399483
411.0, 0.31446039511575086
412.0, 0.31771688057861386
413.0, 0.3160371046209191
414.0, 0.3142037782874751
415.0, 0.3151920108350327
416.0, 0.317265832453809
417.0, 0.3187228651709734
418.0, 0.3187746025611946
419.0, 0.3117046483845819
420.0, 0.31489587008517533
421.0, 0.3180964850952855
422.0, 0.31479673815083037
423.0, 0.30859095195347575
424.0, 0.30689150128018544
425.0, 0.30393826858273504
426.0, 0.29884240163693054
427.0, 0.2997631702922117
428.0, 0.3152859376761194
429.0, 0.3122115764338971
430.0, 0.3177120937622781
431.0, 0.3242583684280486
432.0, 0.32262052550397774
433.0, 0.3171956805006992
434.0, 0.3244231654507294
435.0, 0.3201432907240094
436.0, 0.31846585200619837
437.0, 0.31931385241621746
438.0, 0.3140378969525067
439.0, 0.326307128796375
440.0, 0.32111010044491
441.0, 0.31801770921392286
442.0, 0.31353797100183417
443.0, 0.29538724909855546
444.0, 0.2825786432697908
445.0, 0.2789308570974023
446.0, 0.2710917835514007
447.0, 0.25748066941131
448.0, 0.2436418399245354
449.0, 0.23380498529727953
450.0, 0.21962272418468198
451.0, 0.2184117310328304
452.0, 0.20324848046372881
453.0, 0.1649046003864016
454.0, 0.15409733977289203
455.0, 0.14697352060682653
456.0, 0.12935784903511946
457.0, 0.10822602824931812
458.0, 0.0907851229574551
459.0, 0.07462012321732155
460.0, 0.06231918000619322
461.0, 0.04718079799701788
462.0, 0.026284172240669208
463.0, 0.010652656924018938
464.0, 0.009562933419344522
465.0, 0.010777306982874215
466.0, 0.003952616965552139
467.0, 0.003397759212838496
468.0, 0.015822501689697163
469.0, 0.023703284803826278
470.0, 0.02569802337758529
471.0, 0.028267080779750518
472.0, 0.030061684096682015
473.0, 0.03456370504410693
474.0, 0.04022718438126298
475.0, 0.03414552770399133
476.0, 0.025832705622804368
477.0, 0.015901083098658564
478.0, 0.009919047916430048
479.0, 0.013374516555448234
480.0, 0.020739842952898917
481.0, 0.004035171266460262
482.0, 0.01659490447098749
483.0, 0.023994875681339872
484.0, 0.0320324197030732
485.0, 0.03316356363120843
486.0, 0.04006030936356745
487.0, 0.04321564516096704
488.0, 0.06434402650331006
489.0, 0.0883678663338766
490.0, 0.09533299686156829
491.0, 0.110568672119896
492.0, 0.11843708979126494
493.0, 0.13476742523195792
494.0, 0.1542107949191468
495.0, 0.17034907300748875
496.0, 0.18937289774835464
497.0, 0.20022358996126047
498.0, 0.21156016180315984
499.0, 0.2271967679877638
500.0, 0.2403383147685561
501.0, 0.24471105710837115
502.0, 0.24973002002320852
503.0, 0.27190672014538675
504.0, 0.2836487365911879
505.0, 0.2961744950097208
506.0, 0.3217896658471939
507.0, 0.31031355656970394
508.0, 0.3171210841731674
509.0, 0.32252924176189457
510.0, 0.3288374351927579
511.0, 0.3324713291974521
512.0, 0.3176130963182269
513.0, 0.3258698113661943
514.0, 0.34099210690104537
515.0, 0.35648214430150776
516.0, 0.3685398758129255
517.0, 0.37520698993764906
518.0, 0.3874357793713826
519.0, 0.38246490592855553
520.0, 0.38395963756113183
521.0, 0.3947322586709225
522.0, 0.4053413030351715
523.0, 0.40292013362312545
524.0, 0.4043042613433172
525.0, 0.4114051622213334
526.0, 0.41280260258819684
527.0, 0.4009428404326548
528.0, 0.3837440574098484
529.0, 0.39080242655616065
530.0, 0.3932135741940635
531.0, 0.38924687052768275
532.0, 0.3775695507623295
533.0, 0.3659855486091878
534.0, 0.377224731818621
535.0, 0.3569814218899912
536.0, 0.3616253622394798
537.0, 0.37141060179361157
538.0, 0.3689597518628835
539.0, 0.36664554388398496
540.0, 0.36278028452970346
541.0, 0.37749115486158963
542.0, 0.3831297674433565
543.0, 0.3863049140760651
544.0, 0.40005390534860036
545.0, 0.40551691451619715
546.0, 0.4066580654148597
547.0, 0.419294151385112
548.0, 0.4263394857450219
549.0, 0.4311773566705423
550.0, 0.45033014782706776
551.0, 0.4489075684009266
552.0, 0.4405350521098868
553.0, 0.4541061032829944
554.0, 0.4679939484799532
555.0, 0.46627441080724236
556.0, 0.47743349098141996
557.0, 0.4854299857249163
558.0, 0.5031637464938999
559.0, 0.511956712148129
560.0, 0.5188052968289324
561.0, 0.5406520312412393
562.0, 0.5524342188604858
563.0, 0.565974758641454
564.0, 0.5828846937597428
565.0, 0.5993345804989847
566.0, 0.6148247278216847
567.0, 0.6328419115411454
568.0, 0.6486998379366959
569.0, 0.6541028048182498
570.0, 0.6605024527604043
571.0, 0.6704197798465863
572.0, 0.6747740800628902
573.0, 0.6655346563990268
574.0, 0.6829630594075087
575.0, 0.6700773429328682
576.0, 0.663508127061118
577.0, 0.670074964913646
578.0, 0.6625089612828073
579.0, 0.6717352432133697
580.0, 0.6815053092387094
581.0, 0.6874473472506597
582.0, 0.6930015864898427
583.0, 0.7010575544208474
584.0, 0.7108491227848848
585.0, 0.7241797152852528
586.0, 0.7581273316353454
587.0, 0.7709341227614964
588.0, 0.7788784549280355
589.0, 0.8079987094397858
590.0, 0.8365903795672883
591.0, 0.8536025302661159
592.0, 0.8679594935710269
593.0, 0.8747680019319183
594.0, 0.8763626622075168
595.0, 0.8779290249960072
596.0, 0.872774601402513
597.0, 0.8682753861074666
598.0, 0.845025418265572
599.0, 0.8262246452771443
600.0, 0.8147025740639152
601.0, 0.7905374564504921
602.0, 0.7688976044130394
603.0, 0.7360322041522667
604.0, 0.7003538510416367
605.0, 0.6791461928254128
606.0, 0.6653375636642819
607.0, 0.6323744975337806
608.0, 0.5973611537306495
609.0, 0.5534392105177602
610.0, 0.5251925289286069
611.0, 0.5071101442822425
612.0, 0.4827106824203291
613.0, 0.45362995615666807
614.0, 0.4337575236305722
615.0, 0.41080479911454626
616.0, 0.3873183206967523
617.0, 0.36184136854525595
618.0, 0.335029895579128
619.0, 0.31458816017278013
620.0, 0.2956827144078739
621.0, 0.2837653442578707
622.0, 0.26131133756759295
623.0, 0.2356366607804482
624.0, 0.22135000030339422
625.0, 0.20966442195865959
626.0, 0.18095246733247805
627.0, 0.16021983454177546
628.0, 0.1434303018432796
629.0, 0.1287370048564381
630.0, 0.11571432878161551
631.0, 0.09176628069137119
632.0, 0.0812372438122821
633.0, 0.060545231762456436
634.0, 0.04808437334992177
635.0, 0.04591967296875359
636.0, 0.03523383137635528
637.0, 0.015971179974706495
638.0, 0.010523393182852349
639.0, 0.005550003371106126
640.0, 0.007096480148240862
641.0, 0.012318644894275673
642.0, 0.001611230132016331
643.0, 0.017439524356299023
644.0, 0.018031199842550055
645.0, 0.010273935612460263
646.0, 0.011867448620307877
647.0, 0.014542937894646236
648.0, 0.00566244681589431
649.0, 0.014985531979704694
650.0, 0.009180842473445153
651.0, 0.0014506437493993025
652.0, 0.006387787468692528
653.0, 0.018356787780918562
654.0, 0.018636692064598344
655.0, 0.0022612987913788432
656.0, 0.0025228023852359492
657.0, 0.007460160524270808
658.0, 0.010573717865673113
659.0, 0.007507415228546437
660.0, 0.006866008801127793
661.0, 0.0035684870386181273
662.0, 0.003916410173067517
663.0, 0.0010307953792611686
664.0, 0.001636682794350991
665.0, 0.0016552745651513183
666.0, 0.0072675676913249825
667.0, 0.0037142693373192334
668.0, 0.009180898630996233
669.0, 0.006732128036534664
670.0, 0.003614671195369763
671.0, 0.004362817517418973
672.0, 0.006560829928125445
673.0, 0.007904627187101458
674.0, 0.00309745830623753
675.0, 0.0014389828649004096
676.0, 0.00036235733498971056
677.0, 0.0008536972221283577
678.0, 0.0025476133064872503
679.0, 0.009144882923735064
680.0, 0.004617619681601296
681.0, 0.0017535193062639192
682.0, 0.003598953656870069
683.0, 0.002351863068357623
684.0, 0.004725178398330947
685.0, 0.0024328630293953455
686.0, 0.009501062639988631
687.0, 0.006460794696294387
688.0, 0.005189966297504638
689.0, 0.008496682708358445
690.0, 0.009879104769879864
691.0, 0.008411361224007655
692.0, 0.015973908704178825
693.0, 0.027420288972876315
694.0, 0.022332310417090405
695.0, 0.021316251309593953
696.0, 0.03063768800738239
697.0, 0.03496642858205032
698.0, 0.027919500090566242
699.0, 0.028156211162628557
700.0, 0.029807865105452164
701.0, 0.031727954652930074
702.0, 0.03136350930428496
703.0, 0.030606860253577804
704.0, 0.036540303447471584
705.0, 0.03232864417148277
706.0, 0.03077741834128384
707.0, 0.03355559096728439
708.0, 0.036351835522900854
709.0, 0.035995747392650025
710.0, 0.03380761663306637
711.0, 0.034071215823379734
712.0, 0.037470526641510044
713.0, 0.036938179452070286
714.0, 0.035672521760433666
715.0, 0.03630347278842271
716.0, 0.03572831575480421
717.0, 0.03335786785663402
718.0, 0.03520250134295862
719.0, 0.034755294317162205
720.0, 0.033105736841343214
721.0, 0.03685959085797445
722.0, 0.04554518292999557
723.0, 0.04776612879936853
724.0, 0.03905602649153257
725.0, 0.04783543384782631
726.0, 0.044513293937625084
727.0, 0.03756963012312086
728.0, 0.039290935806855325
729.0, 0.03954664000864375
730.0, 0.03597716661619844
731.0, 0.03244202048014248
732.0, 0.03690377513320538
733.0, 0.03254516352401416
734.0, 0.025614271841559143
735.0, 0.028256989567127775
736.0, 0.02640821506018206
737.0, 0.021795483154369955
738.0, 0.023823367051027066
739.0, 0.028445639148841018
740.0, 0.028688818170531823
741.0, 0.02430059223782766
742.0, 0.020875546790741984
743.0, 0.02105469454786894
744.0, 0.01539992075960827
745.0, 0.016100959613358282
746.0, 0.014250101947453884
747.0, 0.014021488834518366
748.0, 0.0193555840186443
749.0, 0.015572375229108296
750.0, 0.018201289943495652
751.0, 0.015923906972717446
752.0, 0.01557470960264002
753.0, 0.015474590372590063
754.0, 0.014432413137867287
755.0, 0.01565097460495117
756.0, 0.01750475034196194
757.0, 0.012732425734640753
758.0, 0.014946580773147462
759.0, 0.013862792355028271
760.0, 0.010490308631600742
761.0, 0.011526073458043604
762.0, 0.015548126005111415
763.0, 0.014421915122327234
764.0, 0.009272335183906959
765.0, 0.015316325740974343
766.0, 0.01754762159002368
767.0, 0.015931806418407045
768.0, 0.017964089860279326
769.0, 0.00962508419563296
770.0, 0.009573775212093584
771.0, 0.004128245776273128
772.0, 0.006239423675487362
773.0, 0.01300380742616284
774.0, 0.016732288104476377
775.0, 0.016908077504987594
776.0, 0.013833040072847306
777.0, 0.01412568074935969
778.0, 0.01520434033043458
779.0, 0.013510002853076155
780.0, 0.012774226938622875
781.0, 0.012023044911522016
782.0, 0.009709111986672018
783.0, 0.024061726790424367
784.0, 0.017443471321870484
785.0, 0.011275449836690866
786.0, 0.011776876288219251
787.0, 0.015639381209459756
788.0, 0.020907978305685495
789.0, 0.024102972305885442
790.0, 0.009377887555818101
791.0, 0.009256292791319277
792.0, 0.01579050759093408
793.0, 0.024617208065308736
794.0, 0.02839222312527796
795.0, 0.024218914468311804
796.0, 0.022530458474285586
797.0, 0.024488524057467754
798.0, 0.023415970517325548
799.0, 0.02403362279908428
800.0, 0.02246156850180441
801.0, 0.018096056681805694
802.0, 0.01878427325044814
803.0, 0.032438420518935564
804.0, 0.0348117513466513
805.0, 0.03014484810729993
806.0, 0.026970200622611063
807.0, 0.021959966085110888
808.0, 0.02057530319733761
809.0, 0.025192904626545068
810.0, 0.0223580741385013
811.0, 0.03244070940083985
812.0, 0.030488264424224587
813.0, 0.030346548315617047
814.0, 0.03230728931261668
815.0, 0.032800381304203145
816.0, 0.03291833428447375
817.0, 0.0328596437065872
818.0, 0.03008230847911386
819.0, 0.038207038944408925
820.0, 0.0318645304325743
821.0, 0.026888024688506335
822.0, 0.026708236565800753
823.0, 0.023300571018621066
824.0, 0.03005112967206808
825.0, 0.03209983586103559
826.0, 0.027571308517702824
827.0, 0.020431069765627384
828.0, 0.014659323212956507
829.0, 0.01660049604820427
830.0, 0.023714410985952387
831.0, 0.021263067904235013
832.0, 0.019486939694284052
833.0, 0.019517262182816273
834.0, 0.017328573655948372
835.0, 0.01940539954849714
836.0, 0.016302182876384845
837.0, 0.008706934737957684
838.0, 0.015271202583195358
839.0, 0.017602275255834687
840.0, 0.019024111862010213
841.0, 0.009978245942587357
842.0, 0.012844298465256934
843.0, 0.016137744338949104
844.0, 0.010578673943082088
845.0, 0.009414584851196155
846.0, 0.006953030126040172
847.0, 0.016183837231273247
848.0, 0.01592430325246697
849.0, 0.00587796243025298
850.0, 0.0058180991537501205
851.0, 0.016419689274243345
852.0, 0.01939033479536149
853.0, 0.012601515232665573
854.0, 0.010801504531409831
855.0, 0.009923331749852863
856.0, 0.01735374247429241
857.0, 0.021752269632047353
858.0, 0.01772723060134313
859.0, 0.014447466599671045
860.0, 0.019889843000744645
861.0, 0.011833156457927988
862.0, 0.009943299304428924
863.0, 0.015543484905156066
864.0, 0.01949420346721997
865.0, 0.018474387054496815
866.0, 0.01689319606208156
867.0, 0.02063919303360783
868.0, 0.02806762774551199
869.0, 0.021937561283147163
870.0, 0.02596825846606683
871.0, 0.03222687453850572
872.0, 0.03508486303350372
873.0, 0.03785379986374711
874.0, 0.039414584510620944
875.0, 0.032849358873568345
876.0, 0.036126246062629715
877.0, 0.04159682353571427
878.0, 0.04812546315241024
879.0, 0.04802493950548782
880.0, 0.0488096221583968
881.0, 0.05374826508014463
882.0, 0.05330364290521318
883.0, 0.05501577070485613
884.0, 0.05967197236668902
885.0, 0.055355932766124064
886.0, 0.05806051540898247
887.0, 0.061131525663525366
888.0, 0.061779850514087305
889.0, 0.06274172874409281
890.0, 0.0588521701898314
891.0, 0.06644225208242166
892.0, 0.07247939708996316
893.0, 0.0708436566581127
894.0, 0.0686017862422364
895.0, 0.0704788139614891
896.0, 0.06928018474478681
897.0, 0.06084356001242409
898.0, 0.06418925857393083
899.0, 0.06328898584438876
900.0, 0.06458569598745367
901.0, 0.06290410019018837
902.0, 0.055362949398113086
903.0, 0.05216864982787514
904.0, 0.056064106456812715
905.0, 0.054427113891858704
906.0, 0.049714449290150765
907.0, 0.04851759278573237
908.0, 0.042045643598145895
909.0, 0.037539333987636155
910.0, 0.03570882707687471
911.0, 0.03553931203133211
912.0, 0.03753836458272175
913.0, 0.037589058788023544
914.0, 0.029702865088819006
915.0, 0.028061878198415796
916.0, 0.02379147033462022
917.0, 0.018281458271004847
918.0, 0.020821318962790984
919.0, 0.023995860536010185
920.0, 0.019396249640486474
921.0, 0.018665368057181882
922.0, 0.018773523979547006
923.0, 0.018248856178320443
924.0, 0.014563874165281418
925.0, 0.008987638093564766
926.0, 0.009983121978382446
927.0, 0.0129220144932194
928.0, 0.008859024691574863
929.0, 0.006096942525698138
930.0, 0.0008245987265275252
931.0, 0.005658599726914274
932.0, 0.005898203133998054
933.0, 0.001944896844753262
934.0, 0.0007776115043910403
935.0, 0.0022190323115216046
936.0, 0.002467566150315612
937.0, 0.0046704105011952214
938.0, 0.005990338111188185
939.0, 0.010156736960231495
940.0, 0.008975964077736851
941.0, 0.008034663367623486
942.0, 0.011626801122927615
943.0, 0.011385863216479483
944.0, 0.0048359884226900005
945.0, 0.005279624575544812
946.0, 0.004087169241042631
947.0, 0.0034241291089384235
948.0, 0.011887959105989929
949.0, 0.015721171587051604
950.0, 0.011175456097049
951.0, 0.007537742104899674
952.0, 0.01046672919001393
953.0, 0.01379649006263995
954.0, 0.01295753450271975
955.0, 0.013385861210143428
956.0, 0.0036057771494379764
957.0, 0.0020796232770897236
958.0, 0.0024073048692758066
959.0, 0.007431737402684318
960.0, 0.00857752865642196
961.0, 0.0049989553250913395
962.0, 0.005850484596855041
963.0, 0.020030642253793626
964.0, 0.019583639442207153
965.0, 0.020298473119817688
966.0, 0.03243823178850387
967.0, 0.041214783950306214
968.0, 0.04231880697621223
969.0, 0.05080770134168947
970.0, 0.061793580814432626
971.0, 0.06342705444399654
972.0, 0.07557153764341226
973.0, 0.08352609675874814
974.0, 0.10192320676724866
975.0, 0.11358882371631607
976.0, 0.12751229620370375
977.0, 0.15667795629623554
978.0, 0.17315561634317372
979.0, 0.18742537621390679
980.0, 0.22126964627542908
981.0, 0.24357453879161692
982.0, 0.265878494283739
983.0, 0.29021876710575856
984.0, 0.3196110989597647
985.0, 0.3536717296753928
986.0, 0.38189799147203296
987.0, 0.403845437789399
988.0, 0.4420597320314197
989.0, 0.47749390642751277
990.0, 0.5101510998596622
991.0, 0.5477528763537158
992.0, 0.5895354212682727
993.0, 0.629192797713878
994.0, 0.6639836171465872
995.0, 0.7004880524297515
996.0, 0.7407759333122493
997.0, 0.7676935185580466
998.0, 0.7988965219332437
999.0, 0.8307020658317679
1000.0, 0.8568269589510986
1001.0, 0.8798264350212042
1002.0, 0.905444840746274
1003.0, 0.9374327582996348
1004.0, 0.9746267243519549
1005.0, 0.9861772359755566
1006.0, 0.99490953136903
1007.0, 0.9996667198813366
1008.0, 0.9884240385127299
1009.0, 0.9697315406455707
1010.0, 0.9354878810326159
1011.0, 0.8801552167081829
1012.0, 0.820426079255909
1013.0, 0.7619639443076024
1014.0, 0.6915842602436707
1015.0, 0.6234653623985293
1016.0, 0.5598529030244709
1017.0, 0.5061540066255263
1018.0, 0.4563046018932156
1019.0, 0.40952313482381164
1020.0, 0.36626952608833363
1021.0, 0.32645485460197293
1022.0, 0.2973611413006464
1023.0, 0.2717475114914113
1024.0, 0.2527393861329973
1025.0, 0.2274312330348423
1026.0, 0.21688560455341865
1027.0, 0.20130915685220022
1028.0, 0.18611534482629022
1029.0, 0.1876405157878752
1030.0, 0.18980632525014376
1031.0, 0.17108813115720256
1032.0, 0.16987971138821936
1033.0, 0.1570948616586554
1034.0, 0.15407161752825618
1035.0, 0.15203009786594227
1036.0, 0.15128327208120704
1037.0, 0.14705144182507246
1038.0, 0.1407494744653014
1039.0, 0.14122319481436957
1040.0, 0.14251622263132063
1041.0, 0.13668921831010516
1042.0, 0.12885682071288931
1043.0, 0.12082248777386824
1044.0, 0.12420847869961592
1045.0, 0.12639229503398824
1046.0, 0.11992041895397323
1047.0, 0.1113157414021175
1048.0, 0.10729524888541303
1049.0, 0.1057876628299853
1050.0, 0.10320409042193815
1051.0, 0.0965874740603164
1052.0, 0.08949387190921824
1053.0, 0.09043880343075218
1054.0, 0.09157675728902806
1055.0, 0.09547172873309837
1056.0, 0.09589791960367049
1057.0, 0.08948878114323097
1058.0, 0.08630860946821825
1059.0, 0.09070586260939471
1060.0, 0.09424538842679565
1061.0, 0.09331433917242322
1062.0, 0.09466959175872554
1063.0, 0.09873425178969905
1064.0, 0.10975442778117303
1065.0, 0.12022232699917552
1066.0, 0.1372858477433978
1067.0, 0.1624553794298841
1068.0, 0.1773055412372773
1069.0, 0.19746373480665316
1070.0, 0.223876627299902
1071.0, 0.2412385610184804
1072.0, 0.2777296235412692
1073.0, 0.3092001904004287
1074.0, 0.3357213994988519
1075.0, 0.3643306220260201
1076.0, 0.40351097362198446
1077.0, 0.4529632811556411
1078.0, 0.4900184381349883
1079.0, 0.5074888577543682
1080.0, 0.5341996448794619
1081.0, 0.5844245934117721
1082.0, 0.6289536727539546
1083.0, 0.6323550847695065
1084.0, 0.6629877588929919
1085.0, 0.6789396411963424
1086.0, 0.6539944631241246
1087.0, 0.6441350413399758
1088.0, 0.6211022622852401
1089.0, 0.6180078876500241
1090.0, 0.6071016532977996
1091.0, 0.573359398834844
1092.0, 0.5436785833825428
1093.0, 0.522617257125964
1094.0, 0.49359093402033355
1095.0, 0.4608242193618323
1096.0, 0.4323856201636863
1097.0, 0.401871092360519
1098.0, 0.3698254536115436
1099.0, 0.35161008504705404
1100.0, 0.3325851859869713
1101.0, 0.3158702538091073
1102.0, 0.31190917483658886
1103.0, 0.30071406198064043
1104.0, 0.2857066742290357
1105.0, 0.2764858189654007
1106.0, 0.26392882427448805
1107.0, 0.24512406891490157
1108.0, 0.2340349051400756
1109.0, 0.2208992330401084
1110.0, 0.20479646629388623
1111.0, 0.18263087931451003
1112.0, 0.166225337382843
1113.0, 0.1474884539741746
1114.0, 0.1313202156644787
1115.0, 0.11881685402849915
1116.0, 0.10747990495060507
1117.0, 0.0966782367557993
1118.0, 0.08360439681916694
1119.0, 0.06791050134087075
1120.0, 0.05365851884963786
1121.0, 0.04870455359608487
1122.0, 0.041506726988242815
1123.0, 0.031940979768512116
1124.0, 0.02917023833371461
1125.0, 0.020984029950586333
1126.0, 0.009930845175431477
1127.0, 0.002839750137395218
1128.0, 0.006458328928789229
1129.0, 0.010921900444275443
1130.0, 0.009742567451173844
1131.0, 0.011153022851968116
1132.0, 0.005411111914352262
1133.0, 0.001155883263432782
1134.0, 0.0073733985970189445
1135.0, 0.016593861902383957
1136.0, 0.012975165528042192
1137.0, 0.011904493911088858
1138.0, 0.017582740073530896
1139.0, 0.015019349618152525
1140.0, 0.018387469658245403
1141.0, 0.01036598136445992
1142.0, 0.006413482320208192
1143.0, 0.01069294337145235
1144.0, 0.003021818947098552
1145.0, 0.005932581932692492
1146.0, 0.007418295584683936
1147.0, 0.014077648658660371
1148.0, 0.015031501208458743
1149.0, 0.014220801456064998
1150.0, 0.025164792785430212
1151.0, 0.029941844203535233
1152.0, 0.03809249791003915
1153.0, 0.041307511398052374
1154.0, 0.04682336281674047
1155.0, 0.05259678557655724
1156.0, 0.05437255406361202
1157.0, 0.06676072205577907
1158.0, 0.07484349382072676
1159.0, 0.08003631772831224
1160.0, 0.0916141326655342
1161.0, 0.09850904481514049
1162.0, 0.11033095139154418
1163.0, 0.11329320623479679
1164.0, 0.11140240692503804
1165.0, 0.12317900802991383
1166.0, 0.12851825230792327
1167.0, 0.13339149573420636
1168.0, 0.12918458816761164
1169.0, 0.1261323922958744
1170.0, 0.11737617325996128
1171.0, 0.1043636639799128
1172.0, 0.10559986065033555
1173.0, 0.10391837750547768
1174.0, 0.09620448545667604
1175.0, 0.08225235574906332
1176.0, 0.07478823056025852
1177.0, 0.06894588356809206
1178.0, 0.06497664395819483
1179.0, 0.06020317408188687
1180.0, 0.056895516360057664
1181.0, 0.053821992623187986
1182.0, 0.047819820373860705
1183.0, 0.04203216937469598
1184.0, 0.04083526382754039
1185.0, 0.0385709959162995
1186.0, 0.03460327065148177
1187.0, 0.030835813353307942
1188.0, 0.03195434413128679
1189.0, 0.029882816838197917
1190.0, 0.024646441616266647
1191.0, 0.025127473163368375
1192.0, 0.021488270939304218
1193.0, 0.020178696926012065
1194.0, 0.020064917563920086
1195.0, 0.01616764161946264
1196.0, 0.017080054044513664
1197.0, 0.009649912994442464
1198.0, 0.004612886221461567
1199.0, 0.010167505064591808
1200.0, 0.010001575730686121
1201.0, 0.004833655006328248
1202.0, 0.0039953343213011035
1203.0, 0.001368113340765953
1204.0, 0.0031923397134664177
1205.0, 0.002040516195652929
1206.0, 0.002991295655714197
1207.0, 0.006682265699268277
1208.0, 0.007200585974310638
1209.0, 0.011012414519650078
1210.0, 0.008515258711331372
1211.0, 0.007982412588066853
1212.0, 0.010490690546619372
1213.0, 0.0067360996288499415
1214.0, 0.01015631575971746
1215.0, 0.008625667785304745
1216.0, 0.011985455165163217
1217.0, 0.01431730920211027
1218.0, 0.016604959937688204
1219.0, 0.017874916384596692
1220.0, 0.013351329988208796
1221.0, 0.017279521640256153
1222.0, 0.02218888451754363
1223.0, 0.016878904568387632
1224.0, 0.02042909239828594
1225.0, 0.020162265366246417
1226.0, 0.018968636933827467
1227.0, 0.012809253902780846
1228.0, 0.016282623645697207
1229.0, 0.02134095822900125
1230.0, 0.02132412901900794
1231.0, 0.02061997990645212
1232.0, 0.0222409965187331
1233.0, 0.024657554088798758
1234.0, 0.02511802328380898
1235.0, 0.026746142332261913
1236.0, 0.02924162732042803
1237.0, 0.01940651603820153
1238.0, 0.02046005658039809
1239.0, 0.01913803985247935
1240.0, 0.022935283576806558
1241.0, 0.02563701921004981
1242.0, 0.021898728715780878
1243.0, 0.025357636753282058
1244.0, 0.02958385262761389
1245.0, 0.022299057723024332
1246.0, 0.015164802241022502
1247.0, 0.015363469805827416
1248.0, 0.026159134280103642
1249.0, 0.018451024562093254
1250.0, 0.011018239227159853
1251.0, 0.016866720749292765
1252.0, 0.01131434205624221
1253.0, 0.010822043148045602
1254.0, 0.020181525353464083
1255.0, 0.019427617689175093
1256.0, 0.017271957824731912
1257.0, 0.016811361935681307
1258.0, 0.01519975929080616
1259.0, 0.014418592633544811
1260.0, 0.011413759844273823
1261.0, 0.010503768499271659
1262.0, 0.01121312677668258
1263.0, 0.012925869194243527
1264.0, 0.01156911486427184
1265.0, 0.004319162407286696
1266.0, 0.008545131304561358
1267.0, 0.0055691585594372815
1268.0, 0.010217349174465106
1269.0, 0.003896319597100102
1270.0, 0.0011236634504570603
1271.0, 0.009283499823149736
1272.0, 0.00776956274733138
1273.0, 0.0009978834548240083
1274.0, 0.0068876535911391035
1275.0, 0.006356514606262845
1276.0, 0.005666188153474853
1277.0, 0.0003234395348551327
1278.0, 0.002255185059103989
1279.0, 0.0031045439453987692
1280.0, 0.0027480558129773167
1281.0, 0.0004149455642716097
1282.0, 0.0004551508511919037
1283, 0.0
1284, 0.0
1285, 0.0
1286, 0.0
1287, 0.0
1288, 0.0
1289, 0.0
1290, 0.0
1291, 0.0
1292, 0.0
1293, 0.0
1294, 0.0
1295, 0.0
1296, 0.0
1297, 0.0
1298, 0.0
1299, 0.0
1300, 0.0
1301, 0.0
1302, 0.0
1303, 0.0
1304, 0.0
1305, 0.0
1306, 0.0
1307, 0.0
1308, 0.0
1309, 0.0
1310, 0.0
1311, 0.0
1312, 0.0
1313, 0.0
1314, 0.0
1315, 0.0
1316, 0.0
1317, 0.0
1318, 0.0
1319, 0.0
1320, 0.0
1321, 0.0
1322, 0.0
1323, 0.0
1324, 0.0
1325, 0.0
1326, 0.0
1327, 0.0
1328, 0.0
1329, 0.0
1330, 0.0
1331, 0.0
1332, 0.0
1333, 0.0
1334, 0.0
1335, 0.0
1336, 0.0
1337, 0.0
1338, 0.0
1339, 0.0
1340, 0.0
1341, 0.0
1342, 0.0
1343, 0.0
1344, 0.0
1345, 0.0
1346, 0.0
1347, 0.0
1348, 0.0
1349, 0.0
1350, 0.0
1351, 0.0
1352, 0.0
1353, 0.0
1354, 0.0
1355, 0.0
1356, 0.0
1357, 0.0
1358, 0.0
1359, 0.0
1360, 0.0
1361, 0.0
1362, 0.0
1363, 0.0
1364, 0.0
1365, 0.0
1366, 0.0
1367, 0.0
1368, 0.0
1369, 0.0
1370, 0.0
1371, 0.0
1372, 0.0
1373, 0.0
1374, 0.0
1375, 0.0
1376, 0.0
1377, 0.0
1378, 0.0
1379, 0.0
1380, 0.0
1381, 0.0
1382, 0.0
1383, 0.0
1384, 0.0
1385, 0.0
1386, 0.0
1387, 0.0
1388, 0.0
1389, 0.0
1390, 0.0
1391, 0.0
1392, 0.0
1393, 0.0
1394, 0.0
1395, 0.0
1396, 0.0
1397, 0.0
1398, 0.0
1399, 0.0
1400, 0.0
1401, 0.0
1402, 0.0
1403, 0.0
1404, 0.0
1405, 0.0
1406, 0.0
1407, 0.0
1408, 0.0
1409, 0.0
1410, 0.0
1411, 0.0
1412, 0.0
1413, 0.0
1414, 0.0
1415, 0.0
1416, 0.0
1417, 0.0
1418, 0.0
1419, 0.0
1420, 0.0
1421, 0.0
1422, 0.0
1423, 0.0
1424, 0.0
1425, 0.0
1426, 0.0
1427, 0.0
1428, 0.0
1429, 0.0
1430, 0.0
1431, 0.0
1432, 0.0
1433, 0.0
1434, 0.0
1435, 0.0
1436, 0.0
1437, 0.0
1438, 0.0
1439, 0.0
1440, 0.0
1441, 0.0
1442, 0.0
1443, 0.0
1444, 0.0
1445, 0.0
1446, 0.0
1447, 0.0
1448, 0.0
1449, 0.0
1450, 0.0
1451, 0.0
1452, 0.0
1453, 0.0
1454, 0.0
1455, 0.0
1456, 0.0
1457, 0.0
1458, 0.0
1459, 0.0
1460, 0.0
1461, 0.0
1462, 0.0
1463, 0.0
1464, 0.0
1465, 0.0
1466, 0.0
1467, 0.0
1468, 0.0
1469, 0.0
1470, 0.0
1471, 0.0
1472, 0.0
1473, 0.0
1474, 0.0
1475, 0.0
1476, 0.0
1477, 0.0
1478, 0.0
1479, 0.0
1480, 0.0
1481, 0.0
1482, 0.0
1483, 0.0
1484, 0.0
1485, 0.0
1486, 0.0
1487, 0.0
1488, 0.0
1489, 0.0
1490, 0.0
1491, 0.0
1492, 0.0
1493, 0.0
1494, 0.0
1495, 0.0
1496, 0.0
1497, 0.0
1498, 0.0
1499, 0.0
1500, 0.0
1501, 0.0
1502, 0.0
1503, 0.0
1504, 0.0
1505, 0.0
1506, 0.0
1507, 0.0
1508, 0.0
1509, 0.0
1510, 0.0
1511, 0.0
1512, 0.0
1513, 0.0
1514, 0.0
1515, 0.0
1516, 0.0
1517, 0.0
1518, 0.0
1519, 0.0
1520, 0.0
1521, 0.0
1522, 0.0
1523, 0.0
1524, 0.0
1525, 0.0
1526, 0.0
1527, 0.0
1528, 0.0
1529, 0.0
1530, 0.0
1531, 0.0
1532, 0.0
1533, 0.0
1534, 0.0
1535, 0.0
1536, 0.0
1537, 0.0
1538, 0.0
1539, 0.0
1540, 0.0
1541, 0.0
1542, 0.0
1543, 0.0
1544, 0.0
1545, 0.0
1546, 0.0
1547, 0.0
1548, 0.0
1549, 0.0
1550, 0.0
1551, 0.0
1552, 0.0
1553, 0.0
1554, 0.0
1555, 0.0
1556, 0.0
1557, 0.0
1558, 0.0
1559, 0.0
1560, 0.0
1561, 0.0
1562, 0.0
1563, 0.0
1564, 0.0
1565, 0.0
1566, 0.0
1567, 0.0
1568, 0.0
1569, 0.0
1570, 0.0
1571, 0.0
1572, 0.0
1573, 0.0
1574, 0.0
1575, 0.0
1576, 0.0
1577, 0.0
1578, 0.0
1579, 0.0
1580, 0.0
1581, 0.0
1582, 0.0
1583, 0.0
1584, 0.0
1585, 0.0
1586, 0.0
1587, 0.0
1588, 0.0
1589, 0.0
1590, 0.0
1591, 0.0
1592, 0.0
1593, 0.0
1594, 0.0
1595, 0.0
1596, 0.0
1597, 0.0
1598, 0.0
1599, 0.0
