30, 0.0
31, 0.0
32, 0.0
33, 0.0
34, 0.0
35, 0.0
36, 0.0
37, 0.0
38, 0.0
39, 0.0
40, 0.0
41, 0.0
42, 0.0
43, 0.0
44, 0.0
45, 0.0
46, 0.0
47, 0.0
48, 0.0
49, 0.0
50, 0.0
51, 0.0
52, 0.0
53, 0.0
54, 0.0
55, 0.0
56, 0.0
57, 0.0
58, 0.0
59, 0.0
60, 0.0
61, 0.0
62, 0.0
63, 0.0
64, 0.0
65, 0.0
66, 0.0
67, 0.0
68, 0.0
69, 0.0
70, 0.0
71, 0.0
72, 0.0
73, 0.0
74, 0.0
75, 0.0
76, 0.0
77, 0.0
78, 0.0
79, 0.0
80, 0.0
81, 0.0
82, 0.0
83, 0.0
84, 0.0
85, 0.0
86, 0.0
87, 0.0
88, 0.0
89, 0.0
90, 0.0
91, 0.0
92, 0.0
93, 0.0
94, 0.0
95, 0.0
96, 0.0
97, 0.0
98, 0.0
99, 0.0
100, 0.0
101, 0.0
102, 0.0
103, 0.0
104, 0.0
105, 0.0
106, 0.0
107, 0.0
108, 0.0
109, 0.0
110, 0.0
111, 0.0
112, 0.0
113, 0.0
114, 0.0
115, 0.0
116, 0.0
117, 0.0
118, 0.0
119, 0.0
120, 0.0
121, 0.0
122, 0.0
123, 0.0
124, 0.0
125, 0.0
126, 0.0
127, 0.0
128, 0.0
129, 0.0
130, 0.0
131, 0.0
132, 0.0
133, 0.0
134, 0.0
135, 0.0
136, 0.0
137, 0.0
138, 0.0
139, 0.0
140, 0.0
141, 0.0
142, 0.0
143, 0.0
144, 0.0
145, 0.0
146.0, 0.0006797437682650435
147.0, 0.008865366659287534
148.0, 0.009779286058676968
149.0, 0.015056825162025375
150.0, 0.014041460360758058
151.0, 0.004232475629933703
152.0, 0.0015132219366370523
153.0, 0.0018791309722091317
154.0, 0.011036717954403308
155.0, 0.026082360893986804
156.0, 0.006733603013595073
157.0, 0.005732436187538653
158.0, 0.0030427454640253645
159.0, 0.009561186856279644
160.0, 0.020296574988637777
161.0, 0.004586532785330025
162.0, 0.00793094442221285
163.0, 0.03028697021995495
164.0, 0.03608783291864305
165.0, 0.028924447921039136
166.0, 0.05202493255666967
167.0, 0.0781312893319833
168.0, 0.07554757548423909
169.0, 0.07243348354277655
170.0, 0.08824928645946105
171.0, 0.09581583881631404
172.0, 0.08258534248524398
173.0, 0.07469274565718102
174.0, 0.10256017787327472
175.0, 0.10663335656358551
176.0, 0.08843166860087244
177.0, 0.09135131262781725
178.0, 0.10161842833627141
179.0, 0.0920924212812199
180.0, 0.08640273394282469
181.0, 0.10255153601321516
182.0, 0.08979600350804097
183.0, 0.10246739068571831
184.0, 0.1108418784941217
185.0, 0.09981667498700532
186.0, 0.10186332945309055
187.0, 0.10220342603672931
188.0, 0.10915709875488053
189.0, 0.11737894552349723
190.0, 0.11159932317443139
191.0, 0.09810575336961337
192.0, 0.09611635104380246
193.0, 0.09672281815911327
194.0, 0.09126343088728096
195.0, 0.0904700324872662
196.0, 0.08669814352896847
197.0, 0.08728224385871555
198.0, 0.09095848664170524
199.0, 0.09240868079333572
200.0, 0.1098920015473495
201.0, 0.12001461055070588
202.0, 0.11982137560823926
203.0, 0.11636234400267818
204.0, 0.11248145043651663
205.0, 0.12592386978024692
206.0, 0.12976339738633694
207.0, 0.12104389400512496
208.0, 0.12686333077684217
209.0, 0.11729816402748225
210.0, 0.11056811225393882
211.0, 0.09673233657329297
212.0, 0.07051497621151652
213.0, 0.07579999630410131
214.0, 0.07492784409416928
215.0, 0.06767360320319031
216.0, 0.06089721669070249
217.0, 0.05461131103279128
218.0, 0.07025464227163039
219.0, 0.08246344512828427
220.0, 0.07898976015916727
221.0, 0.06234591184477653
222.0, 0.07107212431193273
223.0, 0.08121215264548137
224.0, 0.0794249624577308
225.0, 0.07097864884005264
226.0, 0.09337745357007156
227.0, 0.1052937340741651
228.0, 0.12344479422056816
229.0, 0.1465552270715734
230.0, 0.161676833913314
231.0, 0.19216869879279874
232.0, 0.21585336254859194
233.0, 0.23650142415878034
234.0, 0.2648997921139467
235.0, 0.29879062394101596
236.0, 0.30648888478026337
237.0, 0.3166117662701781
238.0, 0.3369307600574662
239.0, 0.3622233798887772
240.0, 0.4004731065685894
241.0, 0.41857048254612095
242.0, 0.4333411761584029
243.0, 0.4578573403884424
244.0, 0.4803680976989391
245.0, 0.49601463097136506
246.0, 0.5303904600224397
247.0, 0.567271856648467
248.0, 0.5760284077609662
249.0, 0.5586538844761757
250.0, 0.5739790375536528
251.0, 0.5906112965809397
252.0, 0.5936461226547015
253.0, 0.6005327235686565
254.0, 0.6039257596318567
255.0, 0.5916347082504729
256.0, 0.5757313761468895
257.0, 0.5687555523109695
258.0, 0.5699715498354319
259.0, 0.5560049427010837
260.0, 0.5460328336131274
261.0, 0.5453889902694058
262.0, 0.5463852971619311
263.0, 0.5306849230157038
264.0, 0.5175215379734255
265.0, 0.5058345503198112
266.0, 0.4933164561959772
267.0, 0.4883372076419574
268.0, 0.49240418023048915
269.0, 0.47912185042938554
270.0, 0.45929894932588416
271.0, 0.4595278275456695
272.0, 0.45945207248894565
273.0, 0.47404919625806863
274.0, 0.4813354702860851
275.0, 0.47681736053696355
276.0, 0.47860996424398866
277.0, 0.48429671641956035
278.0, 0.47164519999513876
279.0, 0.45810159313759186
280.0, 0.44467050551403176
281.0, 0.4069996907091539
282.0, 0.37844983341394395
283.0, 0.34593677708241216
284.0, 0.3061018145490641
285.0, 0.27148624917263303
286.0, 0.27404177934666724
287.0, 0.2637108485062972
288.0, 0.2566282765802344
289.0, 0.257689378500668
290.0, 0.25166695328367544
291.0, 0.22643251487261568
292.0, 0.23373596348949463
293.0, 0.2378782932205285
294.0, 0.21739928789615737
295.0, 0.2259301933578647
296.0, 0.21826437509328872
297.0, 0.21329856244398365
298.0, 0.211490019368099
299.0, 0.2059974937470548
300.0, 0.21069082600091765
301.0, 0.19533831395007792
302.0, 0.1715410223213557
303.0, 0.15317217382458437
304.0, 0.14278462686009202
305.0, 0.13615449340028704
306.0, 0.12419195779101377
307.0, 0.10968638259439238
308.0, 0.09944657999492901
309.0, 0.09524378833600472
310.0, 0.08619206163038019
311.0, 0.07127409433710451
312.0, 0.06430158291048269
313.0, 0.06567977361490121
314.0, 0.05960085093496199
315.0, 0.03314424645536109
316.0, 0.027753835280835016
317.0, 0.036108142845832435
318.0, 0.03741785491183479
319.0, 0.03246271630299484
320.0, 0.02316675420881059
321.0, 0.026503438742561024
322.0, 0.03402193185389264
323.0, 0.025869302281553225
324.0, 0.015466801477737923
325.0, 0.021714682562731815
326.0, 0.026303070670574864
327.0, 0.025410106753514832
328.0, 0.029659240191921083
329.0, 0.026538871695815452
330.0, 0.026299672843923875
331.0, 0.019484197618671997
332.0, 0.016242227847855957
333.0, 0.0290158928497785
334.0, 0.012344810504067393
335.0, 0.00512280966267649
336.0, 0.0034551584636198914
337.0, 0.003949476844778575
338.0, 0.01217323539838114
339.0, 0.0028899132373679634
340.0, 0.003730379391307667
341.0, 0.00702227427739899
342.0, 0.0033479768009713235
343.0, 0.013353580965648888
344.0, 0.012245977319795407
345.0, 0.006043571193789425
346.0, 0.008258188717600196
347.0, 0.023368135757833856
348.0, 0.02877173076176716
349.0, 0.01447347879233174
350.0, 0.007955819249131859
351.0, 0.010456235535009042
352.0, 0.00892425464115005
353.0, 0.006456033037755979
354.0, 0.00965382940009638
355.0, 0.0155469734709813
356.0, 0.012568065146580933
357.0, 0.001292472330847169
358.0, 0.002190671567079209
359.0, 0.006810264588764255
360.0, 0.007162674570073129
361.0, 0.0018916133258109335
362.0, 0.008841226309502188
363.0, 0.0031262070604340703
364.0, 0.00519296063643088
365.0, 0.002233723325184025
366.0, 0.001134908613199204
367.0, 0.007134465998373214
368.0, 0.007584830324164216
369.0, 0.0033589173184435
370.0, 0.00047604813978707294
371.0, 0.008960570928200552
372.0, 0.011604068224285965
373.0, 0.019230446671885303
374.0, 0.02646355771656886
375.0, 0.02621033315784586
376.0, 0.0292300860372117
377.0, 0.04755658649176752
378.0, 0.06163243386059622
379.0, 0.06033969880183577
380.0, 0.06255845791951446
381.0, 0.07279747477029823
382.0, 0.08362146889781652
383.0, 0.09298892336218392
384.0, 0.0979623244775331
385.0, 0.10622485608650072
386.0, 0.11320912097037265
387.0, 0.11979022561646047
388.0, 0.1443498210597714
389.0, 0.1540208032309789
390.0, 0.16619292164551222
391.0, 0.1798865357176121
392.0, 0.19093711609319108
393.0, 0.2109299362878522
394.0, 0.22490272658540209
395.0, 0.23087908908500313
396.0, 0.2348592376500121
397.0, 0.24306368566165068
398.0, 0.2570810711258764
399.0, 0.2577874298349705
400.0, 0.2616588928954877
401.0, 0.2680687346385966
402.0, 0.271247868610385
403.0, 0.270266846894872
404.0, 0.2837367609871524
405.0, 0.28360646760724617
406.0, 0.27708305459651134
407.0, 0.2809116351355704
408.0, 0.2991197958593279
409.0, 0.3087878431652269
410.0, 0.316512462168808
411.0, 0.3331279637874941
412.0, 0.35711673772268726
413.0, 0.377715263133367
414.0, 0.38104201406869154
415.0, 0.417829558805242
416.0, 0.4474331590162607
417.0, 0.469354785243925
418.0, 0.5149993609035286
419.0, 0.545885679824524
420.0, 0.5587179179697775
421.0, 0.592319656473236
422.0, 0.631786019625932
423.0, 0.6588202425184039
424.0, 0.7065822567933514
425.0, 0.7261263853139628
426.0, 0.7590862588998046
427.0, 0.8021619472815408
428.0, 0.8403706444141786
429.0, 0.8742162191419518
430.0, 0.887420737594422
431.0, 0.9071297835595432
432.0, 0.9355352371332958
433.0, 0.9558379033307192
434.0, 0.959166756871143
435.0, 0.9714642973333699
436.0, 0.9933750926425543
437.0, 0.9918663582880186
438.0, 0.9777384089148328
439.0, 0.970241317372989
440.0, 0.9403691562310494
441.0, 0.915563013263948
442.0, 0.8817261024973326
443.0, 0.8360855600992948
444.0, 0.7826559615347628
445.0, 0.725947322497801
446.0, 0.7024174993115364
447.0, 0.6384751325053527
448.0, 0.5619647530804742
449.0, 0.5078288305641312
450.0, 0.47328821227574286
451.0, 0.41661192820794746
452.0, 0.3740906389769548
453.0, 0.33978684663239933
454.0, 0.30665834188369856
455.0, 0.27181798268973106
456.0, 0.22549577090789996
457.0, 0.21081978016304795
458.0, 0.18091569499030402
459.0, 0.14872691311950437
460.0, 0.13771168944053097
461.0, 0.12168747475662924
462.0, 0.10222571566152573
463.0, 0.09007884611682314
464.0, 0.07633026314191318
465.0, 0.05908117522878831
466.0, 0.04815732825443399
467.0, 0.03465633334002946
468.0, 0.0307728701717131
469.0, 0.028047594646906655
470.0, 0.021358903520670915
471.0, 0.010764836232589331
472.0, 0.0009214096808368959
473.0, 0.00445358630643147
474.0, 0.009140961524520336
475.0, 0.007237831267891762
476.0, 0.001927319457217699
477.0, 0.004391664038051477
478.0, 0.004128890293620081
479.0, 0.008617633510737632
480.0, 0.0024880049984754736
481.0, 0.0011782857354487035
482.0, 0.011468899719904177
483.0, 0.0029037942855950497
484.0, 0.01085978835536011
485.0, 0.005853357486805971
486.0, 0.005199215623063054
487.0, 0.012854096958034161
488.0, 0.001482445789206174
489.0, 0.007035065982318825
490.0, 0.004684690091565878
491.0, 0.0075523490575254044
492.0, 0.020218027455053172
493.0, 0.0269044704320551
494.0, 0.01657965037539365
495.0, 0.02704938229090042
496.0, 0.026037530515898865
497.0, 0.01704111407116115
498.0, 0.014985882690322229
499.0, 0.022263915086504122
500.0, 0.028477764264012367
501.0, 0.03247543404149933
502.0, 0.021412425136828384
503.0, 0.013087347870699892
504.0, 0.0165039781836215
505.0, 0.008281530985471583
506.0, 0.01482087290246998
507.0, 0.023517405887175612
508.0, 0.024344577544889077
509.0, 0.0195253252933067
510.0, 0.01773661435947625
511.0, 0.024444295472021937
512.0, 0.010639925235017951
513.0, 0.010446182557594252
514.0, 0.01916673297848151
515.0, 0.021108569469521932
516.0, 0.01606507845318125
517.0, 0.022421024559691177
518.0, 0.011513639081174962
519.0, 0.009052638423159448
520.0, 0.015608996738511604
521.0, 0.014529442730069836
522.0, 0.004710859046263584
523.0, 0.0035479235976959905
524.0, 0.0018990470823954397
525.0, 0.007433385514042718
526.0, 0.01289083113707125
527.0, 0.00750117164546044
528.0, 0.006691799976911576
529.0, 0.004400523216134048
530.0, 0.013294587868389943
531.0, 0.0168309661620211
532.0, 0.005679070693243527
533.0, 0.015141810260819476
534.0, 0.003851162261836977
535.0, 0.0020009288724879403
536.0, 0.009985224972258434
537.0, 0.008803314023857232
538.0, 0.0031159502301046577
539.0, 0.001641200221932146
540.0, 0.011713781193041723
541.0, 0.007728833209222101
542.0, 0.011902362470607959
543.0, 0.02160437120273718
544.0, 0.02326158814265139
545.0, 0.021231141424731457
546.0, 0.03701474024103742
547.0, 0.06658305818767961
548.0, 0.07360201613528747
549.0, 0.06745279502617829
550.0, 0.0797578936437708
551.0, 0.0802019648368678
552.0, 0.07706323149323939
553.0, 0.08238525634865916
554.0, 0.08536890130782206
555.0, 0.08434199132724189
556.0, 0.08821915878988118
557.0, 0.0934478609897745
558.0, 0.08396469703445077
559.0, 0.07434632516799701
560.0, 0.06989358238750076
561.0, 0.07143312597719603
562.0, 0.07790660503174876
563.0, 0.07570643350454749
564.0, 0.09554028796437959
565.0, 0.1043878115143573
566.0, 0.10936381549962079
567.0, 0.11744989871264697
568.0, 0.11272275832350585
569.0, 0.10121509529434351
570.0, 0.1251408532223388
571.0, 0.13156025317941436
572.0, 0.12997651254074688
573.0, 0.13828875246413158
574.0, 0.14902315236670463
575.0, 0.1540227013753174
576.0, 0.1629695728668169
577.0, 0.18121498769006067
578.0, 0.19257219623762004
579.0, 0.1935466154199845
580.0, 0.2030348989944062
581.0, 0.21716665052981904
582.0, 0.2491286100630924
583.0, 0.25460189588501336
584.0, 0.25894501415627325
585.0, 0.2757858180149905
586.0, 0.2849385374088817
587.0, 0.30308566654805463
588.0, 0.31788887177339886
589.0, 0.32726364265056157
590.0, 0.33347113429598646
591.0, 0.33754118153455137
592.0, 0.34447112092203586
593.0, 0.3527013833944411
594.0, 0.3467381272570652
595.0, 0.3309889369325419
596.0, 0.33179675300077416
597.0, 0.3417787937289413
598.0, 0.33858187564914066
599.0, 0.33392132323444923
600.0, 0.3108275438586282
601.0, 0.31242380551570725
602.0, 0.30932619865405403
603.0, 0.29659610406137077
604.0, 0.2906433105273234
605.0, 0.27739159229957594
606.0, 0.2781901630313636
607.0, 0.2692992251981227
608.0, 0.25888708107426156
609.0, 0.2540903365545914
610.0, 0.24725998136370483
611.0, 0.22977476565458554
612.0, 0.22590837296227104
613.0, 0.2287123439768865
614.0, 0.2358645375804285
615.0, 0.2310739438160293
616.0, 0.21586651389221928
617.0, 0.21483704944491577
618.0, 0.20727091376932769
619.0, 0.1959290510696759
620.0, 0.18845983084054715
621.0, 0.1913350879895016
622.0, 0.1933718609721172
623.0, 0.18455720244971144
624.0, 0.18392362332834822
625.0, 0.17975467960569852
626.0, 0.17685085186149602
627.0, 0.16623072316120763
628.0, 0.15408079364794175
629.0, 0.15068946299784253
630.0, 0.14684471038040076
631.0, 0.1381406152413271
632.0, 0.13690683265743114
633.0, 0.12583125967498718
634.0, 0.11264213998438817
635.0, 0.10836354850649813
636.0, 0.10508320962759428
637.0, 0.08797852877648135
638.0, 0.08710174476394796
639.0, 0.078975981144345
640.0, 0.07983366725352363
641.0, 0.08627220702308351
642.0, 0.07514864382411748
643.0, 0.056604390441318396
644.0, 0.06491405557729099
645.0, 0.053395475460266795
646.0, 0.04033219621939897
647.0, 0.03180837747018178
648.0, 0.02530698179566219
649.0, 0.025115806269438306
650.0, 0.02618375130285367
651.0, 0.023610289380189893
652.0, 0.013811064872230605
653.0, 0.010574461455607701
654.0, 0.012200802136237107
655.0, 0.010550011506268555
656.0, 0.014580995823113087
657.0, 0.006463753318319616
658.0, 0.003900152945027263
659.0, 0.005274260986258005
660.0, 0.002803255414825404
661.0, 0.0006454109406364521
662.0, 0.004395979806435938
663.0, 0.007385600190233357
664.0, 0.004886718593576366
665.0, 0.005467499376118781
666.0, 0.005056382242584463
667.0, 0.0009671479583439177
668.0, 0.0025885405576302426
669.0, 0.008549518666791114
670.0, 0.003253794293238293
671.0, 0.01080573284183439
672.0, 0.0071882980263472136
673.0, 0.0008413220664732875
674.0, 0.0014758296253058287
675.0, 0.0038683328743900716
676.0, 0.0006838438019972173
677.0, 0.0004831728359994601
678.0, 0.007389361862635596
679.0, 0.007626410254036841
680.0, 0.0038584041967640523
681.0, 0.004684196509812501
682.0, 0.00458426561791632
683.0, 0.005876758459239573
684.0, 0.0018789321272378473
685.0, 0.013468358439580323
686.0, 0.014327524634380437
687.0, 0.008190533934547625
688.0, 0.009064844293129582
689.0, 0.004486734529204825
690.0, 0.004036937951353496
691.0, 0.006023352032222224
692.0, 0.013826842813345204
693.0, 0.021176014102381256
694.0, 0.02053553233100874
695.0, 0.014227003762063229
696.0, 0.0180355267997132
697.0, 0.019156752383961025
698.0, 0.01733262573190976
699.0, 0.017207893044866477
700.0, 0.015400342640214705
701.0, 0.014367823243626421
702.0, 0.01773514117959182
703.0, 0.01567181745425214
704.0, 0.019490670152320824
705.0, 0.022888233384823032
706.0, 0.019334208509500985
707.0, 0.01561485639140534
708.0, 0.01728425815329914
709.0, 0.02207663111035868
710.0, 0.024457702635863582
711.0, 0.028815675140820982
712.0, 0.03187703354075011
713.0, 0.029045486069462174
714.0, 0.02173487130364539
715.0, 0.018532283286213275
716.0, 0.02439443969611373
717.0, 0.030974670399600158
718.0, 0.015986057968608733
719.0, 0.020054174770674834
720.0, 0.02296872337993089
721.0, 0.024139999128647255
722.0, 0.027752629826479164
723.0, 0.025239532401144422
724.0, 0.01454053603641171
725.0, 0.01807814546704503
726.0, 0.024424265992101537
727.0, 0.021003931842600167
728.0, 0.019896595676707395
729.0, 0.016250917061205652
730.0, 0.00913781847914315
731.0, 0.022777610270420228
732.0, 0.0247001781876854
733.0, 0.017588317112931393
734.0, 0.014144730623887772
735.0, 0.014623001745300145
736.0, 0.019153883390270156
737.0, 0.022822093963500156
738.0, 0.014134237730719985
739.0, 0.012573484326471868
740.0, 0.015026680963846469
741.0, 0.010193026597583995
742.0, 0.0088229298726618
743.0, 0.0106635100349697
744.0, 0.008715975904228125
745.0, 0.010544940933425768
746.0, 0.016903397753826103
747.0, 0.003236651953364276
748.0, 0.002534201030825987
749.0, 0.01105681867576297
750.0, 0.010446451874590406
751.0, 0.0026057606615355715
752.0, 0.003963372186249245
753.0, 0.0038730034598533796
754.0, 0.01172244270796698
755.0, 0.0025886637861405964
756.0, 0.00834015498966394
757.0, 0.008417670904181385
758.0, 0.000725203945132729
759.0, 0.0029512755005596143
760.0, 0.007881143831066523
761.0, 0.0008003909705672635
762.0, 0.00435596011902561
763.0, 0.003592954118231277
764.0, 0.006315768954907106
765.0, 0.00591141311853472
766.0, 0.003293485769254224
767.0, 0.006144672838582411
768.0, 0.0026482649943599863
769.0, 0.009147331316101617
770.0, 0.0025609144194208688
771.0, 0.0015226090792888286
772.0, 0.0019324816560956502
773.0, 0.005663780926980646
774.0, 0.015297428255375134
775.0, 0.006424612491698001
776.0, 0.0009798644480213422
777.0, 0.007718455057590401
778.0, 0.001555591746037683
779.0, 0.0019989049057505042
780.0, 0.008464017233446006
781.0, 0.003517054280068155
782.0, 0.0028995317383698556
783.0, 0.007687979564890323
784.0, 0.0018182352397079322
785.0, 0.00653511468286846
786.0, 0.004853172039910106
787.0, 0.0060926514794714375
788.0, 0.0026905003245901206
789.0, 0.008081458071766355
790.0, 0.009925971743182172
791.0, 0.0054223958388669065
792.0, 0.004771977359778916
793.0, 0.0049812544884374615
794.0, 0.015069644365811676
795.0, 0.015281454795098872
796.0, 0.008809232830246483
797.0, 0.006675978078558792
798.0, 0.01271430344440619
799.0, 0.005626954806118038
800.0, 0.008259709310092254
801.0, 0.013780385171047908
802.0, 0.010888902817082562
803.0, 0.011944427703767791
804.0, 0.013277618240409083
805.0, 0.012676712153603206
806.0, 0.02334271263290476
807.0, 0.024522203724172555
808.0, 0.01275528304610935
809.0, 0.0075473312062761195
810.0, 0.007971445405247104
811.0, 0.01315265399560759
812.0, 0.018594819718466226
813.0, 0.01692542669111109
814.0, 0.013242187047103436
815.0, 0.017776582675362283
816.0, 0.021776603362440458
817.0, 0.014091291967131245
818.0, 0.015818972441334414
819.0, 0.02111783935496131
820.0, 0.020616604803399316
821.0, 0.017852351153308618
822.0, 0.01776318711931964
823.0, 0.026348706067005973
824.0, 0.026653798781905248
825.0, 0.01805691454269272
826.0, 0.017296805447460244
827.0, 0.016944723842194077
828.0, 0.014279980472804902
829.0, 0.018163055039585506
830.0, 0.026185420536387477
831.0, 0.02079244741395991
832.0, 0.01669166495700855
833.0, 0.017295495201542114
834.0, 0.018901408059087556
835.0, 0.024116274137838907
836.0, 0.026728001733402413
837.0, 0.016985020208272854
838.0, 0.008339536574484241
839.0, 0.02075885854063959
840.0, 0.02311705028350523
841.0, 0.02121481847430754
842.0, 0.0176503037217598
843.0, 0.01746967401993225
844.0, 0.014099031955978633
845.0, 0.010949050701457566
846.0, 0.016408171579494122
847.0, 0.011455049744538669
848.0, 0.015572159543799157
849.0, 0.02267659454600856
850.0, 0.017932256730204092
851.0, 0.015924489994210783
852.0, 0.020075399612502636
853.0, 0.020983691208021415
854.0, 0.019008934120121092
855.0, 0.021885001741856272
856.0, 0.01904528988868436
857.0, 0.011756632413042657
858.0, 0.010488948249177643
859.0, 0.014595879118226442
860.0, 0.01820433705798521
861.0, 0.022005109783497147
862.0, 0.024101303026024798
863.0, 0.02015935004459565
864.0, 0.019263085082916513
865.0, 0.028459639554588807
866.0, 0.03686751310795565
867.0, 0.029995293090814914
868.0, 0.026589748612177826
869.0, 0.023792114583365526
870.0, 0.02273754549362883
871.0, 0.028750518321111446
872.0, 0.03466967919221265
873.0, 0.03127743499045732
874.0, 0.0297706407946705
875.0, 0.03143533980172424
876.0, 0.028444170608560547
877.0, 0.025812911385569483
878.0, 0.028295179543365925
879.0, 0.02711943947666051
880.0, 0.026046335607681773
881.0, 0.034717903548149374
882.0, 0.03277150555081878
883.0, 0.03325632693413938
884.0, 0.03365390783462805
885.0, 0.03409100344470222
886.0, 0.038939786447453474
887.0, 0.038157288306698706
888.0, 0.03396113026627835
889.0, 0.03795741945035719
890.0, 0.0424742754296658
891.0, 0.03778630714107438
892.0, 0.04079930486155594
893.0, 0.04833643604727576
894.0, 0.041211086593767966
895.0, 0.035330202182975105
896.0, 0.03667031441848904
897.0, 0.03739699067272648
898.0, 0.030730901720586602
899.0, 0.023623214570076805
900.0, 0.02801778430282041
901.0, 0.029261843195277578
902.0, 0.032321978724429636
903.0, 0.02735994578797761
904.0, 0.03188892150908704
905.0, 0.033478924116199106
906.0, 0.03264956256075803
907.0, 0.031406065650120024
908.0, 0.025201374756949318
909.0, 0.026954087733333156
910.0, 0.013938720127303624
911.0, 0.017944174028966725
912.0, 0.013855200628851143
913.0, 0.013332189732773631
914.0, 0.01278237218375988
915.0, 0.01664901952143358
916.0, 0.02243560131160196
917.0, 0.016672671263570093
918.0, 0.007372153933227506
919.0, 0.010658735975752528
920.0, 0.011241284543932029
921.0, 0.006428865054718353
922.0, 0.017644013406337932
923.0, 0.01238386759355358
924.0, 0.008072260850771623
925.0, 0.009268502434744443
926.0, 0.006030303479378534
927.0, 0.003534039321036936
928.0, 0.006285453487382893
929.0, 0.008852121475718374
930.0, 0.006751530605932432
931.0, 0.0031831470553748144
932.0, 0.005246797405751375
933.0, 0.003878748652660507
934.0, 0.007405858651421177
935.0, 0.007288895695259104
936.0, 0.004381758801462082
937.0, 0.006216641698519737
938.0, 0.0008519121735987678
939.0, 0.007519985233836751
940.0, 0.002306972624981406
941.0, 0.00037136709722571267
942.0, 0.00368414081830309
943.0, 0.002694392403111495
944.0, 0.0032878854740256143
945.0, 0.007899142143923435
946.0, 0.00812146217443075
947.0, 0.0030140947111251385
948.0, 0.0008317794702393026
949.0, 0.0045902058367710925
950.0, 0.004948359180471771
951.0, 0.001438761837998855
952.0, 0.0069963348179195636
953.0, 0.014248099230320397
954.0, 0.009929515271796849
955.0, 0.004548900088025153
956.0, 0.010670569425612857
957.0, 0.01504417509303405
958.0, 0.012557019418992538
959.0, 0.021274513901765987
960.0, 0.022654421378159716
961.0, 0.025514675002821632
962.0, 0.030455504712293857
963.0, 0.03657255937113449
964.0, 0.036946903110615756
965.0, 0.04186962328848533
966.0, 0.049550858141216216
967.0, 0.04937462110633026
968.0, 0.06922141021985331
969.0, 0.06973788873960228
970.0, 0.06856545578587249
971.0, 0.08436472381816695
972.0, 0.09578836040729231
973.0, 0.10803338303991698
974.0, 0.11365355431055775
975.0, 0.12696167443122805
976.0, 0.15114895673486808
977.0, 0.16750171009338796
978.0, 0.17578528331480392
979.0, 0.18896992453809383
980.0, 0.20378171740401016
981.0, 0.2299405906620814
982.0, 0.26356776234335055
983.0, 0.28454120131111527
984.0, 0.30396170922662213
985.0, 0.32569040229103047
986.0, 0.3550925121428485
987.0, 0.3829111335730279
988.0, 0.40520925430956767
989.0, 0.4488072257690489
990.0, 0.4853474180815276
991.0, 0.49995525592626117
992.0, 0.5416481503203537
993.0, 0.5727880638562166
994.0, 0.6042617393968546
995.0, 0.6272501362962342
996.0, 0.6501085166837397
997.0, 0.673079994531125
998.0, 0.6950341408250493
999.0, 0.7114762621190801
1000.0, 0.7115139222129842
1001.0, 0.722102605176649
1002.0, 0.7390889904219794
1003.0, 0.7371819581242794
1004.0, 0.725753330975349
1005.0, 0.7196633039100668
1006.0, 0.709619449489445
1007.0, 0.6967741267376601
1008.0, 0.6744816377055121
1009.0, 0.6374850359281928
1010.0, 0.5992790205647194
1011.0, 0.559337991604863
1012.0, 0.5044405486525266
1013.0, 0.4585151839534552
1014.0, 0.39877149684336044
1015.0, 0.35291381663038185
1016.0, 0.31462868824677387
1017.0, 0.2714965179169509
1018.0, 0.23931455200372573
1019.0, 0.2111044881076133
1020.0, 0.1952962286742819
1021.0, 0.18605020838059685
1022.0, 0.15194841182608057
1023.0, 0.13279726023743044
1024.0, 0.12547258147073143
1025.0, 0.11483606265770697
1026.0, 0.10447481293464293
1027.0, 0.10509151191445025
1028.0, 0.09299320488570098
1029.0, 0.08552507624408553
1030.0, 0.07828748598311765
1031.0, 0.07696872321551172
1032.0, 0.07115659896003412
1033.0, 0.06867233137911741
1034.0, 0.06131854844871858
1035.0, 0.050111452989691586
1036.0, 0.042994926531141495
1037.0, 0.04728951163744684
1038.0, 0.03677933049118377
1039.0, 0.033038726498342844
1040.0, 0.029718216091085343
1041.0, 0.028688672306741794
1042.0, 0.02593657859123396
1043.0, 0.024258271622614968
1044.0, 0.02004832559416877
1045.0, 0.011392647314608883
1046.0, 0.014541308919043006
1047.0, 0.011266899732415807
1048.0, 0.0015964238086614358
1049.0, 0.003710330373987518
1050.0, 0.0027032323437094835
1051.0, 0.010655425171373214
1052.0, 0.0032206438393931193
1053.0, 0.0020784780193111763
1054.0, 0.012795196737983391
1055.0, 0.010313317468361892
1056.0, 0.004963468945338833
1057.0, 0.011292093282784979
1058.0, 0.0113023071478206
1059.0, 0.006313694120870662
1060.0, 0.013946877920244106
1061.0, 0.015133863863255454
1062.0, 0.013665266435662158
1063.0, 0.029616687661507986
1064.0, 0.03076627357654063
1065.0, 0.023587269610324927
1066.0, 0.03813794127834524
1067.0, 0.05330768932633178
1068.0, 0.05808699289986104
1069.0, 0.06406185321833677
1070.0, 0.07381810585089167
1071.0, 0.07820783268631964
1072.0, 0.08310882039746412
1073.0, 0.1017223997731106
1074.0, 0.11044001099884357
1075.0, 0.11376664017269078
1076.0, 0.12706855817118318
1077.0, 0.13325723294263536
1078.0, 0.14917221738889272
1079.0, 0.15044734162144136
1080.0, 0.1581732875297644
1081.0, 0.1667320779201278
1082.0, 0.17855641891339755
1083.0, 0.18353344138245106
1084.0, 0.1864179275020466
1085.0, 0.18035102343990608
1086.0, 0.1734837177077007
1087.0, 0.1848839098622078
1088.0, 0.18384280083758855
1089.0, 0.1711633301879618
1090.0, 0.16945560745521843
1091.0, 0.18131409436127946
1092.0, 0.1736836381576585
1093.0, 0.163345314974164
1094.0, 0.15796212865411766
1095.0, 0.15749467761500224
1096.0, 0.15171735556783078
1097.0, 0.1461934382472798
1098.0, 0.1520410240603846
1099.0, 0.15951011916438237
1100.0, 0.15680449579992195
1101.0, 0.13879681545707287
1102.0, 0.15483508895901943
1103.0, 0.14834906483213406
1104.0, 0.1522115936887778
1105.0, 0.14529062491876138
1106.0, 0.13640240713929086
1107.0, 0.12619109460080283
1108.0, 0.11991702487077133
1109.0, 0.10919976877945989
1110.0, 0.09914294733809562
1111.0, 0.08239451182605947
1112.0, 0.06816540705190138
1113.0, 0.06647014786262179
1114.0, 0.056256276307836056
1115.0, 0.05252585980271756
1116.0, 0.03858947528049287
1117.0, 0.03184128558554921
1118.0, 0.031681669134503286
1119.0, 0.03328299938426499
1120.0, 0.025047248608092883
1121.0, 0.022720134064283522
1122.0, 0.011014533583322737
1123.0, 0.004728595961305383
1124.0, 0.006453803392420885
1125.0, 0.0022187938061263585
1126.0, 0.002822253235195079
1127.0, 0.008171374585138735
1128.0, 0.005460427435179263
1129.0, 0.0031767108694153927
1130.0, 0.005356100579128072
1131.0, 0.001927013429767139
1132.0, 0.0006106573736362371
1133.0, 0.00478840997377514
1134.0, 0.004187131758219215
1135.0, 0.0041720084287762875
1136.0, 0.0024082747568218597
1137.0, 0.0020581845918474645
1138.0, 0.005472546640108623
1139.0, 0.009549121714781651
1140.0, 0.00455201703504746
1141.0, 0.0006181616657122346
1142.0, 0.00028019388676024345
1143.0, 0.0019885948876306792
1144.0, 0.006543637962543786
1145.0, 0.011679693113102635
1146.0, 0.01985091843764218
1147.0, 0.018346450853927394
1148.0, 0.020466154710808416
1149.0, 0.025643455052275485
1150.0, 0.03366205073885675
1151.0, 0.03394975479901079
1152.0, 0.03499214198207819
1153.0, 0.04115337853979039
1154.0, 0.04126643012382172
1155.0, 0.04120479455857556
1156.0, 0.047851532208563474
1157.0, 0.05028727157876987
1158.0, 0.05227936787293466
1159.0, 0.057441015294409856
1160.0, 0.06047396830480838
1161.0, 0.06343113970739334
1162.0, 0.06811548977292818
1163.0, 0.07480932811874053
1164.0, 0.07897356223426232
1165.0, 0.07522323993882588
1166.0, 0.06871775119060873
1167.0, 0.07730305373766329
1168.0, 0.07271990993721121
1169.0, 0.057363663556976856
1170.0, 0.0648594808900185
1171.0, 0.06083372914394475
1172.0, 0.059752524990784504
1173.0, 0.060060840046835096
1174.0, 0.05043943600544758
1175.0, 0.045483276247751316
1176.0, 0.040800859295917015
1177.0, 0.03845919429984279
1178.0, 0.03776071704353606
1179.0, 0.028131277444413422
1180.0, 0.027119578373798112
1181.0, 0.030016538527875322
1182.0, 0.03740671482947786
1183.0, 0.02604119369222231
1184.0, 0.017282451670764188
1185.0, 0.009417510425420897
1186.0, 0.016086018388476498
1187.0, 0.01656502909421148
1188.0, 0.01159435222721452
1189.0, 0.018748696786103244
1190.0, 0.017612982425833378
1191.0, 0.015537648171528513
1192.0, 0.016117721323381986
1193.0, 0.017582835232842316
1194.0, 0.015412208335613325
1195.0, 0.014347121540371684
1196.0, 0.014413529299129887
1197.0, 0.007100739771807543
1198.0, 0.0032487743883427064
1199.0, 0.008577689616321871
1200.0, 0.002707909103968022
1201.0, 0.001177603635509795
1202.0, 0.003603658830365799
1203.0, 0.00030147817192828567
1204.0, 0.0008158388644690032
1205.0, 0.007221054501025956
1206.0, 0.005263816461140394
1207.0, 0.0024556690611144
1208.0, 0.014445330385876079
1209.0, 0.015212280942203485
1210.0, 0.010949891819554825
1211.0, 0.0093818251446105
1212.0, 0.0024535466711804723
1213.0, 0.0009908226839311788
1214.0, 0.005905519142020271
1215.0, 0.008871763369039753
1216.0, 0.004427622495672221
1217.0, 0.0018854563764455347
1218.0, 0.001961594174677772
1219.0, 0.0007779380429246093
1220.0, 0.006802277296174034
1221.0, 0.006817814710534974
1222.0, 0.008436289051649412
1223.0, 0.010479454387589975
1224.0, 0.010669003020788041
1225.0, 0.009851148513739987
1226.0, 0.010254635663666987
1227.0, 0.00991085232148816
1228.0, 0.005306938887493213
1229.0, 0.004737959560502715
1230.0, 0.004824677276454766
1231.0, 0.016843102960879958
1232.0, 0.007159045129649878
1233.0, 0.006224498159389978
1234.0, 0.00677712594047036
1235.0, 0.01232018763334559
1236.0, 0.014755262368774972
1237.0, 0.013959406080322695
1238.0, 0.01582876930396885
1239.0, 0.011327441735324194
1240.0, 0.004644286395082862
1241.0, 0.0035985729643757173
1242.0, 0.004025038246014374
1243.0, 0.011657742735978374
1244.0, 0.011182932488026435
1245.0, 0.005699727129613033
1246.0, 0.00549394672668896
1247.0, 0.003055276568653704
1248.0, 0.005995532116347044
1249.0, 0.005259635274980053
1250.0, 0.00470394977715612
1251.0, 0.003101118324744673
1252.0, 0.003966754510276673
1253.0, 0.00468212636600924
1254.0, 0.0006606933410470199
1255.0, 0.0030815043483448466
1256.0, 0.011420232090426342
1257.0, 0.01150763007573054
1258.0, 0.00458975984488215
1259.0, 0.007809547147979331
1260.0, 0.006669518211696048
1261.0, 0.005812427667829487
1262.0, 0.0077106612634445645
1263.0, 0.009028115830861745
1264.0, 0.008503597741119789
1265.0, 0.006468935961023812
1266.0, 0.004605581893538327
1267.0, 0.003545314940332547
1268.0, 0.004778701469230345
1269.0, 0.006877811661707758
1270.0, 0.010271781644394202
1271.0, 0.011653643720012267
1272.0, 0.0022124197811071275
1273.0, 0.0074071443977051996
1274.0, 0.0017373739829716806
1275.0, 0.00044654435322291847
1276.0, 0.0026213331619684976
1277.0, 0.0016601769023969416
1278.0, 0.015472058057264159
1279.0, 0.007571756591569951
1280.0, 0.002518640407607111
1281.0, 0.009323043391995888
1282.0, 0.003918406545910929
1283.0, 0.0060288612326136115
1284.0, 0.012447735255651024
1285.0, 0.00423750294068056
1286.0, 6.578235813765018e-06
1287, 0.0
1288, 0.0
1289, 0.0
1290, 0.0
1291, 0.0
1292, 0.0
1293, 0.0
1294, 0.0
1295, 0.0
1296, 0.0
1297, 0.0
1298, 0.0
1299, 0.0
1300, 0.0
1301, 0.0
1302, 0.0
1303, 0.0
1304, 0.0
1305, 0.0
1306, 0.0
1307, 0.0
1308, 0.0
1309, 0.0
1310, 0.0
1311, 0.0
1312, 0.0
1313, 0.0
1314, 0.0
1315, 0.0
1316, 0.0
1317, 0.0
1318, 0.0
1319, 0.0
1320, 0.0
1321, 0.0
1322, 0.0
1323, 0.0
1324, 0.0
1325, 0.0
1326, 0.0
1327, 0.0
1328, 0.0
1329, 0.0
1330, 0.0
1331, 0.0
1332, 0.0
1333, 0.0
1334, 0.0
1335, 0.0
1336, 0.0
1337, 0.0
1338, 0.0
1339, 0.0
1340, 0.0
1341, 0.0
1342, 0.0
1343, 0.0
1344, 0.0
1345, 0.0
1346, 0.0
1347, 0.0
1348, 0.0
1349, 0.0
1350, 0.0
1351, 0.0
1352, 0.0
1353, 0.0
1354, 0.0
1355, 0.0
1356, 0.0
1357, 0.0
1358, 0.0
1359, 0.0
1360, 0.0
1361, 0.0
1362, 0.0
1363, 0.0
1364, 0.0
1365, 0.0
1366, 0.0
1367, 0.0
1368, 0.0
1369, 0.0
1370, 0.0
1371, 0.0
1372, 0.0
1373, 0.0
1374, 0.0
1375, 0.0
1376, 0.0
1377, 0.0
1378, 0.0
1379, 0.0
1380, 0.0
1381, 0.0
1382, 0.0
1383, 0.0
1384, 0.0
1385, 0.0
1386, 0.0
1387, 0.0
1388, 0.0
1389, 0.0
1390, 0.0
1391, 0.0
1392, 0.0
1393, 0.0
1394, 0.0
1395, 0.0
1396, 0.0
1397, 0.0
1398, 0.0
1399, 0.0
1400, 0.0
1401, 0.0
1402, 0.0
1403, 0.0
1404, 0.0
1405, 0.0
1406, 0.0
1407, 0.0
1408, 0.0
1409, 0.0
1410, 0.0
1411, 0.0
1412, 0.0
1413, 0.0
1414, 0.0
1415, 0.0
1416, 0.0
1417, 0.0
1418, 0.0
1419, 0.0
1420, 0.0
1421, 0.0
1422, 0.0
1423, 0.0
1424, 0.0
1425, 0.0
1426, 0.0
1427, 0.0
1428, 0.0
1429, 0.0
1430, 0.0
1431, 0.0
1432, 0.0
1433, 0.0
1434, 0.0
1435, 0.0
1436, 0.0
1437, 0.0
1438, 0.0
1439, 0.0
1440, 0.0
1441, 0.0
1442, 0.0
1443, 0.0
1444, 0.0
1445, 0.0
1446, 0.0
1447, 0.0
1448, 0.0
1449, 0.0
1450, 0.0
1451, 0.0
1452, 0.0
1453, 0.0
1454, 0.0
1455, 0.0
1456, 0.0
1457, 0.0
1458, 0.0
1459, 0.0
1460, 0.0
1461, 0.0
1462, 0.0
1463, 0.0
1464, 0.0
1465, 0.0
1466, 0.0
1467, 0.0
1468, 0.0
1469, 0.0
1470, 0.0
1471, 0.0
1472, 0.0
1473, 0.0
1474, 0.0
1475, 0.0
1476, 0.0
1477, 0.0
1478, 0.0
1479, 0.0
1480, 0.0
1481, 0.0
1482, 0.0
1483, 0.0
1484, 0.0
1485, 0.0
1486, 0.0
1487, 0.0
1488, 0.0
1489, 0.0
1490, 0.0
1491, 0.0
1492, 0.0
1493, 0.0
1494, 0.0
1495, 0.0
1496, 0.0
1497, 0.0
1498, 0.0
1499, 0.0
1500, 0.0
1501, 0.0
1502, 0.0
1503, 0.0
1504, 0.0
1505, 0.0
1506, 0.0
1507, 0.0
1508, 0.0
1509, 0.0
1510, 0.0
1511, 0.0
1512, 0.0
1513, 0.0
1514, 0.0
1515, 0.0
1516, 0.0
1517, 0.0
1518, 0.0
1519, 0.0
1520, 0.0
1521, 0.0
1522, 0.0
1523, 0.0
1524, 0.0
1525, 0.0
1526, 0.0
1527, 0.0
1528, 0.0
1529, 0.0
1530, 0.0
1531, 0.0
1532, 0.0
1533, 0.0
1534, 0.0
1535, 0.0
1536, 0.0
1537, 0.0
1538, 0.0
1539, 0.0
1540, 0.0
1541, 0.0
1542, 0.0
1543, 0.0
1544, 0.0
1545, 0.0
1546, 0.0
1547, 0.0
1548, 0.0
1549, 0.0
1550, 0.0
1551, 0.0
1552, 0.0
1553, 0.0
1554, 0.0
1555, 0.0
1556, 0.0
1557, 0.0
1558, 0.0
1559, 0.0
1560, 0.0
1561, 0.0
1562, 0.0
1563, 0.0
1564, 0.0
1565, 0.0
1566, 0.0
1567, 0.0
1568, 0.0
1569, 0.0
1570, 0.0
1571, 0.0
1572, 0.0
1573, 0.0
1574, 0.0
1575, 0.0
1576, 0.0
1577, 0.0
1578, 0.0
1579, 0.0
1580, 0.0
1581, 0.0
1582, 0.0
1583, 0.0
1584, 0.0
1585, 0.0
1586, 0.0
1587, 0.0
1588, 0.0
1589, 0.0
1590, 0.0
1591, 0.0
1592, 0.0
1593, 0.0
1594, 0.0
1595, 0.0
1596, 0.0
1597, 0.0
1598, 0.0
1599, 0.0
