30, 0.0
31, 0.0
32, 0.0
33, 0.0
34, 0.0
35, 0.0
36, 0.0
37, 0.0
38, 0.0
39, 0.0
40, 0.0
41, 0.0
42, 0.0
43, 0.0
44, 0.0
45, 0.0
46, 0.0
47, 0.0
48, 0.0
49, 0.0
50, 0.0
51, 0.0
52, 0.0
53, 0.0
54, 0.0
55, 0.0
56, 0.0
57, 0.0
58, 0.0
59, 0.0
60, 0.0
61, 0.0
62, 0.0
63, 0.0
64, 0.0
65, 0.0
66, 0.0
67, 0.0
68, 0.0
69, 0.0
70, 0.0
71, 0.0
72, 0.0
73, 0.0
74, 0.0
75, 0.0
76, 0.0
77, 0.0
78, 0.0
79, 0.0
80, 0.0
81, 0.0
82, 0.0
83, 0.0
84, 0.0
85, 0.0
86, 0.0
87, 0.0
88, 0.0
89, 0.0
90, 0.0
91, 0.0
92, 0.0
93, 0.0
94, 0.0
95, 0.0
96, 0.0
97, 0.0
98.0, 0.000701086377928518
99.0, 0.0028450814174652826
100.0, 0.0023455830957995077
101.0, 0.0035245488564896376
102.0, 0.005705825412161305
103.0, 0.004403130860919248
104.0, 0.00567882225247171
105.0, 0.007033464177603158
106.0, 0.007024879716816893
107.0, 0.00764646056569079
108.0, 0.008668186647356616
109.0, 0.00980997330108614
110.0, 0.010236097204556236
111.0, 0.010493821457674322
112.0, 0.011671231955089676
113.0, 0.014278383121282975
114.0, 0.014086556797543781
115.0, 0.01632007034324629
116.0, 0.020777247067305497
117.0, 0.027686051902487685
118.0, 0.03090862662505031
119.0, 0.03452274474309627
120.0, 0.04041287089150332
121.0, 0.06179282309053295
122.0, 0.09100254118339603
123.0, 0.12570204122755574
124.0, 0.16442253352075334
125.0, 0.1758110277963281
126.0, 0.18663924859508477
127.0, 0.20320032170345845
128.0, 0.2422051067507093
129.0, 0.2553204344020882
130.0, 0.2429585949420644
131.0, 0.19929677175213684
132.0, 0.13720846416388033
133.0, 0.08995083623203466
134.0, 0.05822733933741342
135.0, 0.038936398767754905
136.0, 0.027198479848913534
137.0, 0.019907543653037273
138.0, 0.016182227093318933
139.0, 0.012812225145757423
140.0, 0.010283804490527985
141.0, 0.008226360256310758
142.0, 0.005954156195918968
143.0, 0.003948714338906639
144.0, 0.002596419931121541
145.0, 0.001943156710364518
146.0, 0.000811371423205984
147.0, 0.0003839016541591107
148.0, 0.00032789991687321097
149.0, 0.00036479754053301265
150.0, 0.000839732764874711
151.0, 0.0008042107449757839
152.0, 0.0004883730013992743
153.0, 0.0016103003281427745
154.0, 0.0014888357883420873
155.0, 0.001386307386005497
156.0, 0.0020237006211141235
157.0, 0.0044425982028644855
158.0, 0.00841303598572548
159.0, 0.01542187984905409
160.0, 0.029840240606929958
161.0, 0.041481737636145606
162.0, 0.06667920526021336
163.0, 0.11153568304043854
164.0, 0.18783293028627937
165.0, 0.2539088570452949
166.0, 0.28580734399108815
167.0, 0.24819308053285632
168.0, 0.16796015865008063
169.0, 0.10330297738081314
170.0, 0.059405781129356294
171.0, 0.03527593990185163
172.0, 0.021700784129320562
173.0, 0.012644682139896422
174.0, 0.005700173994136937
175.0, 0.0023954376093884284
176.0, 0.000986846901702671
177.0, 0.0007153320908509725
178.0, 0.00039580771176763656
179.0, 0.0011064814372344208
180.0, 0.0015400538577044146
181.0, 0.0016002608870149242
182.0, 0.002665624733486583
183.0, 0.0016126620092810102
184.0, 0.00036238752023614077
185.0, 0.0003471423130088058
186.0, 0.00012629011481753166
187.0, 0.00033902246302144976
188.0, 0.0008837230531441795
189.0, 0.001469665830476243
190.0, 0.0017272096821204315
191.0, 0.0017162002259738139
192.0, 0.0014380604086147789
193.0, 0.0008757942541985312
194.0, 0.0006774486366408699
195.0, 0.0006160982638588844
196.0, 0.000484141812353122
197.0, 0.0016396603244740924
198.0, 0.001926157099372073
199.0, 0.0015907651679991132
200.0, 0.0020721313679618247
201.0, 0.000976923873876027
202.0, 0.0005103934041252188
203.0, 0.001484036224497554
204.0, 0.002429552909307977
205.0, 0.004997896692088444
206.0, 0.008175432388787079
207.0, 0.010828862655733783
208.0, 0.016847297171606292
209.0, 0.02399118476029467
210.0, 0.03127902898724004
211.0, 0.035668711789862285
212.0, 0.03363991215398331
213.0, 0.02751398310752544
214.0, 0.01814415425035363
215.0, 0.012324307401297006
216.0, 0.007545641518470743
217.0, 0.004004220197576883
218.0, 0.002223767496922273
219.0, 0.0009243188728364259
220.0, 0.0004457204574361985
221.0, 0.0005695815342111677
222.0, 0.0003331579486896525
223.0, 0.0010494170363374326
224.0, 0.0014375897158079144
225.0, 0.0010247225084892154
226.0, 0.001291469905284644
227.0, 0.0012139568999046037
228.0, 0.0009776040730740652
229.0, 0.0007725465293670932
230.0, 0.0007440971395131009
231.0, 0.0005606131899301609
232.0, 0.00042990698748754624
233.0, 0.0011946540393198673
234.0, 0.002542402437395377
235.0, 0.0034302748717250716
236.0, 0.0037483673447447443
237.0, 0.007412095370358235
238.0, 0.013174272824084397
239.0, 0.020573991444943374
240.0, 0.02946372895349607
241.0, 0.04442677824400109
242.0, 0.06472454306731111
243.0, 0.09039759484317929
244.0, 0.12265628757570814
245.0, 0.13622407983240314
246.0, 0.13478435993307752
247.0, 0.1193923520568959
248.0, 0.09499311421252621
249.0, 0.07124938585173868
250.0, 0.05193599156603449
251.0, 0.0401565723265364
252.0, 0.030514940242599608
253.0, 0.023895496600324084
254.0, 0.019244534443309303
255.0, 0.014966410338370708
256.0, 0.011956982775201
257.0, 0.010284870342311023
258.0, 0.009549420107709074
259.0, 0.007801281840556312
260.0, 0.00697435741026682
261.0, 0.005616045314664156
262.0, 0.0032550121414081845
263.0, 0.004142551360290468
264.0, 0.003499705477287094
265.0, 0.002448485559748202
266.0, 0.0021352747710334137
267.0, 0.002226207599023652
268.0, 0.0018734095874683517
269.0, 0.0014402463853153758
270.0, 0.0020150933763913013
271.0, 0.001665852652234934
272.0, 0.001489649315473676
273.0, 0.0017738953277000604
274.0, 0.0027036588322330557
275.0, 0.0024397872177127746
276.0, 0.0025114757315590035
277.0, 0.0037605250434170597
278.0, 0.002597676959251996
279.0, 0.0023026386682220394
280.0, 0.002113793895358159
281.0, 0.0010234899749762155
282.0, 0.0005901982324671656
283.0, 0.00037093640677456394
284.0, 0.00039808494655120573
285.0, 0.0009254185717138511
286.0, 0.0010466032955332315
287.0, 0.001257955647355789
288.0, 0.0015516925041218293
289.0, 0.0008328935918436788
290.0, 0.000653406206123319
291.0, 0.0007589718052690144
292.0, 0.0010102051891711246
293.0, 0.00045665884968038294
294.0, 0.0002813990804289708
295.0, 0.00035798470027822754
296.0, 0.0005568319117698595
297.0, 0.0012177692065280712
298.0, 0.0019664509610065693
299.0, 0.0028925511008557887
300.0, 0.004353006078299139
301.0, 0.005400405160902025
302.0, 0.007534195420380238
303.0, 0.010797060029973736
304.0, 0.013228611909883392
305.0, 0.018142086400991225
306.0, 0.02461162621644894
307.0, 0.03235353847623386
308.0, 0.04272279818484907
309.0, 0.05578279885049868
310.0, 0.06850603460623612
311.0, 0.07785080027440289
312.0, 0.08469519191430215
313.0, 0.08138515102688441
314.0, 0.07062983975568134
315.0, 0.05739115470933753
316.0, 0.04538311093232766
317.0, 0.03427788191129831
318.0, 0.02470364669940771
319.0, 0.019433842143252698
320.0, 0.015020562609414099
321.0, 0.011690583071585856
322.0, 0.009500981463689216
323.0, 0.007973043128042657
324.0, 0.006577523541821336
325.0, 0.005665452141205191
326.0, 0.005468744151230687
327.0, 0.0051790906363401125
328.0, 0.005275974413636693
329.0, 0.00535687347728448
330.0, 0.004962400225439363
331.0, 0.005944065110149968
332.0, 0.00655588197382771
333.0, 0.007036707605008428
334.0, 0.008055700998044006
335.0, 0.009894199263994487
336.0, 0.012142548615422985
337.0, 0.015100877200753827
338.0, 0.020175344921888536
339.0, 0.02562795392343249
340.0, 0.0346311057581239
341.0, 0.04852893900553623
342.0, 0.06959330478430577
343.0, 0.09876263526312096
344.0, 0.14229226948197723
345.0, 0.20366282781318765
346.0, 0.26810482163893873
347.0, 0.3210033740976463
348.0, 0.34578063391079605
349.0, 0.32543629976877736
350.0, 0.2584362468821293
351.0, 0.19768338424328372
352.0, 0.14527789778726996
353.0, 0.10384666123722222
354.0, 0.07859742072449892
355.0, 0.058245000984102124
356.0, 0.042220384635209995
357.0, 0.03208002377047183
358.0, 0.026138463116434658
359.0, 0.02073566272097929
360.0, 0.015849650968716964
361.0, 0.014101707359223718
362.0, 0.011638481311280363
363.0, 0.009796094168391532
364.0, 0.008795993808798912
365.0, 0.007171080838787683
366.0, 0.006224862955541776
367.0, 0.005450337176317882
368.0, 0.004611286447975779
369.0, 0.0037524027073484395
370.0, 0.0036825729342981925
371.0, 0.0035705427730268915
372.0, 0.0028030289689339495
373.0, 0.0025048264740407636
374.0, 0.0017744730564694384
375.0, 0.0011055001265746925
376.0, 0.0010738512060614104
377.0, 0.0010416316394675307
378.0, 0.00082102242327886
379.0, 0.0006538894135618906
380.0, 0.0009712644281398316
381.0, 0.0009014134218987322
382.0, 0.0006564262141018034
383.0, 0.0004736314577403275
384.0, 0.0008954392982852076
385.0, 0.0008768488122681642
386.0, 0.000805418692842679
387.0, 0.0008591506749393717
388.0, 0.0014471790124395729
389.0, 0.0016020034996224123
390.0, 0.0017741680123866432
391.0, 0.0019248792773988981
392.0, 0.001196098836305044
393.0, 0.0016830352338179028
394.0, 0.001960059308495828
395.0, 0.0016510862436428957
396.0, 0.0022076363782960184
397.0, 0.001697480468713035
398.0, 0.0010189066480299361
399.0, 0.0006765217666121061
400.0, 0.0012926048533170105
401.0, 0.0014571928059364336
402.0, 0.0016458660188364918
403.0, 0.00217449900786108
404.0, 0.0022766700474644527
405.0, 0.001919639042732295
406.0, 0.0018596834615819968
407.0, 0.0028203838748974497
408.0, 0.0022128256222945213
409.0, 0.002487870182807884
410.0, 0.0029096219613710178
411.0, 0.0025432642121048944
412.0, 0.0030883589817772387
413.0, 0.0039781028516473905
414.0, 0.005009181847538041
415.0, 0.005907544796691418
416.0, 0.007551455218068307
417.0, 0.009090289121900637
418.0, 0.011359664397273001
419.0, 0.01622835404984293
420.0, 0.0206746542080424
421.0, 0.025524270474603657
422.0, 0.031112787861690396
423.0, 0.03808423845912397
424.0, 0.03965787833235255
425.0, 0.04002025287374827
426.0, 0.038675067994835235
427.0, 0.03192900374502019
428.0, 0.026169806770668224
429.0, 0.020405245491552565
430.0, 0.014831361249712832
431.0, 0.01095580724932563
432.0, 0.008476833736455303
433.0, 0.006131343458548201
434.0, 0.0038898240474058566
435.0, 0.0030579490139702073
436.0, 0.0024956916601238783
437.0, 0.002178835019470585
438.0, 0.002273456487139046
439.0, 0.0037006556644955555
440.0, 0.00403150074781767
441.0, 0.004197141404174682
442.0, 0.004402611456665601
443.0, 0.0038776096629405126
444.0, 0.002267570254966239
445.0, 0.0010137723634114776
446.0, 0.0006181873945187441
447.0, 0.00041321523845289836
448.0, 0.0002875996548753395
449.0, 0.0003526263354267789
450.0, 0.0005941890254067787
451.0, 0.00037776280147424517
452.0, 0.00031670933787014785
453.0, 0.0002539191783720877
454.0, 0.00016144017794387133
455.0, 0.0005637533056263958
456.0, 0.0007261965449255871
457.0, 0.0009420917792547593
458.0, 0.0013880381155797657
459.0, 0.002255906975115235
460.0, 0.0020971408214688933
461.0, 0.0025044564945521388
462.0, 0.004157448479961323
463.0, 0.0035690196101459334
464.0, 0.0036006551336980946
465.0, 0.003717734971265039
466.0, 0.0036991223175752022
467.0, 0.005007523192986474
468.0, 0.005643243118728152
469.0, 0.006054808759691721
470.0, 0.006700453639105207
471.0, 0.010452787872391485
472.0, 0.014217999720714063
473.0, 0.019040943926785625
474.0, 0.025912442356383507
475.0, 0.03955830759669602
476.0, 0.058301178795469
477.0, 0.08475650611842828
478.0, 0.1196188173151372
479.0, 0.1445264044348158
480.0, 0.15408666533211748
481.0, 0.1458459611671685
482.0, 0.11866615281000173
483.0, 0.08586900343787586
484.0, 0.06172805816554696
485.0, 0.04335791575073959
486.0, 0.029267619036997226
487.0, 0.021087452403919835
488.0, 0.015546184671099856
489.0, 0.011406599097361976
490.0, 0.008095064771067192
491.0, 0.007045321369741032
492.0, 0.005363971053082817
493.0, 0.0039851016039557765
494.0, 0.0033206348856574513
495.0, 0.002193671862185139
496.0, 0.0019003157959170407
497.0, 0.0016800913381167897
498.0, 0.0011770810494436774
499.0, 0.0006735322200787713
500.0, 0.0004250598133131089
501.0, 0.00028938516283718
502.0, 0.0001937219623558421
503.0, 7.038603237968986e-05
504.0, 0.0002891087611327345
505.0, 0.0003564140718888805
506.0, 0.00017450513484597188
507.0, 0.0004771038139776573
508.0, 0.0003110159111232698
509.0, 0.00018010667336125632
510.0, 0.0002952757025689597
511.0, 0.0007804448140319689
512.0, 0.0004180472754944431
513.0, 0.00023691443459581443
514.0, 0.0004498665278197443
515.0, 0.0005049646152429862
516.0, 0.000828468349921711
517.0, 0.0011928876775521215
518.0, 0.0013860992580535412
519.0, 0.0008298375145002249
520.0, 0.000866057270262329
521.0, 0.0009325570196540976
522.0, 0.0009689226008206727
523.0, 0.0011887304782498252
524.0, 0.0008405618465061604
525.0, 0.0006031585936473699
526.0, 0.0006815643998110066
527.0, 0.0012968277429543178
528.0, 0.0005936798757173781
529.0, 0.0007328567390376946
530.0, 0.0013490792548377908
531.0, 0.0010490980591112617
532.0, 0.000512811527976133
533.0, 0.0005085277734687366
534.0, 0.0006310060566428903
535.0, 6.581999852820484e-05
536.0, 0.0006126830681267595
537.0, 0.0004971928533611706
538.0, 0.0003510941544759581
539.0, 0.0011691584091071093
540.0, 0.0003382875843055291
541.0, 9.387473141350716e-05
542.0, 0.00043377873871514576
543.0, 0.0012721852660369417
544.0, 0.0011885208149324468
545.0, 0.0013864432376870458
546.0, 0.001659053579313952
547.0, 0.0018028696454103984
548.0, 0.0011834983893670866
549.0, 0.002060628417939775
550.0, 0.002924144666724787
551.0, 0.0029298365462692246
552.0, 0.0035038341337919722
553.0, 0.0032605418878908165
554.0, 0.0033703876519755732
555.0, 0.004337730706138725
556.0, 0.005741943204436733
557.0, 0.007218667678468103
558.0, 0.009580227019135041
559.0, 0.012960578600041342
560.0, 0.01665825532363488
561.0, 0.0228447172014165
562.0, 0.028435202641709734
563.0, 0.031381348704309635
564.0, 0.027670995193730095
565.0, 0.024701894444525842
566.0, 0.020361344741475464
567.0, 0.015626729878889117
568.0, 0.013389885182662091
569.0, 0.013395193238686938
570.0, 0.012374133718745147
571.0, 0.011475192592044086
572.0, 0.012939960674897413
573.0, 0.0122386626593151
574.0, 0.011846959552043767
575.0, 0.012176212114693446
576.0, 0.013517902842067116
577.0, 0.013095931701745687
578.0, 0.013531841930284188
579.0, 0.014467636758519982
580.0, 0.0156826086819236
581.0, 0.0180181951473335
582.0, 0.02009142718796496
583.0, 0.021288344841307743
584.0, 0.021783813104972842
585.0, 0.024935465097922375
586.0, 0.026660548579057246
587.0, 0.028482306931538547
588.0, 0.030757278586231226
589.0, 0.03283889250010036
590.0, 0.035599381929241496
591.0, 0.03927885220485555
592.0, 0.04327347304823387
593.0, 0.04595209567466896
594.0, 0.05293724049508392
595.0, 0.05938518938586321
596.0, 0.06622048546663074
597.0, 0.07579278017335739
598.0, 0.09108246062766782
599.0, 0.10607325588467577
600.0, 0.12555375316725464
601.0, 0.15447026262499428
602.0, 0.1879012758987378
603.0, 0.23516456237029765
604.0, 0.302317766313683
605.0, 0.3930489602940989
606.0, 0.5050091310515183
607.0, 0.662378581491579
608.0, 0.8172131134994409
609.0, 0.9407747572068308
610.0, 0.9916992995913266
611.0, 0.9590152483268434
612.0, 0.8625007192706426
613.0, 0.7249829920606969
614.0, 0.5948722971492706
615.0, 0.4689464859558032
616.0, 0.36899100456183154
617.0, 0.29482710913624616
618.0, 0.24165221271783552
619.0, 0.19518557509996293
620.0, 0.1653655762169771
621.0, 0.14459124663715728
622.0, 0.1253596846619654
623.0, 0.11762213306860034
624.0, 0.11433558482186222
625.0, 0.1119278830200836
626.0, 0.10955215554953977
627.0, 0.11592016751578968
628.0, 0.11047583040289256
629.0, 0.10211516747856263
630.0, 0.0933946811390055
631.0, 0.08299486865074925
632.0, 0.06970205751346668
633.0, 0.060728068941503455
634.0, 0.0545857655847889
635.0, 0.04620593880137184
636.0, 0.04302408705644567
637.0, 0.04018822861512393
638.0, 0.03726636216188325
639.0, 0.03415979467549373
640.0, 0.03351913609872599
641.0, 0.03259733771681212
642.0, 0.03165588458432168
643.0, 0.031014654471800813
644.0, 0.03182605092277692
645.0, 0.03033776036989433
646.0, 0.02994706555814959
647.0, 0.0305574754126517
648.0, 0.02815757434842406
649.0, 0.026417485909764785
650.0, 0.025747424335612813
651.0, 0.025093421263478376
652.0, 0.022554413030709538
653.0, 0.022685189544991928
654.0, 0.020742388849606955
655.0, 0.018567135091262205
656.0, 0.0179412943105798
657.0, 0.016567330506833334
658.0, 0.013753978408279006
659.0, 0.011905596890813342
660.0, 0.011613216340422656
661.0, 0.009646855485930306
662.0, 0.009029508128901213
663.0, 0.008455701823912542
664.0, 0.007455411744887261
665.0, 0.005675388017845108
666.0, 0.007142772510241919
667.0, 0.00671717814314998
668.0, 0.0053835906105526386
669.0, 0.004921416990025346
670.0, 0.005172619549057876
671.0, 0.004816786496913884
672.0, 0.004488089928409585
673.0, 0.004450184135811719
674.0, 0.003643932758852447
675.0, 0.003631585796218273
676.0, 0.0035759980613857888
677.0, 0.0031589002381205086
678.0, 0.0022143021800915125
679.0, 0.002617771353017439
680.0, 0.0022371691116711556
681.0, 0.0015694288983916058
682.0, 0.0016462923651885644
683.0, 0.002145634802350969
684.0, 0.0012815074701821461
685.0, 0.0006713586232919604
686.0, 0.0012143471509637228
687.0, 0.001003149806788079
688.0, 0.0007793701424649838
689.0, 0.0009191379097951463
690.0, 0.001172272358220329
691.0, 0.00044244446620107054
692.0, 0.0009309727872919959
693.0, 0.0006710558929270259
694.0, 0.0003087686224724239
695.0, 0.00100555381645922
696.0, 0.0006368869279528386
697.0, 0.0006115044222416589
698.0, 0.0005594827657622762
699.0, 0.00029420195036997706
700.0, 0.0002298838010313685
701.0, 0.0004939383587032661
702.0, 0.0004521476710243039
703.0, 0.00036750882541997467
704.0, 0.0013778418509377227
705.0, 0.0006413007678056568
706.0, 0.0002427216905496495
707.0, 0.00021265584776607486
708.0, 0.0003669651756621516
709.0, 0.0010517712696967447
710.0, 0.0011133437452564552
711.0, 0.0009071934506045847
712.0, 0.0007713040424127396
713.0, 0.001389520479517132
714.0, 0.0008818779881921504
715.0, 0.0003926952565718481
716.0, 0.000301313933176135
717.0, 0.0008466102975571699
718.0, 0.000320664478299646
719.0, 0.000803845446602315
720.0, 0.0010699569888263402
721.0, 0.00020022156123539162
722.0, 0.0003086833947403003
723.0, 0.00038048855839312076
724.0, 0.0003499647730227503
725.0, 0.00023037532081992935
726.0, 0.00013608851319040283
727.0, 0.0001052720458728302
728.0, 5.763249812633897e-05
729.0, 0.00012220167552498058
730.0, 0.00048284844661048646
731.0, 0.0017598226877077881
732.0, 0.001338034876734485
733.0, 0.0005993344570025947
734.0, 0.0004131380787419093
735.0, 0.0011958194463843658
736.0, 0.000716169385792181
737.0, 0.000369253445393232
738.0, 0.0002788097839995781
739.0, 0.00015431028212387502
740.0, 0.00047569882101513347
741.0, 0.0002769216303856376
742.0, 7.583311682418008e-05
743.0, 0.000279631008776607
744.0, 0.0008674694379549272
745.0, 0.0003726252700273336
746.0, 0.0009521131476306865
747.0, 0.0021710418422272765
748.0, 0.001588290340509595
749.0, 0.0008506864082307981
750.0, 0.0007401203128305374
751.0, 0.0009448769148159785
752.0, 0.00110358708416661
753.0, 0.0011170056220950611
754.0, 0.00150086489714158
755.0, 0.0011970376318809466
756.0, 0.0002812188357972358
757.0, 7.390713857475064e-05
758.0, 0.0002856833593468494
759.0, 0.0006434424850739446
760.0, 0.0012534424352024993
761.0, 0.002093912424843091
762.0, 0.0006285994630991426
763.0, 0.0010904544408592571
764.0, 0.0020059930689505963
765.0, 0.0024405555611624915
766.0, 0.0014624904121845251
767.0, 0.002743166354260604
768.0, 0.003161312684507861
769.0, 0.003102787019371399
770.0, 0.0034851165672757376
771.0, 0.004048702698884992
772.0, 0.003957400202139932
773.0, 0.0044388293746197
774.0, 0.005398137827963051
775.0, 0.004543455573699783
776.0, 0.00442475366710583
777.0, 0.00369563609132161
778.0, 0.00275229435145118
779.0, 0.002296407883589745
780.0, 0.0023241796191411732
781.0, 0.001922951047618858
782.0, 0.0015391514782858392
783.0, 0.0015739229699387614
784.0, 0.0026742689005784664
785.0, 0.0010157575954332847
786.0, 0.0015578209898250504
787.0, 0.0026066708476367335
788.0, 0.001674676708674153
789.0, 0.00293277601028676
790.0, 0.0032617479445793277
791.0, 0.002620502638707733
792.0, 0.0017993405321950747
793.0, 0.003216265181131128
794.0, 0.0015387443501874724
795.0, 0.0018357647526149763
796.0, 0.0027128126638366794
797.0, 0.002219553748078254
798.0, 0.001504819791759278
799.0, 0.0015093731183263254
800.0, 0.001440737062150947
801.0, 0.0012378000452564078
802.0, 0.0015025016972562409
803.0, 0.0010547923294733307
804.0, 0.0008001176567894143
805.0, 0.0005865686920352587
806.0, 0.0002934209899976609
807.0, 0.0005582976573269467
808.0, 0.00033390410291301946
809.0, 0.0005128611663155455
810.0, 0.00087523337926794
811.0, 0.0004518243115215252
812.0, 0.000490582673460556
813.0, 0.000788766155741897
814.0, 0.0007060487425417318
815.0, 0.0002235860067576488
816.0, 0.0016765653492335835
817.0, 0.0007366321242927993
818.0, 0.0006142331412412583
819.0, 0.0011732542551253094
820.0, 0.0011864298347479857
821.0, 0.0012775468652815427
822.0, 0.0022213680921921056
823.0, 0.0022463162295870845
824.0, 0.0011512368397475783
825.0, 0.0015115877516039605
826.0, 0.00261605530093103
827.0, 0.0021757348003798257
828.0, 0.0019483429983596675
829.0, 0.003682787857477721
830.0, 0.00171513660825815
831.0, 0.0018680837376190964
832.0, 0.00246776915866906
833.0, 0.0027428307908266285
834.0, 0.00231078239824884
835.0, 0.003036112705539006
836.0, 0.0025698861855977485
837.0, 0.002640640051836129
838.0, 0.0041378865605739
839.0, 0.004457752299430288
840.0, 0.003914871189778697
841.0, 0.005037833464608625
842.0, 0.006423270434374129
843.0, 0.00547231429728444
844.0, 0.00626013764396953
845.0, 0.007163493465458415
846.0, 0.007316057756011939
847.0, 0.007074779623848755
848.0, 0.008632059900324939
849.0, 0.008434729654860102
850.0, 0.007755570600783724
851.0, 0.00809559287521845
852.0, 0.009982942709661964
853.0, 0.008581221939082615
854.0, 0.010818675207463482
855.0, 0.012028341573643781
856.0, 0.01206155185285362
857.0, 0.012628591767891446
858.0, 0.01576088500084713
859.0, 0.015102075313793362
860.0, 0.014435269586023324
861.0, 0.01540874398030035
862.0, 0.01696907546953174
863.0, 0.013801136725075897
864.0, 0.014085958871044883
865.0, 0.013996754478731587
866.0, 0.010175697098833916
867.0, 0.008528071874894695
868.0, 0.009656596015396035
869.0, 0.00813769421873852
870.0, 0.00585034561156603
871.0, 0.00760093333699495
872.0, 0.006592611669612896
873.0, 0.006328683342416837
874.0, 0.006903469726731839
875.0, 0.00750327881610491
876.0, 0.005803147449637158
877.0, 0.0070429197665108825
878.0, 0.007717485932028125
879.0, 0.007443451966300403
880.0, 0.006554561404942717
881.0, 0.007312288372021997
882.0, 0.006851830889678351
883.0, 0.006620147944005049
884.0, 0.0068566510462680546
885.0, 0.00735252909086954
886.0, 0.005962761816618077
887.0, 0.007123332078008582
888.0, 0.007818539650495143
889.0, 0.007526037486898309
890.0, 0.007509266049314492
891.0, 0.008949850549393805
892.0, 0.008664315280336754
893.0, 0.009101631883826657
894.0, 0.010925674012848411
895.0, 0.010956397960268089
896.0, 0.011148185408238538
897.0, 0.013558814201332009
898.0, 0.01511367323693131
899.0, 0.013795590540078468
900.0, 0.01691276040000843
901.0, 0.018155277862865016
902.0, 0.018616748559519645
903.0, 0.01980418936994794
904.0, 0.02302938087458166
905.0, 0.020806086486493385
906.0, 0.0225153446680758
907.0, 0.02418771768816072
908.0, 0.024356530272757686
909.0, 0.023252578024217548
910.0, 0.026296366549609016
911.0, 0.02607190901424575
912.0, 0.026446976119619606
913.0, 0.029128281083862645
914.0, 0.031963403885776204
915.0, 0.03169966042554029
916.0, 0.03273703793236556
917.0, 0.032651091987022124
918.0, 0.029901772814019234
919.0, 0.0286376591175924
920.0, 0.02621467981184522
921.0, 0.022420057185458683
922.0, 0.01933448038179751
923.0, 0.018863064295875375
924.0, 0.016142679880760118
925.0, 0.014219509270594077
926.0, 0.014250847598367594
927.0, 0.014560537235775588
928.0, 0.012270579130632835
929.0, 0.013862116439269481
930.0, 0.013735665912471513
931.0, 0.013619169037038213
932.0, 0.014360482635053119
933.0, 0.01617852805331607
934.0, 0.015922328320582435
935.0, 0.017835972573037224
936.0, 0.020639236993763622
937.0, 0.02283981228703367
938.0, 0.022441889489356562
939.0, 0.027873440044473546
940.0, 0.03159207171910259
941.0, 0.036305078245002745
942.0, 0.0437813833161816
943.0, 0.05166202307749487
944.0, 0.05748391492476018
945.0, 0.06646228070331996
946.0, 0.07540327275622433
947.0, 0.0806725511273155
948.0, 0.08187955721658267
949.0, 0.08420369248500988
950.0, 0.07960518496082208
951.0, 0.07171947957603649
952.0, 0.06609033403088994
953.0, 0.05799757661315477
954.0, 0.04907444396778221
955.0, 0.04300906799413491
956.0, 0.03856525074740153
957.0, 0.03290528407937054
958.0, 0.029930467590976877
959.0, 0.030164745356715945
960.0, 0.028913789514734316
961.0, 0.027273335490423847
962.0, 0.029448086677434215
963.0, 0.029712542380142974
964.0, 0.03135782885813597
965.0, 0.03644303147248462
966.0, 0.043168407103413006
967.0, 0.04645239449741999
968.0, 0.06156923514765765
969.0, 0.07558612094118854
970.0, 0.09066120712276113
971.0, 0.10865256304759431
972.0, 0.13130237516084062
973.0, 0.13574599132953444
974.0, 0.13327593907831578
975.0, 0.12578339447753192
976.0, 0.11336743342528686
977.0, 0.09346144708265325
978.0, 0.081611446492161
979.0, 0.06895814263388199
980.0, 0.05742417514448125
981.0, 0.048807031054984316
982.0, 0.04421349033488461
983.0, 0.03671437426895658
984.0, 0.033610637877948935
985.0, 0.03227629274429754
986.0, 0.029947667381311528
987.0, 0.02472095316590995
988.0, 0.026123063369822102
989.0, 0.024528050743299678
990.0, 0.021737301956785395
991.0, 0.02019168319762906
992.0, 0.021691429543607317
993.0, 0.01923883238156138
994.0, 0.019801186384880556
995.0, 0.021229016083445386
996.0, 0.021727073710837496
997.0, 0.023033619066512447
998.0, 0.027674398840544054
999.0, 0.03148553854774923
1000.0, 0.03516098074240493
1001.0, 0.03962361108534433
1002.0, 0.04491698678685494
1003.0, 0.050240935851288616
1004.0, 0.05730367793164008
1005.0, 0.06517681757609058
1006.0, 0.07366083554143754
1007.0, 0.08592454495837067
1008.0, 0.09858660290430367
1009.0, 0.09667421686594009
1010.0, 0.086940307291076
1011.0, 0.07608850903518839
1012.0, 0.061867611726775566
1013.0, 0.04772981491630923
1014.0, 0.038097997090345635
1015.0, 0.030449291646852922
1016.0, 0.023618265442999792
1017.0, 0.022917653126082464
1018.0, 0.021161609099985337
1019.0, 0.019496689665615782
1020.0, 0.018969202241152793
1021.0, 0.01941164684704131
1022.0, 0.017695519120911583
1023.0, 0.019145188890095772
1024.0, 0.020075690570735858
1025.0, 0.019442038880878688
1026.0, 0.018094728689369205
1027.0, 0.020515469482611595
1028.0, 0.01793400729745932
1029.0, 0.015284820928141672
1030.0, 0.014374119525982425
1031.0, 0.014583429610369554
1032.0, 0.011203792161201811
1033.0, 0.009452555244096631
1034.0, 0.007779951675776089
1035.0, 0.0059865828877872646
1036.0, 0.004511448083011403
1037.0, 0.004692234206780827
1038.0, 0.0031041550768815523
1039.0, 0.002786114948407887
1040.0, 0.0029909809039404905
1041.0, 0.0027471262144501086
1042.0, 0.0009765304278160373
1043.0, 0.0017241622060500488
1044.0, 0.0015179717313087919
1045.0, 0.0008687936754694876
1046.0, 0.0008686243535419573
1047.0, 0.00297520286805929
1048.0, 0.0012690402341412835
1049.0, 0.0010588457618453573
1050.0, 0.0013250128926056435
1051.0, 0.001244517991195336
1052.0, 0.0003163824681927385
1053.0, 0.001493497421955539
1054.0, 0.0007638097975560866
1055.0, 0.0004987025709670123
1056.0, 0.0010500940227110653
1057.0, 0.0016344403605297272
1058.0, 0.0006795086820689022
1059.0, 0.0010075831824653057
1060.0, 0.0008391240150720242
1061.0, 0.00038304617250963093
1062.0, 0.0004548001320979881
1063.0, 0.001171196557913817
1064.0, 0.0007924048038183269
1065.0, 0.0016175923004223644
1066.0, 0.002633847388136604
1067.0, 0.0024400208317385203
1068.0, 0.0011389453111680498
1069.0, 0.002621187411850994
1070.0, 0.003532367852900164
1071.0, 0.0036862093960327896
1072.0, 0.003902744278920572
1073.0, 0.0063282121398424394
1074.0, 0.006136410342971302
1075.0, 0.006976788836824841
1076.0, 0.008682256930214466
1077.0, 0.010168809977733017
1078.0, 0.009456455378008983
1079.0, 0.013156028729860873
1080.0, 0.013222640538024
1081.0, 0.013069433172247824
1082.0, 0.014112401936719612
1083.0, 0.015529973587872848
1084.0, 0.012952853819582052
1085.0, 0.01287971112392569
1086.0, 0.012842834116641194
1087.0, 0.0120254354841771
1088.0, 0.01089413251694752
1089.0, 0.013227510133606499
1090.0, 0.0119033878153433
1091.0, 0.011803224708080935
1092.0, 0.013143430112324259
1093.0, 0.014410675604159172
1094.0, 0.012929877325909354
1095.0, 0.01580385719654976
1096.0, 0.017625344872366694
1097.0, 0.018532498817039795
1098.0, 0.019899618699707244
1099.0, 0.0238912966249845
1100.0, 0.025219284717309588
1101.0, 0.027173475759164057
1102.0, 0.030162673941589
1103.0, 0.03322349247253886
1104.0, 0.034099328997988246
1105.0, 0.03783582210930242
1106.0, 0.039266646854789505
1107.0, 0.03916216348813569
1108.0, 0.038944305149384205
1109.0, 0.03969673591047772
1110.0, 0.03478417709524527
1111.0, 0.03361256753097843
1112.0, 0.03211187929155538
1113.0, 0.02901692055969705
1114.0, 0.02477487348781584
1115.0, 0.02299635928212457
1116.0, 0.020505168400324736
1117.0, 0.017651800667537937
1118.0, 0.016492646736638597
1119.0, 0.016777878027437836
1120.0, 0.01353521256977257
1121.0, 0.013907680013855747
1122.0, 0.013004838309054084
1123.0, 0.01070068945902951
1124.0, 0.008780849940061841
1125.0, 0.010030472035257669
1126.0, 0.007873325532588626
1127.0, 0.007159464170023364
1128.0, 0.0067680484382471205
1129.0, 0.00598868256206709
1130.0, 0.004771195033172872
1131.0, 0.005508383218588156
1132.0, 0.004709849528225699
1133.0, 0.003383233720886188
1134.0, 0.003178586221700521
1135.0, 0.004045484235684387
1136.0, 0.002232836448254744
1137.0, 0.0024412829247859344
1138.0, 0.002317600759781966
1139.0, 0.0012935068204127202
1140.0, 9.953427223352893e-05
1141.0, 0.00035033605917223545
1142.0, 0.0001996954473784761
1143.0, 0.0005792501327137733
1144.0, 0.0005009785331680753
1145.0, 0.00041919076971261234
1146.0, 0.0009610981281396665
1147.0, 0.0010476163659601716
1148.0, 0.0011412435510618733
1149.0, 0.0016565794855523414
1150.0, 0.0014165963186263076
1151.0, 0.0005015403623708741
1152.0, 0.0013429440220254572
1153.0, 0.00080934704790587
1154.0, 0.0011901365406413156
1155.0, 0.0011855858894834301
1156.0, 0.0007633184486718385
1157.0, 0.0007456889963615074
1158.0, 0.0014535540388602994
1159.0, 0.0010124868365678815
1160.0, 0.0019799525607559127
1161.0, 0.00287806230127265
1162.0, 0.002444953103358943
1163.0, 0.0026079393226241085
1164.0, 0.004268195256810919
1165.0, 0.004040354597309429
1166.0, 0.004631808618923571
1167.0, 0.006409981114323489
1168.0, 0.007213594129752507
1169.0, 0.007029824549618334
1170.0, 0.009252576414380008
1171.0, 0.011262160972632256
1172.0, 0.012374281875687409
1173.0, 0.013049522215707855
1174.0, 0.015182395260999673
1175.0, 0.012964996700825505
1176.0, 0.013063266255813345
1177.0, 0.013410049342611563
1178.0, 0.012612185864631907
1179.0, 0.011246167350015542
1180.0, 0.011575650880232014
1181.0, 0.009839634471247033
1182.0, 0.007842721005496774
1183.0, 0.006895477699804939
1184.0, 0.007154584556300811
1185.0, 0.005281938299083609
1186.0, 0.004596006782717906
1187.0, 0.005133661360615416
1188.0, 0.004446228630907768
1189.0, 0.0030502922834222852
1190.0, 0.005057239079906234
1191.0, 0.0029475760628167895
1192.0, 0.001819110558774515
1193.0, 0.0014879830302937254
1194.0, 0.0014490948680335699
1195.0, 0.0012470559295007825
1196.0, 0.0011465348358546208
1197.0, 0.0010749140041716758
1198.0, 0.00045950920572315957
1199.0, 0.00028678925091663336
1200.0, 0.0007289299597467321
1201.0, 0.0008567276994184221
1202.0, 0.000523823121106892
1203.0, 0.0016938420682035093
1204.0, 0.0011950115595133282
1205.0, 0.0001980891890140043
1206.0, 0.0006071875768707453
1207.0, 0.001503575585214166
1208.0, 0.0014226211195384536
1209.0, 0.0009436962474864214
1210.0, 0.0006099219499145428
1211.0, 0.000572874250430209
1212.0, 0.0007636566372236906
1213.0, 0.0029825464442137747
1214.0, 0.001738721997134182
1215.0, 0.0020609773502068647
1216.0, 0.0030656653423558593
1217.0, 0.0029250248201145796
1218.0, 0.0014107841371515757
1219.0, 0.0016968021941801328
1220.0, 0.0009598259682091537
1221.0, 0.0005184207265838312
1222.0, 0.0010923733753892305
1223.0, 0.0023028914011726485
1224.0, 0.0005418014954448122
1225.0, 0.0007543518963363583
1226.0, 0.0014054524608467973
1227.0, 0.0011796547836232657
1228.0, 0.0006273951165027186
1229.0, 0.0024355979342173314
1230.0, 0.0014030687929057102
1231.0, 0.0010297038230783866
1232.0, 0.002238484803296508
1233.0, 0.0030590756676649967
1234.0, 0.002160845763108504
1235.0, 0.003406011399648126
1236.0, 0.005004122758975301
1237.0, 0.004525966682738268
1238.0, 0.00477730703827538
1239.0, 0.005502809020963509
1240.0, 0.004320149989156114
1241.0, 0.003000885894289712
1242.0, 0.0048765122714625065
1243.0, 0.004536049904316122
1244.0, 0.003861578564536608
1245.0, 0.004526413141861419
1246.0, 0.005640424177297219
1247.0, 0.00423658728646569
1248.0, 0.004942003761409638
1249.0, 0.005382388147099813
1250.0, 0.004563941552101581
1251.0, 0.003368463399266235
1252.0, 0.006022023517235596
1253.0, 0.003957691173653338
1254.0, 0.0036398389104943508
1255.0, 0.004416812594481396
1256.0, 0.004530364027402095
1257.0, 0.0028892135763654153
1258.0, 0.004258230364294042
1259.0, 0.0038271129423965685
1260.0, 0.003624867303743681
1261.0, 0.004487355644664817
1262.0, 0.005250128202861283
1263.0, 0.00336876096574857
1264.0, 0.00368522411073431
1265.0, 0.007092946575015094
1266.0, 0.006610695497271717
1267.0, 0.0060346087476736724
1268.0, 0.008083620748068274
1269.0, 0.0082495870438711
1270.0, 0.006256390831086376
1271.0, 0.008367676810617158
1272.0, 0.009004801698136335
1273.0, 0.008138024249293519
1274.0, 0.007866770682060566
1275.0, 0.008779485196660348
1276.0, 0.00725222423380899
1277.0, 0.006771889393072935
1278.0, 0.006688139826632546
1279.0, 0.005671139596208024
1280.0, 0.0034320107795542203
1281.0, 0.005478335979642328
1282.0, 0.005278690014011272
1283.0, 0.0035585841376182007
1284.0, 0.003595832867607736
1285.0, 0.0049302319567991314
1286.0, 0.004135790491796417
1287.0, 0.0035036192897390105
1288.0, 0.004233127137191816
1289.0, 0.0035989199905739843
1290.0, 0.003269520558199674
1291.0, 0.004166408206048559
1292.0, 0.005114046309605033
1293.0, 0.0035672728439079676
1294.0, 0.005935860858238459
1295.0, 0.005741657465095236
1296.0, 0.0043332602634965755
1297.0, 0.004269336044048377
1298.0, 0.006169755273500948
1299.0, 0.002973953487494294
1300.0, 0.004234640977238503
1301.0, 0.004544693132756424
1302.0, 0.0036592355806656417
1303.0, 0.003252460073965725
1304.0, 0.004834718774669653
1305.0, 0.004797677060819366
1306.0, 0.004976519333625065
1307.0, 0.006276300136628783
1308.0, 0.00680927698956051
1309.0, 0.00577953292155582
1310.0, 0.007743551204424287
1311.0, 0.008878099852075343
1312.0, 0.007322240424858137
1313.0, 0.007581129360605853
1314.0, 0.00897473004337766
1315.0, 0.00903208088868139
1316.0, 0.00826990587851893
1317.0, 0.009292272230572333
1318.0, 0.00883502975334812
1319.0, 0.00773859881297024
1320.0, 0.007583050123123772
1321.0, 0.008813352501799215
1322.0, 0.0075784951396207795
1323.0, 0.00822378300889706
1324.0, 0.008110590580843811
1325.0, 0.006386321392031399
1326.0, 0.004817964445826759
1327.0, 0.005126628456362905
1328.0, 0.0037718357581154093
1329.0, 0.0031582777900204997
1330.0, 0.003203009590872958
1331.0, 0.002822635639967456
1332.0, 0.00210074181374156
1333.0, 0.0017799443146014498
1334.0, 0.002043796883325439
1335.0, 0.000949624517524237
1336.0, 0.0006003764100863154
1337.0, 0.0007831073229140633
1338.0, 0.0010162913093201646
1339.0, 0.0011187912532354607
1340.0, 0.002128290931425401
1341.0, 0.0005372571409037305
1342.0, 0.0002928352450249835
1343.0, 0.0007597660730245922
1344.0, 0.001039377679522367
1345.0, 0.0006894534689791691
1346.0, 0.0005609163926962444
1347.0, 0.0005819739542817859
1348.0, 0.0009564855847863554
1349.0, 0.0007360795791180863
1350.0, 0.0003553372305552812
1351.0, 0.0004986079536899791
1352.0, 0.00018500853207375912
1353.0, 0.0006239615307181254
1354.0, 0.0013102280957207283
1355.0, 0.0008942504932257113
1356.0, 0.00016591984921818053
1357.0, 0.00042863447902724116
1358.0, 0.0014081692894713487
1359.0, 0.00028470988284048877
1360.0, 0.00033924689383249725
1361.0, 0.001067176664470428
1362.0, 0.0011216742815759516
1363.0, 0.0001927537662601454
1364.0, 0.0005931726936731752
1365.0, 0.0007367268429401001
1366.0, 0.00025106978357056144
1367.0, 0.00033278134768662264
1368.0, 0.0005345386539239289
1369.0, 0.0003875833662746631
1370.0, 0.00041515076945364596
1371.0, 0.0008413049051287642
1372.0, 0.001224773971965865
1373.0, 0.0011195836320924
1374.0, 0.0009235152104506808
1375.0, 0.001150481240657712
1376.0, 0.0019183362017260316
1377.0, 0.001474234795201099
1378.0, 0.0009403123251646211
1379.0, 0.002335952919591565
1380.0, 0.00268681592310402
1381.0, 0.0018136826838256275
1382.0, 0.0027200056836563955
1383.0, 0.0032768837661628692
1384.0, 0.001722068440436116
1385.0, 0.0025937744750214415
1386.0, 0.002873302612871216
1387.0, 0.001972474073470136
1388.0, 0.0019135942387157713
1389.0, 0.0040166457333390025
1390.0, 0.0030713691604938305
1391.0, 0.00201805967258385
1392.0, 0.0017648435538669986
1393.0, 0.0016024405745473699
1394.0, 0.0008203291909929988
1395.0, 0.0008511430915452198
1396.0, 0.00045710152950343373
1397.0, 0.0003196160951282359
1398.0, 0.00042861926020781096
1399.0, 0.000715563465523413
1400.0, 0.0008712410806590832
1401.0, 0.00041390640235269686
1402.0, 0.0014874615373874657
1403.0, 0.0004599223835622621
1404.0, 0.000315559287855056
1405.0, 0.000964085114468441
1406.0, 0.0012417043192822258
1407.0, 0.00029431668014964
1408.0, 0.0008236162915823542
1409.0, 0.000913325731336824
1410.0, 0.001455117690948552
1411.0, 0.0020292710634971472
1412.0, 0.0020598907525479133
1413.0, 0.0014163133893728111
1414.0, 0.0012596385293045056
1415.0, 0.0018326422418315433
1416.0, 0.0011013961875539849
1417.0, 0.0007706542010143635
1418.0, 0.001780822201134424
1419.0, 0.0030946082284457163
1420.0, 0.0014164329019516792
1421.0, 0.0021310387544038836
1422.0, 0.0021138840847548276
1423.0, 0.001757671581520102
1424.0, 0.002378972275560885
1425.0, 0.0033424654392574006
1426.0, 0.0024013020920258727
1427.0, 0.003007404526728375
1428.0, 0.004408478988866387
1429.0, 0.004518371904849628
1430.0, 0.004226847924568218
1431.0, 0.004785252595132688
1432.0, 0.006255986353562028
1433.0, 0.00562238485493617
1434.0, 0.008196995206926693
1435.0, 0.00936146490254257
1436.0, 0.009261372230877788
1437.0, 0.011023415040040077
1438.0, 0.014747261241756932
1439.0, 0.015079202185361318
1440.0, 0.015701484360349897
1441.0, 0.019381534182478517
1442.0, 0.01972864790260385
1443.0, 0.01990278761985728
1444.0, 0.021865680668470906
1445.0, 0.02378172886943868
1446.0, 0.020174053588656086
1447.0, 0.025150591499974728
1448.0, 0.02608288862658975
1449.0, 0.02427076557554201
1450.0, 0.024582698510445145
1451.0, 0.027935019213006968
1452.0, 0.02704514479580058
1453.0, 0.025361721917132228
1454.0, 0.02971787252286702
1455.0, 0.028492426753170666
1456.0, 0.02678067330174584
1457.0, 0.027828880719393594
1458.0, 0.02877809055306954
1459.0, 0.023662733681527815
1460.0, 0.02584306598394485
1461.0, 0.025238843866954522
1462.0, 0.022042815872937244
1463.0, 0.020064109199301756
1464.0, 0.020367124235326727
1465.0, 0.0178017082862764
1466.0, 0.015204659379401526
1467.0, 0.016372372469735948
1468.0, 0.015521566463557
1469.0, 0.013210512884046172
1470.0, 0.011991839257631564
1471.0, 0.012927769161647182
1472.0, 0.010783800543061255
1473.0, 0.01002994006850257
1474.0, 0.010182573386884178
1475.0, 0.00923872109751915
1476.0, 0.008753348268765376
1477.0, 0.009537647430770724
1478.0, 0.009479656859158959
1479.0, 0.007321609531360099
1480.0, 0.008929157447820874
1481.0, 0.008421741338862187
1482.0, 0.007918403966106272
1483.0, 0.008645480838816172
1484.0, 0.009313611431472456
1485.0, 0.00647011706508122
1486.0, 0.006974733978347786
1487.0, 0.0066912956053905605
1488.0, 0.005297209848922761
1489.0, 0.004704234672319863
1490.0, 0.005046878167013092
1491.0, 0.004213785442593074
1492.0, 0.0007655396819015051
1493.0, 0.0022151949855839133
1494.0, 0.0015490159974751766
1495.0, 0.0009354695030353115
1496.0, 0.0015059458428760494
1497.0, 0.0025254088826784935
1498.0, 0.0019946308313643396
1499.0, 0.0009642013187819527
1500.0, 0.002293944852650067
1501.0, 0.000995210059270056
1502, 0.0
1503, 0.0
1504, 0.0
1505, 0.0
1506, 0.0
1507, 0.0
1508, 0.0
1509, 0.0
1510, 0.0
1511, 0.0
1512, 0.0
1513, 0.0
1514, 0.0
1515, 0.0
1516, 0.0
1517, 0.0
1518, 0.0
1519, 0.0
1520, 0.0
1521, 0.0
1522, 0.0
1523, 0.0
1524, 0.0
1525, 0.0
1526, 0.0
1527, 0.0
1528, 0.0
1529, 0.0
1530, 0.0
1531, 0.0
1532, 0.0
1533, 0.0
1534, 0.0
1535, 0.0
1536, 0.0
1537, 0.0
1538, 0.0
1539, 0.0
1540, 0.0
1541, 0.0
1542, 0.0
1543, 0.0
1544, 0.0
1545, 0.0
1546, 0.0
1547, 0.0
1548, 0.0
1549, 0.0
1550, 0.0
1551, 0.0
1552, 0.0
1553, 0.0
1554, 0.0
1555, 0.0
1556, 0.0
1557, 0.0
1558, 0.0
1559, 0.0
1560, 0.0
1561, 0.0
1562, 0.0
1563, 0.0
1564, 0.0
1565, 0.0
1566, 0.0
1567, 0.0
1568, 0.0
1569, 0.0
1570, 0.0
1571, 0.0
1572, 0.0
1573, 0.0
1574, 0.0
1575, 0.0
1576, 0.0
1577, 0.0
1578, 0.0
1579, 0.0
1580, 0.0
1581, 0.0
1582, 0.0
1583, 0.0
1584, 0.0
1585, 0.0
1586, 0.0
1587, 0.0
1588, 0.0
1589, 0.0
1590, 0.0
1591, 0.0
1592, 0.0
1593, 0.0
1594, 0.0
1595, 0.0
1596, 0.0
1597, 0.0
1598, 0.0
1599, 0.0
