30, 0.0
31, 0.0
32, 0.0
33, 0.0
34, 0.0
35, 0.0
36, 0.0
37, 0.0
38, 0.0
39, 0.0
40, 0.0
41, 0.0
42, 0.0
43, 0.0
44, 0.0
45, 0.0
46, 0.0
47, 0.0
48, 0.0
49, 0.0
50, 0.0
51, 0.0
52, 0.0
53, 0.0
54, 0.0
55, 0.0
56, 0.0
57, 0.0
58, 0.0
59, 0.0
60, 0.0
61, 0.0
62, 0.0
63, 0.0
64, 0.0
65, 0.0
66, 0.0
67, 0.0
68, 0.0
69, 0.0
70, 0.0
71, 0.0
72, 0.0
73, 0.0
74, 0.0
75, 0.0
76, 0.0
77, 0.0
78, 0.0
79, 0.0
80, 0.0
81, 0.0
82, 0.0
83, 0.0
84, 0.0
85, 0.0
86, 0.0
87, 0.0
88, 0.0
89, 0.0
90, 0.0
91, 0.0
92, 0.0
93, 0.0
94, 0.0
95, 0.0
96, 0.0
97, 0.0
98, 0.0
99, 0.0
100, 0.0
101, 0.0
102, 0.0
103, 0.0
104, 0.0
105, 0.0
106, 0.0
107, 0.0
108, 0.0
109, 0.0
110, 0.0
111, 0.0
112, 0.0
113, 0.0
114.0, 6.218886576056593e-05
115.0, 0.002564137973522833
116.0, 0.00661424971580495
117.0, 0.014392133670980013
118.0, 0.025976262641706306
119.0, 0.0406528423156117
120.0, 0.056936454372941404
121.0, 0.0816420476068268
122.0, 0.12297929903328979
123.0, 0.17635238908233
124.0, 0.22194945664718158
125.0, 0.19570091631148817
126.0, 0.1398616930332583
127.0, 0.10082100718935386
128.0, 0.0990693871177331
129.0, 0.11296593941056189
130.0, 0.09741450076447072
131.0, 0.06697199772775321
132.0, 0.04491138270097771
133.0, 0.03752908850976269
134.0, 0.039198904027293216
135.0, 0.04675327054431501
136.0, 0.06116908509537486
137.0, 0.08819167088128964
138.0, 0.12355419825354479
139.0, 0.13300287699334729
140.0, 0.10355136522126297
141.0, 0.04897710475655275
142.0, 0.016134602799030187
143.0, 0.0007049136506557608
144.0, 0.004810435307494002
145.0, 0.0038930845787008075
146.0, 0.0009574667494351796
147.0, 0.0009666508281617726
148.0, 0.0021208700938525416
149.0, 0.002080350271047231
150.0, 0.0014612996969248027
151.0, 0.0004666094330889469
152.0, 0.0015827639508944385
153.0, 0.0021762285833111816
154.0, 0.003630229252268377
155.0, 0.00458044183488946
156.0, 0.006496256601390106
157.0, 0.009714633441400375
158.0, 0.013854155343369565
159.0, 0.018972048648241112
160.0, 0.026374905757798387
161.0, 0.03680034780252446
162.0, 0.052108407143185376
163.0, 0.07777363451797123
164.0, 0.13461611870408308
165.0, 0.20451479237979792
166.0, 0.2245001380136434
167.0, 0.13011820266811058
168.0, 0.049256032082830685
169.0, 0.01038339167922007
170.0, 0.00042253654753021176
171.0, 0.0010363832770641842
172.0, 0.0007790891512606552
173.0, 0.0003966222440730962
174.0, 0.0007256852168361156
175.0, 0.0027069376569764177
176.0, 0.004173831593235935
177.0, 0.00626737623947535
178.0, 0.009972744686919112
179.0, 0.01561036213494614
180.0, 0.02296843858492724
181.0, 0.03215189647885814
182.0, 0.037058852872700665
183.0, 0.03621273244888947
184.0, 0.03255759010188872
185.0, 0.03279854435687724
186.0, 0.03866662613158599
187.0, 0.04996254774017423
188.0, 0.06777475868709232
189.0, 0.09550648879678307
190.0, 0.13118303547429022
191.0, 0.14558801809797403
192.0, 0.12613738326170493
193.0, 0.0843597010780203
194.0, 0.053332020922212925
195.0, 0.03632231373995208
196.0, 0.028836754388524687
197.0, 0.02663017469979614
198.0, 0.027386171904166666
199.0, 0.030675238873939505
200.0, 0.034916737255397054
201.0, 0.03954381877041126
202.0, 0.045256473202786425
203.0, 0.05319327543344821
204.0, 0.06288250702478206
205.0, 0.07380575030109517
206.0, 0.08737364943340634
207.0, 0.10797899264383026
208.0, 0.1411090626633819
209.0, 0.1921597378187536
210.0, 0.24762891195076023
211.0, 0.2761426724536855
212.0, 0.22145558936852036
213.0, 0.14007911939163464
214.0, 0.07312029914998237
215.0, 0.03851952393053756
216.0, 0.020654528019090075
217.0, 0.01091528407288122
218.0, 0.00624437582370533
219.0, 0.00480707219918891
220.0, 0.004344697907362267
221.0, 0.006146863040784532
222.0, 0.009860431448257557
223.0, 0.0167806993857206
224.0, 0.02865144764632441
225.0, 0.04502499124166612
226.0, 0.06349481802426198
227.0, 0.07779686435791239
228.0, 0.08570478881466546
229.0, 0.09263972503781162
230.0, 0.1014905964548109
231.0, 0.11210299460789566
232.0, 0.12453847568604892
233.0, 0.13922324247637347
234.0, 0.15651932438289567
235.0, 0.17734661350763187
236.0, 0.20138574558844344
237.0, 0.2304986778447362
238.0, 0.26820887133134586
239.0, 0.31698507997740594
240.0, 0.3810204046614167
241.0, 0.46796944650084915
242.0, 0.5858958408385964
243.0, 0.7397494706741821
244.0, 0.9109179625349345
245.0, 0.998381124594696
246.0, 0.921974317672281
247.0, 0.680464898510731
248.0, 0.44731013354973387
249.0, 0.2841077020330787
250.0, 0.18827357697129057
251.0, 0.13533240771720473
252.0, 0.10090585779135759
253.0, 0.07869536609304853
254.0, 0.06348713462791782
255.0, 0.052429840055682624
256.0, 0.04457742383399973
257.0, 0.03938083833932201
258.0, 0.03418401695692838
259.0, 0.028646705060220205
260.0, 0.02364892643948101
261.0, 0.020010230163643773
262.0, 0.016581756367222568
263.0, 0.014140232968857715
264.0, 0.012864978588631192
265.0, 0.012097204248565939
266.0, 0.01278073019009305
267.0, 0.013689813525468478
268.0, 0.014906731007473738
269.0, 0.016699587845221325
270.0, 0.018724775131186245
271.0, 0.021908202670897305
272.0, 0.026766477275334776
273.0, 0.034186359253222595
274.0, 0.04464758898206378
275.0, 0.0564575799054536
276.0, 0.07256151277603934
277.0, 0.0878389361626099
278.0, 0.09208455923271755
279.0, 0.0757745978650196
280.0, 0.04787412184630919
281.0, 0.02566970000952013
282.0, 0.012157897883504491
283.0, 0.00476307280021941
284.0, 0.00134041686005234
285.0, 0.0009071380412558996
286.0, 0.002616367160063945
287.0, 0.0034213761684106048
288.0, 0.003146693416468971
289.0, 0.0032654421675831925
290.0, 0.0024754047105466945
291.0, 0.0015343678763238757
292.0, 0.0008485106524021115
293.0, 0.0003650444246278495
294.0, 0.0015449672874002917
295.0, 0.0022524110903711443
296.0, 0.002170295954143433
297.0, 0.001410761717297021
298.0, 0.0007366866003483282
299.0, 0.00027873252338732216
300.0, 0.0005629223815630918
301.0, 0.0014974030721819525
302.0, 0.0026242817325660564
303.0, 0.003985908776952811
304.0, 0.005810708853850279
305.0, 0.00818058720207747
306.0, 0.010619091201690908
307.0, 0.012532448420757628
308.0, 0.016753367478366272
309.0, 0.021627805518473122
310.0, 0.02621944273964743
311.0, 0.02957249984626502
312.0, 0.030238875521733887
313.0, 0.027427180100657138
314.0, 0.021641607987842752
315.0, 0.014956826027843219
316.0, 0.009350983365981082
317.0, 0.005158597214490872
318.0, 0.0030374358793841005
319.0, 0.0016599455735297607
320.0, 0.0003371089679921381
321.0, 0.0006670677725188298
322.0, 0.0001384082307227379
323.0, 6.042422170022342e-05
324.0, 0.00015162449152019485
325.0, 0.0007657050889393977
326.0, 0.0018411292282717769
327.0, 0.0030733577296895432
328.0, 0.0051298430715667
329.0, 0.007739197129373401
330.0, 0.010366343988184996
331.0, 0.012824160128778208
332.0, 0.015049784556116691
333.0, 0.016772865021617355
334.0, 0.018359986961869076
335.0, 0.020214391968192746
336.0, 0.021603241807745626
337.0, 0.022804972548460388
338.0, 0.024577075604197716
339.0, 0.027669457055099312
340.0, 0.032335448001364044
341.0, 0.03720644268082598
342.0, 0.04476341805779422
343.0, 0.056193198683795666
344.0, 0.07121220518840989
345.0, 0.0888534499392656
346.0, 0.10800220748832007
347.0, 0.12422282221792007
348.0, 0.12643897626214498
349.0, 0.1091423386389629
350.0, 0.0785725290082968
351.0, 0.052490245096298814
352.0, 0.03425733070290664
353.0, 0.022543970033669807
354.0, 0.01510852652257649
355.0, 0.010957040009532277
356.0, 0.008042514760249166
357.0, 0.005810274091526985
358.0, 0.00447137911744962
359.0, 0.0037814464785279273
360.0, 0.0024282916060536226
361.0, 0.0018898001572755733
362.0, 0.00182552739616888
363.0, 0.0014190284861958181
364.0, 0.0004271703763980602
365.0, 0.00035477395525355704
366.0, 0.00019725236718790403
367.0, 0.0001625781706950105
368.0, 0.0001356200582145023
369.0, 0.000139422244356474
370.0, 2.2628383842329812e-05
371.0, 0.0003426381533898429
372.0, 0.0004958169862313095
373.0, 0.0003822884629289764
374.0, 0.0005059753121107592
375.0, 0.0003250172816646038
376.0, 0.0003422996067315212
377.0, 0.000207198825668016
378.0, 6.674803762295639e-05
379.0, 4.97422578541154e-05
380.0, 0.000299899445408341
381.0, 0.0002303868944502648
382.0, 0.0002647659694195152
383.0, 0.0003109757958689846
384.0, 0.00021219250126016157
385.0, 0.000712338682942647
386.0, 0.001031012718457866
387.0, 0.0016147771530624863
388.0, 0.00254126685752836
389.0, 0.0033062723023259883
390.0, 0.0037269895028578634
391.0, 0.004301452532526976
392.0, 0.0050490416580706516
393.0, 0.005856832765365346
394.0, 0.006741742240160238
395.0, 0.007883217322323773
396.0, 0.008919948090337634
397.0, 0.009769228660322597
398.0, 0.010784670107689225
399.0, 0.012547955124027668
400.0, 0.015173344106287213
401.0, 0.018014877179468987
402.0, 0.021807571165219815
403.0, 0.026812111280580496
404.0, 0.03241971146999712
405.0, 0.038600182926176736
406.0, 0.04360753268806256
407.0, 0.04469320087155339
408.0, 0.041638250514769284
409.0, 0.03779217626579692
410.0, 0.03600132663620735
411.0, 0.03613677067262124
412.0, 0.03805409673517629
413.0, 0.04108922729723308
414.0, 0.044282476471871966
415.0, 0.048664022761729965
416.0, 0.054546179207043875
417.0, 0.061522154894811755
418.0, 0.06958444076329827
419.0, 0.079190098889762
420.0, 0.09036344683572912
421.0, 0.10347026203651975
422.0, 0.11666372352024734
423.0, 0.12757464384045833
424.0, 0.13329468979280656
425.0, 0.12958841511630273
426.0, 0.11714323770568717
427.0, 0.09872532553374908
428.0, 0.0789472845970415
429.0, 0.06265711772466866
430.0, 0.05202375328604136
431.0, 0.04544544268175159
432.0, 0.04241252604021474
433.0, 0.04250934395586379
434.0, 0.045095977076036534
435.0, 0.05021451995856989
436.0, 0.05889218496065127
437.0, 0.07013503624195783
438.0, 0.08389414234533626
439.0, 0.09980859816933707
440.0, 0.11379373798991868
441.0, 0.12351854817422585
442.0, 0.11897178318683506
443.0, 0.10095747557838174
444.0, 0.07789150761946523
445.0, 0.05822489655670971
446.0, 0.04354442903593178
447.0, 0.03366352339946712
448.0, 0.027318015424009932
449.0, 0.023172257164907506
450.0, 0.020468034320807273
451.0, 0.01909168569879024
452.0, 0.018285082425785974
453.0, 0.01819247712243612
454.0, 0.019079983773841083
455.0, 0.020748056916825987
456.0, 0.023229950893129982
457.0, 0.02603110508782354
458.0, 0.02868014176935828
459.0, 0.0313626914667893
460.0, 0.03438474476135573
461.0, 0.03533507667500052
462.0, 0.034210392502683984
463.0, 0.030893537287875403
464.0, 0.026322101881056617
465.0, 0.022018163109452798
466.0, 0.018174242108610985
467.0, 0.015497165118101204
468.0, 0.013877729403050746
469.0, 0.01307325515935992
470.0, 0.012834758276373879
471.0, 0.0130236773842417
472.0, 0.01386118708343709
473.0, 0.015592502197700564
474.0, 0.018275460228913628
475.0, 0.021962570270996445
476.0, 0.026664713342634476
477.0, 0.03171332836158358
478.0, 0.03761215450086398
479.0, 0.04283769188618727
480.0, 0.04466430233757838
481.0, 0.04057063810441669
482.0, 0.0302216717682359
483.0, 0.020350300159373332
484.0, 0.013226822559458173
485.0, 0.008729437783289901
486.0, 0.005951841419260836
487.0, 0.004225270151601759
488.0, 0.0031182651939414335
489.0, 0.002353047976550973
490.0, 0.0017297760851203423
491.0, 0.0012440220771062075
492.0, 0.0011494425891045328
493.0, 0.0007814917181369639
494.0, 0.00034176710529499916
495.0, 0.00022136702127310013
496.0, 0.0003637401821684308
497.0, 0.00021891150181514038
498.0, 0.00039040314437182135
499.0, 0.00041810489651322665
500.0, 0.0001862625912303702
501.0, 4.5022780979095816e-05
502.0, 7.1450960050752e-05
503.0, 0.00034376016928506863
504.0, 0.0003181929371691928
505.0, 7.892724114464371e-05
506.0, 2.54834871585498e-05
507.0, 0.00022672087672800074
508.0, 0.00020766830516383422
509.0, 0.0001361988595811768
510.0, 0.00020684677240370301
511.0, 0.00041396442902579905
512.0, 0.0004845591150550766
513.0, 0.00014786476134198343
514.0, 0.00015704699717404726
515.0, 0.00020211805043268322
516.0, 6.495245253908932e-05
517.0, 7.464335457076093e-05
518.0, 0.0003216480293036625
519.0, 0.00027979628606850993
520.0, 4.1589076961881195e-05
521.0, 5.176164765469824e-05
522.0, 0.0002870206391575522
523.0, 0.00044458409174476005
524.0, 0.0004054249771726212
525.0, 0.00010725870428114729
526.0, 0.00021261481818694047
527.0, 0.0004520668798321832
528.0, 0.0005209565901142052
529.0, 0.0004886562318442384
530.0, 0.0004443475990423667
531.0, 9.058809520927581e-05
532.0, 9.731291991045473e-05
533.0, 0.0002386165393761596
534.0, 7.476260630979496e-05
535.0, 0.00034883290281612875
536.0, 5.283928502765001e-05
537.0, 7.091632578058279e-05
538.0, 0.0002494879947237605
539.0, 0.00036774217593524256
540.0, 0.0005138796679225422
541.0, 0.0007777892982605279
542.0, 0.0006121033864126628
543.0, 0.0008788521503376311
544.0, 0.0014360377042788805
545.0, 0.0017790859030577014
546.0, 0.002113087923597309
547.0, 0.002217896422611803
548.0, 0.0025961420882381764
549.0, 0.0025763866899153947
550.0, 0.002182308529224538
551.0, 0.002091169535636548
552.0, 0.002058917437866385
553.0, 0.0025122562288723304
554.0, 0.0028518159092899903
555.0, 0.0030515299349027597
556.0, 0.0034801584598784636
557.0, 0.004199550713090792
558.0, 0.004880870926177252
559.0, 0.005730441658442225
560.0, 0.006710838730779075
561.0, 0.007717673549057964
562.0, 0.008643278551270166
563.0, 0.009223197814569636
564.0, 0.008513618516751597
565.0, 0.007282647262092589
566.0, 0.0063645088669188115
567.0, 0.006131239846576602
568.0, 0.00624429851229511
569.0, 0.006160514014463094
570.0, 0.006451318396623332
571.0, 0.006935900325432836
572.0, 0.0076252862668759165
573.0, 0.008433279646195805
574.0, 0.008832251092928583
575.0, 0.010272151062323891
576.0, 0.011120631561101088
577.0, 0.012345968586228617
578.0, 0.01429480471543787
579.0, 0.016284569940854934
580.0, 0.018078983578375583
581.0, 0.02028693308690489
582.0, 0.021925472567164934
583.0, 0.0235670015241976
584.0, 0.025497797691580296
585.0, 0.027033291489166927
586.0, 0.02936239859526746
587.0, 0.03226857658417253
588.0, 0.03691178432654278
589.0, 0.04347126199710239
590.0, 0.051652617253035514
591.0, 0.06155786732071608
592.0, 0.07511261370824951
593.0, 0.09128222857609644
594.0, 0.10891799275794983
595.0, 0.12689108013199976
596.0, 0.14516600031200447
597.0, 0.16482138725694812
598.0, 0.18532253349968844
599.0, 0.20866514699503647
600.0, 0.23604994740709004
601.0, 0.2700022044091091
602.0, 0.3133898120121977
603.0, 0.36238881138679846
604.0, 0.4264380838511588
605.0, 0.5028409523925949
606.0, 0.5873750804143132
607.0, 0.6761554672552925
608.0, 0.7625712911687728
609.0, 0.8248311194445453
610.0, 0.8379479332964632
611.0, 0.7903316670719869
612.0, 0.6888949398881583
613.0, 0.5586298639392703
614.0, 0.43558858058607264
615.0, 0.3404309308376809
616.0, 0.26958721888188664
617.0, 0.2203188332255201
618.0, 0.18668281829191644
619.0, 0.16275402344145776
620.0, 0.1471920669908397
621.0, 0.1396830046411669
622.0, 0.1379427440891601
623.0, 0.14225329812371693
624.0, 0.1509284671914316
625.0, 0.16176596055453296
626.0, 0.1748222732126165
627.0, 0.18401741010559
628.0, 0.1838629659828653
629.0, 0.17040798715186858
630.0, 0.14606918860607115
631.0, 0.11841705669408095
632.0, 0.09582045890958353
633.0, 0.07790415507739532
634.0, 0.0644072585680616
635.0, 0.0548138923292551
636.0, 0.04771979078593772
637.0, 0.04156581632072386
638.0, 0.03582242001350404
639.0, 0.03134631570073416
640.0, 0.02745610424724951
641.0, 0.023744457566110953
642.0, 0.02056644448960399
643.0, 0.01825716495810289
644.0, 0.016039017125311996
645.0, 0.01410891386393888
646.0, 0.012624933267032228
647.0, 0.011360156457337832
648.0, 0.01018124010474177
649.0, 0.009090753877189666
650.0, 0.007962759265997058
651.0, 0.007382098010010685
652.0, 0.006741176859179092
653.0, 0.005754256837029063
654.0, 0.004771373043035891
655.0, 0.004147112678448594
656.0, 0.0036737323675882535
657.0, 0.0033636612729570584
658.0, 0.0029088842593951447
659.0, 0.002458113752756892
660.0, 0.0022103539642620855
661.0, 0.0020304719924185578
662.0, 0.0013878465398457463
663.0, 0.001283695410213327
664.0, 0.001151168642318283
665.0, 0.000806022171187524
666.0, 0.0005153307617551149
667.0, 0.0004445623911370711
668.0, 0.000399493539261077
669.0, 9.672975333440297e-05
670.0, 6.712742914750984e-05
671.0, 3.338908301047269e-05
672.0, 0.00013344867476987928
673.0, 0.00019293012484316525
674.0, 2.249889309441079e-06
675.0, 8.207742416198075e-05
676.0, 7.056601634289396e-05
677.0, 0.00011774791824166677
678.0, 0.0003934965748152395
679.0, 0.0004512812188067601
680.0, 0.000545604322460402
681.0, 0.00040921104500007667
682.0, 0.000372408461225985
683.0, 0.00028022679265731436
684.0, 0.0003435133919705846
685.0, 0.00046440401505348273
686.0, 8.251525070528698e-05
687.0, 0.00010594270480214904
688.0, 0.0001979635957754685
689.0, 0.0002541282073989947
690.0, 0.00014085284891716905
691.0, 0.00018089491974960563
692.0, 0.00019945133951834056
693.0, 0.00020336823218717663
694.0, 9.865474346413235e-05
695.0, 8.364807065498707e-05
696.0, 9.551524395123064e-06
697.0, 7.72697021460302e-05
698.0, 0.0002441783180547536
699.0, 6.669174528565099e-05
700.0, 0.0001759781764783033
701.0, 5.1517090880159885e-05
702.0, 5.115033216199524e-05
703.0, 9.570000610805565e-05
704.0, 0.00040893641230464587
705.0, 0.0003338155146424675
706.0, 0.00014986487923400604
707.0, 0.00020624536793784385
708.0, 0.0003249866832686874
709.0, 0.0001651938754192862
710.0, 0.00018882446165996474
711.0, 0.00037988282974923547
712.0, 0.0005248820109120872
713.0, 0.0007820288603698432
714.0, 0.0006332992597956491
715.0, 0.0005401298699486896
716.0, 0.0007089707282802001
717.0, 0.000801094895825923
718.0, 0.0008423485723717914
719.0, 0.0007082164877245513
720.0, 0.0006195158917734161
721.0, 0.0006425116107799771
722.0, 0.0006477204817575729
723.0, 0.0007284544836479219
724.0, 0.0011948545545815595
725.0, 0.0008485074668434732
726.0, 0.0007360877327826833
727.0, 0.0005815997530860304
728.0, 0.0006665987500574311
729.0, 0.0010480677808181052
730.0, 0.0012615030565853041
731.0, 0.001414821997742831
732.0, 0.0012797035116175744
733.0, 0.0014644186162053143
734.0, 0.00159955082459674
735.0, 0.0015488882221494458
736.0, 0.0017325374160988474
737.0, 0.002369997462474695
738.0, 0.0020782331274251317
739.0, 0.002577173937743674
740.0, 0.0026540872923967846
741.0, 0.002628255892416947
742.0, 0.003034490194780261
743.0, 0.003429433103692061
744.0, 0.003603642316117591
745.0, 0.003774254589561693
746.0, 0.004456016039254449
747.0, 0.005099386410680018
748.0, 0.005322424859574456
749.0, 0.005502038271334389
750.0, 0.006057136474861967
751.0, 0.005635066801687451
752.0, 0.005692367021217139
753.0, 0.005221255359303027
754.0, 0.0049007251141915675
755.0, 0.00497925129462114
756.0, 0.004789963162111055
757.0, 0.004880670148460814
758.0, 0.005109098763831882
759.0, 0.005331685553725823
760.0, 0.0055127806283750535
761.0, 0.005753434582032607
762.0, 0.006208306816553049
763.0, 0.006847689829461599
764.0, 0.007417815958023515
765.0, 0.007974555386263286
766.0, 0.008960159418304067
767.0, 0.009960546123302508
768.0, 0.010783746556289643
769.0, 0.011730807862314948
770.0, 0.013150475379581302
771.0, 0.014418430136699233
772.0, 0.015381013070987005
773.0, 0.015850582932373295
774.0, 0.016063357831441364
775.0, 0.015333994970273107
776.0, 0.013139316796180599
777.0, 0.01143066985326953
778.0, 0.009054749524034844
779.0, 0.007121374160402902
780.0, 0.005732855665656873
781.0, 0.0049390587872813856
782.0, 0.004493377048994014
783.0, 0.003857243314999364
784.0, 0.003355003507782605
785.0, 0.002930206718381276
786.0, 0.0025449073660944324
787.0, 0.0024299056868288746
788.0, 0.0023115929846753034
789.0, 0.001991915032780615
790.0, 0.001777516938044729
791.0, 0.0016637772128538124
792.0, 0.0017416556428327572
793.0, 0.0016385634928089833
794.0, 0.0016968159742493632
795.0, 0.0018242202204293734
796.0, 0.0017024950486163228
797.0, 0.0015333526120913418
798.0, 0.0014471543618609496
799.0, 0.0015001112589073118
800.0, 0.0016615904441356982
801.0, 0.0015849708553278773
802.0, 0.00154857981178038
803.0, 0.0017252560094980804
804.0, 0.0015212979634671815
805.0, 0.001920764296125256
806.0, 0.0016549330234215574
807.0, 0.0015701061669888155
808.0, 0.0017885101582069498
809.0, 0.0019172045693274667
810.0, 0.0017639489837672029
811.0, 0.0017457654237365856
812.0, 0.0019686459165665364
813.0, 0.0017470818326001615
814.0, 0.0012991785011919003
815.0, 0.0009774075365730683
816.0, 0.0007347485028305234
817.0, 0.00046787864591588943
818.0, 0.00039711667175025783
819.0, 0.0005066884300656319
820.0, 0.0004969947107704054
821.0, 0.0001665987949063886
822.0, 0.00019734523338433362
823.0, 0.00041013627974484206
824.0, 0.0003533710982428537
825.0, 0.0004785732088060915
826.0, 0.00028105368098979306
827.0, 8.155952493314202e-05
828.0, 4.215209114115387e-05
829.0, 7.404568613839831e-05
830.0, 0.00010408976421033795
831.0, 4.1527633003764556e-05
832.0, 0.0001448122854014928
833.0, 0.00010188917447884066
834.0, 8.584370686455915e-05
835.0, 0.00014117748150690572
836.0, 0.00018222327404452575
837.0, 0.00032127203899053416
838.0, 7.18044820099337e-05
839.0, 0.00022981604567164158
840.0, 0.0001535602674322307
841.0, 6.594474229818172e-05
842.0, 0.0004884211845204672
843.0, 0.0003588316840291904
844.0, 0.00011535598986699686
845.0, 0.00018801752910328634
846.0, 0.00014614091191343488
847.0, 2.4822385232252992e-05
848.0, 7.720536989030356e-05
849.0, 0.0001369825077966502
850.0, 0.00010840867984766144
851.0, 4.5306717986976096e-05
852.0, 0.00010597499329658379
853.0, 9.395996263678062e-06
854.0, 9.178207401770472e-06
855.0, 4.1723623909794054e-05
856.0, 0.00021584097536523578
857.0, 0.00030034396268991694
858.0, 0.00028172827857146914
859.0, 0.00011449221177859487
860.0, 0.0001766291079004662
861.0, 0.00023333619864609437
862.0, 0.00012839906754810954
863.0, 0.000497820813305765
864.0, 0.00034597159364050355
865.0, 0.0006284921218663665
866.0, 0.0009281701238482267
867.0, 0.0009843435535841854
868.0, 0.0014456870618044383
869.0, 0.0015977424563684214
870.0, 0.0019772873180541567
871.0, 0.002513265692990723
872.0, 0.0028490997168349416
873.0, 0.0033254019574116217
874.0, 0.003986679605526402
875.0, 0.0044144843631647515
876.0, 0.004507619892891417
877.0, 0.004506511658744881
878.0, 0.00414165417037597
879.0, 0.0039046507887072136
880.0, 0.003888080317686497
881.0, 0.0038156800425215727
882.0, 0.0037548393297678543
883.0, 0.004004088792009314
884.0, 0.00426240089310052
885.0, 0.004473329318778444
886.0, 0.004791606840458384
887.0, 0.005156568974027345
888.0, 0.005704096538371413
889.0, 0.006469794815214493
890.0, 0.007282392506646992
891.0, 0.00806516855306993
892.0, 0.008942533326277246
893.0, 0.010097768505399132
894.0, 0.01105438680676038
895.0, 0.012001086833257247
896.0, 0.013403202606215477
897.0, 0.01505884990489946
898.0, 0.016587043450635823
899.0, 0.018169586337329843
900.0, 0.019246995255284824
901.0, 0.020221618405981932
902.0, 0.02075269103023986
903.0, 0.02093677182207384
904.0, 0.020681942759962525
905.0, 0.01968975022259826
906.0, 0.01815505366052623
907.0, 0.016860999080858294
908.0, 0.015236852663334178
909.0, 0.013957006082560678
910.0, 0.012472607430859461
911.0, 0.011011482405978011
912.0, 0.009982718166720328
913.0, 0.009405268304578636
914.0, 0.009033817968847281
915.0, 0.0085498806222369
916.0, 0.008115237736109593
917.0, 0.007487404944087486
918.0, 0.006558397098831834
919.0, 0.005709132273556882
920.0, 0.004886371849022254
921.0, 0.003824089367205253
922.0, 0.0027990714978603803
923.0, 0.0017026969444561798
924.0, 0.0014551497436247076
925.0, 0.0008448553785826618
926.0, 1.925518551473525e-05
927.0, 0.00033239419228409074
928.0, 0.0005187284138046118
929.0, 0.0008906587454852544
930.0, 0.0007573815571661856
931.0, 0.000621626097385777
932.0, 0.0006762108851116402
933.0, 0.0003931235578671119
934.0, 0.0003715410150499706
935.0, 0.0011277875324516994
936.0, 0.001701058550662167
937.0, 0.0023559017234922857
938.0, 0.0032117142191161875
939.0, 0.004246183149180512
940.0, 0.004959546841128217
941.0, 0.006510610344253145
942.0, 0.007966183719903618
943.0, 0.009468814511414297
944.0, 0.011202376692060242
945.0, 0.012733836568532634
946.0, 0.013794893262163075
947.0, 0.014637272704314142
948.0, 0.01578613516046145
949.0, 0.015473433868015312
950.0, 0.014267804031828488
951.0, 0.012858488780399776
952.0, 0.011406878535874227
953.0, 0.009958839533306858
954.0, 0.00850887667196545
955.0, 0.007137961066246634
956.0, 0.006321356349359772
957.0, 0.0065495922662745865
958.0, 0.006203736489972541
959.0, 0.0062779191033968205
960.0, 0.0072803184046773455
961.0, 0.00843423614475848
962.0, 0.009344921061478896
963.0, 0.010615313498338936
964.0, 0.012873292261444376
965.0, 0.015416737266935755
966.0, 0.018114929906718223
967.0, 0.02139584518223023
968.0, 0.025729391801023318
969.0, 0.03082994469349836
970.0, 0.03618140380167451
971.0, 0.04177145674653607
972.0, 0.04685735702168883
973.0, 0.050545089317153895
974.0, 0.050763132439492605
975.0, 0.04779505680324494
976.0, 0.04165785096787286
977.0, 0.03410048096629008
978.0, 0.027556460156189518
979.0, 0.02237807062731812
980.0, 0.017939307341893987
981.0, 0.015170924499658324
982.0, 0.012638989238363044
983.0, 0.010693573663482274
984.0, 0.009043530586281379
985.0, 0.0075101008453748634
986.0, 0.00630968655462024
987.0, 0.005450278297066857
988.0, 0.004611978757067222
989.0, 0.004098159571370885
990.0, 0.003628893000739271
991.0, 0.003564324237820329
992.0, 0.003965031666465368
993.0, 0.004015752657737319
994.0, 0.0041225084716612495
995.0, 0.004609136377424002
996.0, 0.004965042494134515
997.0, 0.00530950315299098
998.0, 0.006497117129059706
999.0, 0.006596124227689542
1000.0, 0.007786082394872497
1001.0, 0.008859376997843709
1002.0, 0.009612058613750415
1003.0, 0.01077380062471709
1004.0, 0.012460280877627133
1005.0, 0.014639154110080752
1006.0, 0.01748462508341242
1007.0, 0.019976178264678415
1008.0, 0.02173979543610899
1009.0, 0.02269530388794886
1010.0, 0.021571479210138248
1011.0, 0.018664437272168606
1012.0, 0.015403037449348997
1013.0, 0.01281717619386286
1014.0, 0.010939776114206615
1015.0, 0.010417509461923718
1016.0, 0.010713506325975274
1017.0, 0.011484781826003517
1018.0, 0.012176663396580871
1019.0, 0.013253143152878727
1020.0, 0.015108785927796643
1021.0, 0.01727138938570607
1022.0, 0.019482914487327127
1023.0, 0.022103389132129916
1024.0, 0.024261565191592224
1025.0, 0.02680296366957183
1026.0, 0.029050575443172456
1027.0, 0.029723583408881787
1028.0, 0.029636718512633175
1029.0, 0.02834741534331433
1030.0, 0.025907938685711195
1031.0, 0.022950393282671313
1032.0, 0.01922419007829479
1033.0, 0.015503083646996759
1034.0, 0.012052219215096568
1035.0, 0.009453669010398584
1036.0, 0.00721701592561982
1037.0, 0.005839775233293695
1038.0, 0.0047063715582608915
1039.0, 0.0033673718602437934
1040.0, 0.0022125708130110553
1041.0, 0.0015221264603525362
1042.0, 0.0011734918169201275
1043.0, 0.0006501160449275896
1044.0, 0.000383132870229531
1045.0, 0.00018553373011677052
1046.0, 0.0003612642550264754
1047.0, 0.0004211536749111963
1048.0, 0.0006115134893457796
1049.0, 0.0006754532664781452
1050.0, 0.0006373377835893936
1051.0, 0.001159093972509343
1052.0, 0.0009961628101920587
1053.0, 0.000991532712216649
1054.0, 0.0005469688562472801
1055.0, 0.0006154590159361366
1056.0, 0.0006751732595191205
1057.0, 0.00027888983225322905
1058.0, 6.726972463227761e-05
1059.0, 0.0001889171808966182
1060.0, 0.0005868008438322837
1061.0, 0.0011412157964021186
1062.0, 0.001419822336559717
1063.0, 0.001901400238423201
1064.0, 0.0021356212544645266
1065.0, 0.003031861016469444
1066.0, 0.0037309833625280126
1067.0, 0.004271115469033293
1068.0, 0.00524058907025484
1069.0, 0.00634012371241037
1070.0, 0.00758952529404545
1071.0, 0.008227526979362212
1072.0, 0.009359941234198725
1073.0, 0.010749116179796426
1074.0, 0.013169727128308412
1075.0, 0.014947666474925186
1076.0, 0.016700230309057977
1077.0, 0.018639318925516346
1078.0, 0.02007273879846804
1079.0, 0.02108973471162057
1080.0, 0.021449160766758908
1081.0, 0.02117579306357612
1082.0, 0.02013614140723589
1083.0, 0.018816772586002225
1084.0, 0.01791150502929437
1085.0, 0.01708383767383561
1086.0, 0.016083014415597556
1087.0, 0.016003199161669486
1088.0, 0.017087816199875393
1089.0, 0.018111372194219072
1090.0, 0.01952547048095627
1091.0, 0.021529882608344576
1092.0, 0.023403948919021776
1093.0, 0.026203154544352382
1094.0, 0.029055644391294874
1095.0, 0.031962497119563935
1096.0, 0.03544512129141765
1097.0, 0.03942068716675776
1098.0, 0.04356358673092878
1099.0, 0.04773167856760032
1100.0, 0.05174900939435926
1101.0, 0.05665457904202698
1102.0, 0.06071634647298825
1103.0, 0.06435833441255137
1104.0, 0.06793982481978096
1105.0, 0.07051138218717282
1106.0, 0.07264297763530564
1107.0, 0.07327189085569948
1108.0, 0.07119599319953673
1109.0, 0.06815589250326572
1110.0, 0.06467499253010629
1111.0, 0.05899621306775411
1112.0, 0.05418797303352566
1113.0, 0.04894189530712372
1114.0, 0.0431693287002338
1115.0, 0.03820598779520264
1116.0, 0.034064189164851946
1117.0, 0.030428788326813918
1118.0, 0.027429776498507134
1119.0, 0.024656792858765264
1120.0, 0.0214853060802394
1121.0, 0.019637643565943434
1122.0, 0.017901014103919952
1123.0, 0.01644986900674719
1124.0, 0.014419993711939496
1125.0, 0.013252771759278423
1126.0, 0.012118383046021464
1127.0, 0.011021747340584056
1128.0, 0.009807450672028687
1129.0, 0.008356331164329472
1130.0, 0.0075596663463993515
1131.0, 0.007036606723975287
1132.0, 0.0060087732023059405
1133.0, 0.005393650950578372
1134.0, 0.004881747471993707
1135.0, 0.00388437745521642
1136.0, 0.0030883972292237334
1137.0, 0.002411088686979681
1138.0, 0.0021151092533933788
1139.0, 0.0016969663816414876
1140.0, 0.0009941566953670443
1141.0, 0.001147510999821672
1142.0, 0.001342811305307452
1143.0, 0.000823544211107376
1144.0, 0.0007806012279899299
1145.0, 0.0007515086392690041
1146.0, 0.000457328048079892
1147.0, 0.00035633388074086296
1148.0, 0.000641947630055827
1149.0, 0.0008645045241386458
1150.0, 0.0009879483051778413
1151.0, 0.001255601564893214
1152.0, 0.0014375535155323647
1153.0, 0.001625288551275779
1154.0, 0.0020667535966774884
1155.0, 0.002742447160740508
1156.0, 0.0033347564238448446
1157.0, 0.004341693513668561
1158.0, 0.0054163652934086865
1159.0, 0.006345701806637076
1160.0, 0.007299705225578019
1161.0, 0.008494913632822685
1162.0, 0.010000131774995646
1163.0, 0.011674607464334128
1164.0, 0.013459698498136191
1165.0, 0.01599654909836468
1166.0, 0.018026210078833364
1167.0, 0.020157251284401705
1168.0, 0.02255284763856567
1169.0, 0.0251579934202452
1170.0, 0.02773628581116907
1171.0, 0.029919991963394
1172.0, 0.03244168836217464
1173.0, 0.03517715137674689
1174.0, 0.03638591505594201
1175.0, 0.036309801466599054
1176.0, 0.035894297469408185
1177.0, 0.03420349814461605
1178.0, 0.031848816617584576
1179.0, 0.029412119546609918
1180.0, 0.0259742318015001
1181.0, 0.02308710816857405
1182.0, 0.020653456349319047
1183.0, 0.018016392718697233
1184.0, 0.015767997609987972
1185.0, 0.014078237325967951
1186.0, 0.012154598641436542
1187.0, 0.010680692880233067
1188.0, 0.009603587429208381
1189.0, 0.008288885804464508
1190.0, 0.007113226945710184
1191.0, 0.006112391995707396
1192.0, 0.005723930196367616
1193.0, 0.004709997070980768
1194.0, 0.0038673977880437286
1195.0, 0.003647447500315694
1196.0, 0.0033344020730300817
1197.0, 0.0027537789278281803
1198.0, 0.0024164345490918725
1199.0, 0.0022346917352488492
1200.0, 0.0016869263337514944
1201.0, 0.0012041314614836028
1202.0, 0.0008615256308285787
1203.0, 0.0009584228043808533
1204.0, 0.0006873133339902076
1205.0, 0.0006959663716941129
1206.0, 0.0005153444583789312
1207.0, 0.00021556828358983274
1208.0, 0.00010269590876454412
1209.0, 0.00019088040039001413
1210.0, 0.0003213152443125968
1211.0, 6.386492585214254e-05
1212.0, 8.776942960238983e-05
1213.0, 0.0001558569394937762
1214.0, 0.0001627079280704888
1215.0, 4.390369386530433e-05
1216.0, 7.222216934778285e-05
1217.0, 0.00013005287430940254
1218.0, 0.00026684861004890476
1219.0, 0.00022888375502991956
1220.0, 0.0003041814823213984
1221.0, 0.00023405846328067436
1222.0, 0.00013668725382463967
1223.0, 0.0003558342068208831
1224.0, 7.634270574184231e-05
1225.0, 0.0003883942563801663
1226.0, 0.00022112565581286186
1227.0, 8.585259652403655e-05
1228.0, 8.517380925172305e-06
1229.0, 0.00015885102902411775
1230.0, 0.00022593500816255114
1231.0, 9.543682009522126e-05
1232.0, 0.00012157993108150036
1233.0, 4.8261172609914925e-05
1234.0, 0.00011474023629724044
1235.0, 5.451188333360176e-05
1236.0, 0.0002941477439522606
1237.0, 0.00021023754183918604
1238.0, 0.00011495932304461059
1239.0, 0.0006265248947004038
1240.0, 0.0004129278862645386
1241.0, 0.0005741229875829666
1242.0, 0.0009290301067099137
1243.0, 0.0010579310499740217
1244.0, 0.0011519162683464252
1245.0, 0.0010816238362283302
1246.0, 0.00119099488617151
1247.0, 0.0014706590129614063
1248.0, 0.0013962772646704926
1249.0, 0.00124099215338622
1250.0, 0.001373817523318767
1251.0, 0.0014930900357966006
1252.0, 0.001670939875854024
1253.0, 0.0017787437091805883
1254.0, 0.0016759627768362809
1255.0, 0.0014928827749717344
1256.0, 0.001570580451411474
1257.0, 0.0017959337393445498
1258.0, 0.001596830536412002
1259.0, 0.0012032485870123713
1260.0, 0.0013093654659804132
1261.0, 0.0013128362634842515
1262.0, 0.0011245514185488279
1263.0, 0.0010757720740735472
1264.0, 0.0009536653536301448
1265.0, 0.000672414100850957
1266.0, 0.0007223086496272439
1267.0, 0.0003505902049438737
1268.0, 0.0003043958561127672
1269.0, 0.00044659799587087363
1270.0, 0.0004320121752268727
1271.0, 0.0005230735627270332
1272.0, 0.0004628810536820224
1273.0, 0.0002396535615104952
1274.0, 0.00013155309475579183
1275.0, 0.00027784519708404763
1276.0, 0.00041280148379360416
1277.0, 0.0004949100750226098
1278.0, 0.0007930072758403257
1279.0, 2.2729343652544357e-05
1280.0, 7.853969565455611e-05
1281.0, 0.00020327894909845053
1282.0, 7.28613447825522e-05
1283, 0.0
1284, 0.0
1285, 0.0
1286, 0.0
1287, 0.0
1288, 0.0
1289, 0.0
1290, 0.0
1291, 0.0
1292, 0.0
1293, 0.0
1294, 0.0
1295, 0.0
1296, 0.0
1297, 0.0
1298, 0.0
1299, 0.0
1300, 0.0
1301, 0.0
1302, 0.0
1303, 0.0
1304, 0.0
1305, 0.0
1306, 0.0
1307, 0.0
1308, 0.0
1309, 0.0
1310, 0.0
1311, 0.0
1312, 0.0
1313, 0.0
1314, 0.0
1315, 0.0
1316, 0.0
1317, 0.0
1318, 0.0
1319, 0.0
1320, 0.0
1321, 0.0
1322, 0.0
1323, 0.0
1324, 0.0
1325, 0.0
1326, 0.0
1327, 0.0
1328, 0.0
1329, 0.0
1330, 0.0
1331, 0.0
1332, 0.0
1333, 0.0
1334, 0.0
1335, 0.0
1336, 0.0
1337, 0.0
1338, 0.0
1339, 0.0
1340, 0.0
1341, 0.0
1342, 0.0
1343, 0.0
1344, 0.0
1345, 0.0
1346, 0.0
1347, 0.0
1348, 0.0
1349, 0.0
1350, 0.0
1351, 0.0
1352, 0.0
1353, 0.0
1354, 0.0
1355, 0.0
1356, 0.0
1357, 0.0
1358, 0.0
1359, 0.0
1360, 0.0
1361, 0.0
1362, 0.0
1363, 0.0
1364, 0.0
1365, 0.0
1366, 0.0
1367, 0.0
1368, 0.0
1369, 0.0
1370, 0.0
1371, 0.0
1372, 0.0
1373, 0.0
1374, 0.0
1375, 0.0
1376, 0.0
1377, 0.0
1378, 0.0
1379, 0.0
1380, 0.0
1381, 0.0
1382, 0.0
1383, 0.0
1384, 0.0
1385, 0.0
1386, 0.0
1387, 0.0
1388, 0.0
1389, 0.0
1390, 0.0
1391, 0.0
1392, 0.0
1393, 0.0
1394, 0.0
1395, 0.0
1396, 0.0
1397, 0.0
1398, 0.0
1399, 0.0
1400, 0.0
1401, 0.0
1402, 0.0
1403, 0.0
1404, 0.0
1405, 0.0
1406, 0.0
1407, 0.0
1408, 0.0
1409, 0.0
1410, 0.0
1411, 0.0
1412, 0.0
1413, 0.0
1414, 0.0
1415, 0.0
1416, 0.0
1417, 0.0
1418, 0.0
1419, 0.0
1420, 0.0
1421, 0.0
1422, 0.0
1423, 0.0
1424, 0.0
1425, 0.0
1426, 0.0
1427, 0.0
1428, 0.0
1429, 0.0
1430, 0.0
1431, 0.0
1432, 0.0
1433, 0.0
1434, 0.0
1435, 0.0
1436, 0.0
1437, 0.0
1438, 0.0
1439, 0.0
1440, 0.0
1441, 0.0
1442, 0.0
1443, 0.0
1444, 0.0
1445, 0.0
1446, 0.0
1447, 0.0
1448, 0.0
1449, 0.0
1450, 0.0
1451, 0.0
1452, 0.0
1453, 0.0
1454, 0.0
1455, 0.0
1456, 0.0
1457, 0.0
1458, 0.0
1459, 0.0
1460, 0.0
1461, 0.0
1462, 0.0
1463, 0.0
1464, 0.0
1465, 0.0
1466, 0.0
1467, 0.0
1468, 0.0
1469, 0.0
1470, 0.0
1471, 0.0
1472, 0.0
1473, 0.0
1474, 0.0
1475, 0.0
1476, 0.0
1477, 0.0
1478, 0.0
1479, 0.0
1480, 0.0
1481, 0.0
1482, 0.0
1483, 0.0
1484, 0.0
1485, 0.0
1486, 0.0
1487, 0.0
1488, 0.0
1489, 0.0
1490, 0.0
1491, 0.0
1492, 0.0
1493, 0.0
1494, 0.0
1495, 0.0
1496, 0.0
1497, 0.0
1498, 0.0
1499, 0.0
1500, 0.0
1501, 0.0
1502, 0.0
1503, 0.0
1504, 0.0
1505, 0.0
1506, 0.0
1507, 0.0
1508, 0.0
1509, 0.0
1510, 0.0
1511, 0.0
1512, 0.0
1513, 0.0
1514, 0.0
1515, 0.0
1516, 0.0
1517, 0.0
1518, 0.0
1519, 0.0
1520, 0.0
1521, 0.0
1522, 0.0
1523, 0.0
1524, 0.0
1525, 0.0
1526, 0.0
1527, 0.0
1528, 0.0
1529, 0.0
1530, 0.0
1531, 0.0
1532, 0.0
1533, 0.0
1534, 0.0
1535, 0.0
1536, 0.0
1537, 0.0
1538, 0.0
1539, 0.0
1540, 0.0
1541, 0.0
1542, 0.0
1543, 0.0
1544, 0.0
1545, 0.0
1546, 0.0
1547, 0.0
1548, 0.0
1549, 0.0
1550, 0.0
1551, 0.0
1552, 0.0
1553, 0.0
1554, 0.0
1555, 0.0
1556, 0.0
1557, 0.0
1558, 0.0
1559, 0.0
1560, 0.0
1561, 0.0
1562, 0.0
1563, 0.0
1564, 0.0
1565, 0.0
1566, 0.0
1567, 0.0
1568, 0.0
1569, 0.0
1570, 0.0
1571, 0.0
1572, 0.0
1573, 0.0
1574, 0.0
1575, 0.0
1576, 0.0
1577, 0.0
1578, 0.0
1579, 0.0
1580, 0.0
1581, 0.0
1582, 0.0
1583, 0.0
1584, 0.0
1585, 0.0
1586, 0.0
1587, 0.0
1588, 0.0
1589, 0.0
1590, 0.0
1591, 0.0
1592, 0.0
1593, 0.0
1594, 0.0
1595, 0.0
1596, 0.0
1597, 0.0
1598, 0.0
1599, 0.0
