30, 0.0
31, 0.0
32, 0.0
33, 0.0
34, 0.0
35, 0.0
36, 0.0
37, 0.0
38, 0.0
39, 0.0
40, 0.0
41, 0.0
42, 0.0
43, 0.0
44, 0.0
45, 0.0
46, 0.0
47, 0.0
48, 0.0
49, 0.0
50, 0.0
51, 0.0
52, 0.0
53, 0.0
54, 0.0
55, 0.0
56, 0.0
57, 0.0
58, 0.0
59, 0.0
60, 0.0
61, 0.0
62, 0.0
63, 0.0
64, 0.0
65, 0.0
66, 0.0
67, 0.0
68, 0.0
69, 0.0
70, 0.0
71, 0.0
72, 0.0
73, 0.0
74, 0.0
75, 0.0
76, 0.0
77, 0.0
78, 0.0
79, 0.0
80, 0.0
81.0, 0.0008477319522961578
82.0, 0.0008984208180469838
83.0, 0.0002112288702092386
84.0, 0.0023676986967817283
85.0, 0.00195234914568611
86.0, 0.0011112789798443522
87.0, 0.002035554982479416
88.0, 0.003468014164899719
89.0, 0.007058897329314023
90.0, 0.011955842419037565
91.0, 0.010688204834759947
92.0, 0.01034343295537234
93.0, 0.010435442517637738
94.0, 0.010676377441988832
95.0, 0.009668473858384555
96.0, 0.008655646907398316
97.0, 0.007658957321433418
98.0, 0.006284388216362318
99.0, 0.004322058363336726
100.0, 0.0026136456101157036
101.0, 0.0017208763175977034
102.0, 0.002640691473453703
103.0, 0.003902989306348866
104.0, 0.005451316265746159
105.0, 0.007365977917494173
106.0, 0.007264204185857617
107.0, 0.006333690576512385
108.0, 0.004969856053296746
109.0, 0.004258385892791156
110.0, 0.0039999581298021895
111.0, 0.003508666840671766
112.0, 0.0012094433336351696
113.0, 0.005384749883958067
114.0, 0.009332156505047345
115.0, 0.01116309293368838
116.0, 0.00982290207678331
117.0, 0.008388351463634385
118.0, 0.007129134774939254
119.0, 0.006471752518938209
120.0, 0.004807918169562949
121.0, 0.004675442823626486
122.0, 0.006097797127468363
123.0, 0.006068440362061435
124.0, 0.00538465688896272
125.0, 0.005082258200246455
126.0, 0.0061164053971281985
127.0, 0.0060827330833792635
128.0, 0.0069099245149781855
129.0, 0.00818351668524843
130.0, 0.007762024756569521
131.0, 0.007685104401901944
132.0, 0.007231433019975817
133.0, 0.006013379433522084
134.0, 0.007109058660034534
135.0, 0.007620401321849788
136.0, 0.007903398253163147
137.0, 0.008707987508513076
138.0, 0.008672648942855637
139.0, 0.008629776069070854
140.0, 0.00867878081401247
141.0, 0.0072360222877701896
142.0, 0.00625848849740854
143.0, 0.0055937041577064734
144.0, 0.005150119196608348
145.0, 0.004937187506070656
146.0, 0.005151373779853413
147.0, 0.005632043850386627
148.0, 0.005435522299649522
149.0, 0.0052425174671349075
150.0, 0.005237441588393907
151.0, 0.005557271226426825
152.0, 0.0037494871778581016
153.0, 0.002861978749799203
154.0, 0.0026239262427254933
155.0, 0.002387414353580753
156.0, 0.0015782152533713933
157.0, 0.0009835681005409497
158.0, 0.0007965799327578705
159.0, 0.0004978574947058725
160.0, 0.0006848025420414345
161.0, 0.0009286029679860724
162.0, 0.000757048794478262
163.0, 0.0004178343779066927
164.0, 0.00030589097797026826
165.0, 0.0003893189801290502
166.0, 0.000353691855184966
167.0, 0.0007640815705225333
168.0, 0.0009734375150722389
169.0, 0.0006388161836492592
170.0, 0.0006048513382000986
171.0, 0.0008174256823286503
172.0, 0.0011271801008473053
173.0, 0.0012652332091800899
174.0, 0.0008533487614010042
175.0, 0.0005983509305791452
176.0, 0.0006118545005862518
177.0, 0.0005942152041209028
178.0, 0.0004656817804861508
179.0, 0.00043529814034445435
180.0, 0.000685801760746183
181.0, 0.0003974950471584679
182.0, 0.0002422810084577148
183.0, 0.0002597549672057972
184.0, 0.0005073773958073833
185.0, 0.0011139891283173558
186.0, 0.0018030688427256442
187.0, 0.0025031569902515187
188.0, 0.0033343428683569897
189.0, 0.004615173556075872
190.0, 0.005970184466963523
191.0, 0.0070098326288866525
192.0, 0.008709396103060435
193.0, 0.011255409669928327
194.0, 0.014190364483070133
195.0, 0.01579891212024882
196.0, 0.016674652652513805
197.0, 0.01721627492633719
198.0, 0.017686496414452295
199.0, 0.021474197918484917
200.0, 0.01765868463477513
201.0, 0.011559546218268513
202.0, 0.009598188161617381
203.0, 0.008522870763024548
204.0, 0.008293839912481029
205.0, 0.00849929932152553
206.0, 0.007411453495927353
207.0, 0.006221404093351264
208.0, 0.005078338958174812
209.0, 0.004066621777389932
210.0, 0.0037072997917269508
211.0, 0.004248551830647171
212.0, 0.005084586312360545
213.0, 0.005443329964251279
214.0, 0.0059305145105640255
215.0, 0.006345921843490194
216.0, 0.006741595714894422
217.0, 0.007449107240477183
218.0, 0.007862036489888879
219.0, 0.008162249650309022
220.0, 0.008414831567316447
221.0, 0.00854191645017522
222.0, 0.008848895867690295
223.0, 0.00915136507703017
224.0, 0.00921018363883906
225.0, 0.00897642092889497
226.0, 0.008995255760363273
227.0, 0.009192252867710846
228.0, 0.00908832766348127
229.0, 0.008597432840963433
230.0, 0.008605788477517116
231.0, 0.009343789114039725
232.0, 0.008502196209207401
233.0, 0.008001698221621273
234.0, 0.00823258836492408
235.0, 0.009746088995221298
236.0, 0.010115428825675928
237.0, 0.009752013024679552
238.0, 0.0091887035977916
239.0, 0.009876175589864122
240.0, 0.010267282304806277
241.0, 0.010432912384689385
242.0, 0.01048440510812122
243.0, 0.011415244571659162
244.0, 0.011458898998059554
245.0, 0.011752237366819665
246.0, 0.013194303305629512
247.0, 0.013584132896380899
248.0, 0.01427352657283663
249.0, 0.014925414298203519
250.0, 0.014773049271205152
251.0, 0.014349890139811193
252.0, 0.014033660706139458
253.0, 0.014100184661556592
254.0, 0.01571929580767085
255.0, 0.016001925719866226
256.0, 0.01613942631956531
257.0, 0.016641934506640872
258.0, 0.015395150568805343
259.0, 0.01624239442864187
260.0, 0.017516446677562785
261.0, 0.017209784172414356
262.0, 0.01812528720520912
263.0, 0.018195647738093287
264.0, 0.017762105724182964
265.0, 0.018355571517553498
266.0, 0.018112353676968406
267.0, 0.01729739773069761
268.0, 0.016181724055415327
269.0, 0.01666525947166334
270.0, 0.01597371610053634
271.0, 0.015334812908564173
272.0, 0.015570155268525005
273.0, 0.01476536841709268
274.0, 0.014258757050679523
275.0, 0.014069147910781746
276.0, 0.014266380440741357
277.0, 0.014747803533304796
278.0, 0.015206138506350133
279.0, 0.015245645267164943
280.0, 0.013494368596447773
281.0, 0.014308339567016859
282.0, 0.014904896608215049
283.0, 0.014404511896809273
284.0, 0.013207989978055624
285.0, 0.013243453423470173
286.0, 0.013351290289671238
287.0, 0.012703833857052713
288.0, 0.013126321746558194
289.0, 0.012928263817339837
290.0, 0.012400029653488399
291.0, 0.011990902531727875
292.0, 0.01086985964578904
293.0, 0.010350355819983562
294.0, 0.010370140453555636
295.0, 0.010225004118595032
296.0, 0.009917690733185736
297.0, 0.009628018755208438
298.0, 0.009381822986984985
299.0, 0.00893646962697784
300.0, 0.009741742089047668
301.0, 0.010171985326919288
302.0, 0.009206043036471177
303.0, 0.007917304304801094
304.0, 0.008534124888156662
305.0, 0.00945739544161836
306.0, 0.008649274104761491
307.0, 0.008999396052254496
308.0, 0.00950703799994391
309.0, 0.010030003787284632
310.0, 0.01041057410138794
311.0, 0.01094426047990233
312.0, 0.010961710717375738
313.0, 0.01067720281097856
314.0, 0.012033466078656362
315.0, 0.012697977800849173
316.0, 0.012904699489915067
317.0, 0.01286458908152267
318.0, 0.014643089939508944
319.0, 0.015324917531339435
320.0, 0.01573435016338768
321.0, 0.016518010287735467
322.0, 0.016015514694476124
323.0, 0.015814461419296103
324.0, 0.01559550293697926
325.0, 0.014816832366629746
326.0, 0.013766801613681299
327.0, 0.013615761661004394
328.0, 0.013853494204161217
329.0, 0.01270510342203109
330.0, 0.012549478478831236
331.0, 0.012012078703254953
332.0, 0.011114620844770853
333.0, 0.011749406608676363
334.0, 0.01157713720709044
335.0, 0.011162565121442121
336.0, 0.010710287704766718
337.0, 0.009900374412431277
338.0, 0.010004582647439099
339.0, 0.010411645388633785
340.0, 0.010689282647056217
341.0, 0.009668943832852333
342.0, 0.010739539476775277
343.0, 0.011791125314893854
344.0, 0.010018431274887775
345.0, 0.010774861051148407
346.0, 0.011053914117083778
347.0, 0.010634141028426298
348.0, 0.0094164161664411
349.0, 0.010384065343556643
350.0, 0.010460425319266676
351.0, 0.009691895194923307
352.0, 0.010102282955565632
353.0, 0.010537162363769694
354.0, 0.01056928768889433
355.0, 0.01027083388241123
356.0, 0.011049263570851797
357.0, 0.011573805095684727
358.0, 0.011383450854929651
359.0, 0.010408968056409815
360.0, 0.011605457538487013
361.0, 0.012260166500517911
362.0, 0.011981116360423245
363.0, 0.010419154331236368
364.0, 0.009782967561508708
365.0, 0.008692925428210933
366.0, 0.007424452334635124
367.0, 0.006300998819976206
368.0, 0.0049303082364746805
369.0, 0.0038889707455043035
370.0, 0.0030970566570831435
371.0, 0.002374709148138513
372.0, 0.001986855446617573
373.0, 0.0013806519934509817
374.0, 0.0008915943054339141
375.0, 0.0016740147944600025
376.0, 0.0014928827237456854
377.0, 0.0010901880109848176
378.0, 0.0009258866990146558
379.0, 0.002352749915619701
380.0, 0.0024712524338092352
381.0, 0.002505425207151688
382.0, 0.0026873941383422245
383.0, 0.0019229000892912354
384.0, 0.0020353574621354655
385.0, 0.0024738264409762036
386.0, 0.0028313506029302832
387.0, 0.0010188770455532362
388.0, 0.0010734184704864057
389.0, 0.001261864293924972
390.0, 0.0004930519253754898
391.0, 0.0007286803287756835
392.0, 0.0006270968282844655
393.0, 0.0006050797249813936
394.0, 0.0010566926260240131
395.0, 0.0004930810383987314
396.0, 0.0007086113466211421
397.0, 0.0010576814747376114
398.0, 0.0006746607637710498
399.0, 0.0007596146490706476
400.0, 0.0018558355298761604
401.0, 0.002871991874613996
402.0, 0.0018335723341156092
403.0, 0.001578022188963444
404.0, 0.0009863840301341012
405.0, 0.00039911106590762046
406.0, 0.0008762955953436965
407.0, 0.0005015939134796287
408.0, 0.0011785125297280432
409.0, 0.002626526305336504
410.0, 0.003119636708197653
411.0, 0.0034720801816530374
412.0, 0.003498814550838385
413.0, 0.003432361544629748
414.0, 0.004382309574665676
415.0, 0.004453477748153087
416.0, 0.004552585637308199
417.0, 0.004971301620041726
418.0, 0.005901728337478366
419.0, 0.005839225247531919
420.0, 0.005999534938203713
421.0, 0.006602932095583623
422.0, 0.006032087561335918
423.0, 0.005384648878234996
424.0, 0.005651349003459507
425.0, 0.006955146865084549
426.0, 0.0057382182497079165
427.0, 0.005622022700692568
428.0, 0.005661026746955036
429.0, 0.005356411034963164
430.0, 0.004926843255420583
431.0, 0.004223201045151688
432.0, 0.0037711115605287065
433.0, 0.003860779280684243
434.0, 0.003032601482448729
435.0, 0.002400198420850419
436.0, 0.0022200365260596974
437.0, 0.0026780348294439234
438.0, 0.0024899145063256175
439.0, 0.0024300022373512915
440.0, 0.0029449924222059738
441.0, 0.004436271493200878
442.0, 0.0033372461208701558
443.0, 0.003787306138796243
444.0, 0.004944090074553259
445.0, 0.005956508859882931
446.0, 0.005743616232541637
447.0, 0.006892322501121243
448.0, 0.008716460812437961
449.0, 0.010404900264742398
450.0, 0.012237851114706601
451.0, 0.013387404955057608
452.0, 0.013785836615066615
453.0, 0.01334121218831811
454.0, 0.016111426957627926
455.0, 0.017724014636596848
456.0, 0.019229175897862
457.0, 0.022316595758391435
458.0, 0.021691652403718523
459.0, 0.02162786039757974
460.0, 0.022306587924296482
461.0, 0.02371867238994482
462.0, 0.021579561324209403
463.0, 0.022053014054250444
464.0, 0.023581529523081488
465.0, 0.023202274757344352
466.0, 0.024464030030765336
467.0, 0.025244996691159354
468.0, 0.025156238264279814
469.0, 0.023755373315701198
470.0, 0.025086186823172554
471.0, 0.02504642003439682
472.0, 0.0241005498360887
473.0, 0.023473095808025497
474.0, 0.022763239037911383
475.0, 0.02160265455555759
476.0, 0.020191941330651
477.0, 0.018901607616285284
478.0, 0.016945904681161316
479.0, 0.015809331544724126
480.0, 0.015163248083446807
481.0, 0.014295304195050648
482.0, 0.014696403959612131
483.0, 0.014430427592761266
484.0, 0.01351285213290752
485.0, 0.012171583806003907
486.0, 0.012048176115803355
487.0, 0.011360057315110002
488.0, 0.010400070975162492
489.0, 0.00980708302703956
490.0, 0.009303410770648765
491.0, 0.009015161720534787
492.0, 0.008805140793620015
493.0, 0.00846039425290307
494.0, 0.007218725282156952
495.0, 0.007690330039719481
496.0, 0.00825495841052033
497.0, 0.006466435854327551
498.0, 0.008014044149823794
499.0, 0.008431152308511781
500.0, 0.008234593156151241
501.0, 0.008317136773864246
502.0, 0.007950075384265624
503.0, 0.007225242604543966
504.0, 0.006624682512539022
505.0, 0.006709448953009884
506.0, 0.006586631359116639
507.0, 0.006876615271279765
508.0, 0.007444820501107442
509.0, 0.008137382964189964
510.0, 0.006468522040262797
511.0, 0.00693237086621305
512.0, 0.007788357442991435
513.0, 0.007423006496817351
514.0, 0.0071417691996264205
515.0, 0.007540705789460062
516.0, 0.008349291155353825
517.0, 0.009305094877406056
518.0, 0.00931311821131624
519.0, 0.009514902967156737
520.0, 0.009956098286555335
521.0, 0.010645579246513754
522.0, 0.011178600453822574
523.0, 0.01098168862329413
524.0, 0.010916017457791931
525.0, 0.011372125716444057
526.0, 0.011010836722347277
527.0, 0.011877381367618548
528.0, 0.01247366016997734
529.0, 0.012257708379814184
530.0, 0.012801401232166167
531.0, 0.01260581280903409
532.0, 0.012649186335946106
533.0, 0.013045803680919043
534.0, 0.012159354104427787
535.0, 0.013271173744222216
536.0, 0.013380410199789187
537.0, 0.01233492079001035
538.0, 0.013773502977296731
539.0, 0.013187986287344754
540.0, 0.012901237980586667
541.0, 0.013439782163449177
542.0, 0.014615732357443682
543.0, 0.015366059156255683
544.0, 0.0164001623616494
545.0, 0.017288046937260042
546.0, 0.016568395548166664
547.0, 0.016753024559889224
548.0, 0.016528363832685158
549.0, 0.015620712048073542
550.0, 0.013821032182355652
551.0, 0.014148531243441028
552.0, 0.013429510029250729
553.0, 0.012411286689114327
554.0, 0.012600423880732767
555.0, 0.013262257069175158
556.0, 0.012738816488540416
557.0, 0.012323089730829889
558.0, 0.01352107423800685
559.0, 0.012109444501556018
560.0, 0.012655735503729467
561.0, 0.013750939321312312
562.0, 0.014212068299266646
563.0, 0.014843851089701944
564.0, 0.015281878893083259
565.0, 0.015753984301503262
566.0, 0.01638542063319579
567.0, 0.01699842349572044
568.0, 0.01792412681528581
569.0, 0.019155678353987668
570.0, 0.020722672843511678
571.0, 0.022806174559100018
572.0, 0.025735159408623427
573.0, 0.02841834805558751
574.0, 0.030769218413289
575.0, 0.033772050575291354
576.0, 0.03707787096413582
577.0, 0.041442394893382285
578.0, 0.04574990061007418
579.0, 0.04672742459676434
580.0, 0.04796407155493107
581.0, 0.04847313153648671
582.0, 0.04825012120134691
583.0, 0.047495870254545894
584.0, 0.045662293233862214
585.0, 0.04340754319891406
586.0, 0.041553893024847695
587.0, 0.04101754133165205
588.0, 0.04037865164567245
589.0, 0.041291081851886124
590.0, 0.043660164459941156
591.0, 0.047214230406235874
592.0, 0.04935652395399792
593.0, 0.05504600116855249
594.0, 0.061011252911712874
595.0, 0.06607599339135477
596.0, 0.0746292096506321
597.0, 0.08388053607113706
598.0, 0.09165850588286274
599.0, 0.09841806379350428
600.0, 0.10906596928628848
601.0, 0.1147537164710731
602.0, 0.12128260999608947
603.0, 0.12763665289395548
604.0, 0.1283193805125319
605.0, 0.12486259802803325
606.0, 0.12049058999903997
607.0, 0.1140201580196064
608.0, 0.10314675082419819
609.0, 0.09510959408575928
610.0, 0.08578149976643634
611.0, 0.07561535764346053
612.0, 0.06526275377333525
613.0, 0.05639871303143257
614.0, 0.048897540499626496
615.0, 0.04319839110459013
616.0, 0.03921463098622665
617.0, 0.034149815933989316
618.0, 0.029987337180066898
619.0, 0.02700765963935273
620.0, 0.024818032927099512
621.0, 0.02141938918909026
622.0, 0.01973455036360387
623.0, 0.017734045824735475
624.0, 0.015592117436511073
625.0, 0.014650934713278685
626.0, 0.013054828633855918
627.0, 0.010762591828608888
628.0, 0.008666148177512371
629.0, 0.007942383266655332
630.0, 0.007435538085858919
631.0, 0.006767756639322953
632.0, 0.005492163205473515
633.0, 0.00346843914782331
634.0, 0.0033491341825515925
635.0, 0.003037438097781992
636.0, 0.002239255203602618
637.0, 0.001124112338372915
638.0, 0.0012558365506426664
639.0, 0.0015135068250600747
640.0, 0.0017871794971910417
641.0, 0.002059714132378521
642.0, 0.002358331549386075
643.0, 0.001872382804515261
644.0, 0.0013793821953481098
645.0, 0.0011421839875066858
646.0, 0.0014048537421691913
647.0, 0.000388925433329104
648.0, 0.0002558996622894213
649.0, 0.00046804520451988334
650.0, 0.0005224101905142111
651.0, 0.00010626843702536722
652.0, 0.00040868056390310625
653.0, 0.0009248029107047902
654.0, 0.0013074217600734027
655.0, 0.0010027743342954376
656.0, 0.0018284759745207536
657.0, 0.0018937139136479184
658.0, 0.0014570952896163323
659.0, 0.0020705470199054317
660.0, 0.0020718046619660666
661.0, 0.0017647378905569146
662.0, 0.001746478490790193
663.0, 0.002653314628709158
664.0, 0.0024138236618325586
665.0, 0.0026207683856422853
666.0, 0.0030709276770445287
667.0, 0.0034599329097912577
668.0, 0.0025530247626248
669.0, 0.0027829608522999295
670.0, 0.002537657746489769
671.0, 0.0019027531361485491
672.0, 0.002812459411597292
673.0, 0.003479871484497634
674.0, 0.0029591423299676566
675.0, 0.0021317103313366697
676.0, 0.0025511666015731174
677.0, 0.002622166859524498
678.0, 0.0021218078308160044
679.0, 0.0017644722773883033
680.0, 0.001998580525513656
681.0, 0.0013901452528151863
682.0, 0.0018772754733368973
683.0, 0.0023320926066653868
684.0, 0.0020744396307895746
685.0, 0.00025747651745752515
686.0, 0.0009908962801219133
687.0, 0.0015146519973771764
688.0, 0.0017892498204128773
689.0, 0.002546053201374945
690.0, 0.0020497021455720857
691.0, 0.0016893613038652196
692.0, 0.0013374301698537495
693.0, 0.0008771477924338127
694.0, 0.0006615408223574683
695.0, 0.0009595905648033267
696.0, 0.0007751479702029587
697.0, 6.417746274259636e-05
698.0, 0.00018426482721034152
699.0, 0.0011531192768446884
700.0, 0.0017514913851669651
701.0, 0.002132395258945077
702.0, 0.0028808071939428674
703.0, 0.0030458559736070635
704.0, 0.003605075596853953
705.0, 0.004478039604615633
706.0, 0.005437953403741162
707.0, 0.005216109034184231
708.0, 0.007560555325272166
709.0, 0.009242149867799927
710.0, 0.009650282781965029
711.0, 0.010551986224975263
712.0, 0.013013564447243537
713.0, 0.015438452954572447
714.0, 0.017570169100722403
715.0, 0.01935152728675164
716.0, 0.02040720396563628
717.0, 0.02239763334192244
718.0, 0.024291584206109
719.0, 0.02575224448451906
720.0, 0.02890514497280562
721.0, 0.029738051645836965
722.0, 0.031416772849440236
723.0, 0.03422182137297238
724.0, 0.03683108577188859
725.0, 0.0370512157076488
726.0, 0.04014668296703548
727.0, 0.04365002875874742
728.0, 0.044780371194741826
729.0, 0.045137979644378524
730.0, 0.048058020659910175
731.0, 0.050172700943571166
732.0, 0.05103560708691824
733.0, 0.05460220042389858
734.0, 0.05457402096865547
735.0, 0.05459264616008075
736.0, 0.05546807172154891
737.0, 0.057498222165321786
738.0, 0.05881222686124954
739.0, 0.06099828050446703
740.0, 0.06320166327471413
741.0, 0.0651028635452411
742.0, 0.06824711202211824
743.0, 0.07151933907823423
744.0, 0.07356182413698278
745.0, 0.07583336310774233
746.0, 0.08204266917552604
747.0, 0.08443679749778908
748.0, 0.08901537425233585
749.0, 0.09377973821255703
750.0, 0.09678821901236986
751.0, 0.09882283215262615
752.0, 0.10290630051979903
753.0, 0.10552359605301836
754.0, 0.10618489406517896
755.0, 0.10695417823177047
756.0, 0.10597105484778319
757.0, 0.10421208185770049
758.0, 0.10275526115495706
759.0, 0.10246489996340324
760.0, 0.10006672172844709
761.0, 0.09511753953657588
762.0, 0.0930232367077884
763.0, 0.09360994595362096
764.0, 0.08817723492043254
765.0, 0.08655183145967627
766.0, 0.08534756627740674
767.0, 0.08362581717327414
768.0, 0.08093650620410368
769.0, 0.08148614498983547
770.0, 0.08113081427490847
771.0, 0.08285594247855119
772.0, 0.08678257986277109
773.0, 0.08747098172860347
774.0, 0.09076041117542817
775.0, 0.09776576143066194
776.0, 0.10639118706670209
777.0, 0.11362836691818468
778.0, 0.1280145224825095
779.0, 0.130637171212747
780.0, 0.13107109735091488
781.0, 0.13444408229393787
782.0, 0.13961888349494941
783.0, 0.13325156518542283
784.0, 0.12922167506895535
785.0, 0.12583249236414173
786.0, 0.11743898605603131
787.0, 0.10470649799190618
788.0, 0.10044800157396228
789.0, 0.0953888655403511
790.0, 0.08592247462847864
791.0, 0.07842026448804434
792.0, 0.07379008732658966
793.0, 0.07005228802433752
794.0, 0.06705865874639182
795.0, 0.06494504957850109
796.0, 0.061862083847616135
797.0, 0.0610908426567688
798.0, 0.06083856423872724
799.0, 0.06055535886058902
800.0, 0.06171547758820542
801.0, 0.0629580346972862
802.0, 0.06292432293797624
803.0, 0.06297631253716687
804.0, 0.06493763433779479
805.0, 0.06745040291346151
806.0, 0.06839827484663318
807.0, 0.07033803267525719
808.0, 0.07353731555228143
809.0, 0.0752583197144245
810.0, 0.07710770493731779
811.0, 0.08068416450529176
812.0, 0.0843660230016657
813.0, 0.08677927623559652
814.0, 0.094176964473629
815.0, 0.1012926294205082
816.0, 0.1066860254161809
817.0, 0.11284924989682456
818.0, 0.1270196296707529
819.0, 0.13598728163258889
820.0, 0.1510368044564213
821.0, 0.16797322374055454
822.0, 0.18379388470963579
823.0, 0.20742001161733978
824.0, 0.23683472767905947
825.0, 0.26777695197231843
826.0, 0.30367905542889395
827.0, 0.3524150492363604
828.0, 0.4041019993344017
829.0, 0.4634719559959664
830.0, 0.5433487181486758
831.0, 0.6431378797677211
832.0, 0.7266412824061795
833.0, 0.815497995207041
834.0, 0.8918497026573919
835.0, 0.9399648340812371
836.0, 0.9477010355833626
837.0, 0.9736268154003348
838.0, 0.9604220848241319
839.0, 0.9507731138986026
840.0, 0.9633914664235603
841.0, 0.9976691195850212
842.0, 0.9805485343763354
843.0, 0.9644566726605407
844.0, 0.9348249553437986
845.0, 0.8759200680528192
846.0, 0.790924617162771
847.0, 0.7199126950896619
848.0, 0.6477954889943487
849.0, 0.5810960791919749
850.0, 0.5375338752889259
851.0, 0.49611568760728864
852.0, 0.46461129388709965
853.0, 0.449876519267626
854.0, 0.45088597833380223
855.0, 0.4507511046611812
856.0, 0.4728818319096456
857.0, 0.4970977233185038
858.0, 0.5225899375782695
859.0, 0.552203769186353
860.0, 0.5971347386054272
861.0, 0.6214286636914651
862.0, 0.6294475634203026
863.0, 0.6257263050421444
864.0, 0.6169108494385634
865.0, 0.5670053637611312
866.0, 0.5270821833653863
867.0, 0.4906874431481466
868.0, 0.4530767835420652
869.0, 0.4156270374350186
870.0, 0.3872347830083804
871.0, 0.35404854808824654
872.0, 0.324306704413256
873.0, 0.307307505049036
874.0, 0.27893162930249843
875.0, 0.25214022542291487
876.0, 0.23173276777951488
877.0, 0.21429055506537287
878.0, 0.18990963953936582
879.0, 0.17501320755868585
880.0, 0.15972826178882896
881.0, 0.1449847222126226
882.0, 0.13185573055024308
883.0, 0.12192996808236001
884.0, 0.11122820974403277
885.0, 0.10468463280907404
886.0, 0.09940413512477105
887.0, 0.09229539412294961
888.0, 0.08845794180270528
889.0, 0.08449478577891055
890.0, 0.08160821943932313
891.0, 0.08022853975073119
892.0, 0.08044043377492475
893.0, 0.0839519451236617
894.0, 0.08412237737433396
895.0, 0.08612676454115213
896.0, 0.09029516406512786
897.0, 0.09017130462898745
898.0, 0.08465451510887742
899.0, 0.08002207031886198
900.0, 0.07384521622562204
901.0, 0.06498012911707869
902.0, 0.0594071687294212
903.0, 0.05381985998387621
904.0, 0.04810293358792605
905.0, 0.043724878253923634
906.0, 0.04219877951928963
907.0, 0.04047788405893543
908.0, 0.03909079151379162
909.0, 0.03837353094108138
910.0, 0.037790042244359154
911.0, 0.036149409096844234
912.0, 0.03590187601022255
913.0, 0.034990895009296114
914.0, 0.03406593132284387
915.0, 0.03377430075403884
916.0, 0.03496496636177626
917.0, 0.0322944230737551
918.0, 0.03173576663200576
919.0, 0.0307849803226645
920.0, 0.028370072133942267
921.0, 0.031060997382549308
922.0, 0.030265713252349547
923.0, 0.02838672977244779
924.0, 0.0271580971623565
925.0, 0.02772340250849258
926.0, 0.0267543115190506
927.0, 0.02708737161051047
928.0, 0.028428813475743952
929.0, 0.029221782267222912
930.0, 0.02739928748088128
931.0, 0.02990834433537568
932.0, 0.030683874059511625
933.0, 0.03103022349230493
934.0, 0.03140759460838871
935.0, 0.031546600516500135
936.0, 0.032004691430550784
937.0, 0.03255547972310473
938.0, 0.03320871628063386
939.0, 0.03399977065685567
940.0, 0.035024605100881165
941.0, 0.036292291329239015
942.0, 0.03773398782602775
943.0, 0.039309888896210274
944.0, 0.04113145263339442
945.0, 0.04392549199926158
946.0, 0.0486551396006567
947.0, 0.05285786465674751
948.0, 0.05762578121901862
949.0, 0.0645124532463662
950.0, 0.07375081006175808
951.0, 0.08417222390700964
952.0, 0.09062509997635489
953.0, 0.09403616111289902
954.0, 0.09725503226070617
955.0, 0.09716716658188242
956.0, 0.09619845871138852
957.0, 0.10045091151688673
958.0, 0.10898403343215311
959.0, 0.11685873632444203
960.0, 0.13367659411594054
961.0, 0.15686908245252765
962.0, 0.1770997386772933
963.0, 0.1967511423110708
964.0, 0.22937141154803592
965.0, 0.23931707762170035
966.0, 0.23582811630717423
967.0, 0.2272110411879531
968.0, 0.21409868733504822
969.0, 0.18563509580296836
970.0, 0.16456446588224177
971.0, 0.14227543523638547
972.0, 0.12145111223584157
973.0, 0.10432426728391121
974.0, 0.09166262275148342
975.0, 0.07734024346126667
976.0, 0.06819684398000521
977.0, 0.061528242860305976
978.0, 0.05471170275500486
979.0, 0.04787637327667258
980.0, 0.04326883266083026
981.0, 0.039289007550948746
982.0, 0.03616039496650087
983.0, 0.03395707545464013
984.0, 0.031376307398372924
985.0, 0.027966705810292543
986.0, 0.02662874118234064
987.0, 0.025647230016381712
988.0, 0.023101625604505613
989.0, 0.020622304918051736
990.0, 0.02103752954238854
991.0, 0.019695571128712647
992.0, 0.017728527195969162
993.0, 0.017262449608351344
994.0, 0.017434494745825285
995.0, 0.01678133028071405
996.0, 0.016431980049649943
997.0, 0.01658303066692592
998.0, 0.017113138790080893
999.0, 0.017707782592700776
1000.0, 0.017687291709938865
1001.0, 0.017765266566348692
1002.0, 0.017970609823361534
1003.0, 0.018076539374360878
1004.0, 0.01772741809191932
1005.0, 0.01763646077684393
1006.0, 0.017429912947882768
1007.0, 0.016744133067113687
1008.0, 0.015480488816129262
1009.0, 0.016416778652813598
1010.0, 0.017153850534548657
1011.0, 0.01659164028820801
1012.0, 0.016032051356769373
1013.0, 0.017282833932631067
1014.0, 0.014963898305927153
1015.0, 0.015070769199640576
1016.0, 0.014626427032809653
1017.0, 0.013803545796888935
1018.0, 0.014157591193732675
1019.0, 0.01674576655612319
1020.0, 0.016489883782643638
1021.0, 0.016125274587426377
1022.0, 0.016397513001721365
1023.0, 0.01689921509849997
1024.0, 0.013801518689542963
1025.0, 0.015335816625527552
1026.0, 0.015159988626903747
1027.0, 0.013561148501619238
1028.0, 0.013331129650922332
1029.0, 0.012472821536289471
1030.0, 0.012756433596557207
1031.0, 0.011602932395030682
1032.0, 0.010618092056710068
1033.0, 0.012225554708627937
1034.0, 0.010165831168984639
1035.0, 0.011210856370989439
1036.0, 0.011407861998427563
1037.0, 0.010814060067009868
1038.0, 0.010891514513823674
1039.0, 0.012543005483354703
1040.0, 0.012289319645166127
1041.0, 0.010890002967997596
1042.0, 0.010021256855469077
1043.0, 0.010984161035168097
1044.0, 0.01064752329436044
1045.0, 0.011265654840643204
1046.0, 0.009670955432587825
1047.0, 0.007961234129357056
1048.0, 0.008481155074343428
1049.0, 0.00762803533942475
1050.0, 0.004669430268727805
1051.0, 0.003995822292573796
1052.0, 0.0039728996878596904
1053.0, 0.002694729598564036
1054.0, 0.0022866217010805525
1055.0, 0.0018943983511583728
1056.0, 0.0010534258005457668
1057.0, 0.0005130217902801177
1058.0, 0.0007423050450032847
1059.0, 0.000867790520991453
1060.0, 0.0004768683006588923
1061.0, 0.00044182016804957815
1062.0, 0.0005845375202944421
1063.0, 0.0008371608819865127
1064.0, 0.001652486394238453
1065.0, 0.0008557600953911222
1066.0, 0.0011253906359459179
1067.0, 0.0010861855506061149
1068.0, 0.0006193752435290255
1069.0, 0.0020039479697109177
1070.0, 0.002625781189977885
1071.0, 0.0013251706968547495
1072.0, 0.0012437694164629217
1073.0, 0.0025116933043823598
1074.0, 0.0018698086847360278
1075.0, 0.001192414412434352
1076.0, 0.001592191554855803
1077.0, 0.0015549742066986326
1078.0, 0.0013150371932884087
1079.0, 0.002265487517942208
1080.0, 0.002194165058234064
1081.0, 0.0013374717441013888
1082.0, 0.0014677890410091032
1083.0, 0.0022844288846218673
1084.0, 0.002486340770553767
1085.0, 0.0013301882074077211
1086.0, 0.001058078137134893
1087.0, 0.0006072459134776858
1088.0, 0.001137846022672156
1089.0, 0.0032656288313712913
1090.0, 0.0015751234549675201
1091.0, 0.0013979685038363419
1092.0, 0.0019831456703469775
1093.0, 0.0019379560024142116
1094.0, 0.0008203332249045628
1095.0, 0.0012179912211209684
1096.0, 0.0011353495855617607
1097.0, 0.0011503891119677766
1098.0, 0.0009445454924671331
1099.0, 0.00042968954675657374
1100.0, 2.5358418643325366e-05
1101.0, 0.0005953810131011962
1102.0, 0.0010462602593397444
1103.0, 0.0008010253441459968
1104.0, 0.0002682816061516343
1105.0, 0.0007069007842441415
1106.0, 0.000826174976182178
1107.0, 0.0012123598630700738
1108.0, 0.0009119936687265737
1109.0, 0.0003137524431548386
1110.0, 0.00035962373406409493
1111.0, 0.00023613187516510894
1112.0, 0.00027432635340445314
1113.0, 0.0008938551094313809
1114.0, 0.0012564125919862223
1115.0, 0.0006524294724716837
1116.0, 0.00033942854385274866
1117.0, 0.0005759246172949456
1118.0, 0.0004524776053381188
1119.0, 0.0002532780202804183
1120.0, 0.0002474182787302349
1121.0, 0.00033046270279121846
1122.0, 0.0008959290117185302
1123.0, 0.0013022551271204368
1124.0, 0.001139237116063705
1125.0, 0.0005787509484012803
1126.0, 0.0003939906927453588
1127.0, 0.002190370974748868
1128.0, 0.0009256679719504621
1129.0, 0.0005426689198290244
1130.0, 0.0009043596938753738
1131.0, 0.00024252399964501596
1132.0, 0.0006524002109179011
1133.0, 0.0014082692902698988
1134.0, 0.0009768519277042291
1135.0, 0.00023670902234137665
1136.0, 0.0006304781926086433
1137.0, 0.0035231511055358166
1138.0, 0.0012386184584184951
1139.0, 0.0008568489967454085
1140.0, 0.0018234319858113851
1141.0, 0.0025883086939294895
1142.0, 0.0013319066920622975
1143.0, 0.002303541621028233
1144.0, 0.0021472290533200967
1145.0, 0.0017439800118512188
1146.0, 0.0020883734894886112
1147.0, 0.003609441278149954
1148.0, 0.001669709740726569
1149.0, 0.0036971914349771596
1150.0, 0.0032210606766788982
1151.0, 0.0014573222022952943
1152.0, 0.0011813397866327435
1153.0, 0.0034599869305615223
1154.0, 0.002068478132903395
1155.0, 0.002209976578074316
1156.0, 0.002473638649897403
1157.0, 0.0020503000671164466
1158.0, 0.0017233359762683564
1159.0, 0.004352428573302772
1160.0, 0.0031489107743552414
1161.0, 0.0012066772414946903
1162.0, 0.0006243217237689345
1163.0, 0.0020996656259600005
1164.0, 0.001593827983160096
1165.0, 0.0030222440171700656
1166.0, 0.002094223943022508
1167.0, 0.0008119569457991975
1168.0, 0.001132585923658232
1169.0, 0.0018414545983172922
1170.0, 0.0009450873508119834
1171.0, 0.0014295065567998565
1172.0, 0.0025996988493744463
1173.0, 0.003178153448666813
1174.0, 0.0019317506163017409
1175.0, 0.0022101961615819034
1176.0, 0.003373183233012957
1177.0, 0.003078123529860177
1178.0, 0.0024888436549035833
1179.0, 0.0031423924081485856
1180.0, 0.003564502294826672
1181.0, 0.0031006203070661344
1182.0, 0.0036670719498902433
1183.0, 0.003315579862554145
1184.0, 0.0022011029765238903
1185.0, 0.003317424603032091
1186.0, 0.0025889338763118268
1187.0, 0.0017443521977678815
1188.0, 0.002157359650889159
1189.0, 0.003211428480427123
1190.0, 0.0034663924179884863
1191.0, 0.002065193991083722
1192.0, 0.003030304918970248
1193.0, 0.0032955685137217297
1194.0, 0.003789200072322553
1195.0, 0.005047575306949258
1196.0, 0.006143857918632301
1197.0, 0.0037147933527473522
1198.0, 0.005546551485530626
1199.0, 0.006152828546602842
1200.0, 0.005178108593498267
1201.0, 0.005036003705657779
1202.0, 0.007369198165320529
1203.0, 0.005155893501283998
1204.0, 0.005162171443741641
1205.0, 0.006032666450460194
1206.0, 0.006171895866100691
1207.0, 0.005764170277158233
1208.0, 0.007058716631513337
1209.0, 0.006948942593368082
1210.0, 0.006426202674623367
1211.0, 0.007092115352854103
1212.0, 0.009511205196608098
1213.0, 0.008034781755220518
1214.0, 0.008087906390954816
1215.0, 0.008149794333783695
1216.0, 0.008006568368603832
1217.0, 0.00816135917395374
1218.0, 0.009665547447627624
1219.0, 0.008518994489397884
1220.0, 0.008014512744880048
1221.0, 0.008547185128769313
1222.0, 0.008503774664933959
1223.0, 0.006876247403280576
1224.0, 0.008325360033832803
1225.0, 0.008681220237072292
1226.0, 0.007421809007506414
1227.0, 0.007186414115295481
1228.0, 0.008536584567313071
1229.0, 0.009358745153150876
1230.0, 0.008100480437611817
1231.0, 0.00869716650072561
1232.0, 0.007954771185520177
1233.0, 0.007185865281841083
1234.0, 0.008296588613192938
1235.0, 0.010742207924241227
1236.0, 0.007841161696674374
1237.0, 0.008639524189087058
1238.0, 0.009244511132982552
1239.0, 0.00851439329292847
1240.0, 0.008018793912209202
1241.0, 0.00905058913362165
1242.0, 0.0075672866448812885
1243.0, 0.00795502805856878
1244.0, 0.0087464788818217
1245.0, 0.008180005067180762
1246.0, 0.006171142405319763
1247.0, 0.00867279168202473
1248.0, 0.007592930688652757
1249.0, 0.006335802481157427
1250.0, 0.006777459068162319
1251.0, 0.008424372191700372
1252.0, 0.005468463855553775
1253.0, 0.00704809483370732
1254.0, 0.008085739392663886
1255.0, 0.007143403474177153
1256.0, 0.006032771411756252
1257.0, 0.00809830224345071
1258.0, 0.007059621524075878
1259.0, 0.006179962067730911
1260.0, 0.006621846631517046
1261.0, 0.007135709077138534
1262.0, 0.006788431147558468
1263.0, 0.006231003595529432
1264.0, 0.006887267671417236
1265.0, 0.005888593580031978
1266.0, 0.006189288505890605
1267.0, 0.00667427142294344
1268.0, 0.005610672845924396
1269.0, 0.005480669259771917
1270.0, 0.007013882575001416
1271.0, 0.006688957199868702
1272.0, 0.0062700381721423675
1273.0, 0.0066488655909089575
1274.0, 0.00729900378065137
1275.0, 0.005497335751420974
1276.0, 0.005429152012557004
1277.0, 0.005160172279583577
1278.0, 0.004906571401524219
1279.0, 0.0050543849758721195
1280.0, 0.005607146458448026
1281.0, 0.005027333991896166
1282.0, 0.003927212679278808
1283.0, 0.0050449426670339335
1284.0, 0.005259515668894908
1285.0, 0.003163338485451663
1286.0, 0.004762080860400365
1287.0, 0.005813113645139986
1288.0, 0.004605276301003286
1289.0, 0.003747766497116771
1290.0, 0.003565414366719978
1291.0, 0.0033158914906615483
1292.0, 0.003081370262987401
1293.0, 0.0050872575829968795
1294.0, 0.00541165906884781
1295.0, 0.004498820838366746
1296.0, 0.0038975826062453943
1297.0, 0.004602765728695062
1298.0, 0.0016903641975026676
1299.0, 0.003480662650257895
1300.0, 0.004023469219792032
1301.0, 0.003062644637411756
1302.0, 0.001938730240427319
1303.0, 0.0023654455196655136
1304.0, 0.0026303321566864177
1305.0, 0.0021513350742005085
1306.0, 0.002439106057292725
1307.0, 0.002374602208192574
1308.0, 0.0019382599852503309
1309.0, 0.0032155489912142348
1310.0, 0.0029370720086334336
1311.0, 0.002238841563698274
1312.0, 0.002738184275176074
1313.0, 0.0027723545218799528
1314.0, 0.0016734960533372496
1315.0, 0.002451704431180158
1316.0, 0.004100587085735149
1317.0, 0.0025356779707831458
1318.0, 0.002093778384807603
1319.0, 0.0029348297793013378
1320.0, 0.0031040618074456147
1321.0, 0.0002587243072483224
1322.0, 0.0014382630536341784
1323.0, 0.002287107499104128
1324.0, 0.0014729184146796061
1325.0, 0.0012107750293425385
1326.0, 0.003258252058569945
1327.0, 0.0028861887287647144
1328.0, 0.0019101085982625914
1329.0, 0.0018391168980390789
1330.0, 0.0019396588649101443
1331.0, 0.0019147277390247285
1332.0, 0.001997211753660626
1333.0, 0.0030181595532870606
1334.0, 0.0010283971086514593
1335.0, 0.0015148370241661938
1336.0, 0.0020150519911002495
1337.0, 0.00169024247005128
1338.0, 0.0015916533216943877
1339.0, 0.004093937239146485
1340.0, 0.0011346406970223323
1341.0, 0.0009380294689562377
1342.0, 0.001522058266020376
1343.0, 0.0014929621443110948
1344.0, 0.0008977157939838915
1345.0, 0.0009701814062318466
1346.0, 0.0014884109010686734
1347.0, 0.001390567610152311
1348.0, 0.0017312909135377707
1349.0, 0.002202418016112324
1350.0, 0.0016820342818548001
1351.0, 0.0007930017350354166
1352.0, 0.0016682908072897114
1353.0, 0.0013147093817270678
1354.0, 0.0009002165311875379
1355.0, 0.0008063425246306363
1356.0, 0.0007177646247000154
1357.0, 0.001556986029108913
1358.0, 0.0012068575091599856
1359.0, 0.0013531915025226065
1360.0, 0.0009215070327132909
1361.0, 0.000559491882426453
1362.0, 0.0014586416349537243
1363.0, 0.0009115900602490391
1364.0, 0.0009348354052150443
1365.0, 0.001664429039594783
1366.0, 0.0015064350296113925
1367.0, 0.0009643137932466915
1368.0, 0.0014186225413150642
1369.0, 0.0014911036749340918
1370.0, 0.0009549814188405137
1371.0, 0.0012788184295160065
1372.0, 0.001030931364530746
1373.0, 0.0003630115509979182
1374.0, 0.000498634866993856
1375.0, 0.0022954579193293643
1376.0, 0.0015611169841870725
1377.0, 0.0016147644984681603
1378.0, 0.0010438720236011338
1379.0, 0.0002601322432654054
1380.0, 0.0005966136682415956
1381.0, 0.00264081925044617
1382.0, 0.001583865212415022
1383.0, 0.0005081834467854686
1384.0, 0.0017127807320186875
1385.0, 0.0025897294579593838
1386.0, 0.0009198213011468192
1387.0, 0.0003952605223686654
1388.0, 0.0029131446539750697
1389.0, 0.0013462811513718013
1390.0, 0.0005825695047260327
1391.0, 0.001013129485741847
1392.0, 0.0013919627016260032
1393.0, 0.001024163546243879
1394.0, 0.0011898505748672318
1395.0, 0.0021669866071535203
1396.0, 0.0013931417525893915
1397.0, 0.001677010124138903
1398.0, 0.0032996211839833502
1399.0, 0.001791640340400013
1400.0, 0.000696070982272296
1401.0, 0.0021687701598681096
1402.0, 0.00117967881887311
1403.0, 0.0008122743413315029
1404.0, 0.0020768893127817473
1405.0, 0.0022717254350071185
1406.0, 0.00018912007618178037
1407.0, 0.0023119056495790576
1408.0, 0.002700495775943945
1409.0, 0.0014555294088385005
1410.0, 0.001056406788853014
1411.0, 0.003187206376920927
1412.0, 0.002471136271442696
1413.0, 0.0018004212292772128
1414.0, 0.000621287138864844
1415.0, 0.0011759008416494159
1416.0, 0.0028139119024352135
1417.0, 0.0038245508849306356
1418.0, 0.0042052396035070485
1419.0, 0.0015836673962485502
1420.0, 0.002098944522018155
1421.0, 0.002158702171896566
1422.0, 0.0013563391945780757
1423.0, 0.0013902485446305245
1424.0, 0.004313950705055455
1425.0, 0.0019478492798388623
1426.0, 0.0013046098909007102
1427.0, 0.0027794683043290778
1428.0, 0.00251485603486285
1429.0, 0.002021968645665631
1430.0, 0.006513391439689079
1431.0, 0.004855441793219475
1432.0, 0.003949158708723818
1433.0, 0.004394001020028918
1434.0, 0.0036536172471815986
1435.0, 0.001847939895414923
1436.0, 0.0011387608028535904
1437.0, 0.0032462915178938173
1438.0, 0.0029566582679469177
1439.0, 0.0024636032697007266
1440.0, 0.003586186170887355
1441.0, 0.0033911830077352897
1442.0, 0.0012507620327324056
1443.0, 0.0030404384768548684
1444.0, 0.002920922462527822
1445.0, 0.001228550276661727
1446.0, 0.002210685910391469
1447.0, 0.003403127786050973
1448.0, 0.002573263693657326
1449.0, 0.0004846355568866188
1450.0, 0.0026811346160446592
1451.0, 0.0018482742426517468
1452.0, 0.0016831746342584662
1453.0, 0.0029795963450225736
1454.0, 0.0031824018392248295
1455.0, 0.0009460143304816769
1456.0, 0.0020804104843776643
1457.0, 0.003888737229875249
1458.0, 0.0014288795660642715
1459.0, 0.0025102056261241314
1460.0, 0.003902736099149726
1461.0, 0.0028578829357725115
1462.0, 0.002406400645037818
1463.0, 0.004618862064364008
1464.0, 0.0036532592575274393
1465.0, 0.0017940036104342183
1466.0, 0.003141989936440942
1467.0, 0.005136207992091179
1468.0, 0.003463412537262705
1469.0, 0.0038016769568129907
1470.0, 0.0037585331003442473
1471.0, 0.00231084512065379
1472.0, 0.0017835027371290088
1473.0, 0.0024714239344701175
1474.0, 0.002815682147880367
1475.0, 0.0010738335758501178
1476.0, 0.005494837951400482
1477.0, 0.004290093365953991
1478.0, 0.0032267932352298117
1479.0, 0.0034180134152021497
1480.0, 0.0035815918923735156
1481.0, 0.002705146216579841
1482.0, 0.004217363681828482
1483.0, 0.0040647601437809365
1484.0, 0.0035629420020944647
1485.0, 0.0030080339251287703
1486.0, 0.00374427542367924
1487.0, 0.004837092128795531
1488.0, 0.003146157524266109
1489.0, 0.005454491074425414
1490.0, 0.004014707488126426
1491.0, 0.00263652264934768
1492.0, 0.0030599623964471696
1493.0, 0.003992954152873867
1494.0, 0.0036762045446888407
1495.0, 0.003887861120401578
1496.0, 0.004800185575671076
1497.0, 0.003986309738747403
1498.0, 0.003960237143100109
1499.0, 0.004968749933466512
1500.0, 0.004842559380865032
1501.0, 0.001797276830015029
1502.0, 0.004670064746439816
1503.0, 0.004515582021966442
1504.0, 0.0030972829574468152
1505.0, 0.004268043296364699
1506.0, 0.005642819318738033
1507.0, 0.004204005198753039
1508.0, 0.0023165073856073583
1509.0, 0.005674750620933422
1510.0, 0.003356494083449012
1511.0, 0.0022940651958060646
1512.0, 0.003069324396887128
1513.0, 0.003180233611760051
1514.0, 0.0012735285774461685
1515.0, 0.003214900129509863
1516.0, 0.003924685203253631
1517.0, 0.0012540778900692812
1518.0, 0.00181364588504282
1519.0, 0.0026346250203327006
1520.0, 0.0013137636693943118
1521, 0.0
1522, 0.0
1523, 0.0
1524, 0.0
1525, 0.0
1526, 0.0
1527, 0.0
1528, 0.0
1529, 0.0
1530, 0.0
1531, 0.0
1532, 0.0
1533, 0.0
1534, 0.0
1535, 0.0
1536, 0.0
1537, 0.0
1538, 0.0
1539, 0.0
1540, 0.0
1541, 0.0
1542, 0.0
1543, 0.0
1544, 0.0
1545, 0.0
1546, 0.0
1547, 0.0
1548, 0.0
1549, 0.0
1550, 0.0
1551, 0.0
1552, 0.0
1553, 0.0
1554, 0.0
1555, 0.0
1556, 0.0
1557, 0.0
1558, 0.0
1559, 0.0
1560, 0.0
1561, 0.0
1562, 0.0
1563, 0.0
1564, 0.0
1565, 0.0
1566, 0.0
1567, 0.0
1568, 0.0
1569, 0.0
1570, 0.0
1571, 0.0
1572, 0.0
1573, 0.0
1574, 0.0
1575, 0.0
1576, 0.0
1577, 0.0
1578, 0.0
1579, 0.0
1580, 0.0
1581, 0.0
1582, 0.0
1583, 0.0
1584, 0.0
1585, 0.0
1586, 0.0
1587, 0.0
1588, 0.0
1589, 0.0
1590, 0.0
1591, 0.0
1592, 0.0
1593, 0.0
1594, 0.0
1595, 0.0
1596, 0.0
1597, 0.0
1598, 0.0
1599, 0.0
