30, 0.0
31, 0.0
32, 0.0
33, 0.0
34, 0.0
35, 0.0
36, 0.0
37, 0.0
38, 0.0
39, 0.0
40, 0.0
41, 0.0
42, 0.0
43, 0.0
44, 0.0
45, 0.0
46, 0.0
47, 0.0
48, 0.0
49, 0.0
50, 0.0
51, 0.0
52, 0.0
53, 0.0
54, 0.0
55, 0.0
56, 0.0
57, 0.0
58, 0.0
59, 0.0
60, 0.0
61, 0.0
62, 0.0
63, 0.0
64, 0.0
65, 0.0
66, 0.0
67, 0.0
68, 0.0
69, 0.0
70, 0.0
71, 0.0
72, 0.0
73, 0.0
74, 0.0
75, 0.0
76, 0.0
77, 0.0
78, 0.0
79, 0.0
80, 0.0
81, 0.0
82, 0.0
83, 0.0
84, 0.0
85, 0.0
86, 0.0
87, 0.0
88, 0.0
89, 0.0
90, 0.0
91, 0.0
92, 0.0
93, 0.0
94, 0.0
95, 0.0
96, 0.0
97, 0.0
98, 0.0
99, 0.0
100, 0.0
101, 0.0
102, 0.0
103, 0.0
104, 0.0
105, 0.0
106, 0.0
107, 0.0
108, 0.0
109, 0.0
110, 0.0
111, 0.0
112, 0.0
113, 0.0
114, 0.0
115, 0.0
116, 0.0
117, 0.0
118, 0.0
119, 0.0
120, 0.0
121, 0.0
122, 0.0
123, 0.0
124, 0.0
125, 0.0
126, 0.0
127, 0.0
128, 0.0
129, 0.0
130, 0.0
131, 0.0
132, 0.0
133, 0.0
134, 0.0
135, 0.0
136, 0.0
137, 0.0
138, 0.0
139, 0.0
140, 0.0
141, 0.0
142, 0.0
143, 0.0
144, 0.0
145, 0.0
146, 0.0
147, 0.0
148, 0.0
149.0, 6.356779540596158e-05
150.0, 0.0002692888161372304
151.0, 0.0005825267558984419
152.0, 0.0007845764576663265
153.0, 0.001177411191317904
154.0, 0.0033662967490332117
155.0, 0.002372726068847198
156.0, 0.0013091339222638405
157.0, 0.0019398466906996052
158.0, 0.000798038010880383
159.0, 0.004606644860507071
160.0, 0.010465560159017633
161.0, 0.01062227632123247
162.0, 0.011264306562501174
163.0, 0.014506951156118277
164.0, 0.020859403094618315
165.0, 0.021201983024318832
166.0, 0.025633352629411278
167.0, 0.02935345464777374
168.0, 0.025088884686276486
169.0, 0.028966074330819113
170.0, 0.030119390224401618
171.0, 0.028147068555542547
172.0, 0.033086567966282066
173.0, 0.03641179430542823
174.0, 0.03834037352025381
175.0, 0.03873723730446043
176.0, 0.03785924024979467
177.0, 0.03895118255485011
178.0, 0.041939962765404376
179.0, 0.04644887660397328
180.0, 0.048578369314008996
181.0, 0.052180380098049164
182.0, 0.05856154345798831
183.0, 0.05907877188256344
184.0, 0.059860680523133085
185.0, 0.06055379339281161
186.0, 0.06058301675321345
187.0, 0.05675843022229323
188.0, 0.050289938625919774
189.0, 0.04265394050175543
190.0, 0.042815672173949514
191.0, 0.03764169580506533
192.0, 0.030928384687166577
193.0, 0.025050937336524744
194.0, 0.02074636559005211
195.0, 0.01637740765489131
196.0, 0.012346812317404436
197.0, 0.010006518685715796
198.0, 0.006743290839615994
199.0, 0.003338681030954138
200.0, 0.000267215467681082
201.0, 0.0014078345203572828
202.0, 0.004002653692920806
203.0, 0.005110897914795268
204.0, 0.0010258139548040088
205.0, 0.006114399226502821
206.0, 0.012544977592221777
207.0, 0.018974913426621613
208.0, 0.023046709006923852
209.0, 0.02563346460519191
210.0, 0.02810639866438703
211.0, 0.03117893291357991
212.0, 0.0412699398326357
213.0, 0.050169213896108136
214.0, 0.05881338252127165
215.0, 0.06865601399801018
216.0, 0.07345862000586299
217.0, 0.0817672850563242
218.0, 0.0925720374868071
219.0, 0.09189115775167762
220.0, 0.10265969047953703
221.0, 0.1079364208832218
222.0, 0.09719091229681873
223.0, 0.09818401786724856
224.0, 0.09415614682144867
225.0, 0.08598864262658043
226.0, 0.07482065925580902
227.0, 0.0662919314180404
228.0, 0.05895692293863289
229.0, 0.05264776358421887
230.0, 0.048061168326975545
231.0, 0.041871671219221925
232.0, 0.035646091092706354
233.0, 0.030407136591580435
234.0, 0.0356450629514793
235.0, 0.03699312115223218
236.0, 0.03505257415851519
237.0, 0.030999138318595503
238.0, 0.03304391105050774
239.0, 0.03465850271917074
240.0, 0.03389589025931215
241.0, 0.02635310656988405
242.0, 0.028689781554524552
243.0, 0.030509844935126592
244.0, 0.02498203345611407
245.0, 0.026124457188950075
246.0, 0.0266901299270761
247.0, 0.02782784099452255
248.0, 0.03214244154210626
249.0, 0.03272950110507424
250.0, 0.036230439464721716
251.0, 0.043288921978380135
252.0, 0.050113200516693567
253.0, 0.04970805303441394
254.0, 0.050075551305358866
255.0, 0.05573886041943347
256.0, 0.054310133870282475
257.0, 0.04932154912188369
258.0, 0.04260148709074136
259.0, 0.03682273874635425
260.0, 0.03562824028167401
261.0, 0.03157654100737222
262.0, 0.023986433073359306
263.0, 0.014293396038038916
264.0, 0.012310081301813264
265.0, 0.010264325375570534
266.0, 0.005191981665195697
267.0, 0.006602817819522158
268.0, 0.006279545862770371
269.0, 0.004570091467996579
270.0, 0.001625493225234426
271.0, 0.004577063600885204
272.0, 0.005883165009605056
273.0, 0.005845752524519872
274.0, 0.007093484555589639
275.0, 0.010189293421432072
276.0, 0.01337074262296957
277.0, 0.01625551136661478
278.0, 0.020018817227773888
279.0, 0.024833354227888425
280.0, 0.029383087161741532
281.0, 0.03267047340066747
282.0, 0.03760861512509766
283.0, 0.04119406971068053
284.0, 0.04539158151171334
285.0, 0.054070174935919355
286.0, 0.05544146237421745
287.0, 0.057642513263065284
288.0, 0.061104110961304484
289.0, 0.06193329901873442
290.0, 0.060691650114583544
291.0, 0.05970766509547139
292.0, 0.059849881644385115
293.0, 0.05911908156117647
294.0, 0.05613440117052838
295.0, 0.05140395658317057
296.0, 0.04516955262330154
297.0, 0.04032750126751132
298.0, 0.035811606067784364
299.0, 0.031974567561407395
300.0, 0.029853257202508702
301.0, 0.027008703277057067
302.0, 0.02433203239627272
303.0, 0.022295989589092735
304.0, 0.0225640983124376
305.0, 0.02092811514390881
306.0, 0.019759406451752365
307.0, 0.02034986470960517
308.0, 0.026240688681348084
309.0, 0.026933229933083894
310.0, 0.0256299414795226
311.0, 0.025325984610600087
312.0, 0.03857100213386802
313.0, 0.04379844796946998
314.0, 0.045561083421874045
315.0, 0.05589616270371871
316.0, 0.05997727931366159
317.0, 0.06593731099017743
318.0, 0.07496791719143756
319.0, 0.08571343292343651
320.0, 0.09004229373375666
321.0, 0.09606860980299674
322.0, 0.10683376145453415
323.0, 0.11726325668997625
324.0, 0.12250613042493726
325.0, 0.12631474605750354
326.0, 0.13163361608820243
327.0, 0.13922205488475267
328.0, 0.14144079178737717
329.0, 0.14051576768257956
330.0, 0.14008832244557526
331.0, 0.14358897612150695
332.0, 0.14127177363696722
333.0, 0.1345569035385236
334.0, 0.13178527592372444
335.0, 0.12242627612707337
336.0, 0.11476761829263318
337.0, 0.11071860102223177
338.0, 0.10707307756040392
339.0, 0.09909907049682046
340.0, 0.09229215431025793
341.0, 0.08943960825297408
342.0, 0.0835862607375925
343.0, 0.08706428419013627
344.0, 0.09216304674811246
345.0, 0.09121755331193118
346.0, 0.08685674567055598
347.0, 0.08694977778271541
348.0, 0.08792251785083903
349.0, 0.08255748541504676
350.0, 0.08315950017901193
351.0, 0.08902083481559894
352.0, 0.09638597124912782
353.0, 0.09282664687692636
354.0, 0.09405453078969699
355.0, 0.09441282141755662
356.0, 0.09306381045790513
357.0, 0.09487374506462186
358.0, 0.09973737744417477
359.0, 0.10195056769648901
360.0, 0.09944320218166247
361.0, 0.1075059346934017
362.0, 0.11246460135003514
363.0, 0.11485184280669235
364.0, 0.11489835420174394
365.0, 0.1259517204535936
366.0, 0.13430857311653144
367.0, 0.1395366945797552
368.0, 0.140924284663839
369.0, 0.14479798498778876
370.0, 0.150403105621833
371.0, 0.15515428007213505
372.0, 0.15297656653990924
373.0, 0.15196555144329496
374.0, 0.14927524789706118
375.0, 0.1445705737448253
376.0, 0.13838000284841667
377.0, 0.13109916327938753
378.0, 0.12170804224461577
379.0, 0.11080657845190209
380.0, 0.1050601139347607
381.0, 0.09489692728251167
382.0, 0.08517756883956934
383.0, 0.07819816049890527
384.0, 0.07289619219751933
385.0, 0.0676015016304054
386.0, 0.06350449014364262
387.0, 0.06154636243510093
388.0, 0.05914769221319144
389.0, 0.05954843532271937
390.0, 0.061260139082988656
391.0, 0.06266414056741337
392.0, 0.06535631408454194
393.0, 0.07028808402611846
394.0, 0.07602585666316886
395.0, 0.08011386289629191
396.0, 0.08910763210750788
397.0, 0.09351212300698883
398.0, 0.09614993961348099
399.0, 0.10650643758236532
400.0, 0.11648105117851121
401.0, 0.12382909691183597
402.0, 0.131140551676712
403.0, 0.14956557314853472
404.0, 0.15837303247070308
405.0, 0.1677285594689531
406.0, 0.17822863774687983
407.0, 0.17784458161089053
408.0, 0.185199943282063
409.0, 0.196834406354225
410.0, 0.20974502455143046
411.0, 0.20801575684355547
412.0, 0.2156535088566211
413.0, 0.21587423212374057
414.0, 0.20118828176681425
415.0, 0.2025966381173634
416.0, 0.19604923201340188
417.0, 0.18510327511009692
418.0, 0.1721857660444249
419.0, 0.16103547845750402
420.0, 0.14716038662946443
421.0, 0.13167326442352198
422.0, 0.11557687346380609
423.0, 0.10390559968889351
424.0, 0.09287321959848874
425.0, 0.0820257369615164
426.0, 0.07085709260399267
427.0, 0.06483950465784147
428.0, 0.057936515610414546
429.0, 0.049761450266091474
430.0, 0.04007364303223698
431.0, 0.030586634012468764
432.0, 0.024594592447085523
433.0, 0.020632994988683356
434.0, 0.015221882404513627
435.0, 0.015849686984532464
436.0, 0.012440651355479627
437.0, 0.007463348957460449
438.0, 0.010578019282300084
439.0, 0.007647089782481822
440.0, 0.005936750657857352
441.0, 0.00657689163336466
442.0, 0.009329898356989542
443.0, 0.006621038703619675
444.0, 0.005340199136189513
445.0, 0.006632692473261652
446.0, 0.00916059989368315
447.0, 0.011576089688784947
448.0, 0.01489055783268001
449.0, 0.01799334241694575
450.0, 0.014306752615717042
451.0, 0.014876187359633988
452.0, 0.014555088914929019
453.0, 0.012941503869168943
454.0, 0.017088647287520013
455.0, 0.019845359286613826
456.0, 0.019302133234257116
457.0, 0.015524018205071441
458.0, 0.014261759346465282
459.0, 0.014256677264536678
460.0, 0.013906987243235155
461.0, 0.013000245015218214
462.0, 0.015343834356294307
463.0, 0.01325384839798579
464.0, 0.011154963433198712
465.0, 0.010901553451231151
466.0, 0.01040020652457865
467.0, 0.012469852992913352
468.0, 0.011611600736880234
469.0, 0.006076054794040059
470.0, 0.008957887071270015
471.0, 0.005385048189938794
472.0, 0.002253889220976432
473.0, 0.00304501683136521
474.0, 0.0030591492147634017
475.0, 0.0020422099059575548
476.0, 0.0018202910360722929
477.0, 0.0035974721775467
478.0, 0.008719576750302572
479.0, 0.007275497241688699
480.0, 0.006520974579831535
481.0, 0.010623910067099743
482.0, 0.014135352341502426
483.0, 0.01071480307924535
484.0, 0.007871142352810749
485.0, 0.010016125324852335
486.0, 0.011012120734438365
487.0, 0.007082388152523509
488.0, 0.004380861811777803
489.0, 0.0062773650656373775
490.0, 0.0024900509328736418
491.0, 0.0009794662191111255
492.0, 0.0005500194520869417
493.0, 0.0008161705398987652
494.0, 0.007276126892719691
495.0, 0.013470931530092049
496.0, 0.016734216346332216
497.0, 0.015674070192288194
498.0, 0.015657935916581312
499.0, 0.023109953634737185
500.0, 0.03209095432566231
501.0, 0.03888407375253315
502.0, 0.0415243845225657
503.0, 0.05248030371118538
504.0, 0.0614747318682801
505.0, 0.06349929817080523
506.0, 0.06992810793802873
507.0, 0.07544920626788472
508.0, 0.07857792448402942
509.0, 0.07928849700326085
510.0, 0.08591990789102663
511.0, 0.08830098783312781
512.0, 0.09112810301198979
513.0, 0.09575475131427397
514.0, 0.09353176974068239
515.0, 0.0946440114918309
516.0, 0.09448218713140309
517.0, 0.09135877720196964
518.0, 0.08833322375267856
519.0, 0.09285478553811101
520.0, 0.09303448002434593
521.0, 0.0855446740648677
522.0, 0.07963899861378976
523.0, 0.08152732328142101
524.0, 0.0803307579896997
525.0, 0.07424832234039402
526.0, 0.07387143328692385
527.0, 0.07086870974011363
528.0, 0.07083974342301115
529.0, 0.07343014570227237
530.0, 0.06986121572529153
531.0, 0.07011757095743759
532.0, 0.06908804692631683
533.0, 0.06838025060783076
534.0, 0.07823139756877419
535.0, 0.07115451994109473
536.0, 0.07215951887100926
537.0, 0.07979598439700987
538.0, 0.07525684882145793
539.0, 0.08030587332377834
540.0, 0.08139754435858648
541.0, 0.08004835094658254
542.0, 0.08487677146003847
543.0, 0.08179844156650914
544.0, 0.08012511511114072
545.0, 0.08352901365479407
546.0, 0.09696465580564065
547.0, 0.09354039640685623
548.0, 0.09414943638619575
549.0, 0.09620274483036179
550.0, 0.09336582222101217
551.0, 0.09271527111033678
552.0, 0.09302495511739196
553.0, 0.09353999928196824
554.0, 0.09342920331275661
555.0, 0.08429911584817695
556.0, 0.08789686721147497
557.0, 0.08984111605286763
558.0, 0.0773337137738086
559.0, 0.07912946426168754
560.0, 0.0790254526412552
561.0, 0.07625395786502451
562.0, 0.07078845954484594
563.0, 0.07020368533419347
564.0, 0.06863577466518818
565.0, 0.06800823969658316
566.0, 0.0690405975377302
567.0, 0.06904215129265197
568.0, 0.06202872705303027
569.0, 0.06017681529021608
570.0, 0.06507053243962152
571.0, 0.059535326229481926
572.0, 0.06080992677860469
573.0, 0.061170349547629725
574.0, 0.05870635073633476
575.0, 0.05444030085513327
576.0, 0.062457676164169584
577.0, 0.06132723153003479
578.0, 0.05409553394301225
579.0, 0.058377818701948095
580.0, 0.059219754685801373
581.0, 0.0633201298848544
582.0, 0.06817396607843555
583.0, 0.06810123127748814
584.0, 0.07420697759897087
585.0, 0.07486430174175634
586.0, 0.07452857053158393
587.0, 0.07930401327816831
588.0, 0.08307157052926342
589.0, 0.08664839826153271
590.0, 0.09163859856335495
591.0, 0.09914265638197535
592.0, 0.1044627946305464
593.0, 0.10977823246353796
594.0, 0.11338107315550051
595.0, 0.11503026657246206
596.0, 0.12080208829409923
597.0, 0.12729084637310728
598.0, 0.1367693986440936
599.0, 0.14738636706321684
600.0, 0.14673378582585125
601.0, 0.1579961386021382
602.0, 0.16412345448635887
603.0, 0.16489837302552465
604.0, 0.17112501561741444
605.0, 0.17858096423832373
606.0, 0.18298626693182626
607.0, 0.1851985217276658
608.0, 0.18774628750025177
609.0, 0.18898168886325867
610.0, 0.19308256987324746
611.0, 0.19585416034414077
612.0, 0.19246364027791554
613.0, 0.19224853839364212
614.0, 0.1949222219664107
615.0, 0.19582321778857964
616.0, 0.19246994860636982
617.0, 0.19592689169005092
618.0, 0.18817114737543528
619.0, 0.18187798037799893
620.0, 0.18019320301879396
621.0, 0.16939133634941908
622.0, 0.16086147996994762
623.0, 0.15660092850493507
624.0, 0.15432191683629537
625.0, 0.145806909021647
626.0, 0.13892739463011716
627.0, 0.13492579633804294
628.0, 0.13085141060042677
629.0, 0.12140361088739259
630.0, 0.11283920717811259
631.0, 0.1034102069172851
632.0, 0.09735897521478519
633.0, 0.09857389981744581
634.0, 0.09371063714464263
635.0, 0.09036735968580233
636.0, 0.08766957853277489
637.0, 0.08474619861668388
638.0, 0.0791457224111104
639.0, 0.07260368445558649
640.0, 0.06697366789368775
641.0, 0.06212915129401844
642.0, 0.05522792618515018
643.0, 0.051116945807481357
644.0, 0.04757017967893595
645.0, 0.043760831672798546
646.0, 0.03884442995182996
647.0, 0.036977901124714316
648.0, 0.028366388388686156
649.0, 0.021217349463658632
650.0, 0.02458052710828748
651.0, 0.012395201861591926
652.0, 0.011904252560496192
653.0, 0.010586927083836262
654.0, 0.0026243159717480543
655.0, 0.00460215598946896
656.0, 0.00581057554818145
657.0, 0.010917801052649452
658.0, 0.018251879960078862
659.0, 0.01683396040773537
660.0, 0.02304025645955091
661.0, 0.028367478628487257
662.0, 0.03061527956936889
663.0, 0.02835927364690165
664.0, 0.029198522734170115
665.0, 0.03404053137014298
666.0, 0.03649327448195464
667.0, 0.031561554047085556
668.0, 0.03584420249330644
669.0, 0.034769706171871216
670.0, 0.034398000375443515
671.0, 0.036375913079083805
672.0, 0.033687707334508564
673.0, 0.0296750360867665
674.0, 0.02598923203775739
675.0, 0.021438023742266818
676.0, 0.012344872797014274
677.0, 0.004758081517320749
678.0, 0.0022282414133475035
679.0, 0.0050601727966650975
680.0, 0.012822881443543122
681.0, 0.015148021561582485
682.0, 0.028490925232304405
683.0, 0.043259093877703055
684.0, 0.05382456354992538
685.0, 0.06259591016626599
686.0, 0.08914949416716379
687.0, 0.11469828460928512
688.0, 0.13572312557371827
689.0, 0.157476877515691
690.0, 0.19026070775270004
691.0, 0.21556237554272845
692.0, 0.23721973089010026
693.0, 0.26256380058163964
694.0, 0.2773743049850169
695.0, 0.2815979351777259
696.0, 0.27560503706192074
697.0, 0.25975241338814137
698.0, 0.23278130918833156
699.0, 0.20429657113858393
700.0, 0.18145887046857648
701.0, 0.1632290142957368
702.0, 0.14135020861268352
703.0, 0.11562802933325766
704.0, 0.09187608984988534
705.0, 0.07283589463088948
706.0, 0.061008239688540467
707.0, 0.060508977800466685
708.0, 0.05527611594200016
709.0, 0.047468935096009746
710.0, 0.039120443540069855
711.0, 0.03415769436812096
712.0, 0.040535250053969435
713.0, 0.04399924950258962
714.0, 0.04269960284617136
715.0, 0.04034336088422698
716.0, 0.05689968734575751
717.0, 0.06670332507509058
718.0, 0.07488871931001141
719.0, 0.08765462382812182
720.0, 0.0964775563969136
721.0, 0.11381984065871101
722.0, 0.1327294488348357
723.0, 0.14951724146489115
724.0, 0.16206943992350703
725.0, 0.18851540744525164
726.0, 0.21501819467300812
727.0, 0.2386834957349138
728.0, 0.25870731275485864
729.0, 0.29539689128606295
730.0, 0.31721547602093697
731.0, 0.3480617729267313
732.0, 0.3983954924776226
733.0, 0.42263822561000297
734.0, 0.44534132069064214
735.0, 0.48482389997966363
736.0, 0.5354483682418945
737.0, 0.5713861890251254
738.0, 0.6016040820475738
739.0, 0.6401913189379319
740.0, 0.6827567757339306
741.0, 0.7233504232859815
742.0, 0.7564924571911107
743.0, 0.7993296152308325
744.0, 0.8315011634642735
745.0, 0.8534726093292904
746.0, 0.8959569816547451
747.0, 0.9196748497881035
748.0, 0.9420137673979321
749.0, 0.9672501403625112
750.0, 0.9970300673410485
751.0, 0.9993704398067313
752.0, 0.9969278380809256
753.0, 0.9865393176153217
754.0, 0.9688232888068579
755.0, 0.9539943963688038
756.0, 0.9385486560382984
757.0, 0.9123955661520895
758.0, 0.8795808482530135
759.0, 0.8501132653828695
760.0, 0.8192549324033955
761.0, 0.7742402523897844
762.0, 0.7292565160056559
763.0, 0.693767230476968
764.0, 0.6652213649014251
765.0, 0.6217811877911936
766.0, 0.5834123146882554
767.0, 0.5570935018994924
768.0, 0.546350942837572
769.0, 0.5096363515652396
770.0, 0.48277792722955026
771.0, 0.4691798827555094
772.0, 0.46683878584371463
773.0, 0.4528194168875641
774.0, 0.4534637453037835
775.0, 0.45021499053049135
776.0, 0.4427659517606365
777.0, 0.44094315033662906
778.0, 0.4427419648983575
779.0, 0.4383283616293155
780.0, 0.4328858468523787
781.0, 0.4302497431967134
782.0, 0.4250156387989299
783.0, 0.41967853448230824
784.0, 0.4127103487582353
785.0, 0.4048149760191817
786.0, 0.3983320945314332
787.0, 0.38868312511748615
788.0, 0.3766894150626
789.0, 0.3645719035882876
790.0, 0.3547069184096362
791.0, 0.3515285371829912
792.0, 0.3382546279238112
793.0, 0.3251685221708991
794.0, 0.3180362160488807
795.0, 0.32240038742892635
796.0, 0.3042871129781462
797.0, 0.29084628315186206
798.0, 0.28702970506832154
799.0, 0.2915065613009835
800.0, 0.2803883666604349
801.0, 0.27126054071717665
802.0, 0.2590695588013728
803.0, 0.24865863142094705
804.0, 0.24978616814048835
805.0, 0.23825344872317963
806.0, 0.23441810110621264
807.0, 0.23122168381659244
808.0, 0.22406038781496235
809.0, 0.21256440793628312
810.0, 0.20958128963981673
811.0, 0.20616067760978043
812.0, 0.19846519583000163
813.0, 0.18457625279198944
814.0, 0.19503074383294206
815.0, 0.1914054358852601
816.0, 0.18932075698873965
817.0, 0.19051060318871868
818.0, 0.17498997104893915
819.0, 0.1739752013520492
820.0, 0.17297753054439735
821.0, 0.16894463807459792
822.0, 0.16116027858141035
823.0, 0.15752080472812663
824.0, 0.15329248648355567
825.0, 0.14713328312292404
826.0, 0.1412036923009198
827.0, 0.14156477685546695
828.0, 0.13454116043782582
829.0, 0.13403000177546887
830.0, 0.1336405068611447
831.0, 0.1284499922075691
832.0, 0.12287046729449039
833.0, 0.12782416055952545
834.0, 0.12776737856908976
835.0, 0.12486510176468632
836.0, 0.1279490663515526
837.0, 0.12684196175405657
838.0, 0.13130623812511963
839.0, 0.13450951273607342
840.0, 0.13388736002146506
841.0, 0.13326905695994798
842.0, 0.13908883715021142
843.0, 0.14199281041339828
844.0, 0.1458367653077031
845.0, 0.15418095459773581
846.0, 0.15121986545675714
847.0, 0.16197362980673524
848.0, 0.16903139738924897
849.0, 0.17240026635892666
850.0, 0.18317476642317063
851.0, 0.18746609164528352
852.0, 0.19463531528845854
853.0, 0.20306309307328652
854.0, 0.21164735861154196
855.0, 0.22103045144003178
856.0, 0.23376660700316051
857.0, 0.24435064910796891
858.0, 0.2535986911021003
859.0, 0.2632594060425159
860.0, 0.26971227566167666
861.0, 0.27072961983610305
862.0, 0.27712660660072824
863.0, 0.2853381749211696
864.0, 0.27959746004881025
865.0, 0.28908901317897717
866.0, 0.295350140763241
867.0, 0.2978173324029912
868.0, 0.2990964350294284
869.0, 0.3099745474288012
870.0, 0.29146309703109297
871.0, 0.29244833279256327
872.0, 0.299790817183299
873.0, 0.292088766383787
874.0, 0.29540212376581315
875.0, 0.29339733239475213
876.0, 0.28554131522502346
877.0, 0.28046163840787025
878.0, 0.29471730599091617
879.0, 0.2784131014508235
880.0, 0.2737732906801449
881.0, 0.26908961470928355
882.0, 0.26251117613533004
883.0, 0.2734705263007285
884.0, 0.2649473420111452
885.0, 0.26154307604029464
886.0, 0.25780111998243105
887.0, 0.24864039171912716
888.0, 0.25439517241818027
889.0, 0.2529971883382435
890.0, 0.24992784550271896
891.0, 0.24594393662615072
892.0, 0.2402369858150329
893.0, 0.23268523049475695
894.0, 0.2302300414289768
895.0, 0.22935127182822523
896.0, 0.22749449808150105
897.0, 0.2223378265052476
898.0, 0.23230014662986379
899.0, 0.22698029479776494
900.0, 0.21917618217210372
901.0, 0.22037425747600695
902.0, 0.23713755838976722
903.0, 0.2296094803018961
904.0, 0.22942452404060254
905.0, 0.2328316297713624
906.0, 0.23330007274063752
907.0, 0.24580741001439577
908.0, 0.25634302268675735
909.0, 0.26675357963192664
910.0, 0.277511347537327
911.0, 0.2883620724589995
912.0, 0.2932906148612434
913.0, 0.30520855238566236
914.0, 0.31652275614926284
915.0, 0.32421211397088306
916.0, 0.3286587800761557
917.0, 0.3569378375163994
918.0, 0.37106347378594595
919.0, 0.38602988531177246
920.0, 0.4058042042493608
921.0, 0.41133278860221045
922.0, 0.4247725070750553
923.0, 0.44070084618852906
924.0, 0.4530566749885737
925.0, 0.45810897221729724
926.0, 0.45997341728842206
927.0, 0.48081548270359387
928.0, 0.48587709841119103
929.0, 0.47819286591500754
930.0, 0.4703635671072099
931.0, 0.48040698272159243
932.0, 0.4776252149290432
933.0, 0.4753675504019005
934.0, 0.4780929880494848
935.0, 0.4858110808072232
936.0, 0.47625981853173266
937.0, 0.482333985064345
938.0, 0.48353511207313443
939.0, 0.4775150437303848
940.0, 0.4750733081222522
941.0, 0.4723150971827878
942.0, 0.4701281877397089
943.0, 0.4765855279945703
944.0, 0.48851638147355364
945.0, 0.48749808444541054
946.0, 0.49197029073766657
947.0, 0.50088860363757
948.0, 0.5058748401438637
949.0, 0.5053273247358679
950.0, 0.5121607615495279
951.0, 0.5084893009867161
952.0, 0.5054653289050982
953.0, 0.5051005195016511
954.0, 0.5070947272903579
955.0, 0.5067796418339828
956.0, 0.5071128108747296
957.0, 0.5108073029319676
958.0, 0.5125723831205007
959.0, 0.5081481144060794
960.0, 0.504387163692289
961.0, 0.48408928999113704
962.0, 0.4836422250489151
963.0, 0.48693864953275573
964.0, 0.4700335310101522
965.0, 0.4516323151259913
966.0, 0.4485176181122438
967.0, 0.4299136383983734
968.0, 0.4066772971837656
969.0, 0.4005118209762815
970.0, 0.3845171000373664
971.0, 0.3697152444334775
972.0, 0.35357204673630216
973.0, 0.33849568771681615
974.0, 0.328678428490735
975.0, 0.3170527688042367
976.0, 0.3050591877889763
977.0, 0.29792039814907484
978.0, 0.29214616465944265
979.0, 0.2795384003513927
980.0, 0.2743044109390596
981.0, 0.26633567699866134
982.0, 0.2640115221108151
983.0, 0.26122976774726
984.0, 0.24179838052921132
985.0, 0.2342927135750623
986.0, 0.22944384142630941
987.0, 0.2200960816535301
988.0, 0.2100440802058551
989.0, 0.21229851373359515
990.0, 0.19930701869654022
991.0, 0.18925437597590958
992.0, 0.1840204547252969
993.0, 0.17848867031415322
994.0, 0.16067205259907158
995.0, 0.16039226721153715
996.0, 0.15317175315081602
997.0, 0.1454973070799676
998.0, 0.14223290116415016
999.0, 0.14663999362976596
1000.0, 0.14141365364600006
1001.0, 0.13971950303393768
1002.0, 0.13860762093208606
1003.0, 0.13550440619651846
1004.0, 0.12829343618518207
1005.0, 0.13404900451699056
1006.0, 0.13559147552506146
1007.0, 0.13396647812178575
1008.0, 0.13241560413547632
1009.0, 0.13643036354229385
1010.0, 0.1336796847504201
1011.0, 0.14488082383655823
1012.0, 0.14936898778660782
1013.0, 0.14514956816113403
1014.0, 0.14955454129724566
1015.0, 0.1457874941269524
1016.0, 0.1463699967065134
1017.0, 0.15226827575433055
1018.0, 0.15839622089817462
1019.0, 0.1541257194884155
1020.0, 0.15373231981536303
1021.0, 0.15808006105392633
1022.0, 0.1582258680103853
1023.0, 0.1546522663758593
1024.0, 0.15564071537334156
1025.0, 0.15666121111029174
1026.0, 0.1584379858310012
1027.0, 0.15940970209200114
1028.0, 0.16013933659508434
1029.0, 0.16228605538973692
1030.0, 0.15554434197850484
1031.0, 0.1629248677741575
1032.0, 0.162260039607023
1033.0, 0.15756273883887398
1034.0, 0.16640059086695166
1035.0, 0.16787337434513253
1036.0, 0.17483257604962446
1037.0, 0.18474365990367722
1038.0, 0.19716241461922443
1039.0, 0.2119363150092729
1040.0, 0.2231273531209019
1041.0, 0.2427511877756013
1042.0, 0.25873845355352
1043.0, 0.2707343202880851
1044.0, 0.2814008493787132
1045.0, 0.28288803791315503
1046.0, 0.28272315157657746
1047.0, 0.2704310475639002
1048.0, 0.2541242041151928
1049.0, 0.2424482660097323
1050.0, 0.22013189909492725
1051.0, 0.20081576900937664
1052.0, 0.17352854246349073
1053.0, 0.15055939516438538
1054.0, 0.13983006259183078
1055.0, 0.12090568087111009
1056.0, 0.09267020950352743
1057.0, 0.08504821410417583
1058.0, 0.07775174635488276
1059.0, 0.06023907495139326
1060.0, 0.057334031224142594
1061.0, 0.04382741200963419
1062.0, 0.03358889038242675
1063.0, 0.02745423185013616
1064.0, 0.022289490484418653
1065.0, 0.010574627627941494
1066.0, 0.007663465109954333
1067.0, 0.006777470194625538
1068.0, 0.004888715168593026
1069.0, 0.0028931331007552245
1070.0, 0.005031732130315429
1071.0, 0.003430052245452541
1072.0, 0.00912059546560295
1073.0, 0.009187956911456786
1074.0, 0.005574259784728592
1075.0, 0.007980002396540054
1076.0, 0.011028929416713119
1077.0, 0.009393577508899648
1078.0, 0.012678131598490218
1079.0, 0.014583457095659854
1080.0, 0.00789755266140061
1081.0, 0.011703998789746803
1082.0, 0.011487439302208725
1083.0, 0.012250198719595269
1084.0, 0.014155708464623993
1085.0, 0.01573155210200818
1086.0, 0.013559170866172865
1087.0, 0.013035181785440735
1088.0, 0.013327306962088153
1089.0, 0.011215550087287134
1090.0, 0.006318585146405395
1091.0, 0.0030659138522636854
1092.0, 0.008243704948282882
1093.0, 0.011183868802593894
1094.0, 0.011813407093192282
1095.0, 0.010214049494014188
1096.0, 0.006997539731638738
1097.0, 0.015346187962294273
1098.0, 0.015047900248945199
1099.0, 0.011264438621090708
1100.0, 0.00968732765700404
1101.0, 0.013902228623277637
1102.0, 0.011928494375200646
1103.0, 0.006953183257662205
1104.0, 0.007342331721845184
1105.0, 0.008859825712964805
1106.0, 0.0071431415911067
1107.0, 0.006622581105507973
1108.0, 0.01055646291055871
1109.0, 0.006907936095281794
1110.0, 0.0032789887879666716
1111.0, 0.003127839135581546
1112.0, 0.001041364428436143
1113.0, 0.006396853601785605
1114.0, 0.010951434803517063
1115.0, 0.015464143437404331
1116.0, 0.019306618757733006
1117.0, 0.02159905452378311
1118.0, 0.030381034022809176
1119.0, 0.028646751221805607
1120.0, 0.027782790987618107
1121.0, 0.025435026914158516
1122.0, 0.019160315299610278
1123.0, 0.024432754356013168
1124.0, 0.01535990241766249
1125.0, 0.012866182566733622
1126.0, 0.009351576405991588
1127.0, 0.002390862182400193
1128.0, 0.0045454592628498295
1129.0, 0.001979154383211128
1130.0, 0.0015588175680243306
1131.0, 0.0030194204104540905
1132.0, 0.00413257804726721
1133.0, 0.0019583000986548712
1134.0, 0.0003331794522546911
1135.0, 0.005333224943330248
1136.0, 0.005069377287380872
1137.0, 0.004869756679473874
1138.0, 0.010355000220519849
1139.0, 0.008222959625455308
1140.0, 0.004462790853530278
1141.0, 0.007799026455357256
1142.0, 0.008423288549558716
1143.0, 0.004510414582116849
1144.0, 0.007922043368342888
1145.0, 0.012705676381503325
1146.0, 0.010986143305328044
1147.0, 0.011126791398574799
1148.0, 0.013798881571870274
1149.0, 0.014683452550651885
1150.0, 0.00746906878176154
1151.0, 0.012484606850429448
1152.0, 0.013961362821285725
1153.0, 0.01254420110032572
1154.0, 0.012403385450260518
1155.0, 0.017430994047080744
1156.0, 0.009744832107312114
1157.0, 0.008812734817501052
1158.0, 0.01511634440360292
1159.0, 0.019232717507351487
1160.0, 0.008200583456744702
1161.0, 0.013209447632862935
1162.0, 0.012233233014846493
1163.0, 0.012044124780345876
1164.0, 0.013765132125678741
1165.0, 0.016219943658796983
1166.0, 0.016877727017343153
1167.0, 0.013893038556997094
1168.0, 0.01789392636961967
1169.0, 0.018364353180996513
1170.0, 0.016434112923181064
1171.0, 0.02527240889350476
1172.0, 0.019145905746178176
1173.0, 0.017284728707995488
1174.0, 0.0179555422140692
1175.0, 0.01918197543109949
1176.0, 0.019888435151934853
1177.0, 0.022541478786219673
1178.0, 0.02605854111399303
1179.0, 0.023430784294330965
1180.0, 0.02097874925515308
1181.0, 0.02292312122330239
1182.0, 0.0286102647862429
1183.0, 0.025023904638916437
1184.0, 0.024155591593846202
1185.0, 0.024156934406420975
1186.0, 0.02410424980037008
1187.0, 0.02415660343659819
1188.0, 0.026906230906428436
1189.0, 0.022614417119978483
1190.0, 0.026967576411401763
1191.0, 0.029085851032497324
1192.0, 0.02580574122669916
1193.0, 0.024453092499302075
1194.0, 0.025845448693809857
1195.0, 0.028259866276786137
1196.0, 0.028711030129380574
1197.0, 0.029426324681490867
1198.0, 0.030983131500931994
1199.0, 0.02456190470043491
1200.0, 0.032913686469354275
1201.0, 0.03225345682144646
1202.0, 0.030073982410448282
1203.0, 0.030714472341322685
1204.0, 0.03341919524134147
1205.0, 0.033150072822639556
1206.0, 0.0319836685256178
1207.0, 0.034877888078259596
1208.0, 0.03446268141470569
1209.0, 0.02936944662410161
1210.0, 0.035366826469332605
1211.0, 0.03445471362799868
1212.0, 0.033092252021686794
1213.0, 0.03231825103737329
1214.0, 0.03335627839921908
1215.0, 0.036537280992549444
1216.0, 0.037602759286664886
1217.0, 0.034721775758201456
1218.0, 0.030809807409819513
1219.0, 0.03140635824817808
1220.0, 0.03547553788866072
1221.0, 0.034385336466536374
1222.0, 0.03633923123606404
1223.0, 0.038309684100425644
1224.0, 0.03620285156566036
1225.0, 0.03279035287794563
1226.0, 0.031917455168273656
1227.0, 0.033616407754049914
1228.0, 0.03202169617974641
1229.0, 0.0330664135586765
1230.0, 0.0344006452210159
1231.0, 0.033161591624553746
1232.0, 0.02880592672668173
1233.0, 0.03391617531925812
1234.0, 0.02358376659574236
1235.0, 0.026843455964426204
1236.0, 0.03124431349193115
1237.0, 0.029009144381298722
1238.0, 0.02760405199805713
1239.0, 0.02971359020162853
1240.0, 0.02640990647300074
1241.0, 0.023334219220321112
1242.0, 0.023410364544601
1243.0, 0.02515287771892969
1244.0, 0.019496522061255166
1245.0, 0.021617948881716316
1246.0, 0.021494968769124163
1247.0, 0.02137235669585665
1248.0, 0.020913125800446478
1249.0, 0.018913906230077424
1250.0, 0.018335519376830242
1251.0, 0.020096959433128763
1252.0, 0.02106457154311591
1253.0, 0.020375480909405365
1254.0, 0.018843664036852385
1255.0, 0.018304722575631312
1256.0, 0.017645710712517134
1257.0, 0.012813373346687444
1258.0, 0.013196497504118821
1259.0, 0.0183931547381746
1260.0, 0.020380016454822583
1261.0, 0.005975058906397079
1262.0, 0.017821770013286917
1263.0, 0.01725348751851672
1264.0, 0.014093214375858528
1265.0, 0.013997563145455912
1266.0, 0.016939516846686382
1267.0, 0.014048443187375382
1268.0, 0.01661560683831262
1269.0, 0.01703569251346093
1270.0, 0.014797375878742637
1271.0, 0.01307330872467495
1272.0, 0.013845308360372437
1273.0, 0.008266648763902096
1274.0, 0.017053059816397854
1275.0, 0.015218956198640483
1276.0, 0.012138463332395488
1277.0, 0.012570186822208649
1278.0, 0.014671644191051925
1279.0, 0.013386885219813382
1280.0, 0.008719987673557467
1281.0, 0.008319542004020311
1282.0, 0.00852209017892794
1283.0, 0.00816135477142033
1284.0, 0.009702952288876658
1285.0, 0.011152788804829129
1286.0, 0.007955609732218604
1287.0, 0.004226591925456639
1288.0, 0.00402800592259665
1289.0, 0.006282541052030131
1290.0, 0.004655133954064782
1291.0, 0.007287937347597282
1292.0, 0.005123864494493642
1293.0, 0.00424802975223321
1294.0, 0.00763200567802844
1295.0, 0.012295335145882286
1296.0, 0.008749314381265515
1297.0, 0.0060982416807457305
1298.0, 0.009946177463497812
1299.0, 0.009806586764066903
1300.0, 0.008541527692608053
1301.0, 0.008909415695088668
1302.0, 0.005686508699148189
1303.0, 0.0035838044369048837
1304.0, 0.008856549636303678
1305.0, 0.008845037652406008
1306.0, 0.00466011060386017
1307.0, 0.005347914194114224
1308.0, 0.023110494271239432
1309.0, 0.0052658478682435445
1310.0, 0.004092531904198659
1311.0, 0.009017791643219558
1312.0, 0.008741603214574362
1313.0, 0.0025202122693204643
1314.0, 0.011410436147360257
1315.0, 0.011315658390849817
1316.0, 0.0047973327023566655
1317.0, 0.0075356123661870725
1318.0, 0.011567048743776486
1319.0, 0.007651460975736846
1320.0, 0.00858786336841501
1321.0, 0.014032606699554135
1322.0, 0.006678359581856669
1323.0, 0.0020694146527932963
1324.0, 0.005700026536592755
1325.0, 0.011900601780796488
1326.0, 0.002773292416348643
1327.0, 0.010731624989074012
1328.0, 0.009061346715855843
1329.0, 0.005862929212516594
1330.0, 0.006898705872624001
1331.0, 0.010497330143815436
1332.0, 0.002913055075648592
1333.0, 0.006864791325204289
1334.0, 0.005514643469920549
1335.0, 0.004133547704821547
1336.0, 0.006444430237195245
1337.0, 0.009890669427587324
1338.0, 0.002354560648260636
1339.0, 0.002756860164538334
1340.0, 0.0064634495546598315
1341.0, 0.00745836044778777
1342.0, 0.007209198231861091
1343.0, 0.008699488169443947
1344.0, 0.011813509925586434
1345.0, 0.005170295189909541
1346.0, 0.005670477097908318
1347.0, 0.006934779455698
1348.0, 0.008284534433749843
1349.0, 0.009453176496637527
1350.0, 0.00844259952351388
1351.0, 0.009339508089452086
1352.0, 0.008518736197709178
1353.0, 0.010058811949870624
1354.0, 0.009204956509464115
1355.0, 0.005416703365120807
1356.0, 0.00580977744851909
1357.0, 0.012358985339489615
1358.0, 0.00633746982188787
1359.0, 0.009070341769247463
1360.0, 0.009303159281838938
1361.0, 0.004545597994740941
1362.0, 0.005267480522923343
1363.0, 0.004617222835724238
1364.0, 0.00215958680668109
1365.0, 0.003148891424871815
1366.0, 0.0060891670706531955
1367.0, 0.006484199990305032
1368.0, 0.0022980512092741754
1369.0, 0.007226915449131436
1370.0, 0.004480282966069507
1371.0, 0.0017837101548698272
1372.0, 0.003663508188399195
1373.0, 0.0060391522822075315
1374.0, 0.0034240130166279643
1375.0, 0.0007620913159520524
1376.0, 0.0075268728326157615
1377.0, 0.003135160810541489
1378.0, 0.00270692196517506
1379.0, 0.006930926685975786
1380.0, 0.009141729648997652
1381.0, 0.0036598068681689866
1382.0, 0.004070616078053255
1383.0, 0.006623161165111004
1384.0, 0.005956848081113826
1385.0, 0.008258218356932565
1386.0, 0.012184731077091684
1387.0, 0.005777888947121996
1388.0, 0.007755647688515957
1389.0, 0.010158853414995716
1390.0, 0.009038183206392608
1391.0, 0.008247164352664075
1392.0, 0.008049818970596702
1393.0, 0.005500145609261227
1394.0, 0.003389932268209013
1395.0, 0.008470947431556528
1396.0, 0.005087639589432392
1397.0, 0.0017827683943095506
1398.0, 0.004158980126822398
1399.0, 0.009335190145207544
1400.0, 0.002647250271371031
1401.0, 0.0035296219858485583
1402.0, 0.0056729707534760926
1403.0, 0.00549090897532425
1404.0, 0.0037920895836420867
1405.0, 0.0036712438402708896
1406.0, 0.007447178291955663
1407.0, 0.0026009182097269865
1408.0, 0.005166942394737195
1409.0, 0.004043384847321316
1410.0, 0.0021610473493587253
1411.0, 0.004476036673577547
1412.0, 0.01064822708544146
1413.0, 0.002313431626726564
1414.0, 0.0030544887374928504
1415.0, 0.009866634919753457
1416.0, 0.006933457373391185
1417.0, 0.0007270231505929159
1418.0, 0.002457088490455302
1419.0, 0.0052079575879155245
1420.0, 0.0009171875926276974
1421.0, 0.0035625496457208188
1422.0, 0.007162589428909324
1423.0, 0.006021212103975123
1424.0, 0.003300556358469267
1425.0, 0.00815605209079745
1426.0, 0.00338712696629936
1427.0, 0.005184979834117148
1428.0, 0.00794063016938043
1429.0, 0.008287371844156777
1430.0, 0.008104661562161703
1431.0, 0.010218398478731933
1432.0, 0.01106366234830779
1433.0, 0.005300618386845134
1434.0, 0.009623504320569286
1435.0, 0.011883602753807943
1436.0, 0.009888249642370464
1437.0, 0.009042787634488719
1438.0, 0.015793159429595416
1439.0, 0.010032818720505866
1440.0, 0.007503938766569295
1441.0, 0.011977212259688223
1442.0, 0.015586694398448578
1443.0, 0.014189037368542226
1444.0, 0.010703416677890362
1445.0, 0.014998349531909608
1446.0, 0.010746677997601956
1447.0, 0.010698387453039908
1448.0, 0.012831947091734793
1449.0, 0.012620787777931929
1450.0, 0.010932296434345184
1451.0, 0.014141652279528918
1452.0, 0.01553141557265845
1453.0, 0.016447982765634573
1454.0, 0.020392077741309536
1455.0, 0.01408180555177413
1456.0, 0.009193310731617641
1457.0, 0.017717797315071806
1458.0, 0.016301267797365623
1459.0, 0.009471129990311446
1460.0, 0.019187171037346632
1461.0, 0.017336345169401256
1462.0, 0.011151394893360903
1463.0, 0.011843383477807392
1464.0, 0.018975514131501007
1465.0, 0.011102180335443006
1466.0, 0.016352548034260332
1467.0, 0.0198512264689996
1468.0, 0.014973126857667779
1469.0, 0.012486014766196273
1470.0, 0.017641739489133265
1471.0, 0.016647733913524365
1472.0, 0.024675410730625506
1473.0, 0.018919102781447428
1474.0, 0.00827467218880709
1475.0, 0.00639852369713853
1476.0, 0.010835389063289689
1477.0, 0.010534276618794244
1478.0, 0.005390367321372047
1479.0, 0.007302315912295224
1480.0, 0.014836657544286551
1481.0, 0.011785362238005371
1482.0, 0.007217663522199976
1483.0, 0.010503502311754818
1484.0, 0.01729141631569192
1485.0, 0.000734113823928146
1486.0, 0.01049637016579922
1487.0, 0.013816663771964128
1488.0, 0.009820954008350626
1489.0, 0.010963082334289276
1490.0, 0.01681321849892913
1491.0, 0.007887526655277942
1492.0, 0.007786475315924522
1493.0, 0.017667310034085403
1494.0, 0.012184999600363563
1495.0, 0.007247023360176403
1496.0, 0.009759284723605351
1497.0, 0.01255332146420815
1498.0, 0.0022439106094309953
1499.0, 0.010511864342024429
1500.0, 0.01141678943906987
1501.0, 0.006847999113328454
1502.0, 0.01227594380360358
1503.0, 0.01911853594338652
1504.0, 0.011379062395795475
1505.0, 0.004076297551519633
1506.0, 0.012316666880996118
1507.0, 0.01396957803082153
1508.0, 0.007728637643636032
1509.0, 0.011155949103481947
1510.0, 0.018465912150617256
1511.0, 0.011002532251244377
1512.0, 0.008669389812038948
1513.0, 0.019463772866245423
1514.0, 0.006186405722388634
1515.0, 0.0077252615312005885
1516.0, 0.007919192277288779
1517, 0.0
1518, 0.0
1519, 0.0
1520, 0.0
1521, 0.0
1522, 0.0
1523, 0.0
1524, 0.0
1525, 0.0
1526, 0.0
1527, 0.0
1528, 0.0
1529, 0.0
1530, 0.0
1531, 0.0
1532, 0.0
1533, 0.0
1534, 0.0
1535, 0.0
1536, 0.0
1537, 0.0
1538, 0.0
1539, 0.0
1540, 0.0
1541, 0.0
1542, 0.0
1543, 0.0
1544, 0.0
1545, 0.0
1546, 0.0
1547, 0.0
1548, 0.0
1549, 0.0
1550, 0.0
1551, 0.0
1552, 0.0
1553, 0.0
1554, 0.0
1555, 0.0
1556, 0.0
1557, 0.0
1558, 0.0
1559, 0.0
1560, 0.0
1561, 0.0
1562, 0.0
1563, 0.0
1564, 0.0
1565, 0.0
1566, 0.0
1567, 0.0
1568, 0.0
1569, 0.0
1570, 0.0
1571, 0.0
1572, 0.0
1573, 0.0
1574, 0.0
1575, 0.0
1576, 0.0
1577, 0.0
1578, 0.0
1579, 0.0
1580, 0.0
1581, 0.0
1582, 0.0
1583, 0.0
1584, 0.0
1585, 0.0
1586, 0.0
1587, 0.0
1588, 0.0
1589, 0.0
1590, 0.0
1591, 0.0
1592, 0.0
1593, 0.0
1594, 0.0
1595, 0.0
1596, 0.0
1597, 0.0
1598, 0.0
1599, 0.0
