30, 0.0
31, 0.0
32, 0.0
33, 0.0
34, 0.0
35, 0.0
36, 0.0
37, 0.0
38, 0.0
39, 0.0
40, 0.0
41, 0.0
42, 0.0
43, 0.0
44, 0.0
45, 0.0
46, 0.0
47, 0.0
48, 0.0
49, 0.0
50, 0.0
51, 0.0
52, 0.0
53, 0.0
54, 0.0
55, 0.0
56, 0.0
57, 0.0
58, 0.0
59, 0.0
60, 0.0
61, 0.0
62, 0.0
63, 0.0
64, 0.0
65, 0.0
66, 0.0
67, 0.0
68, 0.0
69, 0.0
70, 0.0
71, 0.0
72, 0.0
73, 0.0
74, 0.0
75, 0.0
76, 0.0
77, 0.0
78, 0.0
79, 0.0
80, 0.0
81, 0.0
82, 0.0
83, 0.0
84, 0.0
85, 0.0
86, 0.0
87, 0.0
88, 0.0
89, 0.0
90, 0.0
91, 0.0
92, 0.0
93, 0.0
94, 0.0
95, 0.0
96, 0.0
97, 0.0
98, 0.0
99, 0.0
100, 0.0
101, 0.0
102, 0.0
103, 0.0
104, 0.0
105, 0.0
106, 0.0
107, 0.0
108, 0.0
109, 0.0
110, 0.0
111, 0.0
112, 0.0
113, 0.0
114, 0.0
115.0, 0.0007932654090090769
116.0, 0.0026660310899638234
117.0, 0.005288733646174387
118.0, 0.006815854971997852
119.0, 0.004482273582824137
120.0, 0.001484197528680748
121.0, 0.0006525221969362122
122.0, 0.00030638961482688245
123.0, 0.00024571154189812616
124.0, 0.0011712008025461253
125.0, 0.004140326211792573
126.0, 0.009959788072376095
127.0, 0.011436926112776762
128.0, 0.013116861917296968
129.0, 0.015654873280951498
130.0, 0.016742557451054896
131.0, 0.01177694260633996
132.0, 0.007784068078887131
133.0, 0.0042098599161262285
134.0, 0.0005670189317966615
135.0, 0.004946039784572927
136.0, 0.008007502985514196
137.0, 0.008295243731231866
138.0, 0.00819441604112523
139.0, 0.012965467790338652
140.0, 0.017465662378538888
141.0, 0.022913936299936922
142.0, 0.03167083883908431
143.0, 0.04414324070628727
144.0, 0.04974480198664401
145.0, 0.05636558732446093
146.0, 0.06574281187881628
147.0, 0.07604890225955149
148.0, 0.08833314766487779
149.0, 0.0969119050924294
150.0, 0.10336286349243595
151.0, 0.10933947251404762
152.0, 0.11134889462306821
153.0, 0.11599159680622335
154.0, 0.12244663605043958
155.0, 0.12961305764982425
156.0, 0.13813767587532566
157.0, 0.14930270953106703
158.0, 0.15847569357309982
159.0, 0.16739305804305873
160.0, 0.17970974074709103
161.0, 0.18953516459719208
162.0, 0.19886158943916243
163.0, 0.20718417537792555
164.0, 0.215023368106875
165.0, 0.22040660352264538
166.0, 0.2182488047542539
167.0, 0.2108931855485184
168.0, 0.200631988446105
169.0, 0.18744884226147523
170.0, 0.1740988662381262
171.0, 0.16089655295981578
172.0, 0.1489109658585931
173.0, 0.13878147608693575
174.0, 0.12892926978700728
175.0, 0.12226628397052239
176.0, 0.11562392373222796
177.0, 0.10506978029477981
178.0, 0.08846629301324967
179.0, 0.07192128732387404
180.0, 0.056134554240170303
181.0, 0.04243235426496846
182.0, 0.03351241304091207
183.0, 0.023464922616009704
184.0, 0.017560442503049528
185.0, 0.014543103228178375
186.0, 0.010122841589354671
187.0, 0.007678525422847477
188.0, 0.005880222013805509
189.0, 0.003028535072404373
190.0, 0.00016967308971501156
191.0, 0.002700295128302809
192.0, 0.003024051152368448
193.0, 0.0009046238600148718
194.0, 0.001372900308894239
195.0, 0.002072217031395279
196.0, 0.004119819555692624
197.0, 0.004250767632015039
198.0, 0.0042585129061508955
199.0, 0.006185546058306682
200.0, 0.0049871807750191365
201.0, 0.0041352758230081155
202.0, 0.003401821974968846
203.0, 0.003038051400950007
204.0, 0.005680871381546314
205.0, 0.004753687431587541
206.0, 0.0019371259523376495
207.0, 0.0004339364502252326
208.0, 0.002014346345669743
209.0, 0.0021465936192069613
210.0, 0.001740489023382369
211.0, 0.0042266084575347624
212.0, 0.004927325991287767
213.0, 0.008833883406692842
214.0, 0.012560685030260322
215.0, 0.016821354309385653
216.0, 0.02153553016999975
217.0, 0.025997378516938806
218.0, 0.030963155242217502
219.0, 0.03566291280715403
220.0, 0.040498115265717685
221.0, 0.04467334269893788
222.0, 0.0462301464451753
223.0, 0.05545325743988751
224.0, 0.0617010403787072
225.0, 0.06486477247529103
226.0, 0.07228279824260554
227.0, 0.07768760376536436
228.0, 0.08226989486311938
229.0, 0.08825301195363675
230.0, 0.09514297784427463
231.0, 0.0996351985724654
232.0, 0.10862510640855787
233.0, 0.11805160225728953
234.0, 0.128719518186579
235.0, 0.14352150864697819
236.0, 0.15721799922796542
237.0, 0.1701098415068172
238.0, 0.18027690502443003
239.0, 0.18739178960285102
240.0, 0.19461460945438064
241.0, 0.19733310325182668
242.0, 0.19797012195419164
243.0, 0.1945397028519785
244.0, 0.18257231700691282
245.0, 0.17098382433253032
246.0, 0.15778534766841756
247.0, 0.1424574945789223
248.0, 0.12529047809716617
249.0, 0.10893342136823654
250.0, 0.09940464672736705
251.0, 0.08815785774204696
252.0, 0.07768260158958623
253.0, 0.07226985224894084
254.0, 0.061630294651737506
255.0, 0.05290932845544931
256.0, 0.04559359526046759
257.0, 0.0398658152594668
258.0, 0.03810568162881999
259.0, 0.03548094402125803
260.0, 0.03283242113981656
261.0, 0.030454286479320334
262.0, 0.02807100344660547
263.0, 0.026577618456933953
264.0, 0.027214151363145072
265.0, 0.029119114947258953
266.0, 0.03070292063606614
267.0, 0.031185465227957957
268.0, 0.03194444441522856
269.0, 0.030907997906979307
270.0, 0.03150991695454707
271.0, 0.03496934774960255
272.0, 0.03681024750036264
273.0, 0.03189401022854888
274.0, 0.029934477669695
275.0, 0.02971958962360385
276.0, 0.02624279368194917
277.0, 0.023461478875615283
278.0, 0.024309700865736885
279.0, 0.02445533957512516
280.0, 0.02471550885502624
281.0, 0.02905921303448908
282.0, 0.0327709285189543
283.0, 0.037026657426345595
284.0, 0.043123276153665666
285.0, 0.05044197944085381
286.0, 0.05722864062635713
287.0, 0.07072580038556102
288.0, 0.0837106545859849
289.0, 0.09673831709407874
290.0, 0.11240653067671491
291.0, 0.12676977571135503
292.0, 0.1405921615100046
293.0, 0.15269741202432807
294.0, 0.1650882391679255
295.0, 0.180672230928654
296.0, 0.1983957196543152
297.0, 0.2166409690297512
298.0, 0.2365418531313634
299.0, 0.26045729935979267
300.0, 0.28945497718734164
301.0, 0.31729231831779076
302.0, 0.3460295078331597
303.0, 0.37699845277881683
304.0, 0.4113109937498852
305.0, 0.4506861856362934
306.0, 0.48619683172925793
307.0, 0.5147925077820131
308.0, 0.5365601394258627
309.0, 0.5476724373091505
310.0, 0.5238344001872532
311.0, 0.4792952579911787
312.0, 0.42583540238845713
313.0, 0.37098543470634093
314.0, 0.3209312017634004
315.0, 0.2808178260978762
316.0, 0.24592543139949363
317.0, 0.21954460881496432
318.0, 0.1997938708857517
319.0, 0.1809094801529926
320.0, 0.17057943087276334
321.0, 0.16384529019030755
322.0, 0.15499715725273716
323.0, 0.14463984445862832
324.0, 0.1376853175523194
325.0, 0.13169361029125892
326.0, 0.11727778485699154
327.0, 0.1006038589400877
328.0, 0.0884926908415561
329.0, 0.07940286261893499
330.0, 0.0691090348661559
331.0, 0.05825511971358318
332.0, 0.049568782998344205
333.0, 0.04290884865999292
334.0, 0.03187107846003091
335.0, 0.024235241391056962
336.0, 0.021493730690556666
337.0, 0.020309792580826606
338.0, 0.017338177798945566
339.0, 0.01655975046008465
340.0, 0.014269422424684925
341.0, 0.013919414698221985
342.0, 0.015409156385719122
343.0, 0.015707701556146286
344.0, 0.016104352761018476
345.0, 0.015877838684936963
346.0, 0.015891422736890082
347.0, 0.016721635887246795
348.0, 0.018457042935804295
349.0, 0.02264541684927878
350.0, 0.018480962801684868
351.0, 0.01871104610625898
352.0, 0.02275024980618502
353.0, 0.01790548343921883
354.0, 0.009671806454718084
355.0, 0.003176180529971332
356.0, 0.000546218110257413
357.0, 0.00183324744420635
358.0, 0.0020438983566154426
359.0, 0.004196622104993768
360.0, 0.006297994037412283
361.0, 0.004441157271562089
362.0, 0.00030314968621833916
363.0, 0.0029452672654932026
364.0, 0.008445116900445148
365.0, 0.01632847135985843
366.0, 0.023640547132379293
367.0, 0.03030795916888988
368.0, 0.03990978756785976
369.0, 0.05126617006678856
370.0, 0.06342625204949197
371.0, 0.07593434276663537
372.0, 0.08849445874260102
373.0, 0.10108862242469413
374.0, 0.11473868587117889
375.0, 0.13141605187848127
376.0, 0.15102822658835863
377.0, 0.1730851117705581
378.0, 0.19724740938599025
379.0, 0.22268530240599468
380.0, 0.2542903451368088
381.0, 0.28647365042730577
382.0, 0.316458864966653
383.0, 0.34901061804315536
384.0, 0.3812860469553644
385.0, 0.4090415046193479
386.0, 0.42400761679183896
387.0, 0.42434161242090895
388.0, 0.41368855984230857
389.0, 0.388903665921089
390.0, 0.3495482931469676
391.0, 0.30630383624725427
392.0, 0.2657032846200636
393.0, 0.22848001626672754
394.0, 0.19364168191493752
395.0, 0.1637027266161221
396.0, 0.1387997253954435
397.0, 0.11732594572992874
398.0, 0.098508629322379
399.0, 0.08516407221589639
400.0, 0.07030678951767802
401.0, 0.05721197279148805
402.0, 0.04548832207494344
403.0, 0.03360598992975247
404.0, 0.02807645406846426
405.0, 0.02156053201262878
406.0, 0.015556265147775883
407.0, 0.011539016751393745
408.0, 0.00893155359304848
409.0, 0.0052201581460684585
410.0, 0.0026406930971244985
411.0, 0.0007803176888853079
412.0, 0.0009015435583662472
413.0, 0.0024581547480979735
414.0, 0.0039583401718278205
415.0, 0.009296208408058417
416.0, 0.008324001874663164
417.0, 0.0054814812017076366
418.0, 0.005743373257619439
419.0, 0.00607995369223766
420.0, 0.004414971212679983
421.0, 0.000982593896266289
422.0, 0.0022947963859291888
423.0, 0.0006151436746127355
424.0, 0.002784107496532869
425.0, 0.005155560387678155
426.0, 0.006874678854574358
427.0, 0.008073768205540111
428.0, 0.009824708811448
429.0, 0.013523643473337649
430.0, 0.019030036019983463
431.0, 0.020953192045736913
432.0, 0.028063371118241427
433.0, 0.033514089457751195
434.0, 0.032729818906251255
435.0, 0.03444146927958098
436.0, 0.032560258931295626
437.0, 0.029557071009376452
438.0, 0.026313187424650372
439.0, 0.023317203571046108
440.0, 0.022366770471545797
441.0, 0.019201047704802996
442.0, 0.015785719726619747
443.0, 0.01562555406377206
444.0, 0.016970428805983304
445.0, 0.01496349736724782
446.0, 0.012930689302947869
447.0, 0.011269253120568036
448.0, 0.011211748194453426
449.0, 0.010003727067952073
450.0, 0.007058155241547832
451.0, 0.008705979942009008
452.0, 0.009719774192266712
453.0, 0.01091481714568461
454.0, 0.01268714794141412
455.0, 0.013919891899141728
456.0, 0.012584581005117007
457.0, 0.013026851310554068
458.0, 0.011571428888156281
459.0, 0.011158745208875923
460.0, 0.012768555661510434
461.0, 0.014034004006599536
462.0, 0.015501287369836208
463.0, 0.01827290541526272
464.0, 0.01741920033264525
465.0, 0.015800270318195926
466.0, 0.01922949696875147
467.0, 0.025098772468121085
468.0, 0.02663947745589218
469.0, 0.026453746782489365
470.0, 0.027126200943301777
471.0, 0.029154646011265203
472.0, 0.031182863917282387
473.0, 0.02902537725365687
474.0, 0.027330618942103185
475.0, 0.02898580769135133
476.0, 0.032001633235559976
477.0, 0.0331975957271044
478.0, 0.03329461414240588
479.0, 0.03272966185495211
480.0, 0.02995058598974154
481.0, 0.027060214775186622
482.0, 0.023999601908690868
483.0, 0.017946564987261576
484.0, 0.014805255602217751
485.0, 0.008179307606321325
486.0, 0.004691752547383493
487.0, 0.0033479611721758556
488.0, 0.0008472477793663473
489.0, 0.0008602100027090938
490.0, 0.0003281272934268605
491.0, 0.000840997845799606
492.0, 0.0029742191118187684
493.0, 0.0023807933205155585
494.0, 0.002175484545268617
495.0, 0.006997479013926811
496.0, 0.005798052439650135
497.0, 0.00403440190750386
498.0, 0.0036533355871397714
499.0, 0.0028138375448498805
500.0, 0.0007105044264715591
501.0, 0.0014745439109158224
502.0, 0.0025304526309514993
503.0, 0.003641614895892648
504.0, 0.00535138192526012
505.0, 0.008163152551717574
506.0, 0.014295690914620416
507.0, 0.015261431553992495
508.0, 0.01662760311661923
509.0, 0.019842720036684126
510.0, 0.025485404822238898
511.0, 0.037141680337412906
512.0, 0.049963029914625805
513.0, 0.05588529370318443
514.0, 0.06304875969782206
515.0, 0.07384333752798604
516.0, 0.08620715059199903
517.0, 0.10134873927119765
518.0, 0.11559189930956497
519.0, 0.13355403056969592
520.0, 0.14917562153126596
521.0, 0.16425431573072136
522.0, 0.18624162303018318
523.0, 0.204392104907361
524.0, 0.23076699491394562
525.0, 0.2585782203078733
526.0, 0.2880620442056443
527.0, 0.32077385507141526
528.0, 0.35374131502575434
529.0, 0.38884245026428454
530.0, 0.4266368962698998
531.0, 0.4608954443167557
532.0, 0.4872074824779858
533.0, 0.5037093212730972
534.0, 0.5074206785956022
535.0, 0.4902867201370793
536.0, 0.4593073936758241
537.0, 0.4173308468421826
538.0, 0.3678051365067877
539.0, 0.3162373425566813
540.0, 0.2727413888122726
541.0, 0.23428450207002477
542.0, 0.20218000166383127
543.0, 0.1756233989780807
544.0, 0.15189178462325692
545.0, 0.13047849634427272
546.0, 0.11691054639516182
547.0, 0.10531066009502442
548.0, 0.09781698986073731
549.0, 0.09356092527675738
550.0, 0.09080847749504783
551.0, 0.08945446185717093
552.0, 0.08822664135633354
553.0, 0.08637994345991049
554.0, 0.08772478061530846
555.0, 0.09197747124257052
556.0, 0.09755273646899026
557.0, 0.10587505056606655
558.0, 0.11732293970816855
559.0, 0.1326432325076812
560.0, 0.14786459571436586
561.0, 0.16245228782642135
562.0, 0.17826700292735312
563.0, 0.19453869321736747
564.0, 0.20031886384893266
565.0, 0.1955223318807599
566.0, 0.17743018625960505
567.0, 0.1505540314762197
568.0, 0.12175481128245558
569.0, 0.0948139027571482
570.0, 0.07306691680362491
571.0, 0.054579371900647836
572.0, 0.04065096340799552
573.0, 0.030436759906508057
574.0, 0.02195091550101578
575.0, 0.015604929980276164
576.0, 0.012017282541250226
577.0, 0.009575331614991588
578.0, 0.006644553163705667
579.0, 0.005062817416668279
580.0, 0.007172358334824553
581.0, 0.01112946674587034
582.0, 0.01345806867082952
583.0, 0.018956094145157143
584.0, 0.024709250805148495
585.0, 0.030598913543664674
586.0, 0.03923257665691091
587.0, 0.04894944086570159
588.0, 0.05463236684919772
589.0, 0.0660580275012451
590.0, 0.0844699569114303
591.0, 0.10618844042131124
592.0, 0.12883491417309642
593.0, 0.1538936204018823
594.0, 0.17836308687364133
595.0, 0.2065997278879561
596.0, 0.2323906451215864
597.0, 0.2577435282739255
598.0, 0.2879574745434605
599.0, 0.3214314248905272
600.0, 0.35573373085170823
601.0, 0.39733981987662065
602.0, 0.44956747747034087
603.0, 0.5089967132987228
604.0, 0.5767689798167064
605.0, 0.6577361141481896
606.0, 0.7393503278661067
607.0, 0.8242087568874783
608.0, 0.9053791915783193
609.0, 0.969879012293542
610.0, 0.9998457736422396
611.0, 0.9775956498513115
612.0, 0.9023980558768939
613.0, 0.7858380806411959
614.0, 0.6555006878180761
615.0, 0.5276400514006031
616.0, 0.4167508531491407
617.0, 0.3307113302068456
618.0, 0.2621182563220076
619.0, 0.20649357760988227
620.0, 0.16418936942645912
621.0, 0.13215265463515408
622.0, 0.10638612440523644
623.0, 0.08502925048800097
624.0, 0.06915312032170995
625.0, 0.056050814959873664
626.0, 0.045903104266858626
627.0, 0.037727398181119545
628.0, 0.031052960912807494
629.0, 0.02618653665436481
630.0, 0.02237653206498933
631.0, 0.015143788569452634
632.0, 0.008918980874216179
633.0, 0.0034596412738007185
634.0, 0.000792698702256842
635.0, 0.0014418479757250353
636.0, 0.0020984336361892617
637.0, 0.0015150846045316208
638.0, 0.004319133065336786
639.0, 0.004441658564610274
640.0, 0.004382065225691941
641.0, 0.004533102713390655
642.0, 0.004265372613231214
643.0, 0.004388089458934626
644.0, 0.00854796403239264
645.0, 0.007435497900391991
646.0, 0.00708794150990945
647.0, 0.007094910342499569
648.0, 0.006318262122708673
649.0, 0.0031515592711902672
650.0, 0.004213305754051514
651.0, 0.0038310897650804185
652.0, 0.008477537124069096
653.0, 0.012058823388671685
654.0, 0.015154391298481696
655.0, 0.019921819409382858
656.0, 0.023953634632906787
657.0, 0.027967969310593387
658.0, 0.03936375106470976
659.0, 0.046801770390001295
660.0, 0.054771449581460116
661.0, 0.0656191916261514
662.0, 0.07823446631540794
663.0, 0.09337907647588094
664.0, 0.10473789651196772
665.0, 0.11706170707417986
666.0, 0.12853856414160889
667.0, 0.13772612451550312
668.0, 0.1441319246635658
669.0, 0.14478082408652565
670.0, 0.13540234116676497
671.0, 0.12611598678545055
672.0, 0.11175635239366254
673.0, 0.09527363854104705
674.0, 0.07687394935312294
675.0, 0.05964147611090958
676.0, 0.0492204898306617
677.0, 0.036687786197861845
678.0, 0.026389442119617586
679.0, 0.021007011946695128
680.0, 0.0166196773116363
681.0, 0.01226609454443734
682.0, 0.010369515953222053
683.0, 0.00900171027882599
684.0, 0.006785181058032644
685.0, 0.010843059579328638
686.0, 0.010726477664550217
687.0, 0.007655643044812901
688.0, 0.006979549653566163
689.0, 0.00914834451087608
690.0, 0.012573562506170996
691.0, 0.013960944631065808
692.0, 0.011089910979714509
693.0, 0.009130826857276864
694.0, 0.009387998833563525
695.0, 0.009944777969996344
696.0, 0.010639345454975071
697.0, 0.010430682558482247
698.0, 0.010825946669432257
699.0, 0.012269850969685808
700.0, 0.013366928227505688
701.0, 0.014279523425015902
702.0, 0.013807769812521626
703.0, 0.010021256345911346
704.0, 0.009101157045278366
705.0, 0.00991552171062903
706.0, 0.010510676532808978
707.0, 0.012474837475048442
708.0, 0.01568453308906891
709.0, 0.018426281354601105
710.0, 0.020862306576935555
711.0, 0.02203354107473712
712.0, 0.02285807161691625
713.0, 0.024246871951964972
714.0, 0.02520219521436332
715.0, 0.025980598565270473
716.0, 0.026912816953687704
717.0, 0.027704304957376833
718.0, 0.029836292458756693
719.0, 0.031971799594619446
720.0, 0.03187922002618614
721.0, 0.03701224836908027
722.0, 0.040817582957800455
723.0, 0.041136061390396966
724.0, 0.04628191624365515
725.0, 0.050601417461853426
726.0, 0.059276727557651634
727.0, 0.06593263587649742
728.0, 0.07368375385256552
729.0, 0.08380903087426418
730.0, 0.0957955532099117
731.0, 0.10909250066124525
732.0, 0.1223277433013157
733.0, 0.14008631702707616
734.0, 0.15786165888210135
735.0, 0.17693393609548638
736.0, 0.19579233572301846
737.0, 0.21740192705372383
738.0, 0.24448296905703007
739.0, 0.2699020626487326
740.0, 0.30630971273792024
741.0, 0.33485085243733603
742.0, 0.3665389382739181
743.0, 0.3943614295055343
744.0, 0.40749691692119033
745.0, 0.405106369481632
746.0, 0.389410475341033
747.0, 0.35645144097085424
748.0, 0.3177930545053574
749.0, 0.2815610476096964
750.0, 0.24779800445678357
751.0, 0.21558722245499354
752.0, 0.1860492044077466
753.0, 0.16149838861628266
754.0, 0.14501319793330145
755.0, 0.12092892376619324
756.0, 0.1086982263895142
757.0, 0.09840890977693542
758.0, 0.08647251139524925
759.0, 0.07544942999992867
760.0, 0.06679836924705108
761.0, 0.06301599487153857
762.0, 0.05515434870705124
763.0, 0.04891435117678424
764.0, 0.043046892404362117
765.0, 0.040027765036099165
766.0, 0.03879579314890636
767.0, 0.035536186610334565
768.0, 0.031631173588237346
769.0, 0.03194528396487098
770.0, 0.027092891003695038
771.0, 0.026655017767986146
772.0, 0.025496306896633493
773.0, 0.024913328264684197
774.0, 0.02739257766273522
775.0, 0.029346206357366875
776.0, 0.030680154671574433
777.0, 0.032293316233034
778.0, 0.034921321763162975
779.0, 0.04010430657054617
780.0, 0.045467676324400366
781.0, 0.05033896722881014
782.0, 0.055772563617998
783.0, 0.06173454745209175
784.0, 0.0698240847638301
785.0, 0.0774247945878506
786.0, 0.08142223574653457
787.0, 0.08337683912312116
788.0, 0.08281470754074902
789.0, 0.07779475245676769
790.0, 0.068812531511406
791.0, 0.05854007188145083
792.0, 0.0498152203108457
793.0, 0.03951626703022909
794.0, 0.032717310330817026
795.0, 0.025369238916580546
796.0, 0.019392854687278225
797.0, 0.015049589779359746
798.0, 0.010011127148863111
799.0, 0.00800841801413307
800.0, 0.007083376016091093
801.0, 0.004139363319311879
802.0, 0.00409185463024619
803.0, 0.001957425110826249
804.0, 0.0011775398154885352
805.0, 0.002617671281231916
806.0, 0.0025713407239251144
807.0, 0.0005761783785520514
808.0, 0.0015886656222983773
809.0, 0.0021561252994590006
810.0, 0.0007079348916007515
811.0, 0.0008400657111595791
812.0, 0.0009385930302108664
813.0, 0.0006253097860159251
814.0, 0.0022029471066086262
815.0, 0.003738781595448377
816.0, 0.0017038713888175227
817.0, 0.0021843573016351167
818.0, 0.00032570606160332996
819.0, 0.001886238082162914
820.0, 0.002827017408942683
821.0, 0.0004407921774045709
822.0, 0.0019281346708624504
823.0, 0.003402848098454002
824.0, 0.0013529533500649437
825.0, 0.0015363334421794508
826.0, 0.0018557269717286193
827.0, 0.004109595140374706
828.0, 0.00898460898392257
829.0, 0.008066370033847461
830.0, 0.0019023520960161182
831.0, 0.0064273954055911915
832.0, 0.007177720226432735
833.0, 0.00941322614820239
834.0, 0.012177439527644404
835.0, 0.01457247427258101
836.0, 0.0149758966894882
837.0, 0.015651915816017027
838.0, 0.018205107695772015
839.0, 0.01829142299130449
840.0, 0.02018232813478008
841.0, 0.02176757821354413
842.0, 0.022290932298526522
843.0, 0.02478612959456836
844.0, 0.027144531518470228
845.0, 0.027132530301455505
846.0, 0.026903558528969893
847.0, 0.02854952880211812
848.0, 0.028203807563226203
849.0, 0.027850111971892015
850.0, 0.030977917682507194
851.0, 0.030177644388824483
852.0, 0.030467760050034275
853.0, 0.030564998443669913
854.0, 0.03105008289014373
855.0, 0.03385556941100228
856.0, 0.033655787171889794
857.0, 0.037321217329142425
858.0, 0.03908634855535956
859.0, 0.0393840289504912
860.0, 0.04291643211171701
861.0, 0.044577605056604026
862.0, 0.04392918967567023
863.0, 0.04500075275324914
864.0, 0.04738193724328578
865.0, 0.04901918969929363
866.0, 0.049923177176648285
867.0, 0.05245720370418736
868.0, 0.05452410461880426
869.0, 0.05902059638468148
870.0, 0.059078624201930156
871.0, 0.05803439012350461
872.0, 0.06080522481927464
873.0, 0.058218622037130505
874.0, 0.060975630361711504
875.0, 0.05862870414463258
876.0, 0.05773767488880061
877.0, 0.05576981891618555
878.0, 0.055118024496918015
879.0, 0.054538157929439154
880.0, 0.05373160903842226
881.0, 0.052887765247679346
882.0, 0.04827248053399881
883.0, 0.045721196418194006
884.0, 0.04429292091942111
885.0, 0.04198791735519325
886.0, 0.042418015299101317
887.0, 0.04115245320387738
888.0, 0.03923867322140762
889.0, 0.03874993251963343
890.0, 0.036898435468462505
891.0, 0.034047257023616224
892.0, 0.03470859618788589
893.0, 0.034025564425821254
894.0, 0.030776054109416154
895.0, 0.031859530294652716
896.0, 0.03134522246162763
897.0, 0.028452045101969768
898.0, 0.026501528546335616
899.0, 0.025555918083432414
900.0, 0.02588590616339644
901.0, 0.026440558404794097
902.0, 0.02344426315831058
903.0, 0.022010445546860186
904.0, 0.019264860898627542
905.0, 0.01983126974368007
906.0, 0.01832965886069261
907.0, 0.015308441367735865
908.0, 0.015834008500971154
909.0, 0.013512516437098644
910.0, 0.012348181403080616
911.0, 0.012577939432985423
912.0, 0.014445356976999465
913.0, 0.01361076591989554
914.0, 0.010915547988346569
915.0, 0.010065327134191003
916.0, 0.009788462750948905
917.0, 0.009191625371238096
918.0, 0.009622767852655176
919.0, 0.005114258751841827
920.0, 0.0038360205868280023
921.0, 0.0051220180580534595
922.0, 0.0037483011704393075
923.0, 0.0015397788680935657
924.0, 0.0024156545881573338
925.0, 0.0034805924299314028
926.0, 0.002154951154662677
927.0, 0.0004548213818450765
928.0, 2.90885836271458e-05
929.0, 0.0011478139375912422
930.0, 0.0002816363513594122
931.0, 0.00273624558816494
932.0, 0.0021963459625479603
933.0, 0.0008485968816863286
934.0, 0.0025511160560882516
935.0, 0.0012067891601820766
936.0, 0.0003607998188816846
937.0, 0.00033801064099669206
938.0, 0.00040418450537244965
939.0, 0.003493834938044124
940.0, 0.0023209034310107497
941.0, 0.003485482937349494
942.0, 0.0029887305444091434
943.0, 0.004436040369730519
944.0, 0.005018399480694421
945.0, 0.007118478414593768
946.0, 0.009422171715272503
947.0, 0.007658487829701679
948.0, 0.011056183100562045
949.0, 0.011471790497590936
950.0, 0.013697177561434407
951.0, 0.018787337815318852
952.0, 0.01953887054539367
953.0, 0.018396304401105172
954.0, 0.020805886677174232
955.0, 0.024775920553588786
956.0, 0.027981959456005803
957.0, 0.03206764728418807
958.0, 0.03556749525904961
959.0, 0.038285262488634925
960.0, 0.04165123278698277
961.0, 0.041779365431002205
962.0, 0.045743869358366676
963.0, 0.049393571403271684
964.0, 0.05207196060419592
965.0, 0.05295072756794308
966.0, 0.05188391964444092
967.0, 0.051941171915017306
968.0, 0.0517672410415356
969.0, 0.047767944809220426
970.0, 0.04821075165225651
971.0, 0.04349561014026542
972.0, 0.04430629404508913
973.0, 0.043220916525925274
974.0, 0.040903170954046796
975.0, 0.038204733707714544
976.0, 0.03513739367329824
977.0, 0.03219417579195178
978.0, 0.029335498498643444
979.0, 0.02886348327722865
980.0, 0.027831417540184887
981.0, 0.02403433864098451
982.0, 0.023002811844945386
983.0, 0.019395730409691624
984.0, 0.020279288251648053
985.0, 0.021380546316856677
986.0, 0.0189906290937088
987.0, 0.01668029467586405
988.0, 0.01600188935739745
989.0, 0.01475840438397883
990.0, 0.016137345812549324
991.0, 0.016199357781501555
992.0, 0.01703429756137678
993.0, 0.017049644248324735
994.0, 0.018589157006757277
995.0, 0.01973559998429749
996.0, 0.0172447258167774
997.0, 0.017520122347241398
998.0, 0.01783660413237626
999.0, 0.014123969053293302
1000.0, 0.01485575994452618
1001.0, 0.012345670820612714
1002.0, 0.011137968599787681
1003.0, 0.010364146367133457
1004.0, 0.009413706004125975
1005.0, 0.006417503861595157
1006.0, 0.006477409585461213
1007.0, 0.0055895463935280686
1008.0, 0.004951710885276779
1009.0, 0.004998927712381333
1010.0, 0.004310056048775593
1011.0, 0.004665893613275013
1012.0, 0.0020175974528913077
1013.0, 0.0006407186692418089
1014.0, 0.0010273394348182616
1015.0, 0.00021402848689963154
1016.0, 0.00022308706038308245
1017.0, 0.0007162270388926153
1018.0, 0.0007112277778477096
1019.0, 0.0003732255167643605
1020.0, 0.0012931628393632812
1021.0, 0.000741435941076077
1022.0, 0.0004135425172878646
1023.0, 0.00025257268322338597
1024.0, 0.00019960694150419412
1025.0, 0.000417920795192338
1026.0, 0.001119595199415157
1027.0, 0.002239152124231276
1028.0, 0.0018023137604916526
1029.0, 0.0014088819418483234
1030.0, 0.0013119320839993312
1031.0, 0.0005911217066584213
1032.0, 0.00165136044043168
1033.0, 0.001026290384682102
1034.0, 0.0010217316167730468
1035.0, 0.0017127437038668295
1036.0, 0.0026722935976592065
1037.0, 0.0041829954822169045
1038.0, 0.003039025085864807
1039.0, 0.004202541729309153
1040.0, 0.0017291269240179783
1041.0, 0.002437784123461423
1042.0, 0.0020179079868715907
1043.0, 0.0005337697542759417
1044.0, 0.0008675026267777654
1045.0, 0.002587968430345111
1046.0, 0.0037965992992393597
1047.0, 0.003405108673656218
1048.0, 0.006148047740860675
1049.0, 0.003842024155342712
1050.0, 0.003622177946146706
1051.0, 0.004423254168156828
1052.0, 0.006834179836014616
1053.0, 0.00894141794534421
1054.0, 0.009194947150373422
1055.0, 0.010534984719126922
1056.0, 0.011748898954285419
1057.0, 0.014576094837023991
1058.0, 0.017838411062761197
1059.0, 0.016305280896031924
1060.0, 0.019363909171354315
1061.0, 0.01917417440431647
1062.0, 0.019338726429741913
1063.0, 0.02454932855507294
1064.0, 0.025775098632898043
1065.0, 0.024839012429320146
1066.0, 0.02981706099870523
1067.0, 0.034084458609514416
1068.0, 0.035373298143935875
1069.0, 0.03706109857683781
1070.0, 0.04002187672054345
1071.0, 0.04369337630351861
1072.0, 0.04768445682568117
1073.0, 0.05145562545347727
1074.0, 0.055462668514643605
1075.0, 0.060967256473285096
1076.0, 0.06339195490411192
1077.0, 0.06591627799091845
1078.0, 0.068521793955917
1079.0, 0.07788616451751078
1080.0, 0.07997606247532993
1081.0, 0.07897936170224523
1082.0, 0.07996862532990949
1083.0, 0.07921516073530693
1084.0, 0.0768501235971206
1085.0, 0.07514979576831016
1086.0, 0.07440343953929071
1087.0, 0.07016075894340483
1088.0, 0.06714148134102982
1089.0, 0.06587387841270108
1090.0, 0.061379107215655704
1091.0, 0.0557085300999712
1092.0, 0.048583348282932155
1093.0, 0.04660418414307285
1094.0, 0.04785511979236744
1095.0, 0.04137763557981597
1096.0, 0.034729265715844504
1097.0, 0.0315927301334015
1098.0, 0.027114918724997966
1099.0, 0.026341561335681607
1100.0, 0.02516368070682962
1101.0, 0.020893895478826724
1102.0, 0.015928624085080785
1103.0, 0.014755784070642302
1104.0, 0.012841792677253145
1105.0, 0.010984609312926708
1106.0, 0.009967847659616872
1107.0, 0.008927624956316238
1108.0, 0.009489763346919537
1109.0, 0.006718269869505224
1110.0, 0.0031638492595098366
1111.0, 0.0022235337428294774
1112.0, 0.0021437002034014048
1113.0, 0.0021790043127707403
1114.0, 0.001459668740692978
1115.0, 0.002277460902259775
1116.0, 0.0034239854783107123
1117.0, 0.0011901375603282998
1118.0, 0.0010025766287660323
1119.0, 0.001224920828604384
1120.0, 0.00010988190945367115
1121.0, 0.0029054722341210052
1122.0, 0.0010758432212111854
1123.0, 0.001437185787063792
1124.0, 0.003748096269048637
1125.0, 0.0036033708084337113
1126.0, 0.002921855166513613
1127.0, 0.0024867476377871517
1128.0, 0.0027087916682043927
1129.0, 0.003959883866017012
1130.0, 0.0028260965809732016
1131.0, 0.0026337033118330033
1132.0, 0.004018900700634793
1133.0, 0.004102062287353074
1134.0, 0.002022563234099068
1135.0, 0.003647539771809417
1136.0, 0.004396172441596454
1137.0, 0.0029580116680161476
1138.0, 0.002864541500700948
1139.0, 0.0039011384766088333
1140.0, 0.00580480679490857
1141.0, 0.006353477511869425
1142.0, 0.00549133042882556
1143.0, 0.005774519257891684
1144.0, 0.006440562205846504
1145.0, 0.007841555082628087
1146.0, 0.009337895919281294
1147.0, 0.008854136076349913
1148.0, 0.008884578891927451
1149.0, 0.007983824474384695
1150.0, 0.009839522444011055
1151.0, 0.011603960066393094
1152.0, 0.01262443005329604
1153.0, 0.012421881170490543
1154.0, 0.010920012645087932
1155.0, 0.011992697557562165
1156.0, 0.013146750812925071
1157.0, 0.013651165996159573
1158.0, 0.013218314402436341
1159.0, 0.012870432362590428
1160.0, 0.013623365096151425
1161.0, 0.012749350299424103
1162.0, 0.012360960045465857
1163.0, 0.0131733837088902
1164.0, 0.009672546343756454
1165.0, 0.009543960886678134
1166.0, 0.011362118129210313
1167.0, 0.007635286168244903
1168.0, 0.010069142460265653
1169.0, 0.01090678243089139
1170.0, 0.009635635819947856
1171.0, 0.009340447866511345
1172.0, 0.009165153665019915
1173.0, 0.007945074961880506
1174.0, 0.007878786436143568
1175.0, 0.0079812405659127
1176.0, 0.009217059734531676
1177.0, 0.010498076417744822
1178.0, 0.007736729517047945
1179.0, 0.0063242227768796925
1180.0, 0.004580803579179511
1181.0, 0.0026805624795246626
1182.0, 0.004569932551661348
1183.0, 0.005646867318879042
1184.0, 0.0014356729188123385
1185.0, 0.00442358174947133
1186.0, 0.0024400644697328607
1187.0, 0.0010715570634217898
1188.0, 0.002902668637226233
1189.0, 0.005777648325230702
1190.0, 0.003326982794738791
1191.0, 0.001162590789668474
1192.0, 6.902054271077369e-05
1193.0, 0.00020228584982620216
1194.0, 0.0007163008308150075
1195.0, 0.0007449610626148039
1196.0, 0.0015420774567365722
1197.0, 7.9584186877152e-05
1198.0, 0.0008365666622071937
1199.0, 0.0017824877256919281
1200.0, 0.00013993072444470152
1201.0, 0.001321558089982691
1202.0, 0.000832507545677136
1203.0, 0.001887792420803098
1204.0, 0.0012358839012868437
1205.0, 0.0006273276538899104
1206.0, 0.0017047828290631894
1207.0, 0.0007304520427268912
1208.0, 0.0007327662320452243
1209.0, 0.00030825723448199826
1210.0, 0.0023008612746283335
1211.0, 0.0021919752393851997
1212.0, 0.0005827140048598745
1213.0, 0.0005458356270603588
1214.0, 0.0014415374827978884
1215.0, 0.0002238959688987994
1216.0, 0.0011309618282819467
1217.0, 0.001944924086809392
1218.0, 0.0011518912566981186
1219.0, 0.001032995155912491
1220.0, 0.002109962748985421
1221.0, 0.0018150241012657676
1222.0, 0.0005931413194872915
1223.0, 0.0008594211223774206
1224.0, 0.0001853157639798912
1225.0, 0.0017835342529242907
1226.0, 0.0020670632967554033
1227.0, 0.0028224740766891396
1228.0, 0.0033099261868235635
1229.0, 0.003093111489372077
1230.0, 0.00362877049567503
1231.0, 0.004043046390960947
1232.0, 0.004090357138342847
1233.0, 0.006687568164240993
1234.0, 0.004323013771743054
1235.0, 0.00160013873320421
1236.0, 0.003779416916877439
1237.0, 0.0055240517553261335
1238.0, 0.006392883051615783
1239.0, 0.008268903038837793
1240.0, 0.010719549715141517
1241.0, 0.01207674209232421
1242.0, 0.009777728309255012
1243.0, 0.009383416570775304
1244.0, 0.011473965263762214
1245.0, 0.01338259795610683
1246.0, 0.011926147161537379
1247.0, 0.014104817893811244
1248.0, 0.016260350965379755
1249.0, 0.015557640970076307
1250.0, 0.01496803782125257
1251.0, 0.016411312208829878
1252.0, 0.017432631283330634
1253.0, 0.01879142937831412
1254.0, 0.019682779856260824
1255.0, 0.019507361691192236
1256.0, 0.017010971477900445
1257.0, 0.01543027598339619
1258.0, 0.015322017368209923
1259.0, 0.016432505697599974
1260.0, 0.015081517736264984
1261.0, 0.01505642778664972
1262.0, 0.014260859315087797
1263.0, 0.012920560646616733
1264.0, 0.013784305126491663
1265.0, 0.009952453838263032
1266.0, 0.00566260351929019
1267.0, 0.0049575166903304815
1268.0, 0.005732945431822205
1269.0, 0.0037296357649228983
1270.0, 0.0035050806783921327
1271.0, 0.00460101865319032
1272.0, 0.00222558864724262
1273.0, 0.0024850240903443815
1274.0, 0.0030577812716299094
1275.0, 0.00199483745843833
1276.0, 0.003218665336336737
1277.0, 0.0013682208098019632
1278.0, 0.0015270159356556901
1279.0, 0.0007455483838942009
1280.0, 0.0003227847203576844
1281.0, 0.0010417462764363361
1282.0, 0.0008570634788862949
1283.0, 0.0006390777137702768
1284.0, 0.001398184313436343
1285.0, 0.0011770155258343936
1286.0, 3.4801814629744596e-05
1287, 0.0
1288, 0.0
1289, 0.0
1290, 0.0
1291, 0.0
1292, 0.0
1293, 0.0
1294, 0.0
1295, 0.0
1296, 0.0
1297, 0.0
1298, 0.0
1299, 0.0
1300, 0.0
1301, 0.0
1302, 0.0
1303, 0.0
1304, 0.0
1305, 0.0
1306, 0.0
1307, 0.0
1308, 0.0
1309, 0.0
1310, 0.0
1311, 0.0
1312, 0.0
1313, 0.0
1314, 0.0
1315, 0.0
1316, 0.0
1317, 0.0
1318, 0.0
1319, 0.0
1320, 0.0
1321, 0.0
1322, 0.0
1323, 0.0
1324, 0.0
1325, 0.0
1326, 0.0
1327, 0.0
1328, 0.0
1329, 0.0
1330, 0.0
1331, 0.0
1332, 0.0
1333, 0.0
1334, 0.0
1335, 0.0
1336, 0.0
1337, 0.0
1338, 0.0
1339, 0.0
1340, 0.0
1341, 0.0
1342, 0.0
1343, 0.0
1344, 0.0
1345, 0.0
1346, 0.0
1347, 0.0
1348, 0.0
1349, 0.0
1350, 0.0
1351, 0.0
1352, 0.0
1353, 0.0
1354, 0.0
1355, 0.0
1356, 0.0
1357, 0.0
1358, 0.0
1359, 0.0
1360, 0.0
1361, 0.0
1362, 0.0
1363, 0.0
1364, 0.0
1365, 0.0
1366, 0.0
1367, 0.0
1368, 0.0
1369, 0.0
1370, 0.0
1371, 0.0
1372, 0.0
1373, 0.0
1374, 0.0
1375, 0.0
1376, 0.0
1377, 0.0
1378, 0.0
1379, 0.0
1380, 0.0
1381, 0.0
1382, 0.0
1383, 0.0
1384, 0.0
1385, 0.0
1386, 0.0
1387, 0.0
1388, 0.0
1389, 0.0
1390, 0.0
1391, 0.0
1392, 0.0
1393, 0.0
1394, 0.0
1395, 0.0
1396, 0.0
1397, 0.0
1398, 0.0
1399, 0.0
1400, 0.0
1401, 0.0
1402, 0.0
1403, 0.0
1404, 0.0
1405, 0.0
1406, 0.0
1407, 0.0
1408, 0.0
1409, 0.0
1410, 0.0
1411, 0.0
1412, 0.0
1413, 0.0
1414, 0.0
1415, 0.0
1416, 0.0
1417, 0.0
1418, 0.0
1419, 0.0
1420, 0.0
1421, 0.0
1422, 0.0
1423, 0.0
1424, 0.0
1425, 0.0
1426, 0.0
1427, 0.0
1428, 0.0
1429, 0.0
1430, 0.0
1431, 0.0
1432, 0.0
1433, 0.0
1434, 0.0
1435, 0.0
1436, 0.0
1437, 0.0
1438, 0.0
1439, 0.0
1440, 0.0
1441, 0.0
1442, 0.0
1443, 0.0
1444, 0.0
1445, 0.0
1446, 0.0
1447, 0.0
1448, 0.0
1449, 0.0
1450, 0.0
1451, 0.0
1452, 0.0
1453, 0.0
1454, 0.0
1455, 0.0
1456, 0.0
1457, 0.0
1458, 0.0
1459, 0.0
1460, 0.0
1461, 0.0
1462, 0.0
1463, 0.0
1464, 0.0
1465, 0.0
1466, 0.0
1467, 0.0
1468, 0.0
1469, 0.0
1470, 0.0
1471, 0.0
1472, 0.0
1473, 0.0
1474, 0.0
1475, 0.0
1476, 0.0
1477, 0.0
1478, 0.0
1479, 0.0
1480, 0.0
1481, 0.0
1482, 0.0
1483, 0.0
1484, 0.0
1485, 0.0
1486, 0.0
1487, 0.0
1488, 0.0
1489, 0.0
1490, 0.0
1491, 0.0
1492, 0.0
1493, 0.0
1494, 0.0
1495, 0.0
1496, 0.0
1497, 0.0
1498, 0.0
1499, 0.0
1500, 0.0
1501, 0.0
1502, 0.0
1503, 0.0
1504, 0.0
1505, 0.0
1506, 0.0
1507, 0.0
1508, 0.0
1509, 0.0
1510, 0.0
1511, 0.0
1512, 0.0
1513, 0.0
1514, 0.0
1515, 0.0
1516, 0.0
1517, 0.0
1518, 0.0
1519, 0.0
1520, 0.0
1521, 0.0
1522, 0.0
1523, 0.0
1524, 0.0
1525, 0.0
1526, 0.0
1527, 0.0
1528, 0.0
1529, 0.0
1530, 0.0
1531, 0.0
1532, 0.0
1533, 0.0
1534, 0.0
1535, 0.0
1536, 0.0
1537, 0.0
1538, 0.0
1539, 0.0
1540, 0.0
1541, 0.0
1542, 0.0
1543, 0.0
1544, 0.0
1545, 0.0
1546, 0.0
1547, 0.0
1548, 0.0
1549, 0.0
1550, 0.0
1551, 0.0
1552, 0.0
1553, 0.0
1554, 0.0
1555, 0.0
1556, 0.0
1557, 0.0
1558, 0.0
1559, 0.0
1560, 0.0
1561, 0.0
1562, 0.0
1563, 0.0
1564, 0.0
1565, 0.0
1566, 0.0
1567, 0.0
1568, 0.0
1569, 0.0
1570, 0.0
1571, 0.0
1572, 0.0
1573, 0.0
1574, 0.0
1575, 0.0
1576, 0.0
1577, 0.0
1578, 0.0
1579, 0.0
1580, 0.0
1581, 0.0
1582, 0.0
1583, 0.0
1584, 0.0
1585, 0.0
1586, 0.0
1587, 0.0
1588, 0.0
1589, 0.0
1590, 0.0
1591, 0.0
1592, 0.0
1593, 0.0
1594, 0.0
1595, 0.0
1596, 0.0
1597, 0.0
1598, 0.0
1599, 0.0
