30, 0.0
31, 0.0
32, 0.0
33, 0.0
34, 0.0
35, 0.0
36, 0.0
37, 0.0
38, 0.0
39, 0.0
40, 0.0
41, 0.0
42, 0.0
43, 0.0
44, 0.0
45, 0.0
46, 0.0
47, 0.0
48, 0.0
49, 0.0
50, 0.0
51, 0.0
52, 0.0
53, 0.0
54, 0.0
55, 0.0
56, 0.0
57, 0.0
58, 0.0
59, 0.0
60, 0.0
61, 0.0
62, 0.0
63, 0.0
64, 0.0
65, 0.0
66, 0.0
67, 0.0
68, 0.0
69, 0.0
70, 0.0
71, 0.0
72, 0.0
73, 0.0
74, 0.0
75.0, 0.0011885801887583948
76.0, 0.0023947424088483532
77.0, 0.0005718780844762452
78.0, 0.0016438163756391311
79.0, 0.006570111139377908
80.0, 0.01610746375484658
81.0, 0.02619042987759326
82.0, 0.037114282133216936
83.0, 0.048494449187680796
84.0, 0.05958255875037431
85.0, 0.07172880988284228
86.0, 0.08528920414703146
87.0, 0.10015663052196867
88.0, 0.10066451879025687
89.0, 0.09752894029100709
90.0, 0.08987724531452067
91.0, 0.07439381742622705
92.0, 0.058726102696029694
93.0, 0.04436389851981786
94.0, 0.032225036060273396
95.0, 0.0315176115294781
96.0, 0.03953919095407247
97.0, 0.05514649347271026
98.0, 0.07913383503175464
99.0, 0.1166034110460672
100.0, 0.15706501128477046
101.0, 0.1976304679285626
102.0, 0.22777085890907192
103.0, 0.23612819885796646
104.0, 0.22786705369968094
105.0, 0.20396527313088328
106.0, 0.17771087357970763
107.0, 0.14887854135806422
108.0, 0.11973194603736999
109.0, 0.1091054827235185
110.0, 0.09736907561210235
111.0, 0.08723138287840355
112.0, 0.08161719869874054
113.0, 0.07949677066954014
114.0, 0.07358641466799369
115.0, 0.0648470402211155
116.0, 0.061360561134408444
117.0, 0.05627455304192432
118.0, 0.04933194343355762
119.0, 0.03999520298731696
120.0, 0.029366971450913174
121.0, 0.02135159781829788
122.0, 0.016209433259075593
123.0, 0.01502351034381128
124.0, 0.016952410851192035
125.0, 0.023039114074570377
126.0, 0.03414732202513327
127.0, 0.044327269325845194
128.0, 0.05464501389669622
129.0, 0.0637244121820376
130.0, 0.06832241160301328
131.0, 0.0676816138336644
132.0, 0.0657624490592111
133.0, 0.06333671001626599
134.0, 0.058081295298283646
135.0, 0.0547969783556433
136.0, 0.05109857002639853
137.0, 0.04388515404084359
138.0, 0.04302829109114856
139.0, 0.040384529705301736
140.0, 0.03595602022011598
141.0, 0.036726710875972894
142.0, 0.03912492678250208
143.0, 0.04290356167355334
144.0, 0.04817329463141987
145.0, 0.05521583883156149
146.0, 0.060655438028829445
147.0, 0.06474226111275352
148.0, 0.06851188812585138
149.0, 0.06702020496517752
150.0, 0.06346707920334052
151.0, 0.05882597837549207
152.0, 0.051277864772180416
153.0, 0.04294173668786677
154.0, 0.03489112651346762
155.0, 0.029038338695435182
156.0, 0.022599259430159006
157.0, 0.018022671133717045
158.0, 0.015561274297938826
159.0, 0.013084307650932483
160.0, 0.012604226745148533
161.0, 0.012424820079171804
162.0, 0.011180751543921882
163.0, 0.011985179704931489
164.0, 0.015349091376436206
165.0, 0.020093670189588606
166.0, 0.022213940152045884
167.0, 0.031228952096791343
168.0, 0.0415454791513553
169.0, 0.051183032798287675
170.0, 0.06485942522265271
171.0, 0.08066555509467814
172.0, 0.09850358349641761
173.0, 0.11873994345563957
174.0, 0.14207648297015954
175.0, 0.16064184879420373
176.0, 0.17302333597811936
177.0, 0.17882337481159352
178.0, 0.16765041086150329
179.0, 0.1468595724236896
180.0, 0.11987043494933794
181.0, 0.09610080352718298
182.0, 0.07205232325046916
183.0, 0.049936984630297845
184.0, 0.03645022372644207
185.0, 0.02503549426549767
186.0, 0.016890816545320157
187.0, 0.012306739185422955
188.0, 0.007804531609571984
189.0, 0.004097221459675334
190.0, 0.0017586179431706482
191.0, 0.0017198195485351017
192.0, 0.002473639191619165
193.0, 0.0027939493937911984
194.0, 0.003040878280707721
195.0, 0.0050319412587879865
196.0, 0.0042290745910010035
197.0, 0.003997929917990699
198.0, 0.005589685775208541
199.0, 0.0038237227800348643
200.0, 0.003151975080073796
201.0, 0.0035665398584063474
202.0, 0.005305141857167955
203.0, 0.005160787713789195
204.0, 0.004734829771947435
205.0, 0.004490044443111315
206.0, 0.0057063961810277074
207.0, 0.005599817681610206
208.0, 0.005309224236423946
209.0, 0.00537389914554924
210.0, 0.005388673149871821
211.0, 0.005272774661317537
212.0, 0.004392754141255362
213.0, 0.0015320926263858905
214.0, 0.0013603663956080535
215.0, 0.0009927054797885585
216.0, 0.00036322651959898615
217.0, 0.0015813120580984137
218.0, 0.003047994637156219
219.0, 0.0042016598692373374
220.0, 0.004725738891667403
221.0, 0.006793810182396421
222.0, 0.009037063916114226
223.0, 0.010607166231080383
224.0, 0.009947942817046682
225.0, 0.009419082053256143
226.0, 0.009000170896039016
227.0, 0.008282026799094549
228.0, 0.005097195954681135
229.0, 0.004404166989738417
230.0, 0.004376007532300727
231.0, 0.004179028604715512
232.0, 0.0041407780908339215
233.0, 0.003974897466723238
234.0, 0.0032935161563011567
235.0, 0.0014152099330897196
236.0, 0.005193520258759279
237.0, 0.008031883446139023
238.0, 0.009168833634227984
239.0, 0.008739027825811754
240.0, 0.009166865852636529
241.0, 0.01024333274794053
242.0, 0.011898452735942889
243.0, 0.013323621693916767
244.0, 0.013828849127554856
245.0, 0.014032282656043499
246.0, 0.014590463498429553
247.0, 0.014798891145080187
248.0, 0.014873671319168039
249.0, 0.01464351184120522
250.0, 0.013466791862264885
251.0, 0.01336700434348493
252.0, 0.0152381197510527
253.0, 0.018626321867904135
254.0, 0.015005524658802807
255.0, 0.01680872810082062
256.0, 0.019264843703799217
257.0, 0.018735370718682462
258.0, 0.02226004657703413
259.0, 0.025011090664409177
260.0, 0.026405690322723985
261.0, 0.02529592466818294
262.0, 0.02626587632433757
263.0, 0.027299246229129635
264.0, 0.02815107753569882
265.0, 0.029443305511422525
266.0, 0.030035798311935303
267.0, 0.03027838060741788
268.0, 0.030311148686151833
269.0, 0.03020079798341187
270.0, 0.03030331860762548
271.0, 0.0310541144088577
272.0, 0.03307449362391701
273.0, 0.03200251231369425
274.0, 0.03269036072304325
275.0, 0.03410749582689368
276.0, 0.032407239129845465
277.0, 0.03179528951439038
278.0, 0.032458562900227174
279.0, 0.033979636337646425
280.0, 0.032607158031752695
281.0, 0.03318503192411218
282.0, 0.03409716941535309
283.0, 0.034452512766615324
284.0, 0.03711929906462804
285.0, 0.03780923448852653
286.0, 0.037884449582172845
287.0, 0.03913483459081437
288.0, 0.042235563435157365
289.0, 0.04445196920251388
290.0, 0.04627781747849629
291.0, 0.04996067153491334
292.0, 0.050792255411962604
293.0, 0.051597704131275304
294.0, 0.05332242559124394
295.0, 0.05748161163600103
296.0, 0.060324291626970096
297.0, 0.06274109804265632
298.0, 0.06518045106084419
299.0, 0.06601150476314098
300.0, 0.06699997914652464
301.0, 0.06722851321741655
302.0, 0.06544363854865189
303.0, 0.06725554126141746
304.0, 0.06763025814961632
305.0, 0.06642394137257653
306.0, 0.06404948838980469
307.0, 0.0645774452517166
308.0, 0.06311707920370713
309.0, 0.059900671846565556
310.0, 0.06232157735104223
311.0, 0.06083511627579267
312.0, 0.06000760539029888
313.0, 0.061945161108145984
314.0, 0.0666389376835143
315.0, 0.07119533004171262
316.0, 0.07796448546977872
317.0, 0.0892882913761505
318.0, 0.09851483133186972
319.0, 0.10592259267683038
320.0, 0.11264145429497088
321.0, 0.12055905546731724
322.0, 0.12508851643048097
323.0, 0.12748915110431736
324.0, 0.12725670219042293
325.0, 0.12189064338139788
326.0, 0.11563396665969033
327.0, 0.10742422835279757
328.0, 0.09718761256028773
329.0, 0.0867908253659136
330.0, 0.07841949298219428
331.0, 0.06959293007105662
332.0, 0.05921880475154664
333.0, 0.05205036062518019
334.0, 0.044902049114278315
335.0, 0.03863635218061984
336.0, 0.034151877801233674
337.0, 0.03288943324878291
338.0, 0.02872250383947963
339.0, 0.024248360050662825
340.0, 0.024093312547311053
341.0, 0.020132973528930696
342.0, 0.017983814791609824
343.0, 0.017346343246229953
344.0, 0.015639633067419143
345.0, 0.014448093308398349
346.0, 0.01432095312581842
347.0, 0.014908697262297278
348.0, 0.01362961381017251
349.0, 0.0147425370117496
350.0, 0.014628960070267486
351.0, 0.012166183331050557
352.0, 0.011810197599337992
353.0, 0.012296579400804614
354.0, 0.012372784257610112
355.0, 0.011193036486250547
356.0, 0.009708120941282082
357.0, 0.008428692500200933
358.0, 0.008404830356345455
359.0, 0.010920360492488547
360.0, 0.009394032826748963
361.0, 0.009619263240934725
362.0, 0.010466479160862158
363.0, 0.009548119398555637
364.0, 0.006835864126884759
365.0, 0.006066645672579707
366.0, 0.006699949839627643
367.0, 0.006144558951249787
368.0, 0.005921735039146271
369.0, 0.006424321131412989
370.0, 0.00692638809347723
371.0, 0.0037711448620999853
372.0, 0.004364670257582203
373.0, 0.0050755453015203815
374.0, 0.004833558992318043
375.0, 0.004730595141222788
376.0, 0.004451336009953097
377.0, 0.004482101269119841
378.0, 0.005042911502288846
379.0, 0.0054364172710422935
380.0, 0.005120419166245319
381.0, 0.00593590036150615
382.0, 0.009253619576546832
383.0, 0.008701258133927907
384.0, 0.008714571091183286
385.0, 0.00881379072262332
386.0, 0.008474560014219716
387.0, 0.007921863016622784
388.0, 0.009479469897397945
389.0, 0.010531909141001343
390.0, 0.006783206328979068
391.0, 0.0054839956192984565
392.0, 0.0038567700123535035
393.0, 0.0019280271419562746
394.0, 0.0002603894680182641
395.0, 0.0007593954058355742
396.0, 0.0007386172522293758
397.0, 0.00018185850392574604
398.0, 0.00019976031288617907
399.0, 0.0006812150581604027
400.0, 0.0006018681453733491
401.0, 0.00023814783055796048
402.0, 0.0017186177486034487
403.0, 0.001400347311406404
404.0, 0.000940830379177483
405.0, 0.0010582535596917579
406.0, 0.003076246374025854
407.0, 0.0014888091250999061
408.0, 6.698462383043695e-05
409.0, 0.00029898332823006515
410.0, 0.0018162485328126663
411.0, 0.0009846497443446278
412.0, 0.0008215000215477378
413.0, 0.0026257661526175985
414.0, 0.002017867555202656
415.0, 0.0010148894749405278
416.0, 0.0012501606545157647
417.0, 0.003642293172683334
418.0, 0.001963966110241329
419.0, 0.0012799009503112724
420.0, 0.0012245276855938673
421.0, 0.0015100518130589094
422.0, 0.0011970618346230808
423.0, 0.0012141781974202301
424.0, 0.0010482633739292947
425.0, 0.0001583746792127072
426.0, 0.001296480329142149
427.0, 0.0013153375029913712
428.0, 0.0008461753706388518
429.0, 0.000727647121497416
430.0, 0.0010445636498715267
431.0, 0.0013129525431370573
432.0, 0.0014817977158710746
433.0, 0.0014985796722995983
434.0, 0.003708200547481873
435.0, 0.0038902448273590504
436.0, 0.003382999637970377
437.0, 0.004982952257290732
438.0, 0.0042303999472355905
439.0, 0.004173386312247519
440.0, 0.004457070715859245
441.0, 0.003833054440830057
442.0, 0.001308534163078449
443.0, 0.0019598546224365685
444.0, 0.004354988605051243
445.0, 0.003999600706646285
446.0, 0.0032694969941278592
447.0, 0.0030785602756942614
448.0, 0.0034211109853167425
449.0, 0.003990638438225099
450.0, 0.004399385129891278
451.0, 0.005733524247029077
452.0, 0.007988080971206759
453.0, 0.010707001300588081
454.0, 0.009353427807532226
455.0, 0.008859256559605625
456.0, 0.009610921563879072
457.0, 0.010156481855601474
458.0, 0.00889758342841106
459.0, 0.009524162740786117
460.0, 0.011274779679176426
461.0, 0.009354161065504954
462.0, 0.011234020584646405
463.0, 0.012298743717431485
464.0, 0.011788740680407292
465.0, 0.010340050503255841
466.0, 0.013771431251654018
467.0, 0.015781506631051146
468.0, 0.016067431783234006
469.0, 0.01835962321597885
470.0, 0.02106848524596157
471.0, 0.022291161053160206
472.0, 0.023518983449620706
473.0, 0.03159899249457025
474.0, 0.0381392159071753
475.0, 0.04514536628682512
476.0, 0.05299557136976349
477.0, 0.061445527632448566
478.0, 0.07253106887367938
479.0, 0.08277984984017614
480.0, 0.09018581769112548
481.0, 0.09040953697880175
482.0, 0.09078831142039803
483.0, 0.08285631782800915
484.0, 0.06869552420408657
485.0, 0.061229866091098956
486.0, 0.05032802462751411
487.0, 0.0394130946758587
488.0, 0.03028231535385117
489.0, 0.02647338664234423
490.0, 0.022508741913053788
491.0, 0.018906401350777688
492.0, 0.015999049322344815
493.0, 0.014494793048121821
494.0, 0.013008055984794374
495.0, 0.011107518127005273
496.0, 0.008669210409774196
497.0, 0.005541040279575262
498.0, 0.007299430352872667
499.0, 0.007613340995997289
500.0, 0.005912452894233705
501.0, 0.00314265676844899
502.0, 0.005713131413135371
503.0, 0.006175102024166288
504.0, 0.005445813741141563
505.0, 0.00764949344996644
506.0, 0.004428809115980523
507.0, 0.00461106630330766
508.0, 0.007206274662466409
509.0, 0.008523702792722595
510.0, 0.007230808248449477
511.0, 0.007753006143117036
512.0, 0.008436084173834206
513.0, 0.005892385751336326
514.0, 0.0057270085051768045
515.0, 0.006380030332656714
516.0, 0.00641351381484969
517.0, 0.003913170442211684
518.0, 0.005429413511383564
519.0, 0.005334784974549335
520.0, 0.005211520660889115
521.0, 0.007203512389353609
522.0, 0.005797707040593668
523.0, 0.003311590508822493
524.0, 0.0031398602839856644
525.0, 0.008474589217133814
526.0, 0.006648827624526068
527.0, 0.0067179668800517916
528.0, 0.00765176478226779
529.0, 0.008588392235469255
530.0, 0.009537128147659973
531.0, 0.0136222022567751
532.0, 0.01617345593489571
533.0, 0.014786185376304738
534.0, 0.019420360293360514
535.0, 0.01817548593892745
536.0, 0.017596841302326388
537.0, 0.02035560140827481
538.0, 0.01928948556884215
539.0, 0.01950728200070188
540.0, 0.0203502847328547
541.0, 0.021403033379350487
542.0, 0.021826636098729753
543.0, 0.023139901431267925
544.0, 0.023954435075094718
545.0, 0.023650227326169376
546.0, 0.021490311384389248
547.0, 0.026308453618346002
548.0, 0.028517971950761282
549.0, 0.027756779157536562
550.0, 0.02964884043940317
551.0, 0.0349377123628637
552.0, 0.03843464956734879
553.0, 0.04133713724297229
554.0, 0.048155560078566896
555.0, 0.05669741755006966
556.0, 0.06604105479012458
557.0, 0.0778598578713853
558.0, 0.09502683895927655
559.0, 0.11364327474041974
560.0, 0.14289554598259338
561.0, 0.17902212588770788
562.0, 0.21697466680594762
563.0, 0.2595885951339776
564.0, 0.29744188010740163
565.0, 0.32053736163872776
566.0, 0.3204615479770799
567.0, 0.29772563299616833
568.0, 0.2563684733904524
569.0, 0.21354577136588676
570.0, 0.17855685533528057
571.0, 0.1402713515704766
572.0, 0.1137555901501521
573.0, 0.09576569808077806
574.0, 0.08340315251482847
575.0, 0.06823239980571386
576.0, 0.058689458087066416
577.0, 0.0534237802005856
578.0, 0.05049688160280854
579.0, 0.044723059515763115
580.0, 0.042402213604572345
581.0, 0.03890945705901353
582.0, 0.03525944683339752
583.0, 0.03540625979532205
584.0, 0.03288243601686015
585.0, 0.03256396137123672
586.0, 0.03427099279038171
587.0, 0.03709284389663052
588.0, 0.03375383220020707
589.0, 0.036054861165321264
590.0, 0.039583978277527486
591.0, 0.04003480414397877
592.0, 0.04360699878485047
593.0, 0.0469201758000765
594.0, 0.05111131507244609
595.0, 0.05723480374810497
596.0, 0.06823922953270743
597.0, 0.07606753777836825
598.0, 0.08904926708603855
599.0, 0.10896875969266383
600.0, 0.12888715212267082
601.0, 0.1528455645510692
602.0, 0.18963098098506814
603.0, 0.2373182218795973
604.0, 0.285296968006702
605.0, 0.36429574458137753
606.0, 0.45870080639644856
607.0, 0.5678353110164543
608.0, 0.6934406032133833
609.0, 0.8324397290802231
610.0, 0.9319105807748445
611.0, 0.9877168381819675
612.0, 0.9967612800144184
613.0, 0.9015048098502332
614.0, 0.7808538003585531
615.0, 0.6523483790537759
616.0, 0.5275243297844239
617.0, 0.41155309768223935
618.0, 0.33596666409475096
619.0, 0.27267534949159006
620.0, 0.21522488204046317
621.0, 0.1771538832320248
622.0, 0.14872091617441155
623.0, 0.12346842905074366
624.0, 0.10273682074825125
625.0, 0.0918423141667842
626.0, 0.07572185454445118
627.0, 0.06472564419975702
628.0, 0.056992432888258115
629.0, 0.04925604745599696
630.0, 0.04077691060613119
631.0, 0.03765883651307786
632.0, 0.03438899991946429
633.0, 0.027854704812066807
634.0, 0.026081382837831128
635.0, 0.024017696866287786
636.0, 0.020197072491795462
637.0, 0.015160086515583438
638.0, 0.013388311747527321
639.0, 0.012737854954530012
640.0, 0.010417976208140294
641.0, 0.007924822298419927
642.0, 0.009511232694002553
643.0, 0.006188056060307276
644.0, 0.0037345794614314534
645.0, 0.0021475260919047714
646.0, 0.00099642054885759
647.0, 0.002398423188374167
648.0, 0.004872446203111746
649.0, 0.005767518867042269
650.0, 0.003990413915564507
651.0, 0.003742556213709051
652.0, 0.0018437531599417624
653.0, 0.0007645984531127231
654.0, 0.001260450592509421
655.0, 0.0031709378868077396
656.0, 0.0011715040901245765
657.0, 0.003120257859004317
658.0, 0.006792722936022978
659.0, 0.006900379706873193
660.0, 0.0119442955631486
661.0, 0.01696860626779308
662.0, 0.02046851942372774
663.0, 0.02217513298556465
664.0, 0.032757346678559486
665.0, 0.04295580366520074
666.0, 0.052135262374135474
667.0, 0.0610451316369932
668.0, 0.07388459286697424
669.0, 0.07413451412125531
670.0, 0.07645613405069496
671.0, 0.07720714397341366
672.0, 0.06420533831334284
673.0, 0.05926892787546884
674.0, 0.05113276557572077
675.0, 0.04099594574593623
676.0, 0.03089087071169821
677.0, 0.025565760550702428
678.0, 0.020806414257639582
679.0, 0.016061745789545858
680.0, 0.01180552483890003
681.0, 0.011355131198569166
682.0, 0.006423867036690648
683.0, 0.006231576231225681
684.0, 0.008654415658537617
685.0, 0.005769606159735641
686.0, 0.00664478657030229
687.0, 0.00794431905584636
688.0, 0.006888912686624927
689.0, 0.0021529580827844407
690.0, 0.009777581475760314
691.0, 0.008406082131253103
692.0, 0.00828377769479991
693.0, 0.011613044522391043
694.0, 0.008350056122895277
695.0, 0.00606614969196718
696.0, 0.0074590149984030026
697.0, 0.009990456065874427
698.0, 0.008419674218790677
699.0, 0.009596640093015555
700.0, 0.011608530844498763
701.0, 0.011049313853667923
702.0, 0.006749154867670609
703.0, 0.013638687772783199
704.0, 0.011344070466102715
705.0, 0.010555983204061566
706.0, 0.013727344467206273
707.0, 0.016294514604986002
708.0, 0.014969457942559427
709.0, 0.016854642477631816
710.0, 0.019601963117281837
711.0, 0.018974609175649335
712.0, 0.018347922370435716
713.0, 0.021514593561846287
714.0, 0.02207727533211834
715.0, 0.01830465116104442
716.0, 0.022383477320465403
717.0, 0.022215641441462597
718.0, 0.022440482528055077
719.0, 0.023138510376473038
720.0, 0.02213970602654289
721.0, 0.02096111426057385
722.0, 0.02239310503236247
723.0, 0.023291147369045705
724.0, 0.021244299082946873
725.0, 0.022510671744196745
726.0, 0.02215424071901703
727.0, 0.021163300205447932
728.0, 0.021099741685905202
729.0, 0.02557149503889931
730.0, 0.02509753475343482
731.0, 0.026536815450380648
732.0, 0.0299914859160826
733.0, 0.034521031949282285
734.0, 0.040702426156168266
735.0, 0.048836965837402366
736.0, 0.057323366694791045
737.0, 0.06663792138006475
738.0, 0.08263503562740619
739.0, 0.10436821512536558
740.0, 0.12447905613000826
741.0, 0.14694609183865354
742.0, 0.17995941214028885
743.0, 0.20244626571693872
744.0, 0.2215369841740058
745.0, 0.23483783861230487
746.0, 0.23807477905157018
747.0, 0.21426116021198277
748.0, 0.19949809179349054
749.0, 0.17698982806940705
750.0, 0.1486782706980953
751.0, 0.12619986195498242
752.0, 0.10659621810162968
753.0, 0.08954733689239595
754.0, 0.07600371747239436
755.0, 0.06583443656564239
756.0, 0.0534166412560461
757.0, 0.04530374697421703
758.0, 0.0397988628343392
759.0, 0.03724636709919632
760.0, 0.03935778606081081
761.0, 0.024615117979217404
762.0, 0.019181463384037194
763.0, 0.016347926007874446
764.0, 0.010453847170505404
765.0, 0.012877736601935232
766.0, 0.005969024552482407
767.0, 0.0037490209326713265
768.0, 0.006569394550109001
769.0, 0.005233627290115628
770.0, 0.003334046057412412
771.0, 0.0015193024885921949
772.0, 0.0008136725821935063
773.0, 0.0016165006783063264
774.0, 0.0003535627894873082
775.0, 0.0014705747164228168
776.0, 0.002649186371092584
777.0, 0.004551255844159919
778.0, 0.01017765138624666
779.0, 0.007675707627829404
780.0, 0.011677713119579764
781.0, 0.018096706142775455
782.0, 0.023001965216395477
783.0, 0.027903954054616185
784.0, 0.04437006066958249
785.0, 0.054580081682292905
786.0, 0.06043965916492611
787.0, 0.07579221871240757
788.0, 0.0760230891221765
789.0, 0.07227207296113346
790.0, 0.06830963484252484
791.0, 0.06472029591846035
792.0, 0.04929623863521785
793.0, 0.04346202268945254
794.0, 0.0373128096837143
795.0, 0.02832417388080559
796.0, 0.01632137325948335
797.0, 0.01908515563349754
798.0, 0.016060852853117626
799.0, 0.011118551276657573
800.0, 0.007616680829566779
801.0, 0.00910882795944322
802.0, 0.003962945600570924
803.0, 0.0031375580865024943
804.0, 0.004119074778779969
805.0, 0.0011161592063643297
806.0, 0.0011453387081033967
807.0, 0.0010645373051105158
808.0, 0.0007166816061654991
809.0, 0.0006239218454196753
810.0, 0.0026902190576901545
811.0, 0.0038436525560538357
812.0, 0.002320818827062627
813.0, 0.0004940647770865149
814.0, 0.0007586815999414957
815.0, 0.00015707198125716905
816.0, 1.5176497193653302e-05
817.0, 0.0020667137615899608
818.0, 0.00449822695058221
819.0, 0.0021145171731692205
820.0, 0.0018792559208604634
821.0, 0.00207149083092064
822.0, 0.0029689392752653967
823.0, 0.004731289817108368
824.0, 0.006990506263959648
825.0, 0.004682283971675927
826.0, 0.006561960488358192
827.0, 0.009997071091016057
828.0, 0.008830930207842369
829.0, 0.015483785240837942
830.0, 0.014842998129434305
831.0, 0.015460923445780848
832.0, 0.020580659094586687
833.0, 0.027233666878911843
834.0, 0.027027810428583897
835.0, 0.030430715119061758
836.0, 0.035566442152379314
837.0, 0.03904355526878967
838.0, 0.03595639914217159
839.0, 0.03804641507592059
840.0, 0.04126660405067742
841.0, 0.041627037225083215
842.0, 0.034330278385868995
843.0, 0.040775182626670126
844.0, 0.035478782780677065
845.0, 0.031031500904304298
846.0, 0.03219629244251415
847.0, 0.02910440094336606
848.0, 0.026530982614827225
849.0, 0.025339585240503677
850.0, 0.023628942306433087
851.0, 0.01967635456707546
852.0, 0.016773552781251654
853.0, 0.01729157811951777
854.0, 0.01591791614176345
855.0, 0.012760323266451065
856.0, 0.011006701616318181
857.0, 0.010968317080559334
858.0, 0.010106968516503716
859.0, 0.008581117256865042
860.0, 0.006566614554057593
861.0, 0.004236484780229657
862.0, 0.00835340515143397
863.0, 0.007245428281041975
864.0, 0.004706284614899909
865.0, 0.005536667547354759
866.0, 0.007233196340516519
867.0, 0.005282432509924929
868.0, 0.005341735067499028
869.0, 0.007284601044007804
870.0, 0.008327180124782054
871.0, 0.0048437653159449715
872.0, 0.008098918549784444
873.0, 0.009047698318378806
874.0, 0.006670735399042086
875.0, 0.010672068454426503
876.0, 0.010341944413912917
877.0, 0.009219257789127465
878.0, 0.009623510824551111
879.0, 0.011686527751272793
880.0, 0.007428486078372045
881.0, 0.009160587190811132
882.0, 0.00986617793881414
883.0, 0.009068050321528097
884.0, 0.008101064800392707
885.0, 0.010377208685386271
886.0, 0.007145773762057489
887.0, 0.004836058841515263
888.0, 0.004662244751403599
889.0, 0.004630433201108002
890.0, 0.0023026194917723968
891.0, 0.0037445422810103548
892.0, 0.004554258625297546
893.0, 0.0029071023534656738
894.0, 0.0009503359826517541
895.0, 0.0043626185718062
896.0, 0.006007001542365896
897.0, 0.005014966833281084
898.0, 0.0019310548259681068
899.0, 0.0003056498443699768
900.0, 0.0006239041898428294
901.0, 0.0012382955243172469
902.0, 0.002309679649275596
903.0, 0.003942906421682803
904.0, 0.0014154474536396395
905.0, 0.0007462138683383942
906.0, 0.001371616124575907
907.0, 0.0021299976616082354
908.0, 0.001401572325529726
909.0, 0.0006743773246728
910.0, 0.0015465234935962823
911.0, 0.0015205057320127227
912.0, 0.0009023053306734756
913.0, 0.0032632055106435872
914.0, 0.001909705143161979
915.0, 0.0010887344314097346
916.0, 0.001488107693008141
917.0, 0.0026195088509004703
918.0, 0.0016090660075344068
919.0, 0.004837137927566516
920.0, 0.0032799671518469915
921.0, 0.001092703072660579
922.0, 0.00208902747706977
923.0, 0.0023648933499198885
924.0, 0.0007708750894248349
925.0, 0.0009119102127488482
926.0, 0.0017515234342827459
927.0, 0.0016116855587998732
928.0, 0.0030986524617567296
929.0, 0.002518573080880399
930.0, 0.0034574275480376026
931.0, 0.004254131304500609
932.0, 0.0015713108662510145
933.0, 0.004797392276177967
934.0, 0.005290917621287835
935.0, 0.0031035629051152343
936.0, 0.0021593642281925477
937.0, 0.009357357209559677
938.0, 0.003295870638110506
939.0, 0.0024452461445040865
940.0, 0.004770978556103335
941.0, 0.00746295903623921
942.0, 0.00643144685332574
943.0, 0.0074717788234495075
944.0, 0.008431778786241947
945.0, 0.00809943119289345
946.0, 0.007755981703900376
947.0, 0.01330847693126692
948.0, 0.012298903155138681
949.0, 0.01008230102882492
950.0, 0.010643062804856177
951.0, 0.014929763254242492
952.0, 0.01680316206730418
953.0, 0.016906759157067328
954.0, 0.01645981105326663
955.0, 0.01736433402280205
956.0, 0.02053703044031121
957.0, 0.023356446254449544
958.0, 0.02514080572959032
959.0, 0.02852966389056472
960.0, 0.03168417877486179
961.0, 0.03285248409573898
962.0, 0.034533336479057354
963.0, 0.04229834058222155
964.0, 0.044928159119495395
965.0, 0.04631974781927473
966.0, 0.052152475184650965
967.0, 0.05519055830672051
968.0, 0.052634983686739925
969.0, 0.054138948388727286
970.0, 0.054951655116715
971.0, 0.04847935699570372
972.0, 0.051133284684294955
973.0, 0.05216877332943723
974.0, 0.049506016812060905
975.0, 0.04665666217801974
976.0, 0.04800010087616322
977.0, 0.042486484825510026
978.0, 0.040953492209711444
979.0, 0.04140288320248648
980.0, 0.0413502999136269
981.0, 0.03860265954801658
982.0, 0.03950548371491415
983.0, 0.03946235018793542
984.0, 0.03789301970322328
985.0, 0.037202839901250416
986.0, 0.04033679040472432
987.0, 0.03500726434133075
988.0, 0.037350098470326984
989.0, 0.042209397998936034
990.0, 0.042944410286519887
991.0, 0.034102699167181276
992.0, 0.0468947271637639
993.0, 0.052348733594549564
994.0, 0.05254290244149513
995.0, 0.052869845448974426
996.0, 0.05957138853259478
997.0, 0.058134000109832114
998.0, 0.06169553143185421
999.0, 0.06380694126780025
1000.0, 0.06272947828887315
1001.0, 0.05970427685191677
1002.0, 0.06314439988799443
1003.0, 0.057474482127264144
1004.0, 0.051658393524212524
1005.0, 0.04988407463378084
1006.0, 0.05277018217066523
1007.0, 0.04371528793939778
1008.0, 0.04241820430262715
1009.0, 0.03907918793613894
1010.0, 0.0351593740129874
1011.0, 0.03635769296144315
1012.0, 0.03628212012922106
1013.0, 0.02898802312466616
1014.0, 0.025503081219585035
1015.0, 0.026715875691811806
1016.0, 0.02845211297956853
1017.0, 0.019576363224787726
1018.0, 0.024719809941010307
1019.0, 0.02508174208709308
1020.0, 0.02124970254717314
1021.0, 0.020146794367788705
1022.0, 0.024175509300830962
1023.0, 0.019235025922773045
1024.0, 0.021564074657355513
1025.0, 0.02556103210456401
1026.0, 0.021959299382002077
1027.0, 0.016792678653106075
1028.0, 0.023352177853602715
1029.0, 0.021677316010809054
1030.0, 0.019085488168995607
1031.0, 0.023876962722139607
1032.0, 0.022230601892837293
1033.0, 0.02075860450634045
1034.0, 0.020955099302754607
1035.0, 0.020945208250797397
1036.0, 0.019765520635048408
1037.0, 0.02105721561719941
1038.0, 0.027196427355833032
1039.0, 0.02614607966164477
1040.0, 0.02525255328389624
1041.0, 0.029227266879931966
1042.0, 0.032086401381547086
1043.0, 0.03124396228268078
1044.0, 0.033071258458729706
1045.0, 0.03531451736575176
1046.0, 0.037084497046215345
1047.0, 0.04057001660982621
1048.0, 0.04076544236024341
1049.0, 0.04340635585921411
1050.0, 0.051322375392117495
1051.0, 0.06049801684333639
1052.0, 0.06015061454501673
1053.0, 0.06433673436675408
1054.0, 0.07294074485647806
1055.0, 0.08216046992066685
1056.0, 0.09154674898980697
1057.0, 0.10269869200728717
1058.0, 0.11016168896997017
1059.0, 0.11453459029753504
1060.0, 0.1252380352731661
1061.0, 0.13552381555720883
1062.0, 0.1344403469691971
1063.0, 0.13787495975187
1064.0, 0.13664754837866366
1065.0, 0.13161787114877993
1066.0, 0.12621422716987282
1067.0, 0.12225527041497078
1068.0, 0.11095353977481723
1069.0, 0.10555770188506211
1070.0, 0.0993508903006307
1071.0, 0.09089622516431219
1072.0, 0.08200264963600366
1073.0, 0.0803654903129899
1074.0, 0.07568554605391536
1075.0, 0.06922665719746482
1076.0, 0.06502751870088407
1077.0, 0.06329426942226365
1078.0, 0.05868205916343868
1079.0, 0.053709644762732815
1080.0, 0.05288600031198089
1081.0, 0.05113689311167926
1082.0, 0.04730611384938125
1083.0, 0.04362092396201132
1084.0, 0.04275072497234648
1085.0, 0.04104116194064221
1086.0, 0.04200308574193867
1087.0, 0.040850038055120476
1088.0, 0.03248909595171018
1089.0, 0.0326050410080507
1090.0, 0.03632129733235096
1091.0, 0.0314499714686946
1092.0, 0.028000726872057097
1093.0, 0.032255694036012986
1094.0, 0.024481242946963404
1095.0, 0.02037347961908261
1096.0, 0.02162627554480945
1097.0, 0.020174311213671966
1098.0, 0.015192683968105136
1099.0, 0.017681233554809102
1100.0, 0.01741768269719961
1101.0, 0.014583985727187321
1102.0, 0.01470350898150265
1103.0, 0.016081768972089888
1104.0, 0.012639911366167628
1105.0, 0.012163660594857878
1106.0, 0.01610998442947397
1107.0, 0.014252877908484432
1108.0, 0.01172950810489415
1109.0, 0.015108404317430482
1110.0, 0.01265115709750671
1111.0, 0.004318900825073473
1112.0, 0.010004861490379782
1113.0, 0.013816802759506886
1114.0, 0.00788826812752869
1115.0, 0.009978867433546732
1116.0, 0.016117722600139286
1117.0, 0.009718053705659837
1118.0, 0.00887836893794505
1119.0, 0.014268329081146044
1120.0, 0.011370799988099768
1121.0, 0.007719136203475021
1122.0, 0.016589494272175043
1123.0, 0.016132219437084427
1124.0, 0.010977615098806487
1125.0, 0.012697082004678983
1126.0, 0.017166479354912445
1127.0, 0.011267847870636418
1128.0, 0.013181541354653294
1129.0, 0.016181663492888132
1130.0, 0.01510344822713855
1131.0, 0.014025155151738288
1132.0, 0.020183982339492566
1133.0, 0.017121425044963275
1134.0, 0.014026586234760502
1135.0, 0.016289986427585446
1136.0, 0.02383159167336004
1137.0, 0.017390623151137496
1138.0, 0.02136097276200559
1139.0, 0.02293462168252154
1140.0, 0.019526341680117142
1141.0, 0.01542139501197536
1142.0, 0.026256690316955197
1143.0, 0.021463816253705845
1144.0, 0.01999094923126048
1145.0, 0.02376453979613533
1146.0, 0.027103476521323895
1147.0, 0.018943107424336855
1148.0, 0.025418542348691724
1149.0, 0.022936262220451302
1150.0, 0.021851739975661623
1151.0, 0.02504960083925221
1152.0, 0.029762544027554717
1153.0, 0.023716294887556694
1154.0, 0.029162447923256
1155.0, 0.03220103213348365
1156.0, 0.029814581305207512
1157.0, 0.02514308143429391
1158.0, 0.027837470167513118
1159.0, 0.029142874613219957
1160.0, 0.02688252780839702
1161.0, 0.028692237299045457
1162.0, 0.028973051433818016
1163.0, 0.01960638799514272
1164.0, 0.02409681833170851
1165.0, 0.025948709251717494
1166.0, 0.01915835183654677
1167.0, 0.016577021387745902
1168.0, 0.021985810150117753
1169.0, 0.016916797307994953
1170.0, 0.015997606909735947
1171.0, 0.018637425780795105
1172.0, 0.016446907502702456
1173.0, 0.012165320022270946
1174.0, 0.01332159435387607
1175.0, 0.01143903934268
1176.0, 0.009206148603642847
1177.0, 0.00876628032134467
1178.0, 0.006745522603456345
1179.0, 0.0032065577202292405
1180.0, 0.005917608271671702
1181.0, 0.008828692510267367
1182.0, 0.005555705321651235
1183.0, 0.004911843293870721
1184.0, 0.006030128073728574
1185.0, 0.0035418723242449475
1186.0, 0.0009177273091019269
1187.0, 0.00909223049865149
1188.0, 0.006492204661555586
1189.0, 0.003109839265384171
1190.0, 0.00546540485894256
1191.0, 0.006505973747164946
1192.0, 0.0014448512879092772
1193.0, 0.0008387077226052163
1194.0, 0.0027587048395129707
1195.0, 0.004156376066601455
1196.0, 0.003547174565657093
1197.0, 0.007582770132894873
1198.0, 0.002088585672025881
1199.0, 0.0006267623089965676
1200.0, 0.0019665284091883685
1201.0, 0.002962457098316322
1202.0, 0.001122456988435618
1203.0, 0.005146774296301343
1204.0, 0.00360747227540583
1205.0, 0.003825864345638609
1206.0, 0.00594395035668143
1207.0, 0.006700004364105595
1208.0, 0.0006355510298321956
1209.0, 0.004993034140148657
1210.0, 0.0052530940832444814
1211.0, 0.0037059267548273656
1212.0, 0.0030039788625594818
1213.0, 0.004321556277228487
1214.0, 0.002262651756538602
1215.0, 0.0014330931685239679
1216.0, 0.004930446553921034
1217.0, 0.005148475893091043
1218.0, 0.001066830222248055
1219.0, 0.0040557128427724035
1220.0, 0.008616683299617619
1221.0, 0.005893303444472429
1222.0, 0.003808787178864696
1223.0, 0.005634429206476903
1224.0, 0.008967265567573225
1225.0, 0.0008918978609958267
1226.0, 0.009976471290243372
1227.0, 0.008440004242052223
1228.0, 0.00602656998066866
1229.0, 0.008073499703855553
1230.0, 0.01235368059282611
1231.0, 0.00628527745845364
1232.0, 0.008731268953062178
1233.0, 0.012037330971581807
1234.0, 0.01107924847765528
1235.0, 0.008313309858937247
1236.0, 0.014829693344635632
1237.0, 0.012985982086870533
1238.0, 0.009495507824427435
1239.0, 0.01493352349489835
1240.0, 0.01728322562027167
1241.0, 0.009879738842637223
1242.0, 0.020507156122341906
1243.0, 0.019008138971299698
1244.0, 0.015743497429026292
1245.0, 0.01927492049247077
1246.0, 0.02494637995370871
1247.0, 0.02367941500360492
1248.0, 0.024868007815302084
1249.0, 0.029923287350084062
1250.0, 0.030029002200207034
1251.0, 0.030318581344234898
1252.0, 0.03452535688874402
1253.0, 0.0413261851008601
1254.0, 0.03384002365661791
1255.0, 0.04174953079202668
1256.0, 0.04185117615601824
1257.0, 0.038924712173763254
1258.0, 0.040848744821247895
1259.0, 0.04890913440214964
1260.0, 0.03623915254569753
1261.0, 0.03961429049954544
1262.0, 0.04266790784206239
1263.0, 0.03994230893151886
1264.0, 0.03401510369247931
1265.0, 0.03534632116091385
1266.0, 0.02987174502803398
1267.0, 0.02291130476687982
1268.0, 0.024172766108632875
1269.0, 0.02585105130484619
1270.0, 0.018626067619976653
1271.0, 0.017309289095827053
1272.0, 0.024862896460217235
1273.0, 0.016794707173617102
1274.0, 0.013307105661920811
1275.0, 0.015382229019036053
1276.0, 0.011882866656571464
1277.0, 0.00873366899688235
1278.0, 0.014762797613242947
1279.0, 0.011552936423515
1280.0, 0.008771642322416
1281.0, 0.010265803621162146
1282.0, 0.01109556575195132
1283.0, 0.003576279064056592
1284.0, 0.007668550350697568
1285.0, 0.007922418783173799
1286.0, 0.005189294391773842
1287.0, 0.0036284460627910202
1288.0, 0.006915464133542976
1289.0, 0.010785671793320822
1290.0, 0.00335373863020674
1291.0, 0.008546395130317552
1292.0, 0.011336990527713198
1293.0, 0.005735594476170455
1294.0, 0.007011439601308153
1295.0, 0.01041652866057154
1296.0, 0.00315853508797843
1297.0, 0.007220187805927848
1298.0, 0.010548171668347733
1299.0, 0.004763331558661053
1300, 0.0
1301, 0.0
1302, 0.0
1303, 0.0
1304, 0.0
1305, 0.0
1306, 0.0
1307, 0.0
1308, 0.0
1309, 0.0
1310, 0.0
1311, 0.0
1312, 0.0
1313, 0.0
1314, 0.0
1315, 0.0
1316, 0.0
1317, 0.0
1318, 0.0
1319, 0.0
1320, 0.0
1321, 0.0
1322, 0.0
1323, 0.0
1324, 0.0
1325, 0.0
1326, 0.0
1327, 0.0
1328, 0.0
1329, 0.0
1330, 0.0
1331, 0.0
1332, 0.0
1333, 0.0
1334, 0.0
1335, 0.0
1336, 0.0
1337, 0.0
1338, 0.0
1339, 0.0
1340, 0.0
1341, 0.0
1342, 0.0
1343, 0.0
1344, 0.0
1345, 0.0
1346, 0.0
1347, 0.0
1348, 0.0
1349, 0.0
1350, 0.0
1351, 0.0
1352, 0.0
1353, 0.0
1354, 0.0
1355, 0.0
1356, 0.0
1357, 0.0
1358, 0.0
1359, 0.0
1360, 0.0
1361, 0.0
1362, 0.0
1363, 0.0
1364, 0.0
1365, 0.0
1366, 0.0
1367, 0.0
1368, 0.0
1369, 0.0
1370, 0.0
1371, 0.0
1372, 0.0
1373, 0.0
1374, 0.0
1375, 0.0
1376, 0.0
1377, 0.0
1378, 0.0
1379, 0.0
1380, 0.0
1381, 0.0
1382, 0.0
1383, 0.0
1384, 0.0
1385, 0.0
1386, 0.0
1387, 0.0
1388, 0.0
1389, 0.0
1390, 0.0
1391, 0.0
1392, 0.0
1393, 0.0
1394, 0.0
1395, 0.0
1396, 0.0
1397, 0.0
1398, 0.0
1399, 0.0
1400, 0.0
1401, 0.0
1402, 0.0
1403, 0.0
1404, 0.0
1405, 0.0
1406, 0.0
1407, 0.0
1408, 0.0
1409, 0.0
1410, 0.0
1411, 0.0
1412, 0.0
1413, 0.0
1414, 0.0
1415, 0.0
1416, 0.0
1417, 0.0
1418, 0.0
1419, 0.0
1420, 0.0
1421, 0.0
1422, 0.0
1423, 0.0
1424, 0.0
1425, 0.0
1426, 0.0
1427, 0.0
1428, 0.0
1429, 0.0
1430, 0.0
1431, 0.0
1432, 0.0
1433, 0.0
1434, 0.0
1435, 0.0
1436, 0.0
1437, 0.0
1438, 0.0
1439, 0.0
1440, 0.0
1441, 0.0
1442, 0.0
1443, 0.0
1444, 0.0
1445, 0.0
1446, 0.0
1447, 0.0
1448, 0.0
1449, 0.0
1450, 0.0
1451, 0.0
1452, 0.0
1453, 0.0
1454, 0.0
1455, 0.0
1456, 0.0
1457, 0.0
1458, 0.0
1459, 0.0
1460, 0.0
1461, 0.0
1462, 0.0
1463, 0.0
1464, 0.0
1465, 0.0
1466, 0.0
1467, 0.0
1468, 0.0
1469, 0.0
1470, 0.0
1471, 0.0
1472, 0.0
1473, 0.0
1474, 0.0
1475, 0.0
1476, 0.0
1477, 0.0
1478, 0.0
1479, 0.0
1480, 0.0
1481, 0.0
1482, 0.0
1483, 0.0
1484, 0.0
1485, 0.0
1486, 0.0
1487, 0.0
1488, 0.0
1489, 0.0
1490, 0.0
1491, 0.0
1492, 0.0
1493, 0.0
1494, 0.0
1495, 0.0
1496, 0.0
1497, 0.0
1498, 0.0
1499, 0.0
1500, 0.0
1501, 0.0
1502, 0.0
1503, 0.0
1504, 0.0
1505, 0.0
1506, 0.0
1507, 0.0
1508, 0.0
1509, 0.0
1510, 0.0
1511, 0.0
1512, 0.0
1513, 0.0
1514, 0.0
1515, 0.0
1516, 0.0
1517, 0.0
1518, 0.0
1519, 0.0
1520, 0.0
1521, 0.0
1522, 0.0
1523, 0.0
1524, 0.0
1525, 0.0
1526, 0.0
1527, 0.0
1528, 0.0
1529, 0.0
1530, 0.0
1531, 0.0
1532, 0.0
1533, 0.0
1534, 0.0
1535, 0.0
1536, 0.0
1537, 0.0
1538, 0.0
1539, 0.0
1540, 0.0
1541, 0.0
1542, 0.0
1543, 0.0
1544, 0.0
1545, 0.0
1546, 0.0
1547, 0.0
1548, 0.0
1549, 0.0
1550, 0.0
1551, 0.0
1552, 0.0
1553, 0.0
1554, 0.0
1555, 0.0
1556, 0.0
1557, 0.0
1558, 0.0
1559, 0.0
1560, 0.0
1561, 0.0
1562, 0.0
1563, 0.0
1564, 0.0
1565, 0.0
1566, 0.0
1567, 0.0
1568, 0.0
1569, 0.0
1570, 0.0
1571, 0.0
1572, 0.0
1573, 0.0
1574, 0.0
1575, 0.0
1576, 0.0
1577, 0.0
1578, 0.0
1579, 0.0
1580, 0.0
1581, 0.0
1582, 0.0
1583, 0.0
1584, 0.0
1585, 0.0
1586, 0.0
1587, 0.0
1588, 0.0
1589, 0.0
1590, 0.0
1591, 0.0
1592, 0.0
1593, 0.0
1594, 0.0
1595, 0.0
1596, 0.0
1597, 0.0
1598, 0.0
1599, 0.0
