30, 0.0
31, 0.0
32, 0.0
33, 0.0
34, 0.0
35, 0.0
36, 0.0
37, 0.0
38, 0.0
39, 0.0
40, 0.0
41, 0.0
42, 0.0
43, 0.0
44, 0.0
45, 0.0
46, 0.0
47, 0.0
48, 0.0
49, 0.0
50, 0.0
51, 0.0
52.0, 4.366931650907744e-06
53.0, 7.051825766494075e-05
54.0, 0.0002298950493789762
55.0, 0.000125995546480666
56.0, 0.0001552967930288469
57.0, 0.0005419725915885529
58.0, 0.0008016676498891605
59.0, 0.0005240656616292865
60.0, 0.0004258555386310272
61.0, 0.00030471728486470754
62.0, 0.00024335453475726827
63.0, 0.00023139269750041194
64.0, 0.00023749962801848242
65.0, 0.00021923312958380782
66.0, 0.0011611119695299709
67.0, 0.0022914242306449444
68.0, 0.0030677826156452212
69.0, 0.002957387806387218
70.0, 0.0014403385710094537
71.0, 0.0007240574120924252
72.0, 0.0015106708074976772
73.0, 0.0025803308373465203
74.0, 0.003092312493482881
75.0, 0.002649475405025937
76.0, 0.002161439635877254
77.0, 0.0025774235790956878
78.0, 0.0030474507263349403
79.0, 0.003867130193595409
80.0, 0.005536274887316048
81.0, 0.006827949983518124
82.0, 0.007047685678942416
83.0, 0.0063650924644047925
84.0, 0.005520994544007408
85.0, 0.005191919089168003
86.0, 0.005426244542287838
87.0, 0.006344197789037009
88.0, 0.007657271603919298
89.0, 0.009365195914418721
90.0, 0.010656277846735644
91.0, 0.009494650186167545
92.0, 0.010106064117251201
93.0, 0.009718922484019454
94.0, 0.008791919651303775
95.0, 0.008146653736232528
96.0, 0.008667207544856297
97.0, 0.008920335729869827
98.0, 0.009101032632156584
99.0, 0.008655807455232842
100.0, 0.008248026830475357
101.0, 0.00877482402498317
102.0, 0.009770802001031148
103.0, 0.012605980496365812
104.0, 0.014668557244029172
105.0, 0.017116421612320225
106.0, 0.02021276256170057
107.0, 0.02046841476424
108.0, 0.021278680292584458
109.0, 0.02120306522299386
110.0, 0.019941114047955802
111.0, 0.018793130120113556
112.0, 0.02046120923902789
113.0, 0.020112128505465884
114.0, 0.018658408789053123
115.0, 0.01624075071412956
116.0, 0.013316037840827143
117.0, 0.010615008806328215
118.0, 0.00957132400216577
119.0, 0.009178157568557173
120.0, 0.009576180545038355
121.0, 0.010047507843076743
122.0, 0.00979766888792908
123.0, 0.008382605038031756
124.0, 0.007442862938768057
125.0, 0.007159635398233812
126.0, 0.007404136264833728
127.0, 0.008028793269322447
128.0, 0.008874611557323758
129.0, 0.008275766598170028
130.0, 0.0076673588681221575
131.0, 0.007172609433881874
132.0, 0.0067864129035229625
133.0, 0.006566635806113883
134.0, 0.007499625948220667
135.0, 0.007596032323321301
136.0, 0.007487456155866665
137.0, 0.007400676516186618
138.0, 0.007332072492004787
139.0, 0.006924542594858839
140.0, 0.006550182407072977
141.0, 0.0063582597843098165
142.0, 0.006204317139671794
143.0, 0.006056670811036026
144.0, 0.006004207208883284
145.0, 0.005950624273803739
146.0, 0.006095501856460366
147.0, 0.00616331255124285
148.0, 0.006255219737697678
149.0, 0.006505247080724971
150.0, 0.006523083685324679
151.0, 0.00656809183758731
152.0, 0.006440352748656367
153.0, 0.006188610036689013
154.0, 0.005787812511376193
155.0, 0.005045529461258361
156.0, 0.005689330924461268
157.0, 0.0054754438951917185
158.0, 0.005275143631132051
159.0, 0.00560185034146106
160.0, 0.006534572865463199
161.0, 0.007079186939024596
162.0, 0.0077370558369564395
163.0, 0.007912829516151566
164.0, 0.008031907175935792
165.0, 0.008267294487370824
166.0, 0.00765215331418146
167.0, 0.008482950320837306
168.0, 0.008321008761646879
169.0, 0.00805012619187835
170.0, 0.007860605464825862
171.0, 0.0073212991118576706
172.0, 0.007609621637531853
173.0, 0.007494803667588705
174.0, 0.007263217132353475
175.0, 0.0072049807788557305
176.0, 0.0074068852005447
177.0, 0.007359679590045499
178.0, 0.0077294614617236
179.0, 0.007181256393202313
180.0, 0.006546284866939655
181.0, 0.006246792285460771
182.0, 0.006105709877627262
183.0, 0.006658591020966301
184.0, 0.006257336216922564
185.0, 0.006614902086292819
186.0, 0.007114618014995074
187.0, 0.00682492789499125
188.0, 0.006689437871745899
189.0, 0.006517909180307341
190.0, 0.007074768305532278
191.0, 0.0077268747408468594
192.0, 0.008051371115802064
193.0, 0.008060508462691686
194.0, 0.008069946013068341
195.0, 0.007854720773061584
196.0, 0.007950657779019403
197.0, 0.008616958394557303
198.0, 0.009824154731151261
199.0, 0.011015646189997874
200.0, 0.011156475690179735
201.0, 0.009698664065136963
202.0, 0.00761478951554302
203.0, 0.0057057469960401525
204.0, 0.004326301564470737
205.0, 0.0033906620383570237
206.0, 0.0033663485985213283
207.0, 0.0035725471183475238
208.0, 0.0039697060813691735
209.0, 0.0044562888005562785
210.0, 0.004151647783201794
211.0, 0.004609375589998155
212.0, 0.0045841277186638735
213.0, 0.004346080772886114
214.0, 0.004150703839660046
215.0, 0.004109456074331134
216.0, 0.004104787730380994
217.0, 0.003915897800932957
218.0, 0.003844723479312723
219.0, 0.00370722212688315
220.0, 0.003426824385844119
221.0, 0.003440841173457141
222.0, 0.003199749266471521
223.0, 0.0032612521186317
224.0, 0.0030244466837426745
225.0, 0.0025395739344504157
226.0, 0.0022773326794656543
227.0, 0.0023470777976269466
228.0, 0.001960908101109747
229.0, 0.0022366557631866156
230.0, 0.0026124988448481164
231.0, 0.002808058638892364
232.0, 0.0033995807000636014
233.0, 0.0028675968936847426
234.0, 0.00252492270322747
235.0, 0.0028262598591501063
236.0, 0.0032648788528221303
237.0, 0.0032701067958188033
238.0, 0.003631170055722971
239.0, 0.004323086668453336
240.0, 0.004427554435873655
241.0, 0.00497592585620668
242.0, 0.00594810998919447
243.0, 0.006374661481307071
244.0, 0.007994955410742981
245.0, 0.009930059567354288
246.0, 0.011173479309859428
247.0, 0.012650282952156878
248.0, 0.01469291081314755
249.0, 0.015490310982881688
250.0, 0.014466182232617872
251.0, 0.013663968975106173
252.0, 0.013204086015885068
253.0, 0.01232868068696967
254.0, 0.010677086754168312
255.0, 0.011594785683922916
256.0, 0.011125203281424603
257.0, 0.010795706345964193
258.0, 0.011089309959556351
259.0, 0.011192850673997794
260.0, 0.009511998322036017
261.0, 0.009132418659089729
262.0, 0.009054711347702206
263.0, 0.008971497002404393
264.0, 0.00902813717851421
265.0, 0.00939710491934648
266.0, 0.010054585847167966
267.0, 0.01056931395065834
268.0, 0.011342128228022443
269.0, 0.01247522927760085
270.0, 0.01384326255044744
271.0, 0.015419499734895224
272.0, 0.017998024292868557
273.0, 0.02113013464262538
274.0, 0.02451906071823535
275.0, 0.028765130440733536
276.0, 0.03397333001892535
277.0, 0.03956053963882887
278.0, 0.04364142686140704
279.0, 0.04793009140341947
280.0, 0.04923575600188131
281.0, 0.04683537504772271
282.0, 0.04114445387388503
283.0, 0.033471592964094625
284.0, 0.02771886666616412
285.0, 0.023163080038426122
286.0, 0.018463976920178152
287.0, 0.014552687454326894
288.0, 0.012247888215594123
289.0, 0.010175900258709502
290.0, 0.008168679789961051
291.0, 0.00679115935291843
292.0, 0.0056918139194497295
293.0, 0.0049321316205524724
294.0, 0.004686368767759954
295.0, 0.0045600544371471475
296.0, 0.004298598130514336
297.0, 0.004083059974554065
298.0, 0.0039060949613098934
299.0, 0.0037248590105310284
300.0, 0.0035000822459778144
301.0, 0.0033031328307448803
302.0, 0.00313744692038339
303.0, 0.0032899758234348204
304.0, 0.003384094384798411
305.0, 0.0033783872329864635
306.0, 0.003710263552256169
307.0, 0.003694302800294886
308.0, 0.002681720630044468
309.0, 0.002457329443027572
310.0, 0.002468065819380042
311.0, 0.002364869510792279
312.0, 0.003181064674025314
313.0, 0.0020711880051071537
314.0, 0.0020983179905139366
315.0, 0.0023711041195078044
316.0, 0.0026811500272730694
317.0, 0.0031106222142657054
318.0, 0.003739803655116773
319.0, 0.003906984641147264
320.0, 0.004940887181518656
321.0, 0.006274776136698189
322.0, 0.007443631876681139
323.0, 0.00848582903383508
324.0, 0.010677457981341495
325.0, 0.013844706236340631
326.0, 0.016805717942229705
327.0, 0.020334980958143834
328.0, 0.025153354875521894
329.0, 0.030961245832708338
330.0, 0.033871577019637354
331.0, 0.033208389631194705
332.0, 0.0299310469469377
333.0, 0.02545759999978
334.0, 0.020441647748614775
335.0, 0.015109337702157517
336.0, 0.011593330237909304
337.0, 0.009292960524759064
338.0, 0.00725298863590177
339.0, 0.006366960261791127
340.0, 0.006749667045934913
341.0, 0.007767623685606857
342.0, 0.010774737906563518
343.0, 0.013026403362224733
344.0, 0.013034605573578386
345.0, 0.01090728074081254
346.0, 0.007717354354203626
347.0, 0.005008550410434172
348.0, 0.0029194154717810316
349.0, 0.0013189965241228964
350.0, 0.00049436436452188
351.0, 0.0005248139761989457
352.0, 0.0008677922069433816
353.0, 0.0005019217407754123
354.0, 8.711295032962665e-05
355.0, 0.000602217451407365
356.0, 0.000721046053940267
357.0, 0.0007488928503748311
358.0, 0.0010102653086678456
359.0, 0.0012768402533571781
360.0, 0.00043683267317355635
361.0, 0.00020168657445942804
362.0, 0.00022431995442972672
363.0, 0.0003262354596219343
364.0, 0.0003591853359626707
365.0, 0.00022831986566164224
366.0, 0.0004597669367923399
367.0, 0.0005774287855676079
368.0, 0.00033553988404684917
369.0, 0.00030891678823516633
370.0, 0.0007224131497478986
371.0, 0.0010639503153456547
372.0, 0.0012417975153426843
373.0, 0.0012854164153706072
374.0, 0.0012800026742674838
375.0, 0.0013343544625417337
376.0, 0.0013383950355902335
377.0, 0.0009685840927346319
378.0, 0.0007107441931787711
379.0, 0.0003943956205883374
380.0, 0.0005380455658287876
381.0, 0.000971911053830024
382.0, 0.0015985363337679948
383.0, 0.0025605572458200004
384.0, 0.0033377520207461715
385.0, 0.003720405600857681
386.0, 0.003992142481292606
387.0, 0.00404076668222246
388.0, 0.0038673562163018113
389.0, 0.003744381226424012
390.0, 0.004376883339846872
391.0, 0.005528706900812843
392.0, 0.007611039541392057
393.0, 0.00949607596895596
394.0, 0.010757624295708037
395.0, 0.011918087974562357
396.0, 0.012672288570257638
397.0, 0.011886334940352997
398.0, 0.010201756388963338
399.0, 0.008616321360567303
400.0, 0.007263019015880377
401.0, 0.005708360390803841
402.0, 0.0050790008452863316
403.0, 0.00419191049048473
404.0, 0.0034002330858139904
405.0, 0.0032141185223236385
406.0, 0.0033969215199079663
407.0, 0.0033787528582518867
408.0, 0.003577688515245579
409.0, 0.003815171002462879
410.0, 0.004608182737370123
411.0, 0.005245416458463617
412.0, 0.00564852887569138
413.0, 0.005928260466260609
414.0, 0.005368969024381965
415.0, 0.0048098419125871044
416.0, 0.004156754249288495
417.0, 0.003611440872703028
418.0, 0.003376289262308693
419.0, 0.0032571688513408775
420.0, 0.0023143180492379285
421.0, 0.0029968566034791018
422.0, 0.0026000095951578786
423.0, 0.002877599119858212
424.0, 0.003592486941844476
425.0, 0.0041015453549527875
426.0, 0.00438917238378904
427.0, 0.003670485334876782
428.0, 0.002461403425025424
429.0, 0.0017433682628166787
430.0, 0.0013000896577211123
431.0, 0.0009099611881449716
432.0, 0.000731219806598352
433.0, 0.0007479702786334397
434.0, 0.00046595523972920534
435.0, 0.0003720299460733946
436.0, 0.0002128991508254095
437.0, 0.00014205748700559122
438.0, 0.0005221507338177481
439.0, 0.0005184869482421643
440.0, 0.00015603705929437237
441.0, 0.00032242693418576944
442.0, 0.0003005153985357102
443.0, 8.100029001746269e-05
444.0, 5.664490108022818e-05
445.0, 0.00015536036924956414
446.0, 0.0004909446369843733
447.0, 0.0007228729685943496
448.0, 0.0012211584444140231
449.0, 0.0014984568447596546
450.0, 0.0014021555061190178
451.0, 0.001956314260278849
452.0, 0.002536752652827308
453.0, 0.002513206380074148
454.0, 0.0028191157022288064
455.0, 0.0030035259680197255
456.0, 0.0028801909670730353
457.0, 0.002910313399996403
458.0, 0.0026742847167803524
459.0, 0.0029483458441880274
460.0, 0.003904047984933295
461.0, 0.004296405054663666
462.0, 0.004276290151326582
463.0, 0.004877154525030616
464.0, 0.005795123774155395
465.0, 0.005152370595998487
466.0, 0.00563583931364749
467.0, 0.006813936206685286
468.0, 0.007902704171915591
469.0, 0.008612065842051068
470.0, 0.009693474845137235
471.0, 0.010062132997565736
472.0, 0.011569622229553725
473.0, 0.012347941809512765
474.0, 0.012911372475325212
475.0, 0.013538966853467985
476.0, 0.013589489266929999
477.0, 0.013435263801376295
478.0, 0.01407001815944108
479.0, 0.013301212351704306
480.0, 0.012828537486234824
481.0, 0.013065424968862219
482.0, 0.013292679975467483
483.0, 0.013353936692716525
484.0, 0.014347395378531434
485.0, 0.015664415605914358
486.0, 0.017073309512829333
487.0, 0.018768726976617172
488.0, 0.02119085968728272
489.0, 0.024780107530421536
490.0, 0.029387419920983867
491.0, 0.03543327601438653
492.0, 0.0415397339274075
493.0, 0.05038364495871063
494.0, 0.062141699273627254
495.0, 0.07424221545486101
496.0, 0.0848169522049194
497.0, 0.09175055506731193
498.0, 0.09173585129300535
499.0, 0.08500908800475418
500.0, 0.07421264399067529
501.0, 0.0633246839822818
502.0, 0.0560388551804134
503.0, 0.04919886342467248
504.0, 0.04594615565408504
505.0, 0.043597675333637814
506.0, 0.040902897959519
507.0, 0.03760738041311067
508.0, 0.03396167464654259
509.0, 0.02945620610710459
510.0, 0.02737481568226477
511.0, 0.024119869876792148
512.0, 0.020185528264042484
513.0, 0.016801070015679178
514.0, 0.014633018622355705
515.0, 0.013018999117217319
516.0, 0.012679103084843945
517.0, 0.011469062551602899
518.0, 0.011052380446175665
519.0, 0.011201796509074933
520.0, 0.011754876636980828
521.0, 0.012718955668958136
522.0, 0.01319158215920214
523.0, 0.015423830126711731
524.0, 0.016535880384269983
525.0, 0.017942245228565006
526.0, 0.020087343327648388
527.0, 0.02207028923665282
528.0, 0.02220449369672452
529.0, 0.022338748017670673
530.0, 0.019708032910591724
531.0, 0.017004451861602696
532.0, 0.01531695745421956
533.0, 0.013934691275130104
534.0, 0.011938668830594936
535.0, 0.010951729720239936
536.0, 0.010581606652160526
537.0, 0.010068469000524778
538.0, 0.009747721828934226
539.0, 0.010633253545791988
540.0, 0.012308767370910842
541.0, 0.013176142088965385
542.0, 0.015519161604341324
543.0, 0.018907078458559306
544.0, 0.024044606225799896
545.0, 0.02933543973083467
546.0, 0.036180879049590116
547.0, 0.04641722743758538
548.0, 0.05950680767656915
549.0, 0.07743291971914742
550.0, 0.09302990097910258
551.0, 0.10159758081080703
552.0, 0.10147917105416254
553.0, 0.09126273000133173
554.0, 0.07267105284094352
555.0, 0.05659169488426544
556.0, 0.04210589444170669
557.0, 0.031755070605059485
558.0, 0.02468165225830388
559.0, 0.01956779737276269
560.0, 0.01574765058806466
561.0, 0.013307705236217054
562.0, 0.011506685653588887
563.0, 0.010634129038939616
564.0, 0.00975403679400945
565.0, 0.009251920469053678
566.0, 0.008925934877562986
567.0, 0.008703578103966419
568.0, 0.009051917843057306
569.0, 0.008902448169142227
570.0, 0.009579540840816374
571.0, 0.010029436402180226
572.0, 0.010764992466126562
573.0, 0.01180981333812145
574.0, 0.01291911099960728
575.0, 0.01425905330858354
576.0, 0.015522046654711493
577.0, 0.018435957750940535
578.0, 0.02156843355800769
579.0, 0.024864334768518192
580.0, 0.029717160565803837
581.0, 0.03841142170056707
582.0, 0.052798282967906666
583.0, 0.05788337031842969
584.0, 0.07443098616502226
585.0, 0.09897780640496817
586.0, 0.13060068680001127
587.0, 0.17112881014470616
588.0, 0.2255964384643123
589.0, 0.3035357821225842
590.0, 0.44706427530991616
591.0, 0.6539220102182302
592.0, 0.8683936652184077
593.0, 0.9879507668002945
594.0, 0.9434869085592592
595.0, 0.7509400040938587
596.0, 0.5304866249613411
597.0, 0.3687064438940746
598.0, 0.25923311637460833
599.0, 0.18551608610069906
600.0, 0.135539781556735
601.0, 0.10226121498889316
602.0, 0.08126273539139402
603.0, 0.0652297310350477
604.0, 0.05629420122706755
605.0, 0.04749464338734337
606.0, 0.041490833161075616
607.0, 0.03701219546176132
608.0, 0.03226681477422961
609.0, 0.028034386260075993
610.0, 0.02409275643497495
611.0, 0.02045631749502093
612.0, 0.017935326001201943
613.0, 0.016273071706687566
614.0, 0.014779890701250475
615.0, 0.013124192250732735
616.0, 0.011726740098825005
617.0, 0.010673851721459954
618.0, 0.008911848297385302
619.0, 0.00838227408092508
620.0, 0.00787568979467839
621.0, 0.006851761133923118
622.0, 0.005790964883663424
623.0, 0.0055374384828854074
624.0, 0.004715356757075315
625.0, 0.004375280745496985
626.0, 0.00400946647781293
627.0, 0.003762758492433588
628.0, 0.003261935604064766
629.0, 0.00272009191050862
630.0, 0.0032358428350331876
631.0, 0.0028909444917257126
632.0, 0.002162601307165711
633.0, 0.002165259344177888
634.0, 0.0016499893438656178
635.0, 0.0013707255727733994
636.0, 0.00157630811547373
637.0, 0.0008000193040125368
638.0, 0.0012769509789320298
639.0, 0.0010528672714097238
640.0, 0.0004978451854963615
641.0, 0.0004498831241351367
642.0, 0.0004602530410237025
643.0, 0.0003969481828049273
644.0, 0.0008738598740348747
645.0, 0.00024258054111654344
646.0, 6.361427210358205e-05
647.0, 0.0003289636950536067
648.0, 0.0005880965222731803
649.0, 0.0009155515189096423
650.0, 0.001146374780074893
651.0, 0.0008589177149018924
652.0, 0.0006366259529011273
653.0, 0.0004967628175475017
654.0, 0.0003593876276552665
655.0, 0.0002771859298539899
656.0, 0.0002228380701358616
657.0, 0.00024153941622125967
658.0, 0.0003998450899780492
659.0, 0.0005514211273267189
660.0, 0.0008489547397716561
661.0, 0.0008414361975119745
662.0, 0.0016001216944639672
663.0, 0.0021473986044303877
664.0, 0.0025005609080870094
665.0, 0.003412631387028159
666.0, 0.004477251984811678
667.0, 0.005035147145291278
668.0, 0.004992973690659007
669.0, 0.0037594654236553673
670.0, 0.002739146285694385
671.0, 0.00223564961633023
672.0, 0.0015934003836043779
673.0, 0.00046739396392909657
674.0, 0.0007405966688480505
675.0, 0.0004805480337183739
676.0, 0.0003334973144830441
677.0, 0.0003242342454412317
678.0, 0.0005851043373199532
679.0, 0.0007190227302987786
680.0, 0.00012791541877637077
681.0, 0.0006070974362053486
682.0, 0.00021124608931796787
683.0, 0.0004808164435124425
684.0, 0.0005909551167631529
685.0, 0.0005945643255378685
686.0, 0.0006833707692318943
687.0, 0.0008120711446352088
688.0, 0.0008115114736803155
689.0, 0.0007550577882670684
690.0, 0.0006630573377077067
691.0, 0.0005664974326328336
692.0, 0.00029257552394297917
693.0, 0.0003147625171491082
694.0, 0.0008726678600628548
695.0, 0.0011108418083737512
696.0, 0.0012637430723811715
697.0, 0.0004069082858678233
698.0, 0.0008874345693627959
699.0, 0.001063543565403946
700.0, 0.0008522508256295708
701.0, 0.0011102862231863685
702.0, 0.0020571405949032762
703.0, 0.0016560232587684556
704.0, 0.0022045598355327554
705.0, 0.002928113132052083
706.0, 0.0033507484425338526
707.0, 0.0036828743893865873
708.0, 0.004108214347078042
709.0, 0.004629538678682926
710.0, 0.005252055194698766
711.0, 0.005943451621513092
712.0, 0.00698026318017077
713.0, 0.007662671941874506
714.0, 0.008527184249473515
715.0, 0.009516958866379497
716.0, 0.010561859293332273
717.0, 0.011928239025246494
718.0, 0.013319062813076443
719.0, 0.014009098009222417
720.0, 0.017090903434852655
721.0, 0.019223414122593697
722.0, 0.021738613656035227
723.0, 0.024586834147128523
724.0, 0.0271776293046332
725.0, 0.031692954261744004
726.0, 0.034411311157764225
727.0, 0.037667104022003906
728.0, 0.0420462525038173
729.0, 0.045167520937902314
730.0, 0.048055166054246284
731.0, 0.051355277926387985
732.0, 0.05350812230323176
733.0, 0.0542117964178411
734.0, 0.05427556952912498
735.0, 0.05121609366450078
736.0, 0.049990223125529844
737.0, 0.04824536271850002
738.0, 0.04570009933580216
739.0, 0.0437479160423133
740.0, 0.042158967494569946
741.0, 0.040534302525261225
742.0, 0.03829609819851827
743.0, 0.03432302663703421
744.0, 0.030650492148013384
745.0, 0.02788066334356609
746.0, 0.02508851003833394
747.0, 0.021599897917891842
748.0, 0.01913122005476166
749.0, 0.017544454979226503
750.0, 0.015260202200382784
751.0, 0.013240125511975672
752.0, 0.011576174236322147
753.0, 0.0102599452601247
754.0, 0.009073003112432396
755.0, 0.007839631816354196
756.0, 0.007234670391228758
757.0, 0.006020221226929289
758.0, 0.005388875746793602
759.0, 0.005112507346938006
760.0, 0.004518922302377256
761.0, 0.003989440156261658
762.0, 0.0039474977815595206
763.0, 0.0038442460873272977
764.0, 0.003238905469255874
765.0, 0.0031652374907353473
766.0, 0.0021194414868269014
767.0, 0.002170137576166128
768.0, 0.002274311025959972
769.0, 0.0019175495374626741
770.0, 0.0017045920486905546
771.0, 0.001995720475647366
772.0, 0.0011529577757666601
773.0, 0.0007262534787506468
774.0, 0.0013190007603715672
775.0, 0.0008137679136168123
776.0, 0.000408923477717202
777.0, 0.00046958133383067854
778.0, 0.00026997758309788114
779.0, 0.0001643969635142378
780.0, 0.0001656480986983098
781.0, 0.0001408338729783778
782.0, 0.00033431721343902735
783.0, 0.0006122643882109122
784.0, 0.0007456677110731141
785.0, 0.0007607314374257551
786.0, 0.0008235738337002038
787.0, 0.0008431587859119626
788.0, 0.0005593561594676946
789.0, 0.0006735776265271389
790.0, 0.0007256595728800959
791.0, 0.0005300646169175253
792.0, 0.0003052000937693403
793.0, 0.00015638417824913927
794.0, 0.00013064727479472328
795.0, 0.000520120111355231
796.0, 0.0002667766811614116
797.0, 0.0008411426181583418
798.0, 0.0003524110970355995
799.0, 0.00013522868043928536
800.0, 0.0001919810779529272
801.0, 0.0001573599727282471
802.0, 0.00013348214742300876
803.0, 0.0005184133014105273
804.0, 0.0002655867119075073
805.0, 0.0006474934945137468
806.0, 0.00034174965000196585
807.0, 0.0004885868695714141
808.0, 0.0006255659337546873
809.0, 0.0009793201248426934
810.0, 0.0016849537699884446
811.0, 0.0009342441907706908
812.0, 5.729871981207123e-05
813.0, 0.0005771401254896151
814.0, 0.0015288407180758033
815.0, 0.0013857361404804916
816.0, 0.0010079637771701205
817.0, 0.001250844752928049
818.0, 0.0017217027476937859
819.0, 0.0014539532532686307
820.0, 0.0018946551200077
821.0, 0.0025980489865822156
822.0, 0.0037101904394522024
823.0, 0.003834145578638698
824.0, 0.0037055311675511632
825.0, 0.004205618566555674
826.0, 0.005121954426793847
827.0, 0.005561808734073748
828.0, 0.006413071349497044
829.0, 0.007191060307372692
830.0, 0.008169760462044687
831.0, 0.009196849999961766
832.0, 0.010185973422176146
833.0, 0.011313745921923187
834.0, 0.01259292131739425
835.0, 0.013802273383165128
836.0, 0.015101872236164434
837.0, 0.016876682278907797
838.0, 0.018135722144318724
839.0, 0.019428560396534587
840.0, 0.02038976805161034
841.0, 0.02103005353770415
842.0, 0.021490381652552477
843.0, 0.02188254656313255
844.0, 0.02231439188358363
845.0, 0.022242235923370123
846.0, 0.021479665876916295
847.0, 0.021472123853894798
848.0, 0.021235041720213194
849.0, 0.021010049099813608
850.0, 0.021371447887391884
851.0, 0.02191092367233497
852.0, 0.02140950820524661
853.0, 0.020895829442739575
854.0, 0.022101771335674817
855.0, 0.021877134943787194
856.0, 0.022830573634995667
857.0, 0.023816751962971748
858.0, 0.02489212497548476
859.0, 0.02615060562386787
860.0, 0.02709315411722843
861.0, 0.028349287642498472
862.0, 0.03186154702519683
863.0, 0.033504781359998397
864.0, 0.035715661791257604
865.0, 0.03862559624590241
866.0, 0.042028552807265036
867.0, 0.04658749708970803
868.0, 0.05239424910466329
869.0, 0.058134992177116054
870.0, 0.06472537342447968
871.0, 0.07292534841767177
872.0, 0.08119451211272206
873.0, 0.09342754740590684
874.0, 0.10439422696869557
875.0, 0.11501444352728737
876.0, 0.12716050604866624
877.0, 0.13862311890350276
878.0, 0.14584719648027492
879.0, 0.15321041509661365
880.0, 0.1524255518490824
881.0, 0.1515757700613944
882.0, 0.14413637430496898
883.0, 0.13447390102610504
884.0, 0.12360719812652947
885.0, 0.1114145332347033
886.0, 0.09988999576756628
887.0, 0.08627974695321607
888.0, 0.07664843722037043
889.0, 0.06739249793637664
890.0, 0.059445754113453195
891.0, 0.05278837624589132
892.0, 0.047280396675540466
893.0, 0.04279121167621301
894.0, 0.03911039849644868
895.0, 0.03615704933875151
896.0, 0.034758865416775364
897.0, 0.03137629442478748
898.0, 0.030252489275415552
899.0, 0.028693289617977995
900.0, 0.027157938050905186
901.0, 0.026668079127530435
902.0, 0.026548996533434108
903.0, 0.025810088278444047
904.0, 0.025259693093892813
905.0, 0.023252539561521825
906.0, 0.024414474339156722
907.0, 0.023088687829696516
908.0, 0.02278843185353334
909.0, 0.02139217874747321
910.0, 0.019919460038646256
911.0, 0.01961981993556027
912.0, 0.019449585888860046
913.0, 0.018092522910402833
914.0, 0.01752069772299913
915.0, 0.017012971658432078
916.0, 0.017503185120594466
917.0, 0.01709819808296309
918.0, 0.01694237131369166
919.0, 0.01670070138732981
920.0, 0.016035025300011375
921.0, 0.015385489623908134
922.0, 0.014646851897337143
923.0, 0.014528713544049117
924.0, 0.014119199992781795
925.0, 0.01226975473828498
926.0, 0.01167716147642989
927.0, 0.011948018305761398
928.0, 0.011957844866600693
929.0, 0.011838567099975343
930.0, 0.012086945300582509
931.0, 0.01175124871428251
932.0, 0.011966656646817288
933.0, 0.011606491346709701
934.0, 0.011921603933659958
935.0, 0.013115284861606905
936.0, 0.013295302453388148
937.0, 0.013639451420697273
938.0, 0.014153147234693676
939.0, 0.013791918771575824
940.0, 0.014004213028361965
941.0, 0.014889754533692012
942.0, 0.015586481473141798
943.0, 0.0164208663962448
944.0, 0.015838036486037186
945.0, 0.016299258011219692
946.0, 0.017320423538488932
947.0, 0.018083430480990686
948.0, 0.018887393118241957
949.0, 0.019806785471248013
950.0, 0.019341618350326027
951.0, 0.02042143581902177
952.0, 0.0202921359215511
953.0, 0.02123620995399067
954.0, 0.02081724620685597
955.0, 0.020464268654434972
956.0, 0.020479972022568464
957.0, 0.02039230839854178
958.0, 0.02031410621562831
959.0, 0.019213369349663324
960.0, 0.0185761978999342
961.0, 0.018301033860515136
962.0, 0.016862833526949964
963.0, 0.015662328274564246
964.0, 0.015285039990565782
965.0, 0.015490340436424058
966.0, 0.015190149379483273
967.0, 0.014261041937319368
968.0, 0.014435516287906593
969.0, 0.0136023032251985
970.0, 0.012783233036934818
971.0, 0.01179572090138402
972.0, 0.010463427673081935
973.0, 0.00943105737882012
974.0, 0.00835257271699572
975.0, 0.007520446541449369
976.0, 0.006983885202073035
977.0, 0.005949443810368185
978.0, 0.005057679475175694
979.0, 0.005138028314807817
980.0, 0.004133578790221059
981.0, 0.003077850794135789
982.0, 0.002695293513215437
983.0, 0.0023515815207374668
984.0, 0.00247403209852534
985.0, 0.00276044507619512
986.0, 0.0021391489126064115
987.0, 0.0010886556669420732
988.0, 0.0017826089917882145
989.0, 0.0015941231111107647
990.0, 0.0015392567200009234
991.0, 0.0017866593108878301
992.0, 0.0018370058142857938
993.0, 0.0015418117907126817
994.0, 0.0012189212723344603
995.0, 0.0010100280261637312
996.0, 0.0007934761376886504
997.0, 0.0007945541634740531
998.0, 0.0010844322468546819
999.0, 0.0008267828853367446
1000.0, 0.00037473995068677607
1001.0, 0.0002347489327089163
1002.0, 0.0007407014908762952
1003.0, 0.0007009751436429915
1004.0, 0.00047884512415581344
1005.0, 0.0006827289197028848
1006.0, 0.0006591306851054639
1007.0, 0.0004998415084228071
1008.0, 0.00031718154278041646
1009.0, 0.0005626325998581139
1010.0, 0.0010382484577285307
1011.0, 0.0011063579218737484
1012.0, 0.001147489691566787
1013.0, 0.0007583292355039206
1014.0, 0.0005169794053832089
1015.0, 0.0007015045383839401
1016.0, 0.00045692841095982216
1017.0, 0.0004248648997559692
1018.0, 0.0010161909989333728
1019.0, 0.001135309274835921
1020.0, 0.0014079542878871194
1021.0, 0.0008276415190898996
1022.0, 0.0006056570286747915
1023.0, 0.0006587272624695646
1024.0, 0.00048105797146917676
1025.0, 0.0002323142035710644
1026.0, 0.00027639380116788615
1027.0, 0.0001096503345369515
1028.0, 0.00026281225524449835
1029.0, 0.001382827667676749
1030.0, 0.0012140298450962744
1031.0, 0.001508842276927188
1032.0, 0.001297660080082781
1033.0, 0.0013573591808951043
1034.0, 0.0011510932264421135
1035.0, 0.0005140419831750387
1036.0, 0.0004972988636598061
1037.0, 0.0003935425014820349
1038.0, 0.0002336477675774764
1039.0, 0.0004985413763924634
1040.0, 0.0006199166331244492
1041.0, 0.0005300199900211087
1042.0, 0.0008886263300534147
1043.0, 0.0010900985241547461
1044.0, 0.0010531867027645718
1045.0, 0.0008868725004313038
1046.0, 0.0006599330679662261
1047.0, 0.0007564740945821078
1048.0, 0.0007742284250692995
1049.0, 0.0006853043461004483
1050.0, 0.0009852148838499113
1051.0, 0.000985847330667329
1052.0, 0.0011693385912544493
1053.0, 0.0012421172027120846
1054.0, 0.0011341721985021114
1055.0, 0.0011720358499993225
1056.0, 0.001405882257117816
1057.0, 0.001315606152496332
1058.0, 0.0007548501578142069
1059.0, 0.0009093676278265504
1060.0, 0.0007235044275817842
1061.0, 0.0011308685423821962
1062.0, 0.0009439324117328318
1063.0, 0.0008634231180420711
1064.0, 0.001041497595963727
1065.0, 0.0014131646899425852
1066.0, 0.0016047613859650714
1067.0, 0.001180851274531373
1068.0, 0.0005136939199113255
1069.0, 0.000789273684214102
1070.0, 0.0012111058955571522
1071.0, 0.0007513905526402048
1072.0, 0.0012163583786041435
1073.0, 0.0007807749090730147
1074.0, 0.001167141056065992
1075.0, 0.0015171716938347888
1076.0, 0.0015340660760495605
1077.0, 0.0015160055715668212
1078.0, 0.0015463760485240655
1079.0, 0.0024040984891715088
1080.0, 0.0020200892126914873
1081.0, 0.0020137447869432146
1082.0, 0.00201966268567939
1083.0, 0.001921440271821057
1084.0, 0.0019808136625801415
1085.0, 0.0027480047775276044
1086.0, 0.0029201609810940114
1087.0, 0.002766388621015153
1088.0, 0.0030642763479106954
1089.0, 0.0030478092987851774
1090.0, 0.002774267490642959
1091.0, 0.003160116127334463
1092.0, 0.0024011703086553766
1093.0, 0.002398233898185931
1094.0, 0.0016995428352896836
1095.0, 0.0018761560433990638
1096.0, 0.0017530546413371381
1097.0, 0.0015095593997771644
1098.0, 0.0015896958137918361
1099.0, 0.0016476365881881044
1100.0, 0.0014905873300899834
1101.0, 0.0016283685544202088
1102.0, 0.0011307902240983612
1103.0, 0.0008795826272859551
1104.0, 0.0015305743643672337
1105.0, 0.0014374542153744196
1106.0, 0.0011825405135729705
1107.0, 0.0011577767810207944
1108.0, 0.0009433969344331748
1109.0, 0.0006897417309021241
1110.0, 0.000651823219154543
1111.0, 0.0006062656365804607
1112.0, 0.0006303829303818284
1113.0, 0.0008470858975804977
1114.0, 0.0012220987192428263
1115.0, 0.0011964796250865458
1116.0, 0.001122154178842559
1117.0, 0.0011720092342058115
1118.0, 0.001175717961576665
1119.0, 0.0011834356611405837
1120.0, 0.0013480522665175853
1121.0, 0.0014622316576175106
1122.0, 0.0013869093999977927
1123.0, 0.0014932711486661612
1124.0, 0.0015759370757422904
1125.0, 0.000955346232921649
1126.0, 0.0015688169280807835
1127.0, 0.0012454632558635422
1128.0, 0.0007662947020320435
1129.0, 0.0009709363511756211
1130.0, 0.00047891017922424903
1131.0, 0.00023782197205266662
1132.0, 0.0005081541774655734
1133.0, 0.0007376550805770529
1134.0, 0.0009807586167389882
1135.0, 0.0009085632746406122
1136.0, 0.0010073802580819495
1137.0, 0.0006821456655355935
1138.0, 0.0009071434624215559
1139.0, 0.0007337193192873867
1140.0, 0.0004560692630988616
1141.0, 0.00032647349619792983
1142.0, 0.0007896337950255701
1143.0, 0.0007617806998998304
1144.0, 0.0004599584411537763
1145.0, 0.0004662942820285179
1146.0, 5.253697989479946e-05
1147.0, 9.478271595970579e-05
1148.0, 0.0005345742721248456
1149.0, 0.0006012231720505617
1150.0, 0.0008178502760561256
1151.0, 0.0003022202605648599
1152.0, 0.00013237018998673488
1153.0, 0.00039320275503624907
1154.0, 0.0003321884163420835
1155.0, 0.0004312880335677247
1156.0, 0.0008795430111944507
1157.0, 0.0009457177831619836
1158.0, 0.000541306366519919
1159.0, 0.00042401368510548373
1160.0, 0.0001791377917841362
1161.0, 0.000326467768736362
1162.0, 0.0006745652679595056
1163.0, 0.0006139818257351326
1164.0, 0.0002817856271948562
1165.0, 0.00016663039473996662
1166.0, 0.00022883466360347658
1167.0, 0.0004115078095137912
1168.0, 0.00040735939959845484
1169.0, 0.000207606175802778
1170.0, 0.00022897736128036573
1171.0, 0.00023191286230657006
1172.0, 0.00010932937057335893
1173.0, 5.622856892210777e-05
1174.0, 1.3178474637337996e-05
1175.0, 0.00046709992609953095
1176.0, 0.00014756261415600162
1177.0, 0.000251640777552686
1178.0, 0.0003911241866358831
1179.0, 0.00023022653925933056
1180.0, 0.00014230891942174957
1181.0, 0.00017526491119542102
1182.0, 0.00010388878293645252
1183.0, 0.00018291158323486967
1184.0, 9.698088516425293e-05
1185.0, 0.00031122887037002576
1186.0, 0.00022848876187580203
1187.0, 5.4037675332952915e-05
1188.0, 4.33373100762576e-05
1189.0, 0.00016554355730261634
1190.0, 0.00034502493023537287
1191.0, 0.00018486977364775387
1192.0, 0.00018960326953910931
1193.0, 0.0002518003929527059
1194.0, 0.00036710698305764773
1195.0, 0.000690009513710136
1196.0, 8.946740286270854e-05
1197.0, 0.0003005431461977565
1198.0, 0.000555330533130694
1199.0, 0.0005212320882804171
1200.0, 0.0005102226856897963
1201.0, 0.00015415738878330216
1202.0, 0.00025644733861152796
1203.0, 0.0001390846478353606
1204.0, 0.00034550479922839267
1205.0, 0.00046552159539232083
1206.0, 0.00037690344416072257
1207.0, 0.0003572936085583054
1208.0, 0.00022450467108805036
1209.0, 0.00022943465709839575
1210.0, 4.999033587941605e-05
1211.0, 8.538093029419224e-05
1212.0, 0.0002605247431645574
1213.0, 6.18508263384276e-05
1214.0, 0.00029099125611614147
1215.0, 0.00036633122953737187
1216.0, 0.00037250443404458414
1217.0, 0.00024508095220397464
1218.0, 0.0002240441215591812
1219.0, 0.0002531797878506922
1220.0, 0.00039090806940885847
1221.0, 0.0006230730185874568
1222.0, 0.0002748130063469566
1223.0, 0.0001620875803136817
1224.0, 0.00035586654109099795
1225.0, 0.00039723061339413593
1226.0, 0.0006846717212729919
1227.0, 0.00017892031781328117
1228.0, 2.212666609345914e-05
1229.0, 5.500541604251327e-05
1230.0, 0.00028303771462905155
1231.0, 0.00047916857237110015
1232.0, 0.0006055899651021512
1233.0, 0.0006291850180988364
1234.0, 0.0006294069078879968
1235.0, 0.0008210341395558845
1236.0, 0.0007884431262639762
1237.0, 0.0005009691029146897
1238.0, 0.0006443134092325959
1239.0, 0.000359540780013445
1240.0, 0.0005034122244934794
1241.0, 0.0010128632999415077
1242.0, 0.00044595166285825633
1243.0, 0.0002738322812068737
1244.0, 0.0001485832996339867
1245.0, 0.000496236723374946
1246.0, 0.0007225154786591943
1247.0, 0.0007251116974172171
1248.0, 0.0008822838505048145
1249.0, 0.0003685603431734652
1250.0, 0.00011219464506577462
1251.0, 0.0006223507697970861
1252.0, 0.0005221884766254696
1253.0, 0.0006647266159173815
1254.0, 0.000750555481657752
1255.0, 0.0001968584541005111
1256.0, 3.063688533443864e-05
1257.0, 0.0004883484725389523
1258.0, 0.0011920233208001093
1259.0, 0.0011332938630913185
1260.0, 0.0009480623689666136
1261.0, 0.0008408472216837715
1262.0, 0.0005207740683596559
1263.0, 0.0005970854729896561
1264.0, 0.0005102096597454592
1265.0, 0.000353340490939305
1266.0, 0.0005622572285540465
1267.0, 0.000110085497991638
1268.0, 0.0005671891371228548
1269.0, 0.0005595687095140115
1270.0, 0.00027014495805090607
1271.0, 0.0012256514616368077
1272.0, 0.0017836994374226818
1273.0, 0.0016134049333032141
1274.0, 0.002315306381984254
1275.0, 0.0018934008134795103
1276.0, 0.0005408800786653606
1277.0, 0.0006956590698862639
1278.0, 0.0003305328896200184
1279.0, 0.0005386976476509624
1280.0, 0.0005249294688904552
1281.0, 0.0004996228580071661
1282.0, 0.0010404413025297068
1283.0, 0.0007264249951709512
1284.0, 0.0008889611790957837
1285.0, 0.0008671767182928097
1286.0, 0.0008778956400950485
1287.0, 0.0008310688087470124
1288.0, 0.0006089202679740522
1289.0, 0.000580759742053264
1290.0, 0.000700803706383418
1291.0, 0.0007847859471404525
1292.0, 0.0007286746988525922
1293.0, 0.0006136403613362473
1294.0, 0.0012206045920539095
1295.0, 0.0009643157597203005
1296.0, 0.0006166286845873887
1297.0, 0.001231816902809537
1298.0, 0.0005736198136201022
1299.0, 0.00020562828647003638
1300.0, 0.0005854275794608641
1301.0, 0.0006004871750691457
1302.0, 0.0008054933703337215
1303.0, 0.000523461103385671
1304.0, 0.0007552635179171674
1305.0, 0.0011664137936747113
1306.0, 0.0006967320362746072
1307.0, 0.0003858436390624172
1308.0, 0.0009404341752668606
1309.0, 0.0008228968450321178
1310.0, 0.0009955142200875427
1311.0, 0.00043062091136970696
1312.0, 7.141193425038393e-05
1313.0, 0.0011038368378084571
1314.0, 0.0003973250958384047
1315.0, 0.0006507043661568556
1316.0, 0.0006911519749282752
1317.0, 0.001187070969927712
1318.0, 0.001210955977399385
1319.0, 0.0012589929476883785
1320.0, 0.0011218313161597006
1321.0, 0.0010879265412032885
1322.0, 0.0009813036436954752
1323.0, 0.0005789658300544792
1324.0, 0.000607457014128562
1325.0, 0.0008521983518196857
1326.0, 0.0007677157535534623
1327.0, 0.00046446832831529487
1328.0, 0.0002884519811233916
1329.0, 0.0008127875409407986
1330.0, 0.0005965690473275497
1331.0, 0.0011237425785609128
1332.0, 0.000790299352696244
1333.0, 0.0005512145141187672
1334.0, 0.0008727235736026579
1335.0, 0.0009986900876768525
1336.0, 0.0009061818136957877
1337.0, 0.0006830683197916923
1338.0, 0.001322658215654813
1339.0, 0.0017211242061341311
1340.0, 0.0008340946124551542
1341.0, 0.0008639572786177035
1342.0, 0.0013387813235207636
1343.0, 0.000800969039617107
1344.0, 0.0012354089701375986
1345.0, 0.0004846122838052521
1346.0, 0.00042421957688770784
1347.0, 0.00121518540497737
1348.0, 0.00030829439641347233
1349.0, 0.0007558709000342273
1350.0, 0.0008393260217177799
1351.0, 0.0009142429330252215
1352.0, 0.0011035925541815913
1353.0, 0.0008795486330014768
1354.0, 0.0008594532197204206
1355.0, 0.0011839380171460364
1356.0, 0.0013349372612352917
1357.0, 0.0011108921094653576
1358.0, 0.0008870643894782397
1359.0, 0.0010528604006234197
1360.0, 0.0009520628655840977
1361.0, 0.0011378485695148054
1362.0, 0.0011880149013625925
1363.0, 0.0010499082620125369
1364.0, 0.0012413870376643357
1365.0, 0.001830199972554671
1366.0, 0.0012660549321955646
1367.0, 0.0004180015392718589
1368.0, 0.0010028138565742575
1369.0, 0.0011410283107984418
1370.0, 0.0006995875389687491
1371.0, 0.0007669282245320887
1372.0, 0.0014564307917008656
1373.0, 0.00134204858034799
1374.0, 0.0009239260351334404
1375.0, 0.0009548103453230234
1376.0, 0.0007339490337933056
1377.0, 0.0008709814047973514
1378.0, 0.0009142639005955634
1379.0, 0.0008334954816571622
1380.0, 0.0012756048561030494
1381.0, 0.0013396400274822856
1382.0, 0.0013020485688470301
1383.0, 0.001019738238595971
1384.0, 0.001227356422771185
1385.0, 0.0009678853483854044
1386.0, 0.0009269190686082168
1387.0, 0.0010891376480681027
1388.0, 0.0009635235421094372
1389.0, 0.0010000619396878553
1390.0, 0.001165143349108811
1391.0, 0.0009407753988591109
1392.0, 0.0007575048084748454
1393.0, 0.0008861625892412676
1394.0, 0.001031961470734788
1395.0, 0.0010938174214414152
1396.0, 0.0007124690085906213
1397.0, 0.00034218022960325176
1398.0, 0.0011934679052168782
1399.0, 0.000834444431636866
1400.0, 0.0014294940445461278
1401.0, 0.0009949948516051737
1402.0, 0.0014715482247675102
1403.0, 0.001056262425950547
1404.0, 0.000667102304290569
1405.0, 0.0010907507082966684
1406.0, 0.0012309702155019649
1407.0, 0.001676527569586671
1408.0, 0.0012787770107135692
1409.0, 0.001080518682443198
1410.0, 0.0009466342695805139
1411.0, 0.0007496575048459463
1412.0, 0.0007234603533030693
1413.0, 0.0007921732862256205
1414.0, 0.0008011517750290358
1415.0, 0.0009035328284056072
1416.0, 0.0011263804486224998
1417.0, 0.0009237574958140689
1418.0, 0.0008661192812631518
1419.0, 0.001192074168497197
1420.0, 0.0008037429721944858
1421.0, 0.0006440521482484772
1422.0, 0.0012827176986795
1423.0, 0.0011983302769594383
1424.0, 0.0012431292071550203
1425.0, 0.0011666505513689706
1426.0, 0.001182294790888711
1427.0, 0.000909382273651272
1428.0, 0.0009086144222922531
1429.0, 0.0009752486715902288
1430.0, 0.0010678273022263801
1431.0, 0.0009274321880830652
1432.0, 0.0008859410962995559
1433.0, 0.0007861515614207649
1434.0, 0.0006533015184220424
1435.0, 0.00043373528375808006
1436.0, 0.0004690965393893689
1437.0, 0.0012465443716803207
1438.0, 0.00127309964556225
1439.0, 0.001339283584544398
1440.0, 0.0010901861726226685
1441.0, 0.0010117473006132653
1442.0, 0.0007152367155073469
1443.0, 0.0015656690314298912
1444.0, 0.0008550936711476098
1445.0, 0.0011157329615949644
1446.0, 0.0007980782371069474
1447.0, 0.001110035927087905
1448.0, 0.0005056045892779285
1449.0, 0.0007059896232812671
1450.0, 0.0009647470714529667
1451.0, 0.0006975497139586568
1452.0, 0.0007364824734227482
1453.0, 0.0007941485796364396
1454.0, 0.0009012348681804023
1455.0, 0.0008679781960936787
1456.0, 0.001107498837792794
1457.0, 0.001102854019688744
1458.0, 0.0006833966805898405
1459.0, 0.0006174921499652489
1460.0, 0.0005528624218237412
1461.0, 0.0010141281623809344
1462.0, 0.0009386285551341586
1463.0, 0.0010148698905943605
1464.0, 0.0009887056530649622
1465.0, 0.0009006624281754602
1466.0, 0.0009534261520197187
1467.0, 8.176266572336731e-05
1468.0, 0.0009575640612709201
1469.0, 0.0005976930525530012
1470.0, 0.0009514919854325366
1471.0, 0.00029121193922681377
1472.0, 0.00047566170302810605
1473.0, 0.0007418102941727326
1474.0, 0.0010984412887341483
1475.0, 0.0010239377347764868
1476.0, 0.0009331500480656139
1477.0, 0.0008975910061236809
1478.0, 0.0013171356215767652
1479.0, 0.0012810827848125901
1480.0, 0.00114498885178122
1481.0, 0.0009960840724141968
1482.0, 0.0009456268343823299
1483.0, 0.001412191002841206
1484.0, 0.0016487221804358063
1485.0, 0.0014256805408106431
1486.0, 0.000852322282701257
1487.0, 0.0008371035534776989
1488.0, 0.00030635712015318557
1489.0, 0.0012142683844110207
1490.0, 0.0005933022778396183
1491.0, 0.001210460266031035
1492.0, 0.0013685819960719068
1493.0, 0.0010527514665683495
1494.0, 0.00015111059060711414
1495.0, 0.0006518595912022999
1496.0, 0.0006552676455818095
1497.0, 0.0006548537459259611
1498.0, 0.0008450882856312776
1499.0, 0.0007915687235654301
1500.0, 0.0008982968214503649
1501.0, 0.0007782320403176986
1502.0, 0.0006227756182843657
1503.0, 0.0005825521574819579
1504.0, 0.0008863670306451543
1505.0, 0.0006500540904852887
1506.0, 0.0005541689521136334
1507.0, 0.0010536817895142859
1508.0, 0.0011342887450681216
1509.0, 0.0005019445063461675
1510.0, 0.00016567359415872886
1511.0, 0.00037464866070353235
1512.0, 0.0005515606326726149
1513.0, 0.0010710208645337345
1514.0, 0.0013984087929211559
1515.0, 0.0008777609795883103
1516.0, 0.0011951772783042303
1517.0, 0.0006964794072429306
1518.0, 0.00045206233732904223
1519.0, 0.0007081978708919995
1520.0, 0.0003392391976824047
1521.0, 0.0005069008335172047
1522.0, 0.0004908135662824541
1523.0, 0.0006194042362736395
1524.0, 0.0006119006615569903
1525.0, 0.0005141507520504864
1526.0, 0.0006509794454460676
1527.0, 0.0007225512390282655
1528.0, 0.0004286373356356713
1529.0, 0.0007067692975692847
1530.0, 0.0010588146420102567
1531.0, 0.000809148349187518
1532.0, 0.0004221945194932521
1533.0, 0.00042177889925444943
1534.0, 0.00029177308555773424
1535.0, 0.00024420983171258233
1536.0, 0.0005246718375220645
1537.0, 0.0007578626865680472
1538.0, 0.0006086347657332976
1539.0, 0.0007101834086582308
1540.0, 0.0008456374839667839
1541.0, 0.0007492698229338056
1542.0, 0.0009619117779754106
1543.0, 0.0009440528120981676
1544.0, 0.0010741793893457796
1545.0, 0.0014298967782743854
1546.0, 0.0005728444060576101
1547.0, 0.00018937769437572585
1548.0, 0.0008242989182387819
1549.0, 0.0010178895874137983
1550.0, 0.0010077356485807447
1551.0, 0.0022814953454793467
1552.0, 0.0016686242082003748
1553.0, 0.002622083662811017
1554.0, 0.0009250176636278601
1555.0, 0.000605252520073013
1556.0, 0.0007586416998838077
1557.0, 0.0009732837022579597
1558.0, 0.00021229730800796832
1559.0, 0.00015650136077065995
1560.0, 0.00044680664561623105
1561.0, 0.0007494426716201202
1562.0, 0.0005871216040029461
1563.0, 0.000744089891414194
1564.0, 0.0010798491408595345
1565.0, 0.0008871740857682831
1566.0, 0.0003981812639645386
1567.0, 0.0002537897151479408
1568.0, 0.0004784821011885245
1569.0, 0.00020688502690316022
1570.0, 1.615675797081442e-06
1571, 0.0
1572, 0.0
1573, 0.0
1574, 0.0
1575, 0.0
1576, 0.0
1577, 0.0
1578, 0.0
1579, 0.0
1580, 0.0
1581, 0.0
1582, 0.0
1583, 0.0
1584, 0.0
1585, 0.0
1586, 0.0
1587, 0.0
1588, 0.0
1589, 0.0
1590, 0.0
1591, 0.0
1592, 0.0
1593, 0.0
1594, 0.0
1595, 0.0
1596, 0.0
1597, 0.0
1598, 0.0
1599, 0.0
