30, 0.0
31, 0.0
32, 0.0
33, 0.0
34, 0.0
35, 0.0
36, 0.0
37, 0.0
38, 0.0
39, 0.0
40, 0.0
41, 0.0
42, 0.0
43, 0.0
44, 0.0
45, 0.0
46, 0.0
47, 0.0
48, 0.0
49, 0.0
50, 0.0
51, 0.0
52.0, 3.598555099645424e-05
53.0, 0.0001695100052979671
54.0, 0.0004942513530249899
55.0, 0.0013030917104192448
56.0, 0.002646750423974095
57.0, 0.004048263978910816
58.0, 0.004554329464037779
59.0, 0.0035544189150189384
60.0, 0.002268673003671457
61.0, 0.001091024890236853
62.0, 0.0005095474341432801
63.0, 0.0005982991432559226
64.0, 0.0009651519392226196
65.0, 0.00031306489433087324
66.0, 0.0036714516270735043
67.0, 0.0042287272649700405
68.0, 0.004290436359293006
69.0, 0.005148281427144627
70.0, 0.005838777790389427
71.0, 0.005333251997755744
72.0, 0.005725984372814668
73.0, 0.0065857440613220075
74.0, 0.00669382576563902
75.0, 0.004616350022227395
76.0, 0.004508873348110482
77.0, 0.006194224724527997
78.0, 0.009725922596505038
79.0, 0.01400606592053703
80.0, 0.017562663456610693
81.0, 0.019939895615004883
82.0, 0.01880639628961034
83.0, 0.016522705166919744
84.0, 0.01503247791279515
85.0, 0.015911298085853367
86.0, 0.019996058598049163
87.0, 0.024101354032211898
88.0, 0.029747445322079114
89.0, 0.0344875343062185
90.0, 0.036498472785754466
91.0, 0.03556079869709309
92.0, 0.03602159322780429
93.0, 0.03677357355241169
94.0, 0.03669451778069186
95.0, 0.03743297401334662
96.0, 0.04230930409973533
97.0, 0.04674262823351019
98.0, 0.05305959085505677
99.0, 0.06051249193894339
100.0, 0.07147624775409817
101.0, 0.08865234298341178
102.0, 0.11084650479629563
103.0, 0.13606042263448487
104.0, 0.16358548139273088
105.0, 0.1784979207668795
106.0, 0.17991113623819993
107.0, 0.2055154038935514
108.0, 0.17083905867157642
109.0, 0.14863123222641547
110.0, 0.13606598030277153
111.0, 0.1267828325945606
112.0, 0.11599809227825432
113.0, 0.10730384259256609
114.0, 0.09492330060506494
115.0, 0.08308494269727355
116.0, 0.07265246030153855
117.0, 0.06297355619441534
118.0, 0.05614790863727263
119.0, 0.05002064953342373
120.0, 0.04507930010879309
121.0, 0.040039233422191664
122.0, 0.034456039729068556
123.0, 0.031341861885521044
124.0, 0.028579888464702555
125.0, 0.025396108893720633
126.0, 0.023889176179483107
127.0, 0.023573129420570833
128.0, 0.020892788065451445
129.0, 0.02095166065232137
130.0, 0.018366663618104098
131.0, 0.016258171614626452
132.0, 0.015804895667453665
133.0, 0.016744039555326044
134.0, 0.016910107275381295
135.0, 0.018674491866807266
136.0, 0.02015494638762835
137.0, 0.020770231224911617
138.0, 0.020156407806175062
139.0, 0.017739672580302426
140.0, 0.01828600416052588
141.0, 0.01825059594828836
142.0, 0.01771199075099027
143.0, 0.017272520394913234
144.0, 0.017722847833446617
145.0, 0.017932995026984772
146.0, 0.016407502423005677
147.0, 0.016558403888507076
148.0, 0.018206743787691864
149.0, 0.019396604607290344
150.0, 0.01703698042063544
151.0, 0.014935624481181504
152.0, 0.013198451245657866
153.0, 0.011534942985252641
154.0, 0.009550263287422036
155.0, 0.006819228308330448
156.0, 0.006350285180960279
157.0, 0.005450108287007423
158.0, 0.005794931996158719
159.0, 0.0073111764767624515
160.0, 0.008863767723518344
161.0, 0.010270255360247319
162.0, 0.01301050389446038
163.0, 0.013481167710156327
164.0, 0.012250298706245248
165.0, 0.011294960636785574
166.0, 0.013426313619387027
167.0, 0.013343927935948286
168.0, 0.013555198295125354
169.0, 0.012596626250465157
170.0, 0.011037287968675126
171.0, 0.010993512140203913
172.0, 0.010410394365496085
173.0, 0.010896625953990203
174.0, 0.010690504340978303
175.0, 0.0106801253707479
176.0, 0.011708731739880757
177.0, 0.012003711673430804
178.0, 0.011019833416150624
179.0, 0.011014266407271706
180.0, 0.011517962600798771
181.0, 0.011730879672485857
182.0, 0.011035033175897869
183.0, 0.012950911392389868
184.0, 0.014265815645561359
185.0, 0.014159612502426056
186.0, 0.014082862226291095
187.0, 0.015529844308821471
188.0, 0.017320409973141524
189.0, 0.01795345682219663
190.0, 0.019280182504697128
191.0, 0.020954125411554652
192.0, 0.022178363954802834
193.0, 0.02217449520447769
194.0, 0.024331675079329085
195.0, 0.024891407821221425
196.0, 0.025599802036793868
197.0, 0.0276823528383357
198.0, 0.03134904010627575
199.0, 0.034293614915776836
200.0, 0.03547540552373307
201.0, 0.032768430901078664
202.0, 0.027183104634892125
203.0, 0.021655532084415795
204.0, 0.0200084107509842
205.0, 0.017953234862798356
206.0, 0.018040174163261945
207.0, 0.01786935038742879
208.0, 0.017670869861862178
209.0, 0.01802148670331825
210.0, 0.01790948813740818
211.0, 0.017467929494390542
212.0, 0.01762180076832985
213.0, 0.017280913994134228
214.0, 0.016479631142498567
215.0, 0.016237441622958256
216.0, 0.016053609156686712
217.0, 0.01560368044175301
218.0, 0.01617463915367529
219.0, 0.016852199913217555
220.0, 0.01685680306571701
221.0, 0.017044231856403365
222.0, 0.016735265186128993
223.0, 0.016565422171385517
224.0, 0.01745933364991542
225.0, 0.018741160883608398
226.0, 0.019207289567423493
227.0, 0.021194932897315465
228.0, 0.02194360883905345
229.0, 0.02327161134226749
230.0, 0.0257104115683121
231.0, 0.02875004709324574
232.0, 0.030817238007148556
233.0, 0.034287836282564724
234.0, 0.03982963431730926
235.0, 0.04603627725673985
236.0, 0.05350575664915696
237.0, 0.06501384281734263
238.0, 0.0880205698805769
239.0, 0.09301420808288827
240.0, 0.10729744381182425
241.0, 0.11539655860614376
242.0, 0.11532697875650309
243.0, 0.1203658070461176
244.0, 0.12423178689873533
245.0, 0.13024780729301963
246.0, 0.13389117033474576
247.0, 0.13613425906036258
248.0, 0.1394587393085087
249.0, 0.1461331358274223
250.0, 0.15092653604496978
251.0, 0.1522636545471464
252.0, 0.15171864032627635
253.0, 0.14925845268109333
254.0, 0.14512078411670173
255.0, 0.14481120221534796
256.0, 0.1374988867407419
257.0, 0.13911667727650545
258.0, 0.13194233979592174
259.0, 0.11412995271254346
260.0, 0.10328908850146848
261.0, 0.09787198778445129
262.0, 0.09585589539189543
263.0, 0.09279370903103668
264.0, 0.09063064538715343
265.0, 0.09117001288645263
266.0, 0.09249525308106087
267.0, 0.09693539503394942
268.0, 0.10511550044947819
269.0, 0.11498823837533936
270.0, 0.12888799239630255
271.0, 0.14912640111239614
272.0, 0.1697514312766017
273.0, 0.18574681420503195
274.0, 0.20179783837596316
275.0, 0.21704152796969178
276.0, 0.22956170049339478
277.0, 0.2380406792708165
278.0, 0.24861983338404128
279.0, 0.2590544130712297
280.0, 0.26704648077262405
281.0, 0.2715851157210905
282.0, 0.2722896573736747
283.0, 0.26925269287851894
284.0, 0.261224353101479
285.0, 0.24192618377870861
286.0, 0.21589247693188582
287.0, 0.18777758058562113
288.0, 0.16074103063589945
289.0, 0.13422777444822467
290.0, 0.11481762387839342
291.0, 0.09734755942841737
292.0, 0.08389951855587312
293.0, 0.07375913988674257
294.0, 0.06519413950838988
295.0, 0.05955773638082244
296.0, 0.05257730599021461
297.0, 0.04740586228260439
298.0, 0.04371550606786293
299.0, 0.0411268959497484
300.0, 0.0394492207660963
301.0, 0.03803162067886109
302.0, 0.03684264887848207
303.0, 0.035816903338101426
304.0, 0.035248429743351475
305.0, 0.0350672791008539
306.0, 0.0348044485868078
307.0, 0.035570095087907816
308.0, 0.03488405258561245
309.0, 0.03424213350371009
310.0, 0.03439355343633361
311.0, 0.034912999831863994
312.0, 0.03394144624152081
313.0, 0.03445520822122731
314.0, 0.03402776731158982
315.0, 0.032870375380494914
316.0, 0.032126016413329773
317.0, 0.03243074828528623
318.0, 0.032418151286015696
319.0, 0.03251109228282845
320.0, 0.03579861083948357
321.0, 0.039074890419593396
322.0, 0.04190326371161026
323.0, 0.04506629732956051
324.0, 0.04793823125711509
325.0, 0.0485628059598763
326.0, 0.048060763466568235
327.0, 0.04874472692795308
328.0, 0.049392674378322114
329.0, 0.047577333742489715
330.0, 0.04611559805350543
331.0, 0.04466986797009995
332.0, 0.043634008436939556
333.0, 0.04168163462774801
334.0, 0.03827652376970308
335.0, 0.03372219421150965
336.0, 0.028119213180287712
337.0, 0.021729355296375454
338.0, 0.014811991946823224
339.0, 0.00968825544073116
340.0, 0.0062809334758901466
341.0, 0.0024844112333000687
342.0, 0.0005345515572114392
343.0, 0.0017975379113069133
344.0, 0.003176890339080958
345.0, 0.003842272776360036
346.0, 0.004041800646247822
347.0, 0.00456932763659994
348.0, 0.004233337705933033
349.0, 0.003463540328669059
350.0, 0.0029238505452593147
351.0, 0.0021632190746537373
352.0, 0.0010959246248197715
353.0, 0.00048345563883726004
354.0, 0.0025752853618723334
355.0, 0.005407326752253364
356.0, 0.00896283561372375
357.0, 0.01193978922463772
358.0, 0.014139566207710948
359.0, 0.016895742540278164
360.0, 0.017853990368139568
361.0, 0.017319204201142274
362.0, 0.017730325150443572
363.0, 0.016953579002756018
364.0, 0.014802143571473273
365.0, 0.014679151888305937
366.0, 0.013252875927949444
367.0, 0.012089442098716445
368.0, 0.011642822303851445
369.0, 0.012111793693993289
370.0, 0.01306401391222944
371.0, 0.013692533680585591
372.0, 0.017543929414143507
373.0, 0.02316916316437371
374.0, 0.031170077815655242
375.0, 0.040910908598361766
376.0, 0.05200116700611143
377.0, 0.06460095799042456
378.0, 0.07593141195906204
379.0, 0.08271678607435103
380.0, 0.0862385972392371
381.0, 0.08571011883728405
382.0, 0.08194431687236571
383.0, 0.07753836626227514
384.0, 0.0682050318151599
385.0, 0.05742394463125424
386.0, 0.0494162585427418
387.0, 0.04224382348203097
388.0, 0.03401697530177176
389.0, 0.025019350636411915
390.0, 0.019149058935090908
391.0, 0.013699410802104685
392.0, 0.008690989338289231
393.0, 0.0044626837594430166
394.0, 0.0018511951407961112
395.0, 0.0018661444790342425
396.0, 0.00429828103102618
397.0, 0.004270896989345221
398.0, 0.004112194539944547
399.0, 0.0032243114015774767
400.0, 0.001577860077113545
401.0, 0.00042101204523488866
402.0, 0.00305326804944399
403.0, 0.005741952591266674
404.0, 0.009452971556792669
405.0, 0.013755672569627918
406.0, 0.018431853272636894
407.0, 0.023032916466235252
408.0, 0.025016397505045446
409.0, 0.024227950531688976
410.0, 0.02509452133609371
411.0, 0.025596328176247258
412.0, 0.024590065171200357
413.0, 0.022612542571844967
414.0, 0.02230962590821873
415.0, 0.019896599023278054
416.0, 0.01940600594945169
417.0, 0.017903918460117407
418.0, 0.01597967034556353
419.0, 0.014438874119473897
420.0, 0.010518490821234157
421.0, 0.01037681098544366
422.0, 0.008270322110306493
423.0, 0.00581990509972417
424.0, 0.004306023864922774
425.0, 0.003542061808005246
426.0, 0.0015904487323064754
427.0, 0.0020811508022075507
428.0, 0.0006203237465850014
429.0, 0.000750536690483426
430.0, 0.0019229120125946696
431.0, 0.0030693977811398817
432.0, 0.0039231470400663635
433.0, 0.004231486905494455
434.0, 0.004142700049827331
435.0, 0.004013947375809419
436.0, 0.003715109381030707
437.0, 0.0030770964014686947
438.0, 0.002034987246369144
439.0, 0.0007572772587911422
440.0, 0.0022889706484377583
441.0, 0.005313051553715587
442.0, 0.007954989276563542
443.0, 0.011744462483399597
444.0, 0.017894382131539887
445.0, 0.020685534773643464
446.0, 0.023613668612967733
447.0, 0.026300308193725506
448.0, 0.028129029505769565
449.0, 0.028725521606777344
450.0, 0.028068089596306724
451.0, 0.0265489683771732
452.0, 0.024778024340986533
453.0, 0.023582294600775242
454.0, 0.022335182378504147
455.0, 0.02123684242291861
456.0, 0.020827839468921337
457.0, 0.021430774785921994
458.0, 0.021214119765812996
459.0, 0.021808513333359154
460.0, 0.02367064166703351
461.0, 0.02633108583272858
462.0, 0.029084556237585404
463.0, 0.03216792476846824
464.0, 0.039083315892778844
465.0, 0.042186963120388755
466.0, 0.04845081501458631
467.0, 0.05397915617842379
468.0, 0.05840377437897793
469.0, 0.06256378879521933
470.0, 0.06574533207206396
471.0, 0.07033648470937696
472.0, 0.07110112206907784
473.0, 0.07269914536438626
474.0, 0.0741220636368398
475.0, 0.07488616185400228
476.0, 0.07619232218562562
477.0, 0.07381894298459982
478.0, 0.07540967865852839
479.0, 0.07539130953858975
480.0, 0.07387055034818528
481.0, 0.07362523066563069
482.0, 0.07598721796738322
483.0, 0.07458649520051396
484.0, 0.07946956930290362
485.0, 0.08445812524485255
486.0, 0.09327914543032371
487.0, 0.10519786122838477
488.0, 0.11878783523048793
489.0, 0.1348256233481521
490.0, 0.15722389195640138
491.0, 0.1736298365469418
492.0, 0.19116318527006335
493.0, 0.20655654198986367
494.0, 0.21992266423890666
495.0, 0.23503116947665087
496.0, 0.25163373397417577
497.0, 0.26734953932547567
498.0, 0.28202861203407725
499.0, 0.30019824446356014
500.0, 0.3190490711520244
501.0, 0.33411334325009023
502.0, 0.3448959797640156
503.0, 0.35099184566969727
504.0, 0.35354596445493647
505.0, 0.3451768950453962
506.0, 0.33100285439551314
507.0, 0.3165050735098648
508.0, 0.3020393887955802
509.0, 0.278415921697881
510.0, 0.2486550761719362
511.0, 0.22282903148878797
512.0, 0.20031855880601274
513.0, 0.17785275130097525
514.0, 0.15467287672084187
515.0, 0.13578209935641236
516.0, 0.12250024749056933
517.0, 0.11216414566602313
518.0, 0.10146656446176607
519.0, 0.09431804425644198
520.0, 0.09197941359981601
521.0, 0.09239346720457066
522.0, 0.09557295683462996
523.0, 0.09685095075714947
524.0, 0.09963013406077292
525.0, 0.1017525811223641
526.0, 0.10337418416181215
527.0, 0.10559957971340937
528.0, 0.10886064627636868
529.0, 0.11084777028927789
530.0, 0.11390689067610946
531.0, 0.11436694118223341
532.0, 0.11572675906310473
533.0, 0.11852266460013246
534.0, 0.1211094892658527
535.0, 0.12460291018459259
536.0, 0.13475214332261815
537.0, 0.14961928007741018
538.0, 0.16936353735567702
539.0, 0.19756291076220192
540.0, 0.2383632328312335
541.0, 0.29508624797476457
542.0, 0.37224703654487895
543.0, 0.47618933027350624
544.0, 0.5874480844519276
545.0, 0.6878573161824266
546.0, 0.7690761456898361
547.0, 0.8303172925233783
548.0, 0.8745292781308502
549.0, 0.9137553621464554
550.0, 0.9360720011730749
551.0, 0.9621716396212855
552.0, 0.9802667360219521
553.0, 0.9795289851054528
554.0, 0.9512939606411105
555.0, 0.8759228520571316
556.0, 0.7492423371173864
557.0, 0.6097661241241176
558.0, 0.47178746900345864
559.0, 0.35262810098287317
560.0, 0.26296813378785844
561.0, 0.20177556111554612
562.0, 0.1566093023482424
563.0, 0.12757875636475108
564.0, 0.1062763328416309
565.0, 0.09079303500263296
566.0, 0.07902620784127061
567.0, 0.06968920297007423
568.0, 0.06276922683736473
569.0, 0.05553304365178185
570.0, 0.053659627743156135
571.0, 0.051000810939423075
572.0, 0.04948520437997893
573.0, 0.04897400411117314
574.0, 0.048645439146472215
575.0, 0.05035891460180431
576.0, 0.0502581944056371
577.0, 0.058822875078213314
578.0, 0.06737614485520993
579.0, 0.07799763511787139
580.0, 0.09463209797458282
581.0, 0.12013704038870175
582.0, 0.15593470974151816
583.0, 0.2229103020911227
584.0, 0.330071431255778
585.0, 0.48220670234138513
586.0, 0.6582213904760049
587.0, 0.8165600284957967
588.0, 0.916604504204265
589.0, 0.9603564593765413
590.0, 0.9937564709223019
591.0, 0.994452468715245
592.0, 0.9659621346554292
593.0, 0.9271666813017293
594.0, 0.8927643995701705
595.0, 0.8616120412467061
596.0, 0.8156143718525798
597.0, 0.7269860393530135
598.0, 0.5938656424952282
599.0, 0.45065169633312396
600.0, 0.32409975241788175
601.0, 0.2279029567869207
602.0, 0.16279102117379057
603.0, 0.12266107648644128
604.0, 0.09820853481107755
605.0, 0.08032122457507626
606.0, 0.0658632130040094
607.0, 0.055237622877258946
608.0, 0.0482080063268243
609.0, 0.0418441842907242
610.0, 0.037205393507409146
611.0, 0.03376334641636476
612.0, 0.030248659103667006
613.0, 0.027014210978529633
614.0, 0.024322786212906084
615.0, 0.02202954242545727
616.0, 0.019699301636215423
617.0, 0.017777625533744235
618.0, 0.016131437005224906
619.0, 0.015233222186379633
620.0, 0.01408741336861842
621.0, 0.012683644750179121
622.0, 0.01143340233836273
623.0, 0.010381606579248625
624.0, 0.009503214975296105
625.0, 0.008721548178576812
626.0, 0.008163030826627306
627.0, 0.0076925000039346075
628.0, 0.007256128414921248
629.0, 0.0069587991423103405
630.0, 0.006904779655964194
631.0, 0.006243357315611751
632.0, 0.0045546752957247505
633.0, 0.0033862910773963186
634.0, 0.0038277928120466626
635.0, 0.004064945083831924
636.0, 0.0033925336812917067
637.0, 0.0038892191810783318
638.0, 0.0023750343643962352
639.0, 0.002079311559281158
640.0, 0.0022320014625931135
641.0, 0.0025087526702496335
642.0, 0.0024461239125911334
643.0, 0.0018483056941094294
644.0, 0.0010722018326707482
645.0, 0.0009794748389422047
646.0, 0.0016285283943540708
647.0, 0.0010427100921066297
648.0, 0.0009177691448060548
649.0, 0.0007444717301729631
650.0, 0.0004275719884313093
651.0, 0.0009528573602528127
652.0, 0.0014005586003617053
653.0, 0.001785033313910402
654.0, 0.0029343638509499678
655.0, 0.003272737168515064
656.0, 0.003979456739020608
657.0, 0.0061019422406131596
658.0, 0.00970674777509113
659.0, 0.015024497498842578
660.0, 0.015745717076623054
661.0, 0.015932420846598145
662.0, 0.017755546855325394
663.0, 0.019007264148019513
664.0, 0.018828556935972754
665.0, 0.01826869603043535
666.0, 0.017986389897546255
667.0, 0.017792959900160953
668.0, 0.017388020458131124
669.0, 0.017695386960196655
670.0, 0.016235292261307894
671.0, 0.014113854351106252
672.0, 0.01272730297323358
673.0, 0.009665709158104515
674.0, 0.004661773546762294
675.0, 0.0029348685044336864
676.0, 0.0009175499634154105
677.0, 0.0006034371323467717
678.0, 0.0010995271874619428
679.0, 0.0013917262741932504
680.0, 0.0022484792244917167
681.0, 0.003432389635403467
682.0, 0.0026709043386543957
683.0, 0.002845426644159928
684.0, 0.0026568274320055633
685.0, 0.002554517412165022
686.0, 0.0027938864099992513
687.0, 0.002924187119865326
688.0, 0.002825582280781689
689.0, 0.0034327498945650866
690.0, 0.004098287245344722
691.0, 0.003025238989097963
692.0, 0.002514288450286012
693.0, 0.0023219963861888884
694.0, 0.001384726105699275
695.0, 0.001226170841996154
696.0, 0.0024042120263208988
697.0, 0.0019150223599142036
698.0, 0.001718466043300149
699.0, 0.0016492168570390513
700.0, 0.001321291636526125
701.0, 0.0006528682591488953
702.0, 6.493865215812365e-05
703.0, 0.00035930243150470603
704.0, 0.0014260439689216407
705.0, 0.002158261744918135
706.0, 0.002664630562427836
707.0, 0.0034104220374316955
708.0, 0.004542488249826317
709.0, 0.005898884770753853
710.0, 0.007482960333190729
711.0, 0.01028937552800287
712.0, 0.01004499763280178
713.0, 0.011724458884007378
714.0, 0.014434696306109036
715.0, 0.017520724699188805
716.0, 0.020733513973854006
717.0, 0.023720987068577663
718.0, 0.02615884099349651
719.0, 0.030827726461819985
720.0, 0.03549389861599183
721.0, 0.03988386358372818
722.0, 0.04572221481825848
723.0, 0.05265382608737949
724.0, 0.05922139552347228
725.0, 0.06589634890014737
726.0, 0.0711952734220426
727.0, 0.07675812154494917
728.0, 0.08237838136982292
729.0, 0.08648873237151779
730.0, 0.08993732223322554
731.0, 0.09335644665657984
732.0, 0.09562002262206051
733.0, 0.09559582233986558
734.0, 0.09636807951386929
735.0, 0.09491408774422914
736.0, 0.09191008881818206
737.0, 0.0898995411778244
738.0, 0.08750082404157519
739.0, 0.08306376156266329
740.0, 0.07894931234359875
741.0, 0.07404761319689018
742.0, 0.06950244750819978
743.0, 0.06524826648915324
744.0, 0.06049902903822448
745.0, 0.055105714067902746
746.0, 0.04993898573579639
747.0, 0.04574305228915449
748.0, 0.04141664991091176
749.0, 0.036836552860812784
750.0, 0.03328962370076189
751.0, 0.03048420615926678
752.0, 0.026017224440878433
753.0, 0.02248042933289409
754.0, 0.02053316368481967
755.0, 0.017185173814282455
756.0, 0.014992503140752289
757.0, 0.01368527405045125
758.0, 0.012140460349966678
759.0, 0.010943574763913545
760.0, 0.010185580599185092
761.0, 0.009654686015872233
762.0, 0.008749172313069504
763.0, 0.007066177307649131
764.0, 0.006631597235292825
765.0, 0.006465362878431927
766.0, 0.0058968802509200315
767.0, 0.005576430582058733
768.0, 0.005729570408833045
769.0, 0.005908397888086346
770.0, 0.005566987116447479
771.0, 0.004895230336087653
772.0, 0.005212886100243309
773.0, 0.004592421103581979
774.0, 0.004595102806341806
775.0, 0.00456434507166138
776.0, 0.003466831582462496
777.0, 0.00323066377972583
778.0, 0.005008014101144848
779.0, 0.004310751773835364
780.0, 0.0021762712016276877
781.0, 0.002808523949105398
782.0, 0.0031743223243794363
783.0, 0.004031547587734463
784.0, 0.00436579167841613
785.0, 0.004411008347461369
786.0, 0.004821523446773452
787.0, 0.003855923767369232
788.0, 0.0037257171507625473
789.0, 0.004173616357094757
790.0, 0.004388987399325987
791.0, 0.005278196366853588
792.0, 0.005877426719686106
793.0, 0.006211033533811672
794.0, 0.007040302008983497
795.0, 0.007436795607043899
796.0, 0.009022862984159486
797.0, 0.009359793455459507
798.0, 0.010257822209648042
799.0, 0.01120092498216782
800.0, 0.011669006815403242
801.0, 0.011915196642471303
802.0, 0.012368028963222135
803.0, 0.012628698399126953
804.0, 0.013526621032188126
805.0, 0.01458976032798595
806.0, 0.016014882263838348
807.0, 0.01720835946252019
808.0, 0.017579979632159938
809.0, 0.018011572731443663
810.0, 0.019385967643524765
811.0, 0.020455996292139178
812.0, 0.02201066705626281
813.0, 0.02295207639569962
814.0, 0.024771571531531443
815.0, 0.025364039294884882
816.0, 0.026884789296229106
817.0, 0.029785080470015976
818.0, 0.03345032678835634
819.0, 0.038374620602477844
820.0, 0.03842863067155239
821.0, 0.04002570693743696
822.0, 0.04595355362715571
823.0, 0.05151189801318155
824.0, 0.055834314901066565
825.0, 0.06143851965398734
826.0, 0.06937147178832541
827.0, 0.0769282526031369
828.0, 0.0841066563457447
829.0, 0.09240823823269563
830.0, 0.10280924129970401
831.0, 0.11294332657530426
832.0, 0.12385951406076898
833.0, 0.1341935142999926
834.0, 0.14379749151922108
835.0, 0.15402207621774897
836.0, 0.1610404398866801
837.0, 0.16756282660685448
838.0, 0.17376963780767923
839.0, 0.17676300564297082
840.0, 0.17804560046447637
841.0, 0.1777446226151964
842.0, 0.176600951568113
843.0, 0.17537937353212069
844.0, 0.17256152040402586
845.0, 0.1698485424871092
846.0, 0.16656011217156372
847.0, 0.1615305326570291
848.0, 0.15719650424216858
849.0, 0.15444127624731407
850.0, 0.15383799894093114
851.0, 0.15395686575061154
852.0, 0.15226338004983964
853.0, 0.15410806951287237
854.0, 0.1565710832800485
855.0, 0.15840612381353786
856.0, 0.16273090012083985
857.0, 0.16799346164928325
858.0, 0.1730700695719043
859.0, 0.17881133655923093
860.0, 0.18749193847839626
861.0, 0.20036907857566869
862.0, 0.2107126045196266
863.0, 0.2246283451797959
864.0, 0.24407150045697182
865.0, 0.26337587471550755
866.0, 0.287336691182788
867.0, 0.3142682487136579
868.0, 0.34295381517739526
869.0, 0.3803418199692609
870.0, 0.41694236855848194
871.0, 0.4585661991641583
872.0, 0.4931168074451569
873.0, 0.5294921929552224
874.0, 0.5614394490257013
875.0, 0.5885271885096677
876.0, 0.6085403233668982
877.0, 0.6175669120714058
878.0, 0.6201375339452974
879.0, 0.6146525793046235
880.0, 0.5931561753406841
881.0, 0.5694582894101131
882.0, 0.533198400386294
883.0, 0.4910215178024663
884.0, 0.44704356933767236
885.0, 0.403655790260532
886.0, 0.3645297725757193
887.0, 0.3259474519930874
888.0, 0.2919761251515069
889.0, 0.26826083548441065
890.0, 0.2463853693504523
891.0, 0.23275569877577743
892.0, 0.22202204519474147
893.0, 0.21615469459502817
894.0, 0.2195816961459176
895.0, 0.22536004282792588
896.0, 0.22792594374266492
897.0, 0.24671725587414312
898.0, 0.2619798059724534
899.0, 0.2765382258184666
900.0, 0.2916923054744127
901.0, 0.3024774477081713
902.0, 0.3058373167357813
903.0, 0.3035908012197115
904.0, 0.29752595342275845
905.0, 0.2833508028833891
906.0, 0.2629104875834919
907.0, 0.24099786795607106
908.0, 0.21847192412931224
909.0, 0.19485593086168318
910.0, 0.17247979677788083
911.0, 0.15278668333656623
912.0, 0.13467079392420186
913.0, 0.11757326039456681
914.0, 0.10533776239408327
915.0, 0.09221862451571394
916.0, 0.08002627121392522
917.0, 0.06944161870345547
918.0, 0.06103341604116794
919.0, 0.0539088960109806
920.0, 0.04707604170545148
921.0, 0.04072417393171008
922.0, 0.03571108701187261
923.0, 0.030737167425228883
924.0, 0.025621304117928873
925.0, 0.02296745043145873
926.0, 0.01949350326860173
927.0, 0.014841242543281778
928.0, 0.012076261925850092
929.0, 0.010756738160280534
930.0, 0.007877802079906304
931.0, 0.005195337265725872
932.0, 0.004332495745193893
933.0, 0.004215959310266927
934.0, 0.0019747400028158456
935.0, 0.0006078098787256241
936.0, 0.0009983076774157638
937.0, 0.002636080083196656
938.0, 0.0036569186255876913
939.0, 0.0028757336691723886
940.0, 0.0019983858120456496
941.0, 0.0033015458877967245
942.0, 0.003491866437392633
943.0, 0.002606878363500138
944.0, 0.00248569601823565
945.0, 0.002662906244923829
946.0, 0.002119915969489282
947.0, 0.0016459428562441015
948.0, 0.001610704603228459
949.0, 0.0005456971296746954
950.0, 0.000802582023705003
951.0, 0.002324733261509332
952.0, 0.003476180527503857
953.0, 0.0056411259961069255
954.0, 0.0075585265588187615
955.0, 0.009467366879579777
956.0, 0.011541491917791073
957.0, 0.013788550582493866
958.0, 0.016275302558364894
959.0, 0.01856413457749057
960.0, 0.021490230688492245
961.0, 0.02344525175375798
962.0, 0.026935513584954836
963.0, 0.029164441468059618
964.0, 0.031131703928551725
965.0, 0.03185230255743121
966.0, 0.031176729060487306
967.0, 0.030731137398773683
968.0, 0.030604626445721317
969.0, 0.02895282224449142
970.0, 0.026604442297701092
971.0, 0.025539055209906292
972.0, 0.023159347809230943
973.0, 0.022086797447880398
974.0, 0.020916112296366612
975.0, 0.02000170651296575
976.0, 0.01944535935152058
977.0, 0.01717457711649676
978.0, 0.015352575540954686
979.0, 0.014766038697570424
980.0, 0.016081473074429413
981.0, 0.015238396896165811
982.0, 0.015163550540042715
983.0, 0.013512061933176804
984.0, 0.012627711755017054
985.0, 0.012956892782059361
986.0, 0.012374003545650053
987.0, 0.011931223187188946
988.0, 0.011154670779403582
989.0, 0.01000509149475629
990.0, 0.012501466584503573
991.0, 0.011508623201050285
992.0, 0.010348626507155508
993.0, 0.011034014928339962
994.0, 0.011037916878119693
995.0, 0.010027339392295605
996.0, 0.010345171023121831
997.0, 0.009779358536008174
998.0, 0.009963104058711184
999.0, 0.009890704791634189
1000.0, 0.00922407184455072
1001.0, 0.007311431849722376
1002.0, 0.00706750806329521
1003.0, 0.0069354860067842765
1004.0, 0.006462054455389192
1005.0, 0.0068010890122728665
1006.0, 0.007323702947341875
1007.0, 0.005593920564747712
1008.0, 0.00545054813519882
1009.0, 0.00558671127533546
1010.0, 0.004712075605074889
1011.0, 0.004485505354737021
1012.0, 0.004037777966488528
1013.0, 0.004388000195093155
1014.0, 0.0042832247983789614
1015.0, 0.0030063149887437266
1016.0, 0.002970768468664452
1017.0, 0.0042811151698686324
1018.0, 0.00439430081413122
1019.0, 0.004459365745766218
1020.0, 0.004496204261916855
1021.0, 0.004568987886682431
1022.0, 0.004918164903151887
1023.0, 0.0054360635054884615
1024.0, 0.005214972410951584
1025.0, 0.004849986399743168
1026.0, 0.005369165330625976
1027.0, 0.0039000241230781663
1028.0, 0.004391977177971214
1029.0, 0.0038580829258906377
1030.0, 0.006477495148037191
1031.0, 0.00580628206686885
1032.0, 0.005890113691572004
1033.0, 0.005633076256614013
1034.0, 0.005444151131439563
1035.0, 0.006479992997328697
1036.0, 0.006819150690766585
1037.0, 0.004929881675034381
1038.0, 0.008351138005345142
1039.0, 0.005762359302425974
1040.0, 0.00539455689625087
1041.0, 0.006446829471381531
1042.0, 0.005765469355866295
1043.0, 0.005997070197927903
1044.0, 0.007188160414388529
1045.0, 0.0076915179528266155
1046.0, 0.007681567565130306
1047.0, 0.008333753505754255
1048.0, 0.008637104994389544
1049.0, 0.008635499783740223
1050.0, 0.009271821480921878
1051.0, 0.009393974774063507
1052.0, 0.009577224006798526
1053.0, 0.009608484914073288
1054.0, 0.010115250949427196
1055.0, 0.010823998608567196
1056.0, 0.010810456609890447
1057.0, 0.010133971259497632
1058.0, 0.009682382967779558
1059.0, 0.010120556513434473
1060.0, 0.009569221584099279
1061.0, 0.010035675310792908
1062.0, 0.009786043480600375
1063.0, 0.010830300289103836
1064.0, 0.012613118178195538
1065.0, 0.014021582488548139
1066.0, 0.013988853400870646
1067.0, 0.013672476344905902
1068.0, 0.015620197528711138
1069.0, 0.013941288078411131
1070.0, 0.014596568675116986
1071.0, 0.01515131222593468
1072.0, 0.014916287920759611
1073.0, 0.015709253396629413
1074.0, 0.015434922256646454
1075.0, 0.01569782636705773
1076.0, 0.01629421323636381
1077.0, 0.016893939792714543
1078.0, 0.01883552173888667
1079.0, 0.02097144273081157
1080.0, 0.023128614701516788
1081.0, 0.025306827558352913
1082.0, 0.025564908800148233
1083.0, 0.0291625208214269
1084.0, 0.031458813896190006
1085.0, 0.03313113215946095
1086.0, 0.03591780352106621
1087.0, 0.03840107006198509
1088.0, 0.039127536074888995
1089.0, 0.038947916359052516
1090.0, 0.03766012691295605
1091.0, 0.037073324318748616
1092.0, 0.034204481307024553
1093.0, 0.032317639661413065
1094.0, 0.029872385729868427
1095.0, 0.029385329516827527
1096.0, 0.028106946611064016
1097.0, 0.02605624683272599
1098.0, 0.02423778830613229
1099.0, 0.022282991069006337
1100.0, 0.01990104422235531
1101.0, 0.018247675105631075
1102.0, 0.01592683663982696
1103.0, 0.014469939040225484
1104.0, 0.014160869389868132
1105.0, 0.012402147475719832
1106.0, 0.011590138294280548
1107.0, 0.011284125217381662
1108.0, 0.011007595774444701
1109.0, 0.009829136360434924
1110.0, 0.008294912542878527
1111.0, 0.007616491101311282
1112.0, 0.006925507804322153
1113.0, 0.00876365081159095
1114.0, 0.008586756248476315
1115.0, 0.007679664722676632
1116.0, 0.009853426801844851
1117.0, 0.0071285861694803335
1118.0, 0.005924940078532024
1119.0, 0.006019933536046713
1120.0, 0.0069903608558105354
1121.0, 0.006976834311822762
1122.0, 0.005430310459828046
1123.0, 0.006183350610957294
1124.0, 0.0059123857481758
1125.0, 0.005254385827547875
1126.0, 0.004762985688516664
1127.0, 0.004879467150359166
1128.0, 0.005064621225253923
1129.0, 0.005785542238777679
1130.0, 0.00580602751523965
1131.0, 0.005777454843407209
1132.0, 0.005933642731777173
1133.0, 0.005805747087050495
1134.0, 0.005628828566829066
1135.0, 0.005495842977996853
1136.0, 0.004382381204220296
1137.0, 0.004463790203957748
1138.0, 0.0042406557142477845
1139.0, 0.003294273690439922
1140.0, 0.0039350443338163526
1141.0, 0.003813238864755447
1142.0, 0.0037847256331793996
1143.0, 0.003264978507176808
1144.0, 0.002552273625996142
1145.0, 0.0027265089509428877
1146.0, 0.003125113662537765
1147.0, 0.0034082913225565023
1148.0, 0.004234859295825588
1149.0, 0.00269803085699658
1150.0, 0.003939635695290355
1151.0, 0.0035218317664497496
1152.0, 0.0039053569703088624
1153.0, 0.0026576005953613704
1154.0, 0.0016546675554152896
1155.0, 0.0020861395753365673
1156.0, 0.002297020745144259
1157.0, 0.001672407710480004
1158.0, 0.0018963424128356908
1159.0, 0.0021387091710810806
1160.0, 0.001193961381138256
1161.0, 0.002267161409330859
1162.0, 0.002120301235904393
1163.0, 0.0012618839063920791
1164.0, 0.0008215967889750458
1165.0, 0.0008586865564380623
1166.0, 0.00138641441240524
1167.0, 0.0019348230131914245
1168.0, 0.0019376515193354157
1169.0, 0.0013834999326593441
1170.0, 0.001079826131448515
1171.0, 0.0017892619257535796
1172.0, 0.0020762891145927795
1173.0, 0.0016964055801033109
1174.0, 0.002095926515168334
1175.0, 0.0015282311707643173
1176.0, 0.0003689334693841653
1177.0, 0.00029748832012165135
1178.0, 0.0003863931742908858
1179.0, 0.0007394740222698749
1180.0, 0.0009742547593605569
1181.0, 0.0007812765513544555
1182.0, 0.0006522628617562024
1183.0, 0.0005461838675381802
1184.0, 0.0003336219332674713
1185.0, 0.0004259853507968995
1186.0, 6.449311064803291e-05
1187.0, 0.00028595898784312333
1188.0, 0.0013862227402866635
1189.0, 0.0011322919074011329
1190.0, 0.0007573362799607908
1191.0, 0.0007135848457284468
1192.0, 0.00038559482373623803
1193.0, 0.0004658557832539885
1194.0, 0.0010586048080061343
1195.0, 0.0008157220802135743
1196.0, 0.000359079421799761
1197.0, 0.00036502923852099387
1198.0, 0.0016709778884590768
1199.0, 0.0013909774952232882
1200.0, 0.0009932499940424814
1201.0, 0.0006715403358384716
1202.0, 0.0001776700269246096
1203.0, 0.00024672791127243346
1204.0, 0.0007962857941491942
1205.0, 0.0006851104646636172
1206.0, 0.0005448572718013154
1207.0, 0.0009414556292421611
1208.0, 0.0008205826806874726
1209.0, 0.0007242324091034476
1210.0, 0.0005936194647102738
1211.0, 0.0008653444698733526
1212.0, 0.0005086951149562262
1213.0, 0.0009941639095398273
1214.0, 0.0003144860954670682
1215.0, 0.0009345171430437612
1216.0, 0.001564442230763127
1217.0, 0.0009951163551218279
1218.0, 0.0006432469883473432
1219.0, 0.0010833811428268367
1220.0, 0.0009280898232366523
1221.0, 0.00019267912096973907
1222.0, 0.0006201718615967748
1223.0, 0.000709516641191313
1224.0, 0.0008340242671670355
1225.0, 0.000598702260374091
1226.0, 0.0006117369297316954
1227.0, 0.0009341354857296486
1228.0, 0.0007051223555740762
1229.0, 0.001179298377732535
1230.0, 0.0011327972538406725
1231.0, 0.001696870953081977
1232.0, 0.001856353309558339
1233.0, 0.002452827121124642
1234.0, 0.0034039712725685615
1235.0, 0.0013764738961631643
1236.0, 0.0011995282613928356
1237.0, 0.00466553188160567
1238.0, 0.0018466433859395165
1239.0, 0.0018122455516184348
1240.0, 0.0014890607162134522
1241.0, 0.00042015475575571767
1242.0, 0.0018545902553706742
1243.0, 0.0013356453343739728
1244.0, 0.0018706236259489863
1245.0, 0.0019932997287567555
1246.0, 0.0008975443487474731
1247.0, 0.0006069044574431883
1248.0, 0.0016069776405843099
1249.0, 0.002069175899957855
1250.0, 0.0007905304121665197
1251.0, 0.0005206523032010279
1252.0, 0.0016377678731138497
1253.0, 0.0009327367422545178
1254.0, 0.0007646207511084954
1255.0, 0.00024027424468301534
1256.0, 0.0005032065924278275
1257.0, 0.0007687402162427657
1258.0, 0.0020256565336894436
1259.0, 0.002306173606943454
1260.0, 0.0021807919768119556
1261.0, 0.002098207777587753
1262.0, 0.0011986476760199422
1263.0, 0.0007484406092529853
1264.0, 0.0013064039020525284
1265.0, 0.001388330073228064
1266.0, 0.0004032325520403517
1267.0, 0.0018483680033411208
1268.0, 0.0006866985624361287
1269.0, 0.0021757900941687756
1270.0, 0.002252227016422077
1271.0, 0.0009002544092503947
1272.0, 0.0012045090276273838
1273.0, 0.0018386107337087056
1274.0, 0.0015253536686901654
1275.0, 0.0015126708918130156
1276.0, 0.001759210719744239
1277.0, 0.0014365192385088377
1278.0, 0.001721252527805052
1279.0, 0.0020487671717690044
1280.0, 0.003089592451924718
1281.0, 0.001388104850650044
1282.0, 0.002678091181414065
1283.0, 0.0026041193098261177
1284.0, 0.002274824974700776
1285.0, 0.0006120811878646884
1286.0, 0.0018143680181728497
1287.0, 0.0027392261624651763
1288.0, 0.0018325218994320585
1289.0, 0.0017769683053195013
1290.0, 0.0025877883050114334
1291.0, 0.0023046978305182285
1292.0, 0.001500285453151257
1293.0, 0.0014742320469995302
1294.0, 0.0019313484363111446
1295.0, 0.002813598435488871
1296.0, 0.003120638426396212
1297.0, 0.0025593772569776577
1298.0, 0.002966541104569332
1299.0, 0.003078603047869633
1300.0, 0.0018180810123006848
1301.0, 0.001126181525525125
1302.0, 0.0015961922818027512
1303.0, 0.0024346256738529944
1304.0, 0.0030359841255125997
1305.0, 0.002448130376008807
1306.0, 0.0018856496937440916
1307.0, 0.0021692503578882158
1308.0, 0.0018363349823823246
1309.0, 0.001759462926368921
1310.0, 0.002459845414263626
1311.0, 0.0024428798471298864
1312.0, 0.0023407901409257465
1313.0, 0.0029074415049157674
1314.0, 0.001630547472564351
1315.0, 0.002703944534857354
1316.0, 0.002027731844524533
1317.0, 0.0028390395443241494
1318.0, 0.003425398973640567
1319.0, 0.0026285209404044397
1320.0, 0.0027795631857084504
1321.0, 0.0029826556752159928
1322.0, 0.002882039334371332
1323.0, 0.0028708232779465688
1324.0, 0.0022060898894304326
1325.0, 0.0027033496613923795
1326.0, 0.0033958585522919195
1327.0, 0.003534757888008692
1328.0, 0.0032170378424960008
1329.0, 0.00261882514980372
1330.0, 0.002871155429853935
1331.0, 0.002604470340683958
1332.0, 0.003062236448603786
1333.0, 0.002447203561535542
1334.0, 0.0026245471749683563
1335.0, 0.002566463827042489
1336.0, 0.0019126838623134777
1337.0, 0.0017049865998935057
1338.0, 0.002092088986697944
1339.0, 0.002059809257576204
1340.0, 0.0017422434037331516
1341.0, 0.0018848480242131208
1342.0, 0.0016753139378032876
1343.0, 0.0019125804474403936
1344.0, 0.0026581750948821057
1345.0, 0.0019483666020250734
1346.0, 0.0022629265896591355
1347.0, 0.002490788651756689
1348.0, 0.0022004051301449954
1349.0, 0.0028855065904337673
1350.0, 0.0021047124009288876
1351.0, 0.002195344984699201
1352.0, 0.0022469107370439783
1353.0, 0.0022609685160290462
1354.0, 0.0025645046666083497
1355.0, 0.0027982568720241728
1356.0, 0.0025708575322590612
1357.0, 0.002558427533958644
1358.0, 0.003016856707228062
1359.0, 0.002766601119894935
1360.0, 0.002558608375687526
1361.0, 0.002751638684328167
1362.0, 0.0030756111269901174
1363.0, 0.0020997816953311054
1364.0, 0.003850734075657656
1365.0, 0.0032467440351469927
1366.0, 0.001958430718712569
1367.0, 0.001730024192673274
1368.0, 0.0018476136009055503
1369.0, 0.0026899333058380457
1370.0, 0.0038283906103984845
1371.0, 0.003939301239680618
1372.0, 0.003307137998045442
1373.0, 0.003204755232693772
1374.0, 0.002802733928836402
1375.0, 0.002398588526697308
1376.0, 0.0034372940657794375
1377.0, 0.0038883417488001105
1378.0, 0.0035427686088154472
1379.0, 0.003362408037699777
1380.0, 0.0033120725544876256
1381.0, 0.002260836753675873
1382.0, 0.0012991195288406163
1383.0, 0.002573257234058553
1384.0, 0.002592928657552552
1385.0, 0.0018697287278432978
1386.0, 0.0014031736640414795
1387.0, 0.0020324887783396304
1388.0, 0.0019759196238607543
1389.0, 0.002013746200389904
1390.0, 0.002448894987011756
1391.0, 0.00256725142328292
1392.0, 0.002094965851833927
1393.0, 0.0018455362277519593
1394.0, 0.0025612032087345008
1395.0, 0.003357126379663346
1396.0, 0.0024414656778465015
1397.0, 0.0008563388423644373
1398.0, 0.002465736615795934
1399.0, 0.0024128072143790383
1400.0, 0.0018310003125724895
1401.0, 0.00286580257425894
1402.0, 0.0016521957783883154
1403.0, 0.0016596766252867457
1404.0, 0.0012353598013684001
1405.0, 0.0012536062996824082
1406.0, 0.001964369925423605
1407.0, 0.0028870574833797912
1408.0, 0.002997292396543266
1409.0, 0.002837047313233592
1410.0, 0.00155621502238449
1411.0, 0.0007282788266053589
1412.0, 0.001306117921744192
1413.0, 0.0021298452342256298
1414.0, 0.002641009530630536
1415.0, 0.0026905713667169065
1416.0, 0.0025780475341777064
1417.0, 0.0032836688135579667
1418.0, 0.0026517732705246175
1419.0, 0.0012529353826480616
1420.0, 0.00292114740225349
1421.0, 0.0026266877256374247
1422.0, 0.0014374892768663303
1423.0, 0.0031269767752672754
1424.0, 0.002663225438610745
1425.0, 0.002150451885475749
1426.0, 0.0017922766853579106
1427.0, 0.0024970960826423074
1428.0, 0.0029318320223885434
1429.0, 0.00418775369274686
1430.0, 0.0023240857094868972
1431.0, 0.0015159693160861176
1432.0, 0.002158703385728252
1433.0, 0.0026479141422202654
1434.0, 0.003043632331373793
1435.0, 0.002467035237244939
1436.0, 0.001372558197030462
1437.0, 0.0013618325861036544
1438.0, 0.0017053948308714277
1439.0, 0.0018029347238767163
1440.0, 0.0018664703698999994
1441.0, 0.002334392554201703
1442.0, 0.0023493707149914033
1443.0, 0.0014525951417134772
1444.0, 0.000977589241338074
1445.0, 0.0023314627501283903
1446.0, 0.0021664865501910815
1447.0, 0.0028972456808508723
1448.0, 0.0027179395777215624
1449.0, 0.0018996033387454693
1450.0, 0.0014205685465649392
1451.0, 0.001283606516329923
1452.0, 0.0012189187414484914
1453.0, 0.0012698545321315794
1454.0, 0.001898401206137569
1455.0, 0.002294489661305632
1456.0, 0.002310238162004839
1457.0, 0.0022231309246076233
1458.0, 0.0019713642478546376
1459.0, 0.0016967259826215723
1460.0, 0.0011470876184595548
1461.0, 0.0006709903800643038
1462.0, 0.0010338494333678211
1463.0, 0.0015861115558987368
1464.0, 0.0006941958128475575
1465.0, 0.0008474395322046054
1466.0, 0.00043008835629863797
1467.0, 0.0018389295856445472
1468.0, 0.002308143514751566
1469.0, 0.0013950420792360556
1470.0, 0.0010628024751938845
1471.0, 0.0005989595599172065
1472.0, 0.00021218900823696363
1473.0, 0.00035624562542086607
1474.0, 0.0011872016288114941
1475.0, 0.0013938640239128143
1476.0, 0.0014657350270484977
1477.0, 0.002178899568713977
1478.0, 0.0016205049410214461
1479.0, 0.0016807665079283942
1480.0, 0.002012571068356306
1481.0, 0.0017714638793597786
1482.0, 0.002375917790498985
1483.0, 0.0020079191179373803
1484.0, 0.000521360741094233
1485.0, 0.0011002980787473905
1486.0, 0.0012219849909962952
1487.0, 0.0009489198488121385
1488.0, 0.0008903240896482681
1489.0, 0.0004826759235347332
1490.0, 0.0004125710409623154
1491.0, 0.002048205129522024
1492.0, 0.001131297053568953
1493.0, 0.0014442960576016052
1494.0, 0.0011031136072899685
1495.0, 0.00012135430419071017
1496.0, 0.0017800339869205556
1497.0, 0.0005659717718135037
1498.0, 0.0006812091028163988
1499.0, 0.0006474701733868563
1500.0, 0.0015849029835572
1501.0, 0.0008296065196006198
1502.0, 0.0011188980986279102
1503.0, 0.0007270677408858343
1504.0, 0.001193860035707299
1505.0, 0.0013547523952537417
1506.0, 0.0014811549571907773
1507.0, 0.0010780776845263915
1508.0, 0.0010365822238698095
1509.0, 0.001647081246423057
1510.0, 0.0012919570190168702
1511.0, 0.0010915776022123794
1512.0, 0.0010734114742385872
1513.0, 0.0004334965752626443
1514.0, 0.0008973161187504123
1515.0, 0.001355028141215967
1516.0, 0.0012773301290888532
1517.0, 0.0008924431697205732
1518.0, 0.0005566837567494031
1519.0, 0.0015007242493325407
1520.0, 0.001665796824229491
1521.0, 0.002115371734986575
1522.0, 0.001851608656635584
1523.0, 0.0014140614143730364
1524.0, 0.001399565568717921
1525.0, 0.0005179830094430678
1526.0, 0.0011443473382044321
1527.0, 0.0016054595678898973
1528.0, 0.001286071542145228
1529.0, 0.00027812024470708015
1530.0, 0.0018258222770456828
1531.0, 0.0010239397507106848
1532.0, 0.001621907257393097
1533.0, 0.0007231017580335048
1534.0, 0.0007454449674326289
1535.0, 0.0008397928161706219
1536.0, 0.0010232740760305952
1537.0, 0.0010554575051885098
1538.0, 0.0012971502026319307
1539.0, 0.00218399907144114
1540.0, 0.0019714583570436713
1541.0, 0.0014586038189763754
1542.0, 0.0018801971795722227
1543.0, 0.001601007373921656
1544.0, 0.0016257305263524652
1545.0, 0.002235592919178911
1546.0, 0.001629268381054469
1547.0, 0.0020337989480691773
1548.0, 0.0030819760336314997
1549.0, 0.004725738791927305
1550.0, 0.006922495427702522
1551.0, 0.009242122269769799
1552.0, 0.009197849518509783
1553.0, 0.009591115000154237
1554.0, 0.004511051578872063
1555.0, 0.001961665437945635
1556.0, 0.0013243723662796792
1557.0, 0.0006161775142223908
1558.0, 0.0022106078760954534
1559.0, 0.0021014960694036317
1560.0, 0.0013567243877844225
1561.0, 0.0011608553650675167
1562.0, 0.0010208531112280287
1563.0, 0.0008974794101138062
1564.0, 0.00027442930271169796
1565.0, 0.0017363076517073368
1566.0, 0.0022578264907978643
1567.0, 0.0020073296352747997
1568.0, 0.001133748210427291
1569.0, 0.0014047991514793338
1570.0, 0.0006538349340388793
1571, 0.0
1572, 0.0
1573, 0.0
1574, 0.0
1575, 0.0
1576, 0.0
1577, 0.0
1578, 0.0
1579, 0.0
1580, 0.0
1581, 0.0
1582, 0.0
1583, 0.0
1584, 0.0
1585, 0.0
1586, 0.0
1587, 0.0
1588, 0.0
1589, 0.0
1590, 0.0
1591, 0.0
1592, 0.0
1593, 0.0
1594, 0.0
1595, 0.0
1596, 0.0
1597, 0.0
1598, 0.0
1599, 0.0
