30, 0.0
31, 0.0
32, 0.0
33, 0.0
34, 0.0
35, 0.0
36, 0.0
37, 0.0
38, 0.0
39, 0.0
40, 0.0
41, 0.0
42, 0.0
43, 0.0
44, 0.0
45, 0.0
46, 0.0
47, 0.0
48, 0.0
49, 0.0
50, 0.0
51, 0.0
52, 0.0
53, 0.0
54, 0.0
55, 0.0
56, 0.0
57, 0.0
58, 0.0
59, 0.0
60, 0.0
61, 0.0
62, 0.0
63, 0.0
64, 0.0
65, 0.0
66, 0.0
67, 0.0
68, 0.0
69, 0.0
70, 0.0
71, 0.0
72, 0.0
73, 0.0
74, 0.0
75, 0.0
76, 0.0
77, 0.0
78, 0.0
79, 0.0
80, 0.0
81, 0.0
82, 0.0
83, 0.0
84, 0.0
85, 0.0
86, 0.0
87, 0.0
88, 0.0
89, 0.0
90, 0.0
91, 0.0
92, 0.0
93, 0.0
94, 0.0
95, 0.0
96, 0.0
97, 0.0
98, 0.0
99, 0.0
100, 0.0
101, 0.0
102, 0.0
103, 0.0
104, 0.0
105, 0.0
106, 0.0
107, 0.0
108, 0.0
109, 0.0
110, 0.0
111, 0.0
112, 0.0
113, 0.0
114, 0.0
115, 0.0
116, 0.0
117, 0.0
118, 0.0
119, 0.0
120, 0.0
121, 0.0
122, 0.0
123, 0.0
124, 0.0
125, 0.0
126, 0.0
127, 0.0
128, 0.0
129, 0.0
130, 0.0
131, 0.0
132, 0.0
133, 0.0
134, 0.0
135, 0.0
136, 0.0
137, 0.0
138, 0.0
139, 0.0
140, 0.0
141, 0.0
142, 0.0
143, 0.0
144, 0.0
145, 0.0
146, 0.0
147, 0.0
148.0, 0.0005421306981591061
149.0, 0.01338711200174341
150.0, 0.0008977514481163136
151.0, 0.004791861606501899
152.0, 0.008584834789397346
153.0, 0.0014433450550017366
154.0, 0.014816574941486586
155.0, 0.03362007591248113
156.0, 0.02530210298613236
157.0, 0.01605270139128649
158.0, 0.01079972468523301
159.0, 0.01494575710231702
160.0, 0.027278353015883026
161.0, 0.03894681444978769
162.0, 0.0331704585064172
163.0, 0.028522568573373413
164.0, 0.03819364329631976
165.0, 0.06321196176435324
166.0, 0.0814352091698526
167.0, 0.10541688590749823
168.0, 0.11572712328297635
169.0, 0.09748844995254717
170.0, 0.10270031563038197
171.0, 0.13718623952660478
172.0, 0.16469771648057704
173.0, 0.1588231410884172
174.0, 0.16484910998819496
175.0, 0.17127017842261594
176.0, 0.18168005835216036
177.0, 0.18919333546567407
178.0, 0.18251687645960724
179.0, 0.1891664270068501
180.0, 0.18001216891642538
181.0, 0.1551918452520796
182.0, 0.130507386407043
183.0, 0.12303934823114271
184.0, 0.09764057889899576
185.0, 0.07776014934540124
186.0, 0.07581711617662203
187.0, 0.0680061083210789
188.0, 0.05024744717128258
189.0, 0.04279424330248692
190.0, 0.03873926323272852
191.0, 0.009878490687765454
192.0, 0.0068768089013038014
193.0, 0.012308555172231624
194.0, 0.010265323973558898
195.0, 0.02621719885707982
196.0, 0.006901136080790723
197.0, 0.0027913873914727897
198.0, 0.006190120212890112
199.0, 0.000830427268089825
200.0, 0.011913219556142812
201.0, 0.014484380845019499
202.0, 0.033084822018151626
203.0, 0.05132966799806978
204.0, 0.04995174114342046
205.0, 0.07308271962654414
206.0, 0.05826756420137031
207.0, 0.04649773437586541
208.0, 0.06243096210534338
209.0, 0.06414944729736984
210.0, 0.06682792740340651
211.0, 0.07137576089497961
212.0, 0.07921829913620967
213.0, 0.09185334737114265
214.0, 0.10623753817484811
215.0, 0.11776454444687613
216.0, 0.11499156925627535
217.0, 0.1123702101616577
218.0, 0.13914893758779112
219.0, 0.138667427100873
220.0, 0.15789517128327216
221.0, 0.17924175489823502
222.0, 0.17034527277124797
223.0, 0.19080278117390187
224.0, 0.19143017492521056
225.0, 0.1883090830450258
226.0, 0.19588341561879452
227.0, 0.1962775436891927
228.0, 0.20828916033162204
229.0, 0.2099258063714858
230.0, 0.20431204060775102
231.0, 0.21100781899773513
232.0, 0.21381610066898712
233.0, 0.19721317526968443
234.0, 0.1877136511145359
235.0, 0.19492507565203862
236.0, 0.1854892241897137
237.0, 0.1912029966771896
238.0, 0.1983543610847433
239.0, 0.19257277179492208
240.0, 0.17891683818972803
241.0, 0.19690931414866064
242.0, 0.18549241832559593
243.0, 0.17666140263297841
244.0, 0.18684605089506093
245.0, 0.18772230977330784
246.0, 0.18021317339278808
247.0, 0.18180846431362
248.0, 0.18643088184669687
249.0, 0.18129693650424333
250.0, 0.17680082776270067
251.0, 0.18013041737473123
252.0, 0.18146677282284737
253.0, 0.1700967765926383
254.0, 0.1533311567565358
255.0, 0.16335813530277568
256.0, 0.17339879346465822
257.0, 0.16709191010548377
258.0, 0.15515128492403402
259.0, 0.16686567456500487
260.0, 0.1675587818638242
261.0, 0.1581289072029492
262.0, 0.1540337792784446
263.0, 0.16262385661338957
264.0, 0.16035129839575815
265.0, 0.16468044812865595
266.0, 0.1559454014707526
267.0, 0.13599141520257826
268.0, 0.1460152872341002
269.0, 0.14158065730119218
270.0, 0.14003135222268276
271.0, 0.14774105642170815
272.0, 0.16203854572432344
273.0, 0.1733274557071503
274.0, 0.16921792881221473
275.0, 0.16682307375767685
276.0, 0.17579994407261754
277.0, 0.18183249109068447
278.0, 0.16685379002144285
279.0, 0.16655284674562887
280.0, 0.18307954789511593
281.0, 0.19477790639577638
282.0, 0.18796295029833154
283.0, 0.18217947250324604
284.0, 0.18776599741700825
285.0, 0.19662465406559304
286.0, 0.1952826797888911
287.0, 0.1761094137748031
288.0, 0.17552408865038663
289.0, 0.1774870907675695
290.0, 0.17552162876165117
291.0, 0.17466184903527168
292.0, 0.17611394620891363
293.0, 0.1698996208571456
294.0, 0.17588015624868508
295.0, 0.19096114415756288
296.0, 0.17310710980995403
297.0, 0.17646200651167204
298.0, 0.17508774851008002
299.0, 0.1703775431924135
300.0, 0.16887746216594138
301.0, 0.15843687477785287
302.0, 0.1467353310777752
303.0, 0.1486780130925956
304.0, 0.14508975203325242
305.0, 0.12516515783175852
306.0, 0.1330023485624614
307.0, 0.11473539541363896
308.0, 0.09019878077253955
309.0, 0.08041312781665111
310.0, 0.07990160011465468
311.0, 0.06032049812049068
312.0, 0.05583622836699445
313.0, 0.04718126683857506
314.0, 0.03415228827063973
315.0, 0.03686792272061784
316.0, 0.03496550879039911
317.0, 0.022686715812314354
318.0, 0.011979794633734242
319.0, 0.009526227756555173
320.0, 0.010330487081375203
321.0, 0.011065761959883366
322.0, 0.012757336631501125
323.0, 0.013546622575199813
324.0, 0.014374669323439008
325.0, 0.028039060327242838
326.0, 0.026276874165147505
327.0, 0.013617447146215962
328.0, 0.0017647602657201162
329.0, 0.0025186942781729887
330.0, 0.0009722193211025881
331.0, 0.002095308896548548
332.0, 0.013359166300236898
333.0, 0.02966603836268433
334.0, 0.034068566026717054
335.0, 0.013161857548918604
336.0, 0.007868769278600841
337.0, 0.016257830316948718
338.0, 0.016863111265978177
339.0, 0.0035032466797292913
340.0, 0.013060285437314035
341.0, 0.011278862877823185
342.0, 0.007890883967201869
343.0, 0.0038068660938414454
344.0, 0.017193121524322803
345.0, 0.014179599565217926
346.0, 0.012173641105669347
347.0, 0.011603731878255844
348.0, 0.009260125341753977
349.0, 0.005153159933496164
350.0, 0.007385131853426883
351.0, 0.02212583729649738
352.0, 0.02720656862459989
353.0, 0.01710700726634812
354.0, 0.023806201355689897
355.0, 0.02475611206551383
356.0, 0.0280441628445661
357.0, 0.037426825783782945
358.0, 0.041050352058547526
359.0, 0.03150435062243622
360.0, 0.05382420367174669
361.0, 0.03597409842637508
362.0, 0.021195012942192778
363.0, 0.04499773277535588
364.0, 0.06999956362968422
365.0, 0.052723328184876614
366.0, 0.0446516393765476
367.0, 0.06250313756263236
368.0, 0.08074966714320692
369.0, 0.06723622576601805
370.0, 0.07721763681340925
371.0, 0.05939381712663744
372.0, 0.05432905119933822
373.0, 0.07569422406161003
374.0, 0.07134509669580949
375.0, 0.0465802013320999
376.0, 0.10698779770498312
377.0, 0.17438003479235845
378.0, 0.1745381038868356
379.0, 0.13315079973860844
380.0, 0.1426816456690943
381.0, 0.14787841688783881
382.0, 0.16967349104511076
383.0, 0.2108513535035282
384.0, 0.21348439747316708
385.0, 0.18423125746842425
386.0, 0.1757486645631404
387.0, 0.18261631154788693
388.0, 0.1880296588646997
389.0, 0.1899624422425354
390.0, 0.18749121626800755
391.0, 0.17253238768899892
392.0, 0.16066962776746818
393.0, 0.1657710079285951
394.0, 0.18086942162847375
395.0, 0.16996405499880413
396.0, 0.19991816028575216
397.0, 0.21441548882847797
398.0, 0.189904795220543
399.0, 0.18096906452236888
400.0, 0.17974948041488195
401.0, 0.15312855700787606
402.0, 0.13127699850578606
403.0, 0.11918594997154643
404.0, 0.10568773032882468
405.0, 0.10565303329359019
406.0, 0.10444540666326141
407.0, 0.09602872399624345
408.0, 0.0808558101876775
409.0, 0.07015658459079784
410.0, 0.08615759642803608
411.0, 0.09324261278715419
412.0, 0.06710238367376468
413.0, 0.05562506255398524
414.0, 0.07750435894052268
415.0, 0.06562001626196128
416.0, 0.05326954279848788
417.0, 0.06424947339737098
418.0, 0.0811181381404531
419.0, 0.09791696463855683
420.0, 0.14418232844536288
421.0, 0.17595986003351963
422.0, 0.1690758802814709
423.0, 0.15480077826661734
424.0, 0.1570552592142527
425.0, 0.16685479133501221
426.0, 0.1817526934123123
427.0, 0.17562926089078648
428.0, 0.1720497052127731
429.0, 0.1846916189314574
430.0, 0.20911889966135247
431.0, 0.24605540926417663
432.0, 0.2542745733497765
433.0, 0.27352912483456715
434.0, 0.30779125176604344
435.0, 0.33381143421258314
436.0, 0.3493902724641915
437.0, 0.3917606152040895
438.0, 0.43326787311336395
439.0, 0.47759401466099877
440.0, 0.5235444485270573
441.0, 0.5457233549213709
442.0, 0.5734440263650868
443.0, 0.6119946843326012
444.0, 0.6479670535723772
445.0, 0.670482594604171
446.0, 0.6833355051746394
447.0, 0.7078535003343247
448.0, 0.735134679336417
449.0, 0.7374687582819531
450.0, 0.7192837070384313
451.0, 0.7022476648948226
452.0, 0.6950288026654096
453.0, 0.6615599167328279
454.0, 0.6392023918329186
455.0, 0.6283898637130395
456.0, 0.5981737756334786
457.0, 0.5328791936390262
458.0, 0.5356350098986921
459.0, 0.5076584332312545
460.0, 0.4663212118265838
461.0, 0.4306445397476359
462.0, 0.4009312009552644
463.0, 0.38832702969728766
464.0, 0.36359399491463235
465.0, 0.32053790960857054
466.0, 0.2897939656267229
467.0, 0.2790398937382428
468.0, 0.2489352590962341
469.0, 0.23522596661195022
470.0, 0.19457280668006496
471.0, 0.1860306400351257
472.0, 0.208691097088689
473.0, 0.18015155294448396
474.0, 0.1569004407260008
475.0, 0.14742748198397163
476.0, 0.14013509147282746
477.0, 0.12029161888740855
478.0, 0.0963141312102695
479.0, 0.1000157534019111
480.0, 0.08935426194999929
481.0, 0.06993169355455597
482.0, 0.06156140620665993
483.0, 0.06452528220401443
484.0, 0.061881384999410295
485.0, 0.054304007946542485
486.0, 0.03135522840610693
487.0, 0.034218832257178415
488.0, 0.04609844229334438
489.0, 0.03227807082821842
490.0, 0.032049442883985174
491.0, 0.026042396478224365
492.0, 0.025060302676219837
493.0, 0.011226164818680356
494.0, 0.004176165689878674
495.0, 0.02183195275518725
496.0, 0.007204112541919282
497.0, 0.009813968027381919
498.0, 0.0072169539100142765
499.0, 0.005586538030917345
500.0, 0.011659383738833474
501.0, 0.00624234110180422
502.0, 0.0012524138463293262
503.0, 0.006285769492922072
504.0, 0.033022076456161537
505.0, 0.054050883853245406
506.0, 0.011005185942639658
507.0, 0.005129118661223515
508.0, 0.005260066465842723
509.0, 0.014539916567911785
510.0, 0.02894312659033782
511.0, 0.020789661490411965
512.0, 0.005394244426324038
513.0, 0.004059814179350411
514.0, 0.00918569069237194
515.0, 0.004652307092725632
516.0, 0.013536025195586322
517.0, 0.005138351455041878
518.0, 0.01199110298650529
519.0, 0.00431145561054492
520.0, 0.008967832901428089
521.0, 0.004985623704608611
522.0, 0.0077264772166668935
523.0, 0.006094603732169168
524.0, 0.01131945136510898
525.0, 0.004478482661388313
526.0, 0.01252242289312046
527.0, 0.01689389685714289
528.0, 0.010902401180186424
529.0, 0.011709633243679102
530.0, 0.014399163913095812
531.0, 0.015896666682402714
532.0, 0.012976948083156163
533.0, 0.02339555010424677
534.0, 0.03659372719521078
535.0, 0.01803233218155667
536.0, 0.030909442255328035
537.0, 0.0109825084014703
538.0, 0.0047802287263366446
539.0, 0.023190871047853782
540.0, 0.03206684783973197
541.0, 0.020238921601406556
542.0, 0.027248263600374675
543.0, 0.021357228775864736
544.0, 0.013265278182708054
545.0, 0.012739033553892849
546.0, 0.018510745548242873
547.0, 0.023077446359566392
548.0, 0.006115802657816154
549.0, 0.010263637840443329
550.0, 0.013964294591746636
551.0, 0.012033447801276695
552.0, 0.020903960719747962
553.0, 0.026221547942137324
554.0, 0.035368521281861964
555.0, 0.04109022116400368
556.0, 0.03570394305637842
557.0, 0.027909773299564098
558.0, 0.028388003941671014
559.0, 0.021808535737329836
560.0, 0.026544125424223932
561.0, 0.021169094130653886
562.0, 0.016184450451978288
563.0, 0.01767895228604311
564.0, 0.019281810996530962
565.0, 0.03401976757112746
566.0, 0.021538397201055784
567.0, 0.015651743058985753
568.0, 0.019136545735792584
569.0, 0.014929656430156538
570.0, 0.0044760727820126545
571.0, 0.02847664726743333
572.0, 0.027389113137937154
573.0, 0.019915561599995742
574.0, 0.014682480995072819
575.0, 0.016349354530495172
576.0, 0.02586991170885144
577.0, 0.007010561285919427
578.0, 0.030970563277268593
579.0, 0.028222501165356916
580.0, 0.022593455575362315
581.0, 0.028305551202648608
582.0, 0.015961250138187638
583.0, 0.004786689214137985
584.0, 0.009767479118172632
585.0, 0.00520809378156887
586.0, 0.0003244085863246145
587.0, 0.0011273028679995246
588.0, 0.0045472030643996025
589.0, 0.003075443965084866
590.0, 0.021962745280082217
591.0, 0.02364875857614506
592.0, 0.021857109614431745
593.0, 0.013780701990029297
594.0, 0.006879182887303449
595.0, 0.004970750050811201
596.0, 0.0025596003479452277
597.0, 0.0024093262101348347
598.0, 0.0035384888142550217
599.0, 0.006831590296831787
600.0, 0.0023440953719005026
601.0, 0.005683913364304838
602.0, 0.012282704132226747
603.0, 0.007218847412188273
604.0, 0.00538520794271098
605.0, 0.003975545764267694
606.0, 0.001434620825946243
607.0, 0.003559366603077853
608.0, 0.010205873944049365
609.0, 0.009378701232603764
610.0, 0.005287199753710238
611.0, 0.01376909427404347
612.0, 0.02829558553401259
613.0, 0.026210757776655658
614.0, 0.033496444730781505
615.0, 0.009975471363486709
616.0, 0.007413478264588762
617.0, 0.029097978785407142
618.0, 0.03984812486107994
619.0, 0.025050462590565307
620.0, 0.023447055247464717
621.0, 0.010112133857123293
622.0, 0.026792364770746813
623.0, 0.05390412153880812
624.0, 0.05584081713901217
625.0, 0.034560092289708286
626.0, 0.03357131032655803
627.0, 0.05009115484762541
628.0, 0.05618983804029925
629.0, 0.06151511005782971
630.0, 0.06034288683897341
631.0, 0.060417612337929714
632.0, 0.08464108687449452
633.0, 0.08353778655130366
634.0, 0.09160293506655322
635.0, 0.0952001892518441
636.0, 0.09122391292025213
637.0, 0.09327883719425702
638.0, 0.11008791141920692
639.0, 0.122602806965255
640.0, 0.13031691385858066
641.0, 0.134934693640893
642.0, 0.13089495649062985
643.0, 0.13860264243264978
644.0, 0.16760613925661336
645.0, 0.1832464425657763
646.0, 0.18190024787912118
647.0, 0.20150713422370634
648.0, 0.2433567660747275
649.0, 0.2797298803854066
650.0, 0.31127528121793535
651.0, 0.356332456564207
652.0, 0.35813791560003466
653.0, 0.39911259312662334
654.0, 0.43997581545499026
655.0, 0.46301700166693527
656.0, 0.4949543007670444
657.0, 0.5451223227476476
658.0, 0.5904365388999299
659.0, 0.6513718668768647
660.0, 0.6974386613999014
661.0, 0.7387215314409958
662.0, 0.7682616127998384
663.0, 0.7882618220562871
664.0, 0.8290176589013182
665.0, 0.9056473990733195
666.0, 0.944961493756119
667.0, 0.9583684639451944
668.0, 0.9789672466753091
669.0, 0.9986134688439086
670.0, 0.9943490961024913
671.0, 0.9710200471811756
672.0, 0.9486330573418827
673.0, 0.907116070776797
674.0, 0.8640855766941216
675.0, 0.8385786498145965
676.0, 0.8148079565123144
677.0, 0.7675954291002159
678.0, 0.7211411524148741
679.0, 0.6806995099763087
680.0, 0.6101527672858166
681.0, 0.5708292909685642
682.0, 0.5392424335302627
683.0, 0.49672813165763363
684.0, 0.4659012401025519
685.0, 0.4262145976765097
686.0, 0.3596225717092226
687.0, 0.32636063303976837
688.0, 0.3059627198680686
689.0, 0.2780609412431753
690.0, 0.24472585882058637
691.0, 0.21565714509701597
692.0, 0.18448232997051595
693.0, 0.15512278494484738
694.0, 0.12505477167271356
695.0, 0.11000562682650837
696.0, 0.11031496535611164
697.0, 0.09592440066176994
698.0, 0.04854602873920204
699.0, 0.04254731258608392
700.0, 0.017627876550793765
701.0, 0.021077507142321376
702.0, 0.01204659372785463
703.0, 0.006743035465077651
704.0, 0.015999344109783414
705.0, 0.003321167190910573
706.0, 0.0043635128617789285
707.0, 0.00811329161180011
708.0, 0.012638130049356622
709.0, 0.010467708972647377
710.0, 0.0023456102195526653
711.0, 0.011006912705391482
712.0, 0.00790014180340437
713.0, 0.004052377932307617
714.0, 0.0035307784408593695
715.0, 0.0046991117848597524
716.0, 0.006669009497932394
717.0, 0.012919039009758451
718.0, 0.0037822283823471833
719.0, 0.013215905009169422
720.0, 0.01246926594413877
721.0, 0.024242642431757794
722.0, 0.03111820298948915
723.0, 0.033878529669602725
724.0, 0.02895797621948234
725.0, 0.027737146771946955
726.0, 0.05393585760969372
727.0, 0.04171028523173333
728.0, 0.05518576951795626
729.0, 0.04404507630016027
730.0, 0.041624652608640504
731.0, 0.061486651331175105
732.0, 0.0758523624405343
733.0, 0.06815731841044315
734.0, 0.059528739265845794
735.0, 0.05050007393540532
736.0, 0.07153879931691058
737.0, 0.05811033044919575
738.0, 0.04634393507530611
739.0, 0.06475167292399943
740.0, 0.07342092059272255
741.0, 0.06142045189769892
742.0, 0.05842515617248106
743.0, 0.05158459071655679
744.0, 0.06901430382794038
745.0, 0.08908479751608316
746.0, 0.08979053797350117
747.0, 0.08238740063986497
748.0, 0.07926941048634768
749.0, 0.08006295417719847
750.0, 0.0875523263669379
751.0, 0.08160727441052067
752.0, 0.07999477775671864
753.0, 0.08660344293992098
754.0, 0.08822295434076098
755.0, 0.08054438700397216
756.0, 0.06243728792791561
757.0, 0.098466407421782
758.0, 0.097720731601993
759.0, 0.07998158811944268
760.0, 0.08238551103693101
761.0, 0.09246476050435595
762.0, 0.08941429430412712
763.0, 0.1017711493786338
764.0, 0.1042465991392005
765.0, 0.09254560680348418
766.0, 0.0873946661544968
767.0, 0.09696629946660487
768.0, 0.1077944621993358
769.0, 0.09910191136678298
770.0, 0.07379194988863026
771.0, 0.10329513286574389
772.0, 0.07693605130416668
773.0, 0.06302233689146931
774.0, 0.06890888909041366
775.0, 0.06380525730708118
776.0, 0.061417928566980744
777.0, 0.07456158832085268
778.0, 0.05615547148944821
779.0, 0.05256581998778487
780.0, 0.053398669289040634
781.0, 0.055735602024107087
782.0, 0.059736726497671234
783.0, 0.060621949473270126
784.0, 0.04008625323849233
785.0, 0.0074047296207478035
786.0, 0.02179804468808782
787.0, 0.016080903962353236
788.0, 0.025518801529090526
789.0, 0.03365331225255432
790.0, 0.028421046029546707
791.0, 0.018199540654093228
792.0, 0.015170963577266959
793.0, 0.021104259303263973
794.0, 0.022520395413908562
795.0, 0.004963655373584698
796.0, 0.004866100807406922
797.0, 0.0017360263186220427
798.0, 0.008693001897930909
799.0, 0.016874657043554477
800.0, 0.0013307357540758328
801.0, 0.0015303703312482485
802.0, 0.0019158223390714172
803.0, 0.005532327045004055
804.0, 0.007314558807935929
805.0, 0.017360001452799454
806.0, 0.01859888115340192
807.0, 0.012577872245762695
808.0, 0.009519554098970028
809.0, 0.03805870778798872
810.0, 0.0160236628491123
811.0, 0.014977985765494825
812.0, 0.020306744425425585
813.0, 0.013043904211558967
814.0, 0.0066184171975511635
815.0, 0.015090845979423707
816.0, 0.033353299929797714
817.0, 0.04617717713494181
818.0, 0.042355441153980905
819.0, 0.041086580135919544
820.0, 0.05259848317432934
821.0, 0.06569691845582969
822.0, 0.06539993053804101
823.0, 0.07167083051217413
824.0, 0.08193637618045164
825.0, 0.04566112151717876
826.0, 0.06604597544285461
827.0, 0.07086783281930556
828.0, 0.06290693833022086
829.0, 0.06415263908280637
830.0, 0.07420995109236651
831.0, 0.08160125838413729
832.0, 0.07932737053727285
833.0, 0.07054936375218684
834.0, 0.09063568091682779
835.0, 0.08790084630703393
836.0, 0.10246296839330919
837.0, 0.11564681051107362
838.0, 0.11812907653921513
839.0, 0.10558627790950645
840.0, 0.09985355456158565
841.0, 0.11966678589258826
842.0, 0.12183134211195061
843.0, 0.12698960108833393
844.0, 0.12937548258408274
845.0, 0.14430375111153507
846.0, 0.15235741493626503
847.0, 0.15471676739710652
848.0, 0.15382586058254316
849.0, 0.15247111218075934
850.0, 0.17766787141581264
851.0, 0.1879473543658104
852.0, 0.17690407059626626
853.0, 0.18281005509298626
854.0, 0.17700491876750163
855.0, 0.18446026330974488
856.0, 0.20702127533634374
857.0, 0.20842426901147754
858.0, 0.20281109558382665
859.0, 0.2076311767394852
860.0, 0.21343344658355162
861.0, 0.2060599690779919
862.0, 0.21785914615704263
863.0, 0.22055641004722645
864.0, 0.21588502487541375
865.0, 0.20902353893571435
866.0, 0.20568236261564704
867.0, 0.22412189098422747
868.0, 0.2247569098177638
869.0, 0.20287119027844608
870.0, 0.20407428129917038
871.0, 0.1983523797328133
872.0, 0.19767767922281426
873.0, 0.1978799924163016
874.0, 0.19709949321359982
875.0, 0.20397994085481846
876.0, 0.1885680467588786
877.0, 0.17780575542276073
878.0, 0.18895672390221388
879.0, 0.172971970550446
880.0, 0.1592866978634782
881.0, 0.14294396800227685
882.0, 0.1333329680836749
883.0, 0.1485499084773155
884.0, 0.1600417614334752
885.0, 0.14068685855283028
886.0, 0.10593973506608598
887.0, 0.08474229983007231
888.0, 0.07021058529835272
889.0, 0.06426805724700767
890.0, 0.06334984310119716
891.0, 0.06024530888884693
892.0, 0.0542352937728074
893.0, 0.046666674764677084
894.0, 0.03280256007765154
895.0, 0.018651083266195037
896.0, 0.014385423950176723
897.0, 0.01597170420311322
898.0, 0.011299374072342001
899.0, 0.011171620378316961
900.0, 0.0019344862446371764
901.0, 0.0006123118091490303
902.0, 0.00908386100060972
903.0, 0.018632831824410397
904.0, 0.0018175079514732631
905.0, 0.004315768119332624
906.0, 0.007948694946476239
907.0, 0.012651320976394901
908.0, 0.004776794511054179
909.0, 0.009261775572711461
910.0, 0.011971609600433348
911.0, 0.00897285738158046
912.0, 0.016978174882802823
913.0, 0.006178224001812324
914.0, 0.0012059388453330637
915.0, 0.0053731443465192055
916.0, 0.0004734975557540357
917.0, 0.008484278090231518
918.0, 0.016232643331438097
919.0, 0.013105938336479788
920.0, 0.014735926196690563
921.0, 0.03423310384977523
922.0, 0.047885812510463824
923.0, 0.03057251626619954
924.0, 0.01829038214321205
925.0, 0.035212657582333086
926.0, 0.040252053397445066
927.0, 0.026003228098982263
928.0, 0.031283894743046256
929.0, 0.03470767813555916
930.0, 0.020677575086034974
931.0, 0.046925799230785076
932.0, 0.05309479876556002
933.0, 0.04121571512534536
934.0, 0.043168692805359066
935.0, 0.0477929547030529
936.0, 0.056378303304716396
937.0, 0.059146400128152206
938.0, 0.06278411738478473
939.0, 0.07030216723859738
940.0, 0.05870138854932981
941.0, 0.05856738667270027
942.0, 0.06802697754330334
943.0, 0.08421188640728718
944.0, 0.060121372348087246
945.0, 0.06536013492090606
946.0, 0.0727145964057787
947.0, 0.07564720472728595
948.0, 0.07226507371876204
949.0, 0.07011256350779042
950.0, 0.07663556976558118
951.0, 0.07629001610061562
952.0, 0.08867815146104502
953.0, 0.09368488657442352
954.0, 0.09509939953153046
955.0, 0.09332880787886272
956.0, 0.09004947418595106
957.0, 0.08061510180995007
958.0, 0.0919608613312517
959.0, 0.11193104783902372
960.0, 0.09220029957614129
961.0, 0.0689777588050267
962.0, 0.08494515763853745
963.0, 0.08750371084161511
964.0, 0.0835113311713675
965.0, 0.06686875066557936
966.0, 0.08197825498347393
967.0, 0.07742309791642184
968.0, 0.060784028546780056
969.0, 0.061760686374857585
970.0, 0.06444667287262229
971.0, 0.05850573563130684
972.0, 0.057023640525043426
973.0, 0.04758735746965327
974.0, 0.051764730558239026
975.0, 0.052235219919190536
976.0, 0.05280835392417988
977.0, 0.05243487649271323
978.0, 0.05274768474015748
979.0, 0.06258645384930073
980.0, 0.06956025795374778
981.0, 0.06043234932182091
982.0, 0.05175915663226078
983.0, 0.05011482640678033
984.0, 0.05426426674704263
985.0, 0.02798132753189288
986.0, 0.038896492867448694
987.0, 0.05492979073663014
988.0, 0.055499658219776815
989.0, 0.05404316480467727
990.0, 0.047978850931131745
991.0, 0.03969677013223069
992.0, 0.038084782438861965
993.0, 0.025525802554591574
994.0, 0.042262352976785926
995.0, 0.052618212140644535
996.0, 0.03726100698304696
997.0, 0.04624648676118828
998.0, 0.04063695412203845
999.0, 0.030807067928013066
1000.0, 0.03388601471881058
1001.0, 0.03775228296654049
1002.0, 0.033664926350150934
1003.0, 0.03209221262715129
1004.0, 0.03876420177423239
1005.0, 0.04654709844666889
1006.0, 0.03712533251112594
1007.0, 0.025429213006190936
1008.0, 0.041154611524354415
1009.0, 0.02733779797064049
1010.0, 0.03198125948653701
1011.0, 0.04059572727313066
1012.0, 0.03492820228043955
1013.0, 0.02942744325965405
1014.0, 0.022799976558453228
1015.0, 0.020349093711880917
1016.0, 0.03787675664485886
1017.0, 0.029675072124773223
1018.0, 0.020431762646695353
1019.0, 0.028701443109377736
1020.0, 0.03092170444014881
1021.0, 0.025961591836713066
1022.0, 0.010830366445983454
1023.0, 0.0030042778363894044
1024.0, 0.008088631554786811
1025.0, 0.03520565181135806
1026.0, 0.04275754647871494
1027.0, 0.03320841884429863
1028.0, 0.025461996289072135
1029.0, 0.02575166025332458
1030.0, 0.04923192003127489
1031.0, 0.05548097913002314
1032.0, 0.03683151761074257
1033.0, 0.005941143123422984
1034.0, 0.006522794823862145
1035.0, 0.017620104863212867
1036.0, 0.036136353266634134
1037.0, 0.026827934383155297
1038.0, 0.01536985019451902
1039.0, 0.03123740118017304
1040.0, 0.027718490632202303
1041.0, 0.002359594031062009
1042.0, 0.02106156656191639
1043.0, 0.01888095410559556
1044.0, 0.014828742803367548
1045.0, 0.01727201824566505
1046.0, 0.01847553871074034
1047.0, 0.02527816051510086
1048.0, 0.02463204768425688
1049.0, 0.018794495729377313
1050.0, 0.018446035922108087
1051.0, 0.007753676854984048
1052.0, 0.00954888262962524
1053.0, 0.004886254929580998
1054.0, 0.011664609616231641
1055.0, 0.02535934792060133
1056.0, 0.01868616489894238
1057.0, 0.025784793849086364
1058.0, 0.015708407669256557
1059.0, 0.022817622911915008
1060.0, 0.02686919316126284
1061.0, 0.015720117535096577
1062.0, 0.00916842558021504
1063.0, 0.00882236452412752
1064.0, 0.021529956195293597
1065.0, 0.007394849385594392
1066.0, 0.016367597411210733
1067.0, 0.0012999424607001951
1068.0, 0.0195024441432825
1069.0, 0.020757044235896294
1070.0, 0.009226902519773211
1071.0, 0.004166703444248354
1072.0, 0.002257160218041421
1073.0, 0.007825639489722331
1074.0, 0.009518514834640092
1075.0, 0.0015463521268879584
1076.0, 0.006410726099919334
1077.0, 0.0016895983207103552
1078.0, 0.009899036928256933
1079.0, 0.011676929173266357
1080.0, 0.019898196010274385
1081.0, 0.009358478175646293
1082.0, 0.01329418480596242
1083.0, 0.01947968260123259
1084.0, 0.024048394711725547
1085.0, 0.029432183623607538
1086.0, 0.022581615269332105
1087.0, 0.005158838470802506
1088.0, 0.0028649560115260905
1089.0, 0.017354763186023414
1090.0, 0.020752682240880095
1091.0, 0.011200641467213862
1092.0, 0.03132875566667063
1093.0, 0.005449942590336263
1094.0, 0.01114618042238089
1095.0, 0.015165799905526944
1096.0, 0.00890671311104585
1097.0, 0.010370402043214773
1098.0, 0.022732759972284414
1099.0, 0.009036524481230363
1100.0, 0.008463078443803618
1101.0, 0.0033308860916717985
1102.0, 0.004652100090575915
1103.0, 0.019700846285985937
1104.0, 0.02456302890308407
1105.0, 0.02502183924837526
1106.0, 0.003909904532383413
1107.0, 0.01677805462645676
1108.0, 0.03220944800960366
1109.0, 0.01744450667482046
1110.0, 0.021909156169558196
1111.0, 0.013190536193081926
1112.0, 0.0031244730195794275
1113.0, 0.0043535639739233035
1114.0, 0.02167161611249613
1115.0, 0.02625817031250168
1116.0, 0.012247646266797292
1117.0, 0.0008226535003311008
1118.0, 0.0005845191020255021
1119.0, 0.012888250845416008
1120.0, 0.01991012762756818
1121.0, 0.015745723419628876
1122.0, 0.012422489185153398
1123.0, 0.012775447818898288
1124.0, 0.001391551950306931
1125.0, 0.008561759332452727
1126.0, 0.02682107644914832
1127.0, 0.033238458356652414
1128.0, 0.03563763654364904
1129.0, 0.04168300515355245
1130.0, 0.012269599302713045
1131.0, 0.0025772152387204756
1132.0, 0.011472544574448362
1133.0, 0.0026448626456910375
1134.0, 0.0035988073390074127
1135.0, 0.00655353040832839
1136.0, 0.007083190378906428
1137.0, 0.021548458300285813
1138.0, 0.0024926503092915506
1139.0, 0.012872443983632591
1140.0, 0.017322941064781334
1141.0, 0.004325687446153937
1142.0, 0.0017109729022950488
1143.0, 0.021911340711364705
1144.0, 0.011218444330755209
1145.0, 0.016803953625789212
1146.0, 0.02363263644098419
1147.0, 0.022415181073315336
1148.0, 0.023813088387056973
1149.0, 0.01192944819376447
1150.0, 0.008248961543383396
1151.0, 0.014042602752782202
1152.0, 0.015313222162303883
1153.0, 0.011587734418477507
1154.0, 0.013311840085806723
1155.0, 0.006376489379581385
1156.0, 0.023013724956610682
1157.0, 0.012333814798040764
1158.0, 0.03223753748177843
1159.0, 0.022199985146398635
1160.0, 0.01850218919713251
1161.0, 0.021025557799003274
1162.0, 0.016557000552459133
1163.0, 0.008970585501431386
1164.0, 0.003985663235922112
1165.0, 0.0012693165630455218
1166.0, 0.010819208070830129
1167.0, 0.029557325969316525
1168.0, 0.023276395021724478
1169.0, 0.010978263400282092
1170.0, 0.03238600561731644
1171.0, 0.005741125495959977
1172.0, 0.009794189590171198
1173.0, 0.027767826273222624
1174.0, 0.0309539842772994
1175.0, 0.02740209264586718
1176.0, 0.035850694796280794
1177.0, 0.02707030991552266
1178.0, 0.008074309826286262
1179.0, 0.020639027353206815
1180.0, 0.02940734662542573
1181.0, 0.019835179741367948
1182.0, 0.030011551792449236
1183.0, 0.021491141301504264
1184.0, 0.003947452846114238
1185.0, 0.011407914392318433
1186.0, 0.01939575464037742
1187.0, 0.01949994047127662
1188.0, 0.009930693923307681
1189.0, 0.034003815043280455
1190.0, 0.03520441332316222
1191.0, 0.024915520703596657
1192.0, 0.023344764532069573
1193.0, 0.03201809427277841
1194.0, 0.007309714966516704
1195.0, 0.008185804958385633
1196.0, 0.008266735813850937
1197.0, 0.015354780264868851
1198.0, 0.03433393323016651
1199.0, 0.043342118515247115
1200.0, 0.04187140578299419
1201.0, 0.035970371640519756
1202.0, 0.027252232960883697
1203.0, 0.013985626782488582
1204.0, 0.011808958833676948
1205.0, 0.017305980778003344
1206.0, 0.019394862121206446
1207.0, 0.022789090867658027
1208.0, 0.025194574453889076
1209.0, 0.013172159081347286
1210.0, 0.028876369010621083
1211.0, 0.017703218661371735
1212.0, 0.01466196191437515
1213.0, 0.027046240538720557
1214.0, 0.0026594647199638353
1215.0, 0.008613936487675998
1216.0, 0.018075399978963805
1217.0, 0.018245047323528753
1218.0, 0.017614043627824358
1219.0, 0.021964208694806333
1220.0, 0.015371083945044498
1221.0, 0.00954599722909276
1222.0, 0.00933571552359153
1223.0, 0.010902516137203737
1224.0, 0.02653844903014131
1225.0, 0.042271364041881025
1226.0, 0.03314794645277373
1227.0, 0.012847467122840172
1228.0, 0.0059315162677278585
1229.0, 0.02109883611705092
1230.0, 0.03581941521547246
1231.0, 0.019371189300255377
1232.0, 0.015403337480386909
1233.0, 0.02024689381072303
1234.0, 0.02430288319349938
1235.0, 0.02216692403574936
1236.0, 0.0288113590550873
1237.0, 0.009172661149932582
1238.0, 0.004901183019781282
1239.0, 0.0037083945278995846
1240.0, 0.015459946347127142
1241.0, 0.022023036269451717
1242.0, 0.023271478051390123
1243.0, 0.017727166529544622
1244.0, 0.010630467522735656
1245.0, 0.014987141959980908
1246.0, 0.01940080809609408
1247.0, 0.015618162082887337
1248.0, 0.02370081323449507
1249.0, 0.03212493708897435
1250.0, 0.02381018453136387
1251.0, 0.02622878664576143
1252.0, 0.024462918873930244
1253.0, 0.028571125019782553
1254.0, 0.03228889864845627
1255.0, 0.02396403746511346
1256.0, 0.0070835227435472456
1257.0, 0.013689640825344145
1258.0, 0.020514340503741468
1259.0, 0.013395232260685026
1260.0, 0.02806388750795722
1261.0, 0.025521024110698225
1262.0, 0.030934202262344217
1263.0, 0.031241847331430206
1264.0, 0.01936761019030446
1265.0, 0.024937237834726383
1266.0, 0.006119133272739524
1267.0, 0.012748043196170275
1268.0, 0.026455292366236467
1269.0, 0.02347752539230116
1270.0, 0.009493550683205277
1271.0, 0.003220355140430782
1272.0, 0.0011316672775680417
1273.0, 0.0008329718676240072
1274.0, 0.004233500168504737
1275.0, 0.006976399153400028
1276.0, 0.016096459576084653
1277.0, 0.012287283784248081
1278.0, 0.007311433653651262
1279.0, 0.001049774532759115
1280.0, 0.0008152611463212097
1281.0, 0.00608396275466274
1282.0, 0.01896920927481871
1283.0, 0.020056968643020333
1284.0, 0.024484794446741245
1285, 0.0
1286, 0.0
1287, 0.0
1288, 0.0
1289, 0.0
1290, 0.0
1291, 0.0
1292, 0.0
1293, 0.0
1294, 0.0
1295, 0.0
1296, 0.0
1297, 0.0
1298, 0.0
1299, 0.0
1300, 0.0
1301, 0.0
1302, 0.0
1303, 0.0
1304, 0.0
1305, 0.0
1306, 0.0
1307, 0.0
1308, 0.0
1309, 0.0
1310, 0.0
1311, 0.0
1312, 0.0
1313, 0.0
1314, 0.0
1315, 0.0
1316, 0.0
1317, 0.0
1318, 0.0
1319, 0.0
1320, 0.0
1321, 0.0
1322, 0.0
1323, 0.0
1324, 0.0
1325, 0.0
1326, 0.0
1327, 0.0
1328, 0.0
1329, 0.0
1330, 0.0
1331, 0.0
1332, 0.0
1333, 0.0
1334, 0.0
1335, 0.0
1336, 0.0
1337, 0.0
1338, 0.0
1339, 0.0
1340, 0.0
1341, 0.0
1342, 0.0
1343, 0.0
1344, 0.0
1345, 0.0
1346, 0.0
1347, 0.0
1348, 0.0
1349, 0.0
1350, 0.0
1351, 0.0
1352, 0.0
1353, 0.0
1354, 0.0
1355, 0.0
1356, 0.0
1357, 0.0
1358, 0.0
1359, 0.0
1360, 0.0
1361, 0.0
1362, 0.0
1363, 0.0
1364, 0.0
1365, 0.0
1366, 0.0
1367, 0.0
1368, 0.0
1369, 0.0
1370, 0.0
1371, 0.0
1372, 0.0
1373, 0.0
1374, 0.0
1375, 0.0
1376, 0.0
1377, 0.0
1378, 0.0
1379, 0.0
1380, 0.0
1381, 0.0
1382, 0.0
1383, 0.0
1384, 0.0
1385, 0.0
1386, 0.0
1387, 0.0
1388, 0.0
1389, 0.0
1390, 0.0
1391, 0.0
1392, 0.0
1393, 0.0
1394, 0.0
1395, 0.0
1396, 0.0
1397, 0.0
1398, 0.0
1399, 0.0
1400, 0.0
1401, 0.0
1402, 0.0
1403, 0.0
1404, 0.0
1405, 0.0
1406, 0.0
1407, 0.0
1408, 0.0
1409, 0.0
1410, 0.0
1411, 0.0
1412, 0.0
1413, 0.0
1414, 0.0
1415, 0.0
1416, 0.0
1417, 0.0
1418, 0.0
1419, 0.0
1420, 0.0
1421, 0.0
1422, 0.0
1423, 0.0
1424, 0.0
1425, 0.0
1426, 0.0
1427, 0.0
1428, 0.0
1429, 0.0
1430, 0.0
1431, 0.0
1432, 0.0
1433, 0.0
1434, 0.0
1435, 0.0
1436, 0.0
1437, 0.0
1438, 0.0
1439, 0.0
1440, 0.0
1441, 0.0
1442, 0.0
1443, 0.0
1444, 0.0
1445, 0.0
1446, 0.0
1447, 0.0
1448, 0.0
1449, 0.0
1450, 0.0
1451, 0.0
1452, 0.0
1453, 0.0
1454, 0.0
1455, 0.0
1456, 0.0
1457, 0.0
1458, 0.0
1459, 0.0
1460, 0.0
1461, 0.0
1462, 0.0
1463, 0.0
1464, 0.0
1465, 0.0
1466, 0.0
1467, 0.0
1468, 0.0
1469, 0.0
1470, 0.0
1471, 0.0
1472, 0.0
1473, 0.0
1474, 0.0
1475, 0.0
1476, 0.0
1477, 0.0
1478, 0.0
1479, 0.0
1480, 0.0
1481, 0.0
1482, 0.0
1483, 0.0
1484, 0.0
1485, 0.0
1486, 0.0
1487, 0.0
1488, 0.0
1489, 0.0
1490, 0.0
1491, 0.0
1492, 0.0
1493, 0.0
1494, 0.0
1495, 0.0
1496, 0.0
1497, 0.0
1498, 0.0
1499, 0.0
1500, 0.0
1501, 0.0
1502, 0.0
1503, 0.0
1504, 0.0
1505, 0.0
1506, 0.0
1507, 0.0
1508, 0.0
1509, 0.0
1510, 0.0
1511, 0.0
1512, 0.0
1513, 0.0
1514, 0.0
1515, 0.0
1516, 0.0
1517, 0.0
1518, 0.0
1519, 0.0
1520, 0.0
1521, 0.0
1522, 0.0
1523, 0.0
1524, 0.0
1525, 0.0
1526, 0.0
1527, 0.0
1528, 0.0
1529, 0.0
1530, 0.0
1531, 0.0
1532, 0.0
1533, 0.0
1534, 0.0
1535, 0.0
1536, 0.0
1537, 0.0
1538, 0.0
1539, 0.0
1540, 0.0
1541, 0.0
1542, 0.0
1543, 0.0
1544, 0.0
1545, 0.0
1546, 0.0
1547, 0.0
1548, 0.0
1549, 0.0
1550, 0.0
1551, 0.0
1552, 0.0
1553, 0.0
1554, 0.0
1555, 0.0
1556, 0.0
1557, 0.0
1558, 0.0
1559, 0.0
1560, 0.0
1561, 0.0
1562, 0.0
1563, 0.0
1564, 0.0
1565, 0.0
1566, 0.0
1567, 0.0
1568, 0.0
1569, 0.0
1570, 0.0
1571, 0.0
1572, 0.0
1573, 0.0
1574, 0.0
1575, 0.0
1576, 0.0
1577, 0.0
1578, 0.0
1579, 0.0
1580, 0.0
1581, 0.0
1582, 0.0
1583, 0.0
1584, 0.0
1585, 0.0
1586, 0.0
1587, 0.0
1588, 0.0
1589, 0.0
1590, 0.0
1591, 0.0
1592, 0.0
1593, 0.0
1594, 0.0
1595, 0.0
1596, 0.0
1597, 0.0
1598, 0.0
1599, 0.0
