30, 0.0
31, 0.0
32, 0.0
33, 0.0
34, 0.0
35, 0.0
36, 0.0
37, 0.0
38, 0.0
39, 0.0
40, 0.0
41, 0.0
42, 0.0
43, 0.0
44, 0.0
45, 0.0
46, 0.0
47, 0.0
48, 0.0
49, 0.0
50, 0.0
51, 0.0
52, 0.0
53, 0.0
54, 0.0
55, 0.0
56, 0.0
57, 0.0
58, 0.0
59, 0.0
60, 0.0
61, 0.0
62, 0.0
63, 0.0
64, 0.0
65, 0.0
66, 0.0
67, 0.0
68, 0.0
69, 0.0
70, 0.0
71, 0.0
72, 0.0
73, 0.0
74, 0.0
75, 0.0
76, 0.0
77, 0.0
78, 0.0
79, 0.0
80, 0.0
81, 0.0
82, 0.0
83, 0.0
84, 0.0
85, 0.0
86, 0.0
87, 0.0
88, 0.0
89, 0.0
90, 0.0
91, 0.0
92, 0.0
93, 0.0
94, 0.0
95, 0.0
96, 0.0
97, 0.0
98, 0.0
99, 0.0
100, 0.0
101, 0.0
102, 0.0
103, 0.0
104, 0.0
105, 0.0
106, 0.0
107, 0.0
108, 0.0
109, 0.0
110, 0.0
111, 0.0
112, 0.0
113, 0.0
114, 0.0
115, 0.0
116, 0.0
117, 0.0
118, 0.0
119, 0.0
120, 0.0
121, 0.0
122, 0.0
123, 0.0
124, 0.0
125, 0.0
126, 0.0
127, 0.0
128, 0.0
129, 0.0
130, 0.0
131, 0.0
132, 0.0
133, 0.0
134, 0.0
135, 0.0
136, 0.0
137, 0.0
138, 0.0
139, 0.0
140, 0.0
141, 0.0
142, 0.0
143, 0.0
144, 0.0
145, 0.0
146.0, 0.00037139677464803037
147.0, 0.0023247390130438188
148.0, 0.003432599890456739
149.0, 0.0010493139359389943
150.0, 0.00043198852346088847
151.0, 0.0008402557464994946
152.0, 0.0008386208311592703
153.0, 0.0021778175200501226
154.0, 0.003550442007278797
155.0, 0.004273572198750714
156.0, 0.00498000438605734
157.0, 0.004160939686122218
158.0, 0.004042108710744348
159.0, 0.004616638452340326
160.0, 0.004780565548627726
161.0, 0.005106929043484745
162.0, 0.004670507609450851
163.0, 0.004541706878829567
164.0, 0.005311966434575048
165.0, 0.005187849952139106
166.0, 0.004757799091135212
167.0, 0.0050790543531727406
168.0, 0.005951864590479884
169.0, 0.006000975427943217
170.0, 0.004942902649189041
171.0, 0.004636070815389916
172.0, 0.004716524621880905
173.0, 0.003927970906145602
174.0, 0.0034844809405118644
175.0, 0.004575686290763403
176.0, 0.005742693938440835
177.0, 0.0058012102918095845
178.0, 0.005960906137693983
179.0, 0.006055076762069461
180.0, 0.006253280648684282
181.0, 0.006617243807430253
182.0, 0.006861399834578877
183.0, 0.005914398412141238
184.0, 0.005802793330384698
185.0, 0.006720265626148581
186.0, 0.00761423228839479
187.0, 0.007410725011296489
188.0, 0.006733951709963329
189.0, 0.007194207274047904
190.0, 0.008945768454553483
191.0, 0.008983336690265348
192.0, 0.00934563999962644
193.0, 0.010468012845319315
194.0, 0.01124624962657954
195.0, 0.010872128547348174
196.0, 0.01266016881127118
197.0, 0.014328308422432202
198.0, 0.015420932378496715
199.0, 0.01659302396025359
200.0, 0.0184629168084306
201.0, 0.018721572731622088
202.0, 0.02030973313452436
203.0, 0.024077482328646423
204.0, 0.02684667202489786
205.0, 0.02873988426814728
206.0, 0.031128862235727688
207.0, 0.0338208952098872
208.0, 0.035638381528518476
209.0, 0.03626510011973282
210.0, 0.037523994002601854
211.0, 0.03682344501718557
212.0, 0.033236320486354436
213.0, 0.029739718908096947
214.0, 0.026117385494056993
215.0, 0.022376480948836146
216.0, 0.020176441065622785
217.0, 0.020974117073978057
218.0, 0.020510471629714158
219.0, 0.020250650324502812
220.0, 0.020008177111175272
221.0, 0.019891736298809453
222.0, 0.02156187195345496
223.0, 0.01978342912648632
224.0, 0.016431881951504596
225.0, 0.013521102934100308
226.0, 0.011969978535899673
227.0, 0.010341791728851307
228.0, 0.008340563191584136
229.0, 0.005375110391192039
230.0, 0.0020965151940179417
231.0, 0.0025123194967094625
232.0, 0.0023157329541515794
233.0, 0.001452463043678611
234.0, 0.0004179475843285542
235.0, 0.00010395458334008339
236.0, 0.0010828412210688975
237.0, 0.000936677759037154
238.0, 0.0013502990349594929
239.0, 0.0028790524221077845
240.0, 0.0009771829116954692
241.0, 0.0024605442292080846
242.0, 0.00326256165455635
243.0, 0.0030708830183664316
244.0, 0.004109665640105502
245.0, 0.0041178991189660405
246.0, 0.0055308201086908485
247.0, 0.006962377701134304
248.0, 0.007258149114897723
249.0, 0.0075218153952276295
250.0, 0.008586367396586367
251.0, 0.010254285020882374
252.0, 0.010876196937063176
253.0, 0.009371416142231314
254.0, 0.00925362362257553
255.0, 0.010550745220703992
256.0, 0.011826547549607831
257.0, 0.012871523132607102
258.0, 0.015189912787114597
259.0, 0.015353235131684953
260.0, 0.017343379442201046
261.0, 0.019404947119011813
262.0, 0.018890641965521416
263.0, 0.02099071707170835
264.0, 0.024181254496360237
265.0, 0.027067374050668207
266.0, 0.029512914718007443
267.0, 0.0322926055640158
268.0, 0.03487262971569313
269.0, 0.03898866998841953
270.0, 0.04396146559541732
271.0, 0.0492092463773388
272.0, 0.05618022025839472
273.0, 0.0620563499548785
274.0, 0.06942995912775153
275.0, 0.07502527751492154
276.0, 0.07325049017542212
277.0, 0.07020744695579953
278.0, 0.06505231278708452
279.0, 0.05912746679514841
280.0, 0.05359610827551143
281.0, 0.04823425552984192
282.0, 0.0434133533810966
283.0, 0.03540880125100371
284.0, 0.025827842782960072
285.0, 0.018507522814129155
286.0, 0.013861673630320703
287.0, 0.008525580880835402
288.0, 0.005719429831347955
289.0, 0.004782271852823407
290.0, 0.0021199146469313562
291.0, 0.0029015254807511527
292.0, 0.0028054352445344164
293.0, 0.001891799969841049
294.0, 0.0011312448055874975
295.0, 0.0005952379508110876
296.0, 0.0015512427134750386
297.0, 0.002504710993374429
298.0, 0.0035437498970177475
299.0, 0.0040510089764274745
300.0, 0.0041553201134730934
301.0, 0.004371438130964976
302.0, 0.0037718743700606247
303.0, 0.0030751315656323123
304.0, 0.0037314384616844234
305.0, 0.005019093992127074
306.0, 0.003024167640910632
307.0, 0.0020326384184405195
308.0, 0.0031528502211238606
309.0, 0.001147710591801147
310.0, 0.0013911697939876426
311.0, 0.0022075317749376557
312.0, 0.0020974274831691286
313.0, 0.0010336047054736739
314.0, 0.00031374025493709294
315.0, 0.0033827686310968254
316.0, 0.0038862728727708075
317.0, 0.002310109670426759
318.0, 0.003411004597645916
319.0, 0.005847335289361558
320.0, 0.006016982364183397
321.0, 0.00637099342610948
322.0, 0.008489802354782812
323.0, 0.0120242773320432
324.0, 0.01555504321417327
325.0, 0.01967424353902908
326.0, 0.02446484349055896
327.0, 0.03037761393327503
328.0, 0.03908025704854139
329.0, 0.050804782513778096
330.0, 0.06603378314771677
331.0, 0.08220503503910792
332.0, 0.09592279735926496
333.0, 0.10607345132424562
334.0, 0.11367420119174691
335.0, 0.1257840530347668
336.0, 0.1412637518312951
337.0, 0.15551383640739758
338.0, 0.17208947056360252
339.0, 0.19172048756948923
340.0, 0.2159076563368934
341.0, 0.24585619692265795
342.0, 0.2822097157227703
343.0, 0.3267653709418772
344.0, 0.3806961583702177
345.0, 0.4362285442018454
346.0, 0.4861278864967856
347.0, 0.5222294729933638
348.0, 0.5093363093442459
349.0, 0.4268093430181819
350.0, 0.30701090651436336
351.0, 0.1950752804746824
352.0, 0.11847508736029914
353.0, 0.0712054701900612
354.0, 0.04488840252432606
355.0, 0.031065273587153008
356.0, 0.023260732066705307
357.0, 0.01684930216914564
358.0, 0.015975844026856697
359.0, 0.016809883597713026
360.0, 0.017033452659848958
361.0, 0.016413843665246376
362.0, 0.015303480613401725
363.0, 0.013139252210005753
364.0, 0.011551530180462816
365.0, 0.011436153149561005
366.0, 0.012402397315074086
367.0, 0.012256607820735777
368.0, 0.011692399507570658
369.0, 0.013785666971382735
370.0, 0.018181459830077067
371.0, 0.022784784116858258
372.0, 0.032035643331880366
373.0, 0.04094064049672615
374.0, 0.05152277841082904
375.0, 0.06495495313302524
376.0, 0.07979339587326667
377.0, 0.09670367314264372
378.0, 0.11821604199204981
379.0, 0.14201662540100252
380.0, 0.16793007387108824
381.0, 0.19876044886257435
382.0, 0.2294765484894077
383.0, 0.2642532819762725
384.0, 0.30319932247776066
385.0, 0.34522618529198107
386.0, 0.3902117378623534
387.0, 0.4361094063295136
388.0, 0.48607126456594746
389.0, 0.5388133634402433
390.0, 0.5948187986920335
391.0, 0.6588990633621966
392.0, 0.7229290273181008
393.0, 0.7879503151075055
394.0, 0.8521156034834368
395.0, 0.9111722755150895
396.0, 0.9581635088486057
397.0, 0.9911692506019895
398.0, 0.9988602091677489
399.0, 0.9776710050322214
400.0, 0.9308973291612832
401.0, 0.865281118770145
402.0, 0.7836701201114566
403.0, 0.694172868435294
404.0, 0.6068102911803636
405.0, 0.527283123221056
406.0, 0.4549925972658943
407.0, 0.3895662770994498
408.0, 0.33282572959274426
409.0, 0.28356085309176504
410.0, 0.24174948987924583
411.0, 0.20912467652394465
412.0, 0.1794057754551778
413.0, 0.15529365549191598
414.0, 0.13523923428558862
415.0, 0.11810448617417038
416.0, 0.10596872125389396
417.0, 0.09408250583424468
418.0, 0.08491181215140323
419.0, 0.07797720647822534
420.0, 0.07209485887973435
421.0, 0.0665816891342563
422.0, 0.06363815969832756
423.0, 0.062089738981503
424.0, 0.06176094849592638
425.0, 0.062232244382881184
426.0, 0.0628286321845617
427.0, 0.06470541815078056
428.0, 0.06637490520036506
429.0, 0.06984313534293472
430.0, 0.07485164206317353
431.0, 0.07819520285106059
432.0, 0.08113459990993262
433.0, 0.08631037444666101
434.0, 0.09144261754152049
435.0, 0.0975684666683552
436.0, 0.10731665554909069
437.0, 0.11427407449414027
438.0, 0.12649410239291475
439.0, 0.14175339488779612
440.0, 0.15606445004828556
441.0, 0.16768246256592614
442.0, 0.17646525972114674
443.0, 0.18253782808808483
444.0, 0.18463767863846167
445.0, 0.17855005964136478
446.0, 0.16129517113042277
447.0, 0.14000247723984255
448.0, 0.12151082545824858
449.0, 0.10947995005057236
450.0, 0.10083929658974049
451.0, 0.09354420399707476
452.0, 0.09391265405834726
453.0, 0.0974117479493922
454.0, 0.10517417486465198
455.0, 0.11394908149239748
456.0, 0.12039240807896617
457.0, 0.1251188021875323
458.0, 0.12491387712611893
459.0, 0.12077103132386338
460.0, 0.11026108309106605
461.0, 0.09170626848338038
462.0, 0.0679970376326795
463.0, 0.04652801872178738
464.0, 0.031637861698628526
465.0, 0.022506434822627486
466.0, 0.016121962289484718
467.0, 0.009920477094242175
468.0, 0.0052005520427483454
469.0, 0.0024603737323315045
470.0, 0.0018260038970612604
471.0, 0.0002733940618395875
472.0, 0.0011650392760541685
473.0, 0.002484127516633273
474.0, 0.0028902965589346144
475.0, 0.004186071393586101
476.0, 0.002886723943917301
477.0, 0.003654941141448813
478.0, 0.0036807726660793008
479.0, 0.0036570651222082255
480.0, 0.00297862387888233
481.0, 0.0027812075097859083
482.0, 0.0022003129478783056
483.0, 0.002242030552154434
484.0, 0.0027467700196547717
485.0, 0.0017016208197151968
486.0, 0.0013847054385750033
487.0, 0.0019810272127279457
488.0, 0.0013988049837601435
489.0, 0.001117175614112643
490.0, 0.001262060505001206
491.0, 0.0006470188734543788
492.0, 0.0005007489095261168
493.0, 0.0008595827301747052
494.0, 0.000154109761998713
495.0, 0.0007501052330470397
496.0, 0.0009242986606411686
497.0, 0.00034331355781278244
498.0, 0.0014100187363508515
499.0, 0.0011595158576122098
500.0, 0.0020539568629044684
501.0, 0.001984434136615774
502.0, 0.002812019406080366
503.0, 0.003383724420674251
504.0, 0.0033511849160102578
505.0, 0.003635848535425731
506.0, 0.0035722698649845236
507.0, 0.0044625181378872385
508.0, 0.00501685868170486
509.0, 0.0056586638516322165
510.0, 0.005355059251261539
511.0, 0.006937602981635818
512.0, 0.00650661215096227
513.0, 0.0077456259787473695
514.0, 0.008900428911664864
515.0, 0.009072628704229608
516.0, 0.01022990835609204
517.0, 0.009348995594391602
518.0, 0.009381342882127441
519.0, 0.010785570241006397
520.0, 0.01162120361523178
521.0, 0.013752491781562974
522.0, 0.013792464883337139
523.0, 0.013947498293212264
524.0, 0.014170851951650484
525.0, 0.014707159230282523
526.0, 0.018202933700149027
527.0, 0.019738734751655516
528.0, 0.020426390998929143
529.0, 0.01966492123901179
530.0, 0.01858337146050617
531.0, 0.0194343881142127
532.0, 0.0209629162343232
533.0, 0.020281915858063815
534.0, 0.02225394212226795
535.0, 0.02377884344723671
536.0, 0.022335863348488944
537.0, 0.0236552355676549
538.0, 0.02475858012533125
539.0, 0.025220909659414426
540.0, 0.024616208603844246
541.0, 0.024874316258665458
542.0, 0.027566908567465534
543.0, 0.027471950226843952
544.0, 0.028290270256686047
545.0, 0.02872469128164092
546.0, 0.028163966596977185
547.0, 0.02712907509150876
548.0, 0.0260127024699401
549.0, 0.024905324368067597
550.0, 0.023426371308492573
551.0, 0.022189838187018696
552.0, 0.019575692218632174
553.0, 0.014369535453191673
554.0, 0.014080776084969715
555.0, 0.0116879804474521
556.0, 0.009710432970553783
557.0, 0.009560685114514677
558.0, 0.009721690844278633
559.0, 0.008293240703797763
560.0, 0.0067945556682533605
561.0, 0.005636566839986273
562.0, 0.006445228252092641
563.0, 0.00738171491100111
564.0, 0.00592123443796605
565.0, 0.005818540758596081
566.0, 0.004684111551518503
567.0, 0.004987996606363215
568.0, 0.006872372684841464
569.0, 0.008691458335216
570.0, 0.008891454002637442
571.0, 0.008180171823053485
572.0, 0.009757055431891357
573.0, 0.010856370051046171
574.0, 0.01037569801924556
575.0, 0.009303792763438795
576.0, 0.009003689094596408
577.0, 0.010304335188701823
578.0, 0.012860696253912904
579.0, 0.013557796606958482
580.0, 0.013749103754999915
581.0, 0.016317748314365492
582.0, 0.015644691652217456
583.0, 0.015453565096708005
584.0, 0.017951309700691004
585.0, 0.0199548350167277
586.0, 0.02105474895080242
587.0, 0.024140957717032164
588.0, 0.025827195094590624
589.0, 0.026983625309740297
590.0, 0.027819436108049246
591.0, 0.02962108151826977
592.0, 0.0321831227779586
593.0, 0.03225823932940492
594.0, 0.0335879095638953
595.0, 0.0346719399624757
596.0, 0.03589829004213186
597.0, 0.037770801924267246
598.0, 0.03908341802509747
599.0, 0.03765375655648409
600.0, 0.03897407852644653
601.0, 0.039555460243831296
602.0, 0.03891153124680438
603.0, 0.038168555130800856
604.0, 0.03777681284419128
605.0, 0.0351060688437763
606.0, 0.0330931916877959
607.0, 0.030554006661854996
608.0, 0.028149693289924622
609.0, 0.02634966877425023
610.0, 0.024350359548960473
611.0, 0.022335156437439885
612.0, 0.01967202617800484
613.0, 0.01778893829082165
614.0, 0.014886061634992623
615.0, 0.010728342472826188
616.0, 0.00819952445294647
617.0, 0.005477465602321295
618.0, 0.005860351287476503
619.0, 0.004918180125626485
620.0, 0.0026731561803059554
621.0, 0.0011878352596104555
622.0, 0.00021727927365585863
623.0, 0.000821598581074001
624.0, 0.0017746275908936415
625.0, 0.0015536252911176357
626.0, 0.0007171854745333162
627.0, 0.0007209853025457644
628.0, 0.0014637020153388427
629.0, 0.0016607736702239472
630.0, 0.0004806871815147693
631.0, 0.0006773359937660159
632.0, 0.0012080720976612672
633.0, 0.00044467297345105524
634.0, 0.0011893569121014175
635.0, 0.00040523908245240417
636.0, 0.0007444663623061571
637.0, 0.0007951237350555581
638.0, 0.0022135201992330347
639.0, 0.002732490946603468
640.0, 0.004973549760925053
641.0, 0.002174525647426001
642.0, 0.00179021438483356
643.0, 0.003270291777188983
644.0, 0.0027528287578243503
645.0, 8.534642392283385e-05
646.0, 0.0013084846013086124
647.0, 0.0021437771956007616
648.0, 0.0017168404123877538
649.0, 0.0023431994204625634
650.0, 0.004291307517677058
651.0, 0.005952711831955201
652.0, 0.007251095487103895
653.0, 0.006589474072943892
654.0, 0.009292820361212178
655.0, 0.009897532678997177
656.0, 0.009895514244788206
657.0, 0.013204002015515626
658.0, 0.013755398116280475
659.0, 0.014819132903754709
660.0, 0.01591848359785847
661.0, 0.016779154494707547
662.0, 0.017727235338623516
663.0, 0.018944261862140273
664.0, 0.020024474971581618
665.0, 0.021649325000585008
666.0, 0.022087037264265325
667.0, 0.022899254061913798
668.0, 0.024312949488080302
669.0, 0.02626387949737859
670.0, 0.029870331951880807
671.0, 0.032025884402808534
672.0, 0.03260367917771716
673.0, 0.032656455006227596
674.0, 0.03380524092382919
675.0, 0.03639894790499792
676.0, 0.03900268884546963
677.0, 0.0415459970266239
678.0, 0.042892669271230095
679.0, 0.043922245792570425
680.0, 0.04616209546866677
681.0, 0.049051253190095
682.0, 0.050337262837785654
683.0, 0.05018522219291515
684.0, 0.049383163886401175
685.0, 0.04907149600992498
686.0, 0.04683074514429451
687.0, 0.04293577182126207
688.0, 0.040978384435316706
689.0, 0.041426625324694
690.0, 0.039621749920714676
691.0, 0.036234871314923256
692.0, 0.03363938535139385
693.0, 0.03337539910700498
694.0, 0.033783746829962366
695.0, 0.03145164596155878
696.0, 0.029705718368345287
697.0, 0.03036899807801943
698.0, 0.03231943632231827
699.0, 0.03335911500697297
700.0, 0.03235481195971613
701.0, 0.03090528567798948
702.0, 0.031124292874290808
703.0, 0.03108202331628236
704.0, 0.03189141836345003
705.0, 0.032084208574073465
706.0, 0.03101811138853422
707.0, 0.030640941029550367
708.0, 0.029715006698007515
709.0, 0.027120161099343048
710.0, 0.02592637689973864
711.0, 0.02421366386891089
712.0, 0.02142807894503757
713.0, 0.019647681006506344
714.0, 0.01882071458869658
715.0, 0.01800053488774688
716.0, 0.015124053609569121
717.0, 0.013671732898178069
718.0, 0.012662623580245346
719.0, 0.009742750660952428
720.0, 0.007467766713191505
721.0, 0.00609978461582193
722.0, 0.005909102930021604
723.0, 0.004644024527091479
724.0, 0.003748437218174532
725.0, 0.003690231020449775
726.0, 0.0024236510753685965
727.0, 0.0004568864692537503
728.0, 0.0003334094505933439
729.0, 0.002150182926753285
730.0, 0.0030173888092612207
731.0, 0.002606696605157967
732.0, 0.003333486846562643
733.0, 0.006007247530189136
734.0, 0.0057872485081768635
735.0, 0.006587203998578915
736.0, 0.008166032932747687
737.0, 0.010271948073689224
738.0, 0.013404416575320951
739.0, 0.01715153963697946
740.0, 0.018761700744377288
741.0, 0.02322143356630691
742.0, 0.02423015376264272
743.0, 0.028070343822013205
744.0, 0.03375055921561812
745.0, 0.036125219095768435
746.0, 0.039570571877918154
747.0, 0.04458565599265687
748.0, 0.0482192762737204
749.0, 0.05029802180556708
750.0, 0.05183448203319234
751.0, 0.05333089574190838
752.0, 0.05481459091788004
753.0, 0.056305399967034625
754.0, 0.053905040962888076
755.0, 0.052972346163323136
756.0, 0.05210005766452394
757.0, 0.05116284367818137
758.0, 0.051127688609562724
759.0, 0.050908363851454676
760.0, 0.05097891553227438
761.0, 0.0547825198007443
762.0, 0.05701311352019946
763.0, 0.05844116929650258
764.0, 0.06229641317041345
765.0, 0.06815456738897199
766.0, 0.0716438524953879
767.0, 0.07438005507660471
768.0, 0.08122445649831776
769.0, 0.08514743963663082
770.0, 0.08657716345959242
771.0, 0.0875755085381494
772.0, 0.08748573929810562
773.0, 0.08799907583718748
774.0, 0.08428927700942912
775.0, 0.07755712690170986
776.0, 0.06964532845719104
777.0, 0.06245769450848189
778.0, 0.05575463158319735
779.0, 0.04841281350309614
780.0, 0.044528554179440426
781.0, 0.039380352707303196
782.0, 0.03418534388440348
783.0, 0.028622926424455134
784.0, 0.02386031468825285
785.0, 0.020908656635028642
786.0, 0.018256718948101887
787.0, 0.015146004643701201
788.0, 0.010581551517350888
789.0, 0.006988402973866508
790.0, 0.006369217297028663
791.0, 0.006665430733708131
792.0, 0.00546782513282071
793.0, 0.004089462788512788
794.0, 0.004143056034925904
795.0, 0.0034485915233739587
796.0, 0.0033058269596965523
797.0, 0.0021124027358018146
798.0, 0.0003463891998469272
799.0, 0.0009344875868272615
800.0, 0.000940227563483014
801.0, 0.0007567124756710278
802.0, 8.78337048435585e-05
803.0, 0.0007530716185588723
804.0, 0.0022332835069157593
805.0, 0.002497851364953017
806.0, 0.0010183247950456009
807.0, 0.0004072619383006928
808.0, 0.0003269937328598568
809.0, 0.0008424995013415147
810.0, 0.0004125725391566212
811.0, 0.001848812091181825
812.0, 0.0013747122716516922
813.0, 0.0001852762685161648
814.0, 0.0001449144463578163
815.0, 0.0005103105916071195
816.0, 0.00101275056725813
817.0, 0.0013556574624950014
818.0, 0.0018031613959624173
819.0, 0.00258936346037046
820.0, 0.0025348302717327774
821.0, 0.0039593055292177146
822.0, 0.0047172200941899755
823.0, 0.0038704433848677114
824.0, 0.004526563487718396
825.0, 0.003638466431582107
826.0, 0.002878756987557895
827.0, 0.005325409886140443
828.0, 0.0060770140608828235
829.0, 0.006049752401647244
830.0, 0.007925006197450077
831.0, 0.009397131622687478
832.0, 0.010695834841093337
833.0, 0.011786393137714018
834.0, 0.011668564679747313
835.0, 0.010257766863266016
836.0, 0.011161703955961947
837.0, 0.013313258904806023
838.0, 0.01409642524749073
839.0, 0.013024622597279411
840.0, 0.013830891206739963
841.0, 0.016520033593527897
842.0, 0.016346274949532943
843.0, 0.015624870781725784
844.0, 0.013930389044011152
845.0, 0.013186013532521442
846.0, 0.013166270886264
847.0, 0.012738097849375496
848.0, 0.01194462374752184
849.0, 0.011613574922254637
850.0, 0.011551485781764391
851.0, 0.012301476454583361
852.0, 0.011157152965962036
853.0, 0.009837080889978818
854.0, 0.010892078666219636
855.0, 0.012712224947677172
856.0, 0.013395750986492237
857.0, 0.014384973612965108
858.0, 0.012437144388562093
859.0, 0.012991254245159059
860.0, 0.010874708091729668
861.0, 0.01184876370821047
862.0, 0.013471103973486812
863.0, 0.01181829452603089
864.0, 0.011000020531200947
865.0, 0.010150199011055029
866.0, 0.009777221410945924
867.0, 0.008509912334561163
868.0, 0.008324255722092373
869.0, 0.008237590025459974
870.0, 0.00799447872815958
871.0, 0.008388321068847692
872.0, 0.008182555955277329
873.0, 0.009996542796625879
874.0, 0.006913054941724441
875.0, 0.003619288278390154
876.0, 0.0032986215853873344
877.0, 0.004039891466081843
878.0, 0.004218500042282899
879.0, 0.005559483462636498
880.0, 0.005826462533262995
881.0, 0.002419393309687412
882.0, 0.003619771378057079
883.0, 0.003962729649976958
884.0, 0.003111249967901797
885.0, 0.0025812453803597973
886.0, 0.0022343613095512924
887.0, 0.003640789014031299
888.0, 0.005678537271081295
889.0, 0.007407775984516445
890.0, 0.007713329587733402
891.0, 0.00731719769131483
892.0, 0.006448544645544036
893.0, 0.006156131691901909
894.0, 0.007529499880242333
895.0, 0.00832602201253028
896.0, 0.01070709777956574
897.0, 0.009983809681112565
898.0, 0.008770627681830024
899.0, 0.010864819868839425
900.0, 0.01228338787056814
901.0, 0.010930299009687585
902.0, 0.012806143761575366
903.0, 0.014487950333866536
904.0, 0.014415361539343237
905.0, 0.013117284209283637
906.0, 0.016449115619581997
907.0, 0.0166355912998821
908.0, 0.013865297959858164
909.0, 0.014485587209772896
910.0, 0.014050090397159511
911.0, 0.015060272589651754
912.0, 0.011243188866772117
913.0, 0.011581668355769039
914.0, 0.012568511718983348
915.0, 0.011290558211036595
916.0, 0.010001015468574027
917.0, 0.010390039461644891
918.0, 0.009233994324135615
919.0, 0.007887345234408441
920.0, 0.00804189051576439
921.0, 0.0072215735415336185
922.0, 0.007420775288428251
923.0, 0.007865958641401188
924.0, 0.008110957434414565
925.0, 0.008636567220577485
926.0, 0.007301480928420343
927.0, 0.006953812867643936
928.0, 0.0043881746958030704
929.0, 0.0033990266000001727
930.0, 0.003799895014967383
931.0, 0.0038565975064172473
932.0, 0.0031583726434194536
933.0, 0.0025794938864489893
934.0, 0.002506124062379392
935.0, 0.002666879355116487
936.0, 0.000843406332411579
937.0, 0.0015381371111825143
938.0, 0.0022659774953124193
939.0, 0.0015890605313384491
940.0, 0.001709101457461796
941.0, 0.0015030269262578495
942.0, 0.0014711997848711473
943.0, 0.001435101286918372
944.0, 0.0015580871859600448
945.0, 0.0007187280966473253
946.0, 0.00010950707663326266
947.0, 0.0006120508534716047
948.0, 0.0015531120267864872
949.0, 0.0018083570057980261
950.0, 0.0002578053496060157
951.0, 0.000412872256407777
952.0, 0.0019919388744832713
953.0, 0.0012598913796408773
954.0, 0.002127153078717628
955.0, 0.000967953635701066
956.0, 0.0009157884723538888
957.0, 0.0023903181684757193
958.0, 0.0033545353599118786
959.0, 0.0009534159054201621
960.0, 0.0019956138770284714
961.0, 0.0008578659361966201
962.0, 0.0008326841748286456
963.0, 0.0010242374273935094
964.0, 0.0006067425362707012
965.0, 0.00018018256012215838
966.0, 0.00147547901802463
967.0, 0.00046154706671907816
968.0, 0.002114674163040701
969.0, 8.281472265151484e-05
970.0, 0.00020108319000267355
971.0, 0.0004546090185078813
972.0, 0.0012406192174816964
973.0, 0.0012610694740789949
974.0, 0.000572275634477276
975.0, 0.00019868522820428198
976.0, 0.000641056068211812
977.0, 0.0019727223629352948
978.0, 0.0025920874356121955
979.0, 0.002571323035424877
980.0, 0.0038526889712692247
981.0, 0.0057426559004647324
982.0, 0.00572043729784486
983.0, 0.0038073330259451197
984.0, 0.00406760950919783
985.0, 0.004499356356847114
986.0, 0.002904542615741633
987.0, 0.004706321586495347
988.0, 0.005697410996540833
989.0, 0.003700581234540841
990.0, 0.00280781195887051
991.0, 0.004441079905319254
992.0, 0.004792954826241497
993.0, 0.004096889396663813
994.0, 0.0025510042278590844
995.0, 0.0033266938697015212
996.0, 0.0072371580860927705
997.0, 0.007737545701287778
998.0, 0.007236023462227114
999.0, 0.006756828742502181
1000.0, 0.005277128531438371
1001.0, 0.007053575759479856
1002.0, 0.008405012721834361
1003.0, 0.008494651549005718
1004.0, 0.008193087634338453
1005.0, 0.007126420947317116
1006.0, 0.008884700977117138
1007.0, 0.00998499183377069
1008.0, 0.010185298918345402
1009.0, 0.012496127640481195
1010.0, 0.012943139536011965
1011.0, 0.013862296522860185
1012.0, 0.015033914616203693
1013.0, 0.0136821179387534
1014.0, 0.01593270534166462
1015.0, 0.018353014102084373
1016.0, 0.0189343368508414
1017.0, 0.020199905784274972
1018.0, 0.02258822903546051
1019.0, 0.024889550219184223
1020.0, 0.027835530579808258
1021.0, 0.029375312001074228
1022.0, 0.030880599943794107
1023.0, 0.03331327364977953
1024.0, 0.03642216977532923
1025.0, 0.03936746739463443
1026.0, 0.04193081990111984
1027.0, 0.04503371902905084
1028.0, 0.048672213662624024
1029.0, 0.05167251789945268
1030.0, 0.054670707929078674
1031.0, 0.05514707443804176
1032.0, 0.05864334279644934
1033.0, 0.060161598209193125
1034.0, 0.062328005489807055
1035.0, 0.06614253723346349
1036.0, 0.06930766301976946
1037.0, 0.07396635025908073
1038.0, 0.07787497610377377
1039.0, 0.08018057426662546
1040.0, 0.08152082213044723
1041.0, 0.0875058327408249
1042.0, 0.09541354303316278
1043.0, 0.10158636236792133
1044.0, 0.10693548178007813
1045.0, 0.11332730998665418
1046.0, 0.12104930365987744
1047.0, 0.1311443706126706
1048.0, 0.13994805899897864
1049.0, 0.14761141069986738
1050.0, 0.15664358255540772
1051.0, 0.1656433405847588
1052.0, 0.17195325950573576
1053.0, 0.1791426220285125
1054.0, 0.1868815881568115
1055.0, 0.18940642096053834
1056.0, 0.18951562287711265
1057.0, 0.19026293008529468
1058.0, 0.18474094188206974
1059.0, 0.17783301989342462
1060.0, 0.16710980137543993
1061.0, 0.15714119924713293
1062.0, 0.14649288285732046
1063.0, 0.13458971652862697
1064.0, 0.12445331339006442
1065.0, 0.11488527895431044
1066.0, 0.09990989265560744
1067.0, 0.08780309944278826
1068.0, 0.0781505859228078
1069.0, 0.06972076188937638
1070.0, 0.061514840452871165
1071.0, 0.05528610504105482
1072.0, 0.04743718859696188
1073.0, 0.03906861570144332
1074.0, 0.034837977871584894
1075.0, 0.03292111786518522
1076.0, 0.029938361405596112
1077.0, 0.02398544990068324
1078.0, 0.02319070354389314
1079.0, 0.019105470651512586
1080.0, 0.015684591883043116
1081.0, 0.0136908516159025
1082.0, 0.0115608771868535
1083.0, 0.011006057988877965
1084.0, 0.011045060602129318
1085.0, 0.008060182193501537
1086.0, 0.006688195620799574
1087.0, 0.005919116152174926
1088.0, 0.002642313521816764
1089.0, 0.0020006635411452395
1090.0, 0.0006508748478976246
1091.0, 0.002205922764976654
1092.0, 0.001644594787901348
1093.0, 0.0009754576092318344
1094.0, 0.0010245155061804655
1095.0, 0.0007128103136886329
1096.0, 5.768209809572979e-05
1097.0, 0.00031426260508991735
1098.0, 0.0009600090770838935
1099.0, 0.001165905297398125
1100.0, 0.0019496282143827899
1101.0, 0.0017431826595827402
1102.0, 0.0009602864298992587
1103.0, 0.0007942157244530202
1104.0, 0.0011482920559521101
1105.0, 0.0017758008235787743
1106.0, 0.0030556534790720674
1107.0, 0.0019019487920144307
1108.0, 0.0011884920183189266
1109.0, 0.0022571989461481565
1110.0, 0.0007526702261166176
1111.0, 0.0016590320147135775
1112.0, 0.0024189341475801484
1113.0, 0.001064625744536609
1114.0, 0.0004808640162820688
1115.0, 0.0014338785060396162
1116.0, 0.0018810553642427366
1117.0, 0.0005651620875062022
1118.0, 0.0004857174992219499
1119.0, 0.0008672870824982664
1120.0, 0.0023506056854430144
1121.0, 0.0032224529325854435
1122.0, 0.0010804186123048382
1123.0, 0.0013097667117927783
1124.0, 0.0018926776388486267
1125.0, 1.1764979210088678e-05
1126.0, 0.0008677637963549568
1127.0, 0.0014490480997842617
1128.0, 0.0031694226462769775
1129.0, 0.0029258160786763535
1130.0, 0.0006824889801169964
1131.0, 0.0023798837733753817
1132.0, 0.0013845337511520274
1133.0, 0.002124649592975686
1134.0, 0.0042700925078353
1135.0, 0.00568418698892592
1136.0, 0.007376532588155709
1137.0, 0.007023730703384155
1138.0, 0.00577228373380205
1139.0, 0.005211850889027037
1140.0, 0.006672401563962154
1141.0, 0.003306671857188808
1142.0, 0.003519744848695292
1143.0, 0.005530540057729245
1144.0, 0.00526157245275306
1145.0, 0.004969065137611495
1146.0, 0.004900646124154707
1147.0, 0.0041788838922279595
1148.0, 0.005070261065941018
1149.0, 0.004352707151402551
1150.0, 0.006753736144586347
1151.0, 0.006896302613182187
1152.0, 0.006432018564440407
1153.0, 0.0069302892093795684
1154.0, 0.007250635988076434
1155.0, 0.005824669631520448
1156.0, 0.006305607364214831
1157.0, 0.00573238611710127
1158.0, 0.0028834179422020795
1159.0, 0.002903881375155073
1160.0, 0.001026107963802064
1161.0, 0.0015777593483124084
1162.0, 0.0013326607959727693
1163.0, 0.0038724249918439457
1164.0, 0.004260432460463531
1165.0, 0.00342895869573562
1166.0, 0.001226503614646461
1167.0, 0.002322830277555442
1168.0, 0.003006859684720712
1169.0, 0.0013720724055600068
1170.0, 0.0019214358830327038
1171.0, 0.0011216834091137696
1172.0, 4.282632712917465e-05
1173.0, 0.00012665295494056282
1174.0, 0.001159351714624585
1175.0, 0.002081192133233453
1176.0, 0.001476510746259814
1177.0, 0.000987543324580564
1178.0, 0.00039966003717585927
1179.0, 0.0004805500222217352
1180.0, 0.00030185204212979707
1181.0, 0.00031278975228907365
1182.0, 0.0014285267345410934
1183.0, 0.000565521068712468
1184.0, 0.0003441691398368683
1185.0, 0.000662937232593918
1186.0, 0.0002776447027284755
1187.0, 0.0008238716499429323
1188.0, 0.00013953248776270245
1189.0, 0.0009359791112853504
1190.0, 0.0009114494845259944
1191.0, 0.00035973186602193175
1192.0, 0.001334323477245912
1193.0, 0.0034902995074739245
1194.0, 0.004289541404386862
1195.0, 0.00046073883495838176
1196.0, 0.00039179606669740246
1197.0, 0.002516011873608256
1198.0, 0.0025335627778150086
1199.0, 0.002646264170817886
1200.0, 0.004564195524228739
1201.0, 0.0044186185796177835
1202.0, 0.0038071229989494566
1203.0, 0.003899133970059595
1204.0, 0.002819919225040754
1205.0, 0.0015966763332424768
1206.0, 0.002064374422189367
1207.0, 0.0015573520270934667
1208.0, 0.0004386890928581899
1209.0, 0.00029628872978565836
1210.0, 0.004173052888824823
1211.0, 0.0036672439216413897
1212.0, 0.00272658633547735
1213.0, 0.002480408518803241
1214.0, 0.005426611574273384
1215.0, 0.005479682330945862
1216.0, 0.004805168271673583
1217.0, 0.005450909459391886
1218.0, 0.004866589016432703
1219.0, 0.004784503680170114
1220.0, 0.00465993152233981
1221.0, 0.004756305759215197
1222.0, 0.005486363716933632
1223.0, 0.0022232986940106812
1224.0, 0.004719979070928194
1225.0, 0.004484719717629705
1226.0, 0.002658289699172703
1227.0, 0.004120905171124339
1228.0, 0.005122644179706106
1229.0, 0.004032182520748973
1230.0, 0.003237740297184143
1231.0, 0.0033433974914469553
1232.0, 0.0033515606339389204
1233.0, 0.0025442714412315156
1234.0, 0.0020201397680779227
1235.0, 0.002507927418306505
1236.0, 0.0013494578584630577
1237.0, 0.0006014502073792139
1238.0, 0.0022695731871803767
1239.0, 0.0023551587932947493
1240.0, 0.0027612173496764938
1241.0, 0.0022459419076156432
1242.0, 0.0028387857606705746
1243.0, 0.0024303002121201177
1244.0, 0.0018436867573528224
1245.0, 0.0037018659933131083
1246.0, 0.0018992921484558675
1247.0, 0.0010583705586969065
1248.0, 0.003917727634650461
1249.0, 0.0033597949160930184
1250.0, 0.0016585215343459044
1251.0, 0.0034892700043889454
1252.0, 0.004062710806956353
1253.0, 0.0023040782342898477
1254.0, 0.0013779729471301236
1255.0, 0.0022261888660945073
1256.0, 0.0013082629436201969
1257.0, 0.00020321795081603206
1258.0, 0.0014116910266065274
1259.0, 0.003528767245595895
1260.0, 0.004751340635436776
1261.0, 0.002473830492187581
1262.0, 0.0016631758881357041
1263.0, 0.004433567972744409
1264.0, 0.002983422626770051
1265.0, 0.002340694397164908
1266.0, 0.0031159141287220057
1267.0, 0.008380652660588734
1268.0, 0.011160968349934288
1269.0, 0.009549114848596638
1270.0, 0.005632681984090715
1271.0, 0.00263452734502519
1272.0, 0.00207119574878768
1273.0, 0.001970689291086655
1274.0, 0.002732749171113613
1275.0, 0.005818543727052053
1276.0, 0.0051667981760093774
1277.0, 0.003599235985741553
1278.0, 0.004472987698533065
1279.0, 0.004444932498076698
1280.0, 0.003986196869221949
1281.0, 0.0025484036424493726
1282.0, 0.00266967301043734
1283.0, 0.003772410682679292
1284.0, 0.0029655580129831684
1285.0, 0.002443670661923707
1286.0, 0.002726517473113342
1287.0, 0.002741360220090281
1288.0, 0.003896641001233204
1289.0, 0.004423024235585738
1290.0, 0.003506951821465511
1291.0, 0.004761926298133358
1292.0, 0.0048775007739922435
1293.0, 0.002116915252032075
1294.0, 0.0023766222683317033
1295.0, 0.0032701187499870085
1296.0, 0.0015041453580077592
1297.0, 0.0016209725320961022
1298.0, 0.0008370626581631381
1299.0, 6.0350985284178474e-05
1300.0, 0.000477582841166146
1301.0, 0.00036591525476601744
1302.0, 8.937752770309152e-05
1303.0, 0.00040089034409153445
1304, 0.0
1305, 0.0
1306, 0.0
1307, 0.0
1308, 0.0
1309, 0.0
1310, 0.0
1311, 0.0
1312, 0.0
1313, 0.0
1314, 0.0
1315, 0.0
1316, 0.0
1317, 0.0
1318, 0.0
1319, 0.0
1320, 0.0
1321, 0.0
1322, 0.0
1323, 0.0
1324, 0.0
1325, 0.0
1326, 0.0
1327, 0.0
1328, 0.0
1329, 0.0
1330, 0.0
1331, 0.0
1332, 0.0
1333, 0.0
1334, 0.0
1335, 0.0
1336, 0.0
1337, 0.0
1338, 0.0
1339, 0.0
1340, 0.0
1341, 0.0
1342, 0.0
1343, 0.0
1344, 0.0
1345, 0.0
1346, 0.0
1347, 0.0
1348, 0.0
1349, 0.0
1350, 0.0
1351, 0.0
1352, 0.0
1353, 0.0
1354, 0.0
1355, 0.0
1356, 0.0
1357, 0.0
1358, 0.0
1359, 0.0
1360, 0.0
1361, 0.0
1362, 0.0
1363, 0.0
1364, 0.0
1365, 0.0
1366, 0.0
1367, 0.0
1368, 0.0
1369, 0.0
1370, 0.0
1371, 0.0
1372, 0.0
1373, 0.0
1374, 0.0
1375, 0.0
1376, 0.0
1377, 0.0
1378, 0.0
1379, 0.0
1380, 0.0
1381, 0.0
1382, 0.0
1383, 0.0
1384, 0.0
1385, 0.0
1386, 0.0
1387, 0.0
1388, 0.0
1389, 0.0
1390, 0.0
1391, 0.0
1392, 0.0
1393, 0.0
1394, 0.0
1395, 0.0
1396, 0.0
1397, 0.0
1398, 0.0
1399, 0.0
1400, 0.0
1401, 0.0
1402, 0.0
1403, 0.0
1404, 0.0
1405, 0.0
1406, 0.0
1407, 0.0
1408, 0.0
1409, 0.0
1410, 0.0
1411, 0.0
1412, 0.0
1413, 0.0
1414, 0.0
1415, 0.0
1416, 0.0
1417, 0.0
1418, 0.0
1419, 0.0
1420, 0.0
1421, 0.0
1422, 0.0
1423, 0.0
1424, 0.0
1425, 0.0
1426, 0.0
1427, 0.0
1428, 0.0
1429, 0.0
1430, 0.0
1431, 0.0
1432, 0.0
1433, 0.0
1434, 0.0
1435, 0.0
1436, 0.0
1437, 0.0
1438, 0.0
1439, 0.0
1440, 0.0
1441, 0.0
1442, 0.0
1443, 0.0
1444, 0.0
1445, 0.0
1446, 0.0
1447, 0.0
1448, 0.0
1449, 0.0
1450, 0.0
1451, 0.0
1452, 0.0
1453, 0.0
1454, 0.0
1455, 0.0
1456, 0.0
1457, 0.0
1458, 0.0
1459, 0.0
1460, 0.0
1461, 0.0
1462, 0.0
1463, 0.0
1464, 0.0
1465, 0.0
1466, 0.0
1467, 0.0
1468, 0.0
1469, 0.0
1470, 0.0
1471, 0.0
1472, 0.0
1473, 0.0
1474, 0.0
1475, 0.0
1476, 0.0
1477, 0.0
1478, 0.0
1479, 0.0
1480, 0.0
1481, 0.0
1482, 0.0
1483, 0.0
1484, 0.0
1485, 0.0
1486, 0.0
1487, 0.0
1488, 0.0
1489, 0.0
1490, 0.0
1491, 0.0
1492, 0.0
1493, 0.0
1494, 0.0
1495, 0.0
1496, 0.0
1497, 0.0
1498, 0.0
1499, 0.0
1500, 0.0
1501, 0.0
1502, 0.0
1503, 0.0
1504, 0.0
1505, 0.0
1506, 0.0
1507, 0.0
1508, 0.0
1509, 0.0
1510, 0.0
1511, 0.0
1512, 0.0
1513, 0.0
1514, 0.0
1515, 0.0
1516, 0.0
1517, 0.0
1518, 0.0
1519, 0.0
1520, 0.0
1521, 0.0
1522, 0.0
1523, 0.0
1524, 0.0
1525, 0.0
1526, 0.0
1527, 0.0
1528, 0.0
1529, 0.0
1530, 0.0
1531, 0.0
1532, 0.0
1533, 0.0
1534, 0.0
1535, 0.0
1536, 0.0
1537, 0.0
1538, 0.0
1539, 0.0
1540, 0.0
1541, 0.0
1542, 0.0
1543, 0.0
1544, 0.0
1545, 0.0
1546, 0.0
1547, 0.0
1548, 0.0
1549, 0.0
1550, 0.0
1551, 0.0
1552, 0.0
1553, 0.0
1554, 0.0
1555, 0.0
1556, 0.0
1557, 0.0
1558, 0.0
1559, 0.0
1560, 0.0
1561, 0.0
1562, 0.0
1563, 0.0
1564, 0.0
1565, 0.0
1566, 0.0
1567, 0.0
1568, 0.0
1569, 0.0
1570, 0.0
1571, 0.0
1572, 0.0
1573, 0.0
1574, 0.0
1575, 0.0
1576, 0.0
1577, 0.0
1578, 0.0
1579, 0.0
1580, 0.0
1581, 0.0
1582, 0.0
1583, 0.0
1584, 0.0
1585, 0.0
1586, 0.0
1587, 0.0
1588, 0.0
1589, 0.0
1590, 0.0
1591, 0.0
1592, 0.0
1593, 0.0
1594, 0.0
1595, 0.0
1596, 0.0
1597, 0.0
1598, 0.0
1599, 0.0
