30, 0.0
31, 0.0
32, 0.0
33, 0.0
34, 0.0
35, 0.0
36, 0.0
37, 0.0
38, 0.0
39, 0.0
40, 0.0
41, 0.0
42, 0.0
43, 0.0
44, 0.0
45, 0.0
46, 0.0
47, 0.0
48, 0.0
49, 0.0
50, 0.0
51, 0.0
52, 0.0
53, 0.0
54, 0.0
55, 0.0
56, 0.0
57, 0.0
58, 0.0
59, 0.0
60, 0.0
61, 0.0
62, 0.0
63, 0.0
64, 0.0
65, 0.0
66, 0.0
67, 0.0
68, 0.0
69, 0.0
70, 0.0
71, 0.0
72, 0.0
73, 0.0
74, 0.0
75, 0.0
76, 0.0
77, 0.0
78, 0.0
79, 0.0
80, 0.0
81, 0.0
82, 0.0
83, 0.0
84, 0.0
85, 0.0
86, 0.0
87, 0.0
88, 0.0
89, 0.0
90.0, 0.00016986424957035032
91.0, 0.005830353192343359
92.0, 0.019725278025089554
93.0, 0.03690915753593058
94.0, 0.03598480503277929
95.0, 0.03000806040498496
96.0, 0.028010725205018315
97.0, 0.0272147638836291
98.0, 0.026314451449472965
99.0, 0.019137086149383115
100.0, 0.013881550075328928
101.0, 0.013254818800267989
102.0, 0.007021191882264619
103.0, 0.0011286600977941166
104.0, 0.0023338881762983645
105.0, 0.0029665774757476
106.0, 0.0010768532102954493
107.0, 0.007741012392939894
108.0, 0.01832265499454462
109.0, 0.027913572378242157
110.0, 0.025668107260088446
111.0, 0.023676154471228738
112.0, 0.025383717622869555
113.0, 0.03058520872029122
114.0, 0.03653985939151993
115.0, 0.04325811285244169
116.0, 0.051990888247719115
117.0, 0.060049267780079955
118.0, 0.06147202545287647
119.0, 0.06889210599479006
120.0, 0.07192767541608674
121.0, 0.0710997178577879
122.0, 0.07559237754396886
123.0, 0.08096860908879293
124.0, 0.09300057880680343
125.0, 0.10245721884085478
126.0, 0.09983557190825713
127.0, 0.10189288233012614
128.0, 0.10278603372427747
129.0, 0.10427522820101251
130.0, 0.10778082674061977
131.0, 0.10811209237537224
132.0, 0.10627920150827432
133.0, 0.09779015776412796
134.0, 0.0840083425280948
135.0, 0.07294287758227476
136.0, 0.06033449165564109
137.0, 0.050259128602736354
138.0, 0.04348414198751227
139.0, 0.038050378323218365
140.0, 0.03951323261396259
141.0, 0.037405634061540925
142.0, 0.030847104511987043
143.0, 0.02373985945431122
144.0, 0.020045564865496232
145.0, 0.017920421015131086
146.0, 0.016650641883179957
147.0, 0.01602859511469381
148.0, 0.016659094931033635
149.0, 0.015008681549617809
150.0, 0.012863177231740559
151.0, 0.011632148592675456
152.0, 0.011947693380181031
153.0, 0.01256474108261042
154.0, 0.011333518710661048
155.0, 0.01054315161475652
156.0, 0.012394634160287235
157.0, 0.011078381049768398
158.0, 0.008330237590852961
159.0, 0.006071792634193311
160.0, 0.005025437121746453
161.0, 0.004643461056855352
162.0, 0.004419684022880024
163.0, 0.004827178579619089
164.0, 0.005798224727411035
165.0, 0.006327013256135376
166.0, 0.006365229830886873
167.0, 0.004902648299085743
168.0, 0.002881014415228586
169.0, 0.0020982752216374165
170.0, 0.003937480707091995
171.0, 0.004981660802726202
172.0, 0.005602523814836748
173.0, 0.005850494526920709
174.0, 0.004481045260645819
175.0, 0.004559868601622228
176.0, 0.005208149100419724
177.0, 0.005417594911290517
178.0, 0.005386482414042939
179.0, 0.007689069376457722
180.0, 0.007879980821492868
181.0, 0.006757588684953104
182.0, 0.006445319482534159
183.0, 0.007274509569334921
184.0, 0.008758125602536559
185.0, 0.009001330976266502
186.0, 0.008908285731219354
187.0, 0.011377493521897401
188.0, 0.01352773081194106
189.0, 0.01382153369538216
190.0, 0.013526651345455354
191.0, 0.014420634173037615
192.0, 0.016188713213986454
193.0, 0.01492702921168212
194.0, 0.013178769770583338
195.0, 0.013699338244793123
196.0, 0.016836561284130965
197.0, 0.018483350817406097
198.0, 0.018875707423523656
199.0, 0.020003371964877788
200.0, 0.023011861395469353
201.0, 0.02420373393257791
202.0, 0.024658415776710893
203.0, 0.026019457545590943
204.0, 0.028952052402761913
205.0, 0.032684137385630904
206.0, 0.03427799686664268
207.0, 0.03693707767806552
208.0, 0.03980801163097277
209.0, 0.039525086732987054
210.0, 0.042388369007592915
211.0, 0.04451684981694449
212.0, 0.046119999796836834
213.0, 0.0479485938771924
214.0, 0.04743825769128835
215.0, 0.04778782682053913
216.0, 0.04735917103853061
217.0, 0.04530979370517419
218.0, 0.042481353518600294
219.0, 0.04156138177555842
220.0, 0.04029930662822788
221.0, 0.03836967756459702
222.0, 0.036597586350472194
223.0, 0.036776594001128496
224.0, 0.03443800322137558
225.0, 0.03066532957847637
226.0, 0.026722683049237285
227.0, 0.02272853336186868
228.0, 0.018763554528574273
229.0, 0.012778513059742761
230.0, 0.007116288134891848
231.0, 0.003968079127307162
232.0, 0.0008406098940904195
233.0, 0.0011687208136557637
234.0, 0.0017797427723493509
235.0, 0.0018623537829121786
236.0, 0.0028596431729322365
237.0, 0.002649397636745913
238.0, 0.001226434378141322
239.0, 0.0005301770553943579
240.0, 0.0017796767517916376
241.0, 0.00247415845630608
242.0, 0.003350603710212332
243.0, 0.003972881960511407
244.0, 0.004702879198335081
245.0, 0.006087253908459854
246.0, 0.0060389118393000376
247.0, 0.005967500196612237
248.0, 0.0057158192772515624
249.0, 0.005366749787158927
250.0, 0.00724084833650988
251.0, 0.008916171125189767
252.0, 0.009972961525676033
253.0, 0.010415808763898008
254.0, 0.010932002873251202
255.0, 0.012823828392154131
256.0, 0.015262521696563218
257.0, 0.017866424938483123
258.0, 0.021005940745118957
259.0, 0.025726626323300552
260.0, 0.027996900483810573
261.0, 0.02875918984566419
262.0, 0.029844768401745138
263.0, 0.03258966818384608
264.0, 0.03653303752144169
265.0, 0.042592517880410456
266.0, 0.04707882126840919
267.0, 0.05056302536769873
268.0, 0.057640061526189244
269.0, 0.06344544107844814
270.0, 0.07035017266850303
271.0, 0.07821115092746356
272.0, 0.08542540053847393
273.0, 0.09032176722715461
274.0, 0.09503683579670488
275.0, 0.09675633924376849
276.0, 0.09658371533851211
277.0, 0.09773428438044934
278.0, 0.09834313457731941
279.0, 0.0973659351734761
280.0, 0.09651345102630852
281.0, 0.09447379771195769
282.0, 0.08651397487006135
283.0, 0.07360427599247006
284.0, 0.05972459179043868
285.0, 0.04732998914987381
286.0, 0.0379451100824434
287.0, 0.034408073506125486
288.0, 0.02864468434676857
289.0, 0.02550894182326994
290.0, 0.025111392727523763
291.0, 0.022988766699755307
292.0, 0.021119919281866958
293.0, 0.01948022465148913
294.0, 0.01583366304050322
295.0, 0.010511626934022012
296.0, 0.006825555374265298
297.0, 0.006755097289451283
298.0, 0.004645184238206469
299.0, 0.0023826109883870574
300.0, 0.002064868293468952
301.0, 0.0007931011137726591
302.0, 0.002879435279813187
303.0, 0.0035975394446939083
304.0, 0.004087631353294966
305.0, 0.0054046867700970605
306.0, 0.006058570592825566
307.0, 0.005433352782942378
308.0, 0.005264532285444597
309.0, 0.005209361088946491
310.0, 0.0036246398929297334
311.0, 0.0037158561841274967
312.0, 0.00403543147396306
313.0, 0.004137725741030261
314.0, 0.0039414697568367725
315.0, 0.003104502986790519
316.0, 0.0022862841773199937
317.0, 0.0012411109650879066
318.0, 0.0006804318989036832
319.0, 0.0009257038702796484
320.0, 0.00040254913443734736
321.0, 0.0030990584484403456
322.0, 0.005597971405415804
323.0, 0.007640970915836624
324.0, 0.011149535547925336
325.0, 0.014448966491922
326.0, 0.019916459123303816
327.0, 0.02560542086832534
328.0, 0.031998248802943365
329.0, 0.04227989951955471
330.0, 0.05273300958921559
331.0, 0.06532697433262355
332.0, 0.07847305910414032
333.0, 0.09075302920571784
334.0, 0.1027683639203217
335.0, 0.11449851390393458
336.0, 0.12715667705562161
337.0, 0.1409722599276521
338.0, 0.15611922544378445
339.0, 0.1737325225312095
340.0, 0.1953762394263601
341.0, 0.22283249425059642
342.0, 0.25596677724507844
343.0, 0.29413180452666876
344.0, 0.33687419352967357
345.0, 0.3826237014701117
346.0, 0.4243970825168826
347.0, 0.4515095823831717
348.0, 0.451474221547319
349.0, 0.41233268397775824
350.0, 0.33174222827384814
351.0, 0.2390964235563111
352.0, 0.1588817733057441
353.0, 0.10166436587505392
354.0, 0.06626220453671378
355.0, 0.04561120450130833
356.0, 0.03191321413040207
357.0, 0.02264195252608941
358.0, 0.019921947670839903
359.0, 0.016705603648393505
360.0, 0.01603793255375028
361.0, 0.01664719809129776
362.0, 0.017393783664566467
363.0, 0.019364177246766222
364.0, 0.0195540072741316
365.0, 0.019750960379297404
366.0, 0.020311528913101905
367.0, 0.020644201507305397
368.0, 0.019682221304890026
369.0, 0.021050732606444928
370.0, 0.024487062502120002
371.0, 0.029436844402063306
372.0, 0.035995019552615616
373.0, 0.04610358799820651
374.0, 0.05834613460674468
375.0, 0.07176844006491422
376.0, 0.08774746206260862
377.0, 0.1078616710802351
378.0, 0.1311081248999065
379.0, 0.15522618905040775
380.0, 0.1817767938072544
381.0, 0.21227816190356374
382.0, 0.24676007940944936
383.0, 0.2838906141036405
384.0, 0.3251857634297338
385.0, 0.36677801396801596
386.0, 0.41040668363684724
387.0, 0.4595451748399894
388.0, 0.5108448292270703
389.0, 0.5636085427268542
390.0, 0.6212064169279561
391.0, 0.6830562816162274
392.0, 0.7459124360587406
393.0, 0.8065665241782285
394.0, 0.8650942767645664
395.0, 0.9198108577004418
396.0, 0.9637417405005474
397.0, 0.9901566662514408
398.0, 0.9994478460506023
399.0, 0.9850267815452896
400.0, 0.9489037184498088
401.0, 0.8942020815878774
402.0, 0.8247812001359225
403.0, 0.7440904482286759
404.0, 0.6619391896115457
405.0, 0.583202648256483
406.0, 0.5099809027604196
407.0, 0.442824825165536
408.0, 0.3841608718000634
409.0, 0.3349936630604496
410.0, 0.29183786202931966
411.0, 0.25460676101744767
412.0, 0.22489562966230642
413.0, 0.20152032182631277
414.0, 0.18091490531677706
415.0, 0.1638819448022272
416.0, 0.15023701020900088
417.0, 0.1394546376103187
418.0, 0.13253834815387547
419.0, 0.12562995484169429
420.0, 0.12245045529757692
421.0, 0.12046859786033605
422.0, 0.11674613962410092
423.0, 0.11561108747921936
424.0, 0.11394105164373752
425.0, 0.11500578210478415
426.0, 0.11771564497516493
427.0, 0.12069686671655926
428.0, 0.12680515791483146
429.0, 0.13244261667315796
430.0, 0.13798501755427667
431.0, 0.14510809752112955
432.0, 0.15313017570148285
433.0, 0.15887954557108885
434.0, 0.1646603489338668
435.0, 0.1756783518948555
436.0, 0.18760458259594856
437.0, 0.19910680135146813
438.0, 0.21625841371353047
439.0, 0.23588702770161646
440.0, 0.2613432208525883
441.0, 0.28992868075778255
442.0, 0.3162705257986418
443.0, 0.33664077379022816
444.0, 0.352976337184933
445.0, 0.35921472128255544
446.0, 0.34927362145977786
447.0, 0.3237351799912561
448.0, 0.2873185645444657
449.0, 0.24604454971724676
450.0, 0.21039983989990454
451.0, 0.18519807945388725
452.0, 0.17066535424930065
453.0, 0.16407058695101404
454.0, 0.16396781201203856
455.0, 0.1666198352892131
456.0, 0.16928133809327184
457.0, 0.1685026298334093
458.0, 0.16200755309982007
459.0, 0.14966573640983877
460.0, 0.1291480917314321
461.0, 0.10418374826041564
462.0, 0.07973118289301463
463.0, 0.059128977473687165
464.0, 0.042545619503803256
465.0, 0.031420924624696964
466.0, 0.021567243732551294
467.0, 0.014389655103831549
468.0, 0.01074167186380004
469.0, 0.007314493218417827
470.0, 0.0021646453889764216
471.0, 0.0005658633406699315
472.0, 0.0007388736157458684
473.0, 0.00039584974288592144
474.0, 0.0031229833353315878
475.0, 0.00503031762331555
476.0, 0.0063355521419608185
477.0, 0.00675979841833031
478.0, 0.007177440014776226
479.0, 0.008139706856183945
480.0, 0.007594662212708127
481.0, 0.006327088145494665
482.0, 0.004693202177674404
483.0, 0.003915995383734249
484.0, 0.0034094178363497335
485.0, 0.0004647915611487348
486.0, 0.0016554215324905376
487.0, 0.0007222839412965283
488.0, 0.0001455279552446462
489.0, 0.0004449681087245362
490.0, 0.002310914675131578
491.0, 0.002239460439373734
492.0, 0.002247470807600639
493.0, 0.0037684539236343133
494.0, 0.0047815783633392075
495.0, 0.0031275778266873903
496.0, 0.0016573808962929662
497.0, 0.0002984862455982427
498.0, 0.0005335003349315007
499.0, 0.0007097934714534632
500.0, 0.00019952022845775728
501.0, 0.0016829358390076648
502.0, 0.0020285373646374617
503.0, 0.0016430615588308342
504.0, 0.0023133483736175065
505.0, 0.003021006140440996
506.0, 0.001162354781400837
507.0, 0.0007882748948012795
508.0, 0.0022244439443889863
509.0, 0.0037017281827993807
510.0, 0.004884227558323781
511.0, 0.005891624453597165
512.0, 0.005311203070169517
513.0, 0.004541137348412849
514.0, 0.005699019337725046
515.0, 0.006471411126461602
516.0, 0.0066557703657304425
517.0, 0.009788715264545987
518.0, 0.009777280738183102
519.0, 0.008435306082134919
520.0, 0.007949215826736869
521.0, 0.008467793422132209
522.0, 0.008840321587588571
523.0, 0.008824749676146347
524.0, 0.009198463603192472
525.0, 0.01101556231825792
526.0, 0.012297044673927868
527.0, 0.011597402243200404
528.0, 0.010714561301468696
529.0, 0.011626502486566784
530.0, 0.012595779701143815
531.0, 0.015077543779365795
532.0, 0.017132265160878176
533.0, 0.015958030053564647
534.0, 0.018312571829421156
535.0, 0.02023482914474707
536.0, 0.01992267870831413
537.0, 0.01929958491778119
538.0, 0.01991833529993017
539.0, 0.02024001050903716
540.0, 0.023031837356105606
541.0, 0.024503900162706618
542.0, 0.02525540100639128
543.0, 0.027765661765106683
544.0, 0.031485481280473133
545.0, 0.032102622828878435
546.0, 0.03599562863808608
547.0, 0.03761777351527769
548.0, 0.0398693370764194
549.0, 0.04343839980655956
550.0, 0.04014620410682504
551.0, 0.039005916648178734
552.0, 0.03647582905150577
553.0, 0.034260481156724545
554.0, 0.030856490325751995
555.0, 0.02369117289387747
556.0, 0.018578782234628135
557.0, 0.017293222143316658
558.0, 0.016820297883584797
559.0, 0.014448064873377952
560.0, 0.0117913882033446
561.0, 0.013426194331182216
562.0, 0.014297753896180519
563.0, 0.013131183886020477
564.0, 0.01162362432286767
565.0, 0.01096192846748402
566.0, 0.01093275697933328
567.0, 0.010624792332209056
568.0, 0.0123352551936372
569.0, 0.014844112849925218
570.0, 0.015883273663171188
571.0, 0.015264821080383703
572.0, 0.01559340325853928
573.0, 0.018799577901921296
574.0, 0.02249717577062437
575.0, 0.024984296775472148
576.0, 0.025261195352005855
577.0, 0.025136358523580534
578.0, 0.028090433950840696
579.0, 0.032946055023717585
580.0, 0.036868146727760585
581.0, 0.039228718364469915
582.0, 0.0415105526410451
583.0, 0.044553725505974286
584.0, 0.046768722064831854
585.0, 0.05223072719042244
586.0, 0.056517676987816845
587.0, 0.05825929651559255
588.0, 0.06005247191011872
589.0, 0.06452639792525473
590.0, 0.06846805885919942
591.0, 0.07119076444910136
592.0, 0.07299971214854536
593.0, 0.07484301865612188
594.0, 0.07661212635073142
595.0, 0.07775135282763881
596.0, 0.08087330833022005
597.0, 0.08000402431441994
598.0, 0.07983686043358257
599.0, 0.0795115284038858
600.0, 0.07712095208656398
601.0, 0.07467559433801221
602.0, 0.07001307295241935
603.0, 0.06628510492014238
604.0, 0.06305375002999934
605.0, 0.05955101753201884
606.0, 0.05527949644380941
607.0, 0.04994410311737763
608.0, 0.046631743477938165
609.0, 0.04323364806366334
610.0, 0.03861850241202703
611.0, 0.03406429161634186
612.0, 0.03079913440401079
613.0, 0.0271085275348946
614.0, 0.02523385304086403
615.0, 0.02086497209409868
616.0, 0.016737598471054594
617.0, 0.014299817649842728
618.0, 0.011435594393354348
619.0, 0.008943437715376049
620.0, 0.008038201958041813
621.0, 0.005419502830842032
622.0, 0.004157157152296756
623.0, 0.0036103928734947514
624.0, 0.000547784832948484
625.0, 0.0030437311098385177
626.0, 0.0005666543936133416
627.0, 0.0026269386587907573
628.0, 0.0022100000262695162
629.0, 0.0016000348009620048
630.0, 0.002599890375415561
631.0, 0.002386979387560813
632.0, 0.00396175222696508
633.0, 0.0021792164733386637
634.0, 0.0011502769307671706
635.0, 0.0029707895581995982
636.0, 0.002670182480438149
637.0, 0.0017649554183771228
638.0, 0.0011983989199287034
639.0, 0.001644050208964954
640.0, 0.0026236653143596167
641.0, 0.0015969351773656815
642.0, 0.0024504999943492024
643.0, 0.001087601947302025
644.0, 0.0024114291426153415
645.0, 0.0042120922051383045
646.0, 0.005063136644207802
647.0, 0.005897196527842808
648.0, 0.007422455606996079
649.0, 0.009081332834665862
650.0, 0.009107331055349818
651.0, 0.010655465194227762
652.0, 0.01344561344082857
653.0, 0.015848462116328416
654.0, 0.017435433122492395
655.0, 0.017494953762421418
656.0, 0.01674746804106435
657.0, 0.018679865792935842
658.0, 0.021659736624866376
659.0, 0.023403542619294147
660.0, 0.024369170735430025
661.0, 0.02525343980531544
662.0, 0.028368131200709457
663.0, 0.03205806493499391
664.0, 0.033583854729487876
665.0, 0.03449194479202854
666.0, 0.03848009841201995
667.0, 0.040024527955844075
668.0, 0.041881476203568226
669.0, 0.04469858702756301
670.0, 0.04749197327148391
671.0, 0.04903689575036255
672.0, 0.04983787279628278
673.0, 0.05264207548870256
674.0, 0.055685684712119654
675.0, 0.05830192315481376
676.0, 0.06060649894585192
677.0, 0.062364736319128825
678.0, 0.06321664391394344
679.0, 0.06357860636904801
680.0, 0.06490997396459806
681.0, 0.06969388031467906
682.0, 0.07195643999474333
683.0, 0.07132813387180344
684.0, 0.07187185294489937
685.0, 0.07269819136700455
686.0, 0.0720450025268579
687.0, 0.06983664177592482
688.0, 0.07145924386566564
689.0, 0.07338215048702623
690.0, 0.07119897609891324
691.0, 0.06967984796671539
692.0, 0.06850351625725365
693.0, 0.06847977063095718
694.0, 0.0676527319673592
695.0, 0.06791011566418753
696.0, 0.0694001902257087
697.0, 0.06873078561256092
698.0, 0.0694481502983698
699.0, 0.06838561163079934
700.0, 0.06796958924815075
701.0, 0.06808816359792996
702.0, 0.06796849671331197
703.0, 0.06666983262314752
704.0, 0.061078382583692234
705.0, 0.06017825358121622
706.0, 0.05835262930101405
707.0, 0.054938160244185776
708.0, 0.051200296053875216
709.0, 0.047720930377596095
710.0, 0.043689038466129204
711.0, 0.04014823637934872
712.0, 0.036800841176680546
713.0, 0.03274978984285216
714.0, 0.03020678896640944
715.0, 0.029646924975557976
716.0, 0.027787673759766568
717.0, 0.022328136717150532
718.0, 0.019916568096934775
719.0, 0.018927289033003322
720.0, 0.019475075818372423
721.0, 0.019150618524893553
722.0, 0.01697651954516227
723.0, 0.02052558919920935
724.0, 0.019389557237980144
725.0, 0.022127692236014986
726.0, 0.024199263047051996
727.0, 0.02421961412603407
728.0, 0.02447712517655583
729.0, 0.024832967014530014
730.0, 0.027076967709487212
731.0, 0.030053222438572173
732.0, 0.03228591873941045
733.0, 0.03444562075973821
734.0, 0.036145297936794635
735.0, 0.03617467044439079
736.0, 0.03732679587787718
737.0, 0.0415142100957723
738.0, 0.04157911587088754
739.0, 0.040170593747331756
740.0, 0.03953321434905627
741.0, 0.03861357045775817
742.0, 0.03693952433923704
743.0, 0.03246661773533934
744.0, 0.03021514834037739
745.0, 0.028821967173597998
746.0, 0.026562360432011534
747.0, 0.02513028857769303
748.0, 0.02586732392428862
749.0, 0.024572319046276436
750.0, 0.02372685269027509
751.0, 0.02811596529989245
752.0, 0.028832073551399922
753.0, 0.026407081350821926
754.0, 0.026908880707888234
755.0, 0.02908606361696265
756.0, 0.029026136217811742
757.0, 0.031987734504001865
758.0, 0.03597012669582618
759.0, 0.03957230614807956
760.0, 0.04324225129230295
761.0, 0.04757124556920195
762.0, 0.05218080753809219
763.0, 0.058465758210262536
764.0, 0.06165521643715308
765.0, 0.06509453333184687
766.0, 0.07035275337052498
767.0, 0.07648464020008625
768.0, 0.0818255107899564
769.0, 0.08416822888162896
770.0, 0.08284707280925062
771.0, 0.08513043741639659
772.0, 0.08692558249003084
773.0, 0.08483535697594094
774.0, 0.0800938336489147
775.0, 0.07531968885997069
776.0, 0.0690235944487827
777.0, 0.0610214161934095
778.0, 0.05436816342172064
779.0, 0.0480268265342356
780.0, 0.040890643056325726
781.0, 0.033823533056763576
782.0, 0.028025922011098037
783.0, 0.0246164897316613
784.0, 0.019638923478185
785.0, 0.017515600600604076
786.0, 0.01410995530931165
787.0, 0.009565527094262205
788.0, 0.008013690720089546
789.0, 0.006402102103553314
790.0, 0.0033119357019592865
791.0, 0.0006942862933828829
792.0, 0.0014196996842926585
793.0, 0.0020493664884829463
794.0, 0.003551179265573508
795.0, 0.004027744423808828
796.0, 0.004962423456869704
797.0, 0.007299986711653165
798.0, 0.006348060581263144
799.0, 0.0034778321306714838
800.0, 0.001021018491024036
801.0, 0.0011198433559608336
802.0, 0.003279649308731045
803.0, 0.0022941682267211523
804.0, 0.0008239184336576806
805.0, 0.0005072368687720034
806.0, 0.001792658109244016
807.0, 0.003711486436630247
808.0, 0.0050376251010485085
809.0, 0.004272698076338764
810.0, 0.00419339872234096
811.0, 0.004838135547265605
812.0, 0.007150402097081818
813.0, 0.00772555437385298
814.0, 0.00785572981378598
815.0, 0.007934175690363006
816.0, 0.007068473130197351
817.0, 0.009688917409722227
818.0, 0.011594546791558854
819.0, 0.013119410365240725
820.0, 0.01535637348319248
821.0, 0.02003762158410816
822.0, 0.022340882456162784
823.0, 0.018782691177759388
824.0, 0.02071124447265591
825.0, 0.021681314821380172
826.0, 0.02186869014283287
827.0, 0.022184714845434057
828.0, 0.025446961549453025
829.0, 0.03051661082245223
830.0, 0.032876625515004615
831.0, 0.03266892965078881
832.0, 0.03333466650504836
833.0, 0.03420775809107556
834.0, 0.03678669495134085
835.0, 0.040572023915851935
836.0, 0.04383467745164356
837.0, 0.046617614216727055
838.0, 0.05138460252506533
839.0, 0.05832631387188093
840.0, 0.06241568976008422
841.0, 0.06663543877614564
842.0, 0.0696771754033135
843.0, 0.0718586151135973
844.0, 0.07477934587210196
845.0, 0.07705261603213247
846.0, 0.077820069188917
847.0, 0.07929886882406281
848.0, 0.07840152554450482
849.0, 0.07778747651841507
850.0, 0.07642411398553905
851.0, 0.07428551649283599
852.0, 0.07461702546680887
853.0, 0.07348812073231287
854.0, 0.07110032851428212
855.0, 0.06749876452615583
856.0, 0.06627439203082523
857.0, 0.06542037789934475
858.0, 0.06379564697616597
859.0, 0.06330568960172384
860.0, 0.06200367344691048
861.0, 0.06074165109605625
862.0, 0.05931044702689033
863.0, 0.05718688059236224
864.0, 0.054109634297391976
865.0, 0.05292597231813736
866.0, 0.053924410297918626
867.0, 0.05099289572515589
868.0, 0.04779009090859177
869.0, 0.04957193467789829
870.0, 0.05084248023136333
871.0, 0.05013701063243086
872.0, 0.05186819760488541
873.0, 0.05332115300532933
874.0, 0.04877616639116744
875.0, 0.0481891183221623
876.0, 0.04855989208640613
877.0, 0.0479580209131562
878.0, 0.04689943288494358
879.0, 0.04621822285236252
880.0, 0.04523914275403968
881.0, 0.043762261966450486
882.0, 0.04401535079441081
883.0, 0.045084165162852324
884.0, 0.043201645438555834
885.0, 0.04356442931760857
886.0, 0.042897145130218875
887.0, 0.04364639981292725
888.0, 0.04690527006625503
889.0, 0.04800013742766596
890.0, 0.04773245492323111
891.0, 0.050921115193670936
892.0, 0.05058116418867289
893.0, 0.05038545588169802
894.0, 0.05358571487022092
895.0, 0.054006846258917676
896.0, 0.049064993337024465
897.0, 0.04762463372297424
898.0, 0.05072718824955457
899.0, 0.05013946872131199
900.0, 0.046359056241439565
901.0, 0.04324848079558154
902.0, 0.04289480193676658
903.0, 0.04111788002930564
904.0, 0.03701124766755507
905.0, 0.037918134568615806
906.0, 0.03563789561265077
907.0, 0.03133004350387006
908.0, 0.030128629889292862
909.0, 0.028287366039555516
910.0, 0.02570324638612529
911.0, 0.023769211912097778
912.0, 0.021783523212072525
913.0, 0.019421724953413856
914.0, 0.01778123184403338
915.0, 0.016349043805364973
916.0, 0.014951347539362078
917.0, 0.014367100824729402
918.0, 0.012451514541367942
919.0, 0.010701738697712054
920.0, 0.012079629164193612
921.0, 0.009728146981578555
922.0, 0.008613697180148585
923.0, 0.009381258332681905
924.0, 0.00863331499865651
925.0, 0.00834483435224806
926.0, 0.0071335367873923035
927.0, 0.004903237858058442
928.0, 0.0054379744931330265
929.0, 0.005930095550734433
930.0, 0.003430967089586268
931.0, 0.00041919268088041307
932.0, 0.0015448437392572242
933.0, 0.0020946616236199316
934.0, 0.0023821627620083086
935.0, 0.0024956406119668604
936.0, 0.0016129746705613654
937.0, 0.0012153751261804954
938.0, 0.0019451663117211113
939.0, 0.00041413352263861133
940.0, 0.0009154205108900602
941.0, 0.001057811302273347
942.0, 0.0019471491213361714
943.0, 0.0010931740090075535
944.0, 0.0019284700811551493
945.0, 0.005271582219949203
946.0, 0.003919998724040117
947.0, 0.0014767273704736502
948.0, 0.0001996751911769083
949.0, 0.002622756231130597
950.0, 0.0027689185132515424
951.0, 0.0008882409881838301
952.0, 0.0029059765846467804
953.0, 0.001096227251665853
954.0, 0.0015017097844800668
955.0, 0.0008968842812283939
956.0, 0.0011185561615373887
957.0, 0.002479262426833853
958.0, 0.003718736901770831
959.0, 0.0036006301958530027
960.0, 0.0037191352002751616
961.0, 0.0033282798019677435
962.0, 0.00020794162588639922
963.0, 0.001339733446671592
964.0, 0.0031561932397415737
965.0, 0.003680002119051878
966.0, 0.0032718039703006326
967.0, 0.004313479352069214
968.0, 0.006175118924659458
969.0, 0.006199218442436337
970.0, 0.0057760524301542085
971.0, 0.0034776539431822457
972.0, 0.0035290766377685536
973.0, 0.005065026672867152
974.0, 0.006030229103573238
975.0, 0.0058743964325275125
976.0, 0.006187670667881765
977.0, 0.007386953827748321
978.0, 0.006690356319629338
979.0, 0.008150278233213985
980.0, 0.008997572089753266
981.0, 0.01019479634781047
982.0, 0.009132395470020092
983.0, 0.009113018223806883
984.0, 0.011444434245660245
985.0, 0.013239127085207133
986.0, 0.013591969747137052
987.0, 0.01371172938078655
988.0, 0.01447218608520525
989.0, 0.015346882466068216
990.0, 0.013377710959194869
991.0, 0.013924844084614146
992.0, 0.01456574681341202
993.0, 0.013009440775276887
994.0, 0.012854341211725165
995.0, 0.013086999381319098
996.0, 0.013313608408102019
997.0, 0.013922017006212031
998.0, 0.014548296921434768
999.0, 0.017553897465705345
1000.0, 0.019059271080150247
1001.0, 0.018487424209026097
1002.0, 0.018313589598706298
1003.0, 0.01870531308906744
1004.0, 0.01921064065653507
1005.0, 0.01858338957963698
1006.0, 0.01852955271405008
1007.0, 0.02022732284241792
1008.0, 0.021750721721296128
1009.0, 0.025099373921396325
1010.0, 0.028247512472959632
1011.0, 0.028796319976236606
1012.0, 0.030209857826043737
1013.0, 0.032650171899660255
1014.0, 0.03553508889162601
1015.0, 0.0398873693338281
1016.0, 0.040747808796078144
1017.0, 0.042820066490230395
1018.0, 0.04708381653826777
1019.0, 0.04940551180213898
1020.0, 0.049792523882044554
1021.0, 0.053283797435236153
1022.0, 0.05764706820904965
1023.0, 0.06035187026769426
1024.0, 0.06337666624815619
1025.0, 0.06750730121812722
1026.0, 0.07527636640411421
1027.0, 0.08078451824726303
1028.0, 0.0844045739903777
1029.0, 0.08879618517916738
1030.0, 0.09117838258482608
1031.0, 0.09508171205109084
1032.0, 0.09836804989615792
1033.0, 0.10127184369697893
1034.0, 0.10951033354727589
1035.0, 0.11439063624644626
1036.0, 0.11796262233943819
1037.0, 0.12427599007172924
1038.0, 0.13098925797188365
1039.0, 0.1369646807590393
1040.0, 0.1458179175792089
1041.0, 0.15691209433509387
1042.0, 0.16586008285748313
1043.0, 0.1753835903627659
1044.0, 0.18761382219594158
1045.0, 0.19797431122577014
1046.0, 0.20525956468057938
1047.0, 0.21421690232162002
1048.0, 0.22717396825384423
1049.0, 0.23943188342125724
1050.0, 0.24932223523554795
1051.0, 0.2606438844977968
1052.0, 0.266702605954906
1053.0, 0.27071039348359477
1054.0, 0.2734192667823305
1055.0, 0.27292721384214685
1056.0, 0.2690401939325213
1057.0, 0.2603250040353239
1058.0, 0.24589836418066519
1059.0, 0.23529625490907127
1060.0, 0.22122649029551286
1061.0, 0.20436239984291293
1062.0, 0.1908074905292883
1063.0, 0.17387399856036898
1064.0, 0.15745182264370383
1065.0, 0.14115294137884127
1066.0, 0.12527192176166482
1067.0, 0.11348834193683158
1068.0, 0.10109389425193974
1069.0, 0.08883473080062727
1070.0, 0.07746279516362886
1071.0, 0.0661122789935193
1072.0, 0.05574420668982196
1073.0, 0.04693903727498736
1074.0, 0.04150958076676344
1075.0, 0.038706322985925724
1076.0, 0.03434769484051195
1077.0, 0.02708798601172858
1078.0, 0.02231847254008218
1079.0, 0.020005952064304333
1080.0, 0.014121858206333817
1081.0, 0.012182517605872143
1082.0, 0.010462463355952356
1083.0, 0.006982473019304049
1084.0, 0.005698342884890479
1085.0, 0.00728975583952654
1086.0, 0.005717347255942855
1087.0, 0.0012880574106548053
1088.0, 0.005236686543013073
1089.0, 0.0031570940814652777
1090.0, 0.001309491498423846
1091.0, 0.002367904428862047
1092.0, 0.0011928442176777543
1093.0, 0.00012904874123217014
1094.0, 0.0004985941985968052
1095.0, 0.000254222263253781
1096.0, 0.0014100572771457145
1097.0, 0.0013911540322985709
1098.0, 0.0005459726316667879
1099.0, 0.0016113252359930533
1100.0, 0.002869521117935888
1101.0, 0.0039321674814334065
1102.0, 0.0016938574812554
1103.0, 0.0016864115174358638
1104.0, 0.0007385715808910106
1105.0, 0.0011957225652824315
1106.0, 0.0009446101520552498
1107.0, 0.0016561269935797727
1108.0, 0.0005614689399955478
1109.0, 0.0036602122408626375
1110.0, 0.004249342685849393
1111.0, 0.0071388994475498615
1112.0, 0.006198020745824424
1113.0, 0.004260704359931248
1114.0, 0.004768629305674387
1115.0, 0.005971298323930524
1116.0, 0.004731435104547279
1117.0, 0.0025440365794387083
1118.0, 0.003224833997597009
1119.0, 0.00448197544430772
1120.0, 0.005179819636186342
1121.0, 0.005263014214731203
1122.0, 0.006342523488199075
1123.0, 0.003620454668957487
1124.0, 0.0028901813892567504
1125.0, 0.0014861646114082436
1126.0, 0.0006665928526267982
1127.0, 0.00402478187313144
1128.0, 0.0037768958807175667
1129.0, 0.0006060872602836257
1130.0, 0.0008157402634082733
1131.0, 0.00016354821590520519
1132.0, 0.0009038458411149001
1133.0, 0.0014958364523134828
1134.0, 0.0027088549608611104
1135.0, 0.004582248612969313
1136.0, 0.004038963190016186
1137.0, 0.0052771369427185326
1138.0, 0.0056960068009189145
1139.0, 0.004835730960614647
1140.0, 0.0054636068175382855
1141.0, 0.00753010261499288
1142.0, 0.00738420939760099
1143.0, 0.005160214366079006
1144.0, 0.005936788391306369
1145.0, 0.005770960293524835
1146.0, 0.005215357751710655
1147.0, 0.0023090809427607373
1148.0, 0.0011968043836886573
1149.0, 0.0007255949042394563
1150.0, 0.0039755695356452
1151.0, 0.0023134814476970106
1152.0, 0.006427992915974189
1153.0, 0.0035362612917022116
1154.0, 0.004506438904258538
1155.0, 0.0053658098532657385
1156.0, 0.005659896180583611
1157.0, 0.004570552942315579
1158.0, 0.0030635110786346
1159.0, 0.003015082775951103
1160.0, 0.002827389593904742
1161.0, 0.0013108470065501924
1162.0, 0.001445043806559937
1163.0, 0.0003164093198478397
1164.0, 0.0010614279160022929
1165.0, 0.0008260807177513806
1166.0, 0.0007637303127091749
1167.0, 0.00038363613623071776
1168.0, 0.0004449874830631939
1169.0, 0.0003384255565047556
1170.0, 0.0010530824381282697
1171.0, 0.0003625708181331261
1172.0, 0.0025028470772867815
1173.0, 0.0036816727873212256
1174.0, 0.00025611869135591214
1175.0, 0.0023751873295130097
1176.0, 0.0053693850862346236
1177.0, 0.005820462936730714
1178.0, 0.0043732747009328716
1179.0, 0.004271541166549923
1180.0, 0.005028456236737421
1181.0, 0.005859495296371523
1182.0, 0.006334016874135732
1183.0, 0.0061233858707201855
1184.0, 0.005991381891571542
1185.0, 0.0052977960046040355
1186.0, 0.007246597106303006
1187.0, 0.01109600295748024
1188.0, 0.009864069570600157
1189.0, 0.006874333147000621
1190.0, 0.006240793330156804
1191.0, 0.008759932060774136
1192.0, 0.01001363067562105
1193.0, 0.00854534704664083
1194.0, 0.007210449715421834
1195.0, 0.007370382614783597
1196.0, 0.008706609855749113
1197.0, 0.01037382085079347
1198.0, 0.008171927604697808
1199.0, 0.007476952090234494
1200.0, 0.0065199220159371804
1201.0, 0.0039234516671192154
1202.0, 0.006258599508090984
1203.0, 0.005978881222568191
1204.0, 0.005289043948459811
1205.0, 0.0064933129993163
1206.0, 0.007435453187944094
1207.0, 0.007717544811712884
1208.0, 0.006359804024448789
1209.0, 0.006997410297431568
1210.0, 0.007721452689801536
1211.0, 0.007907663708802743
1212.0, 0.005825452219543937
1213.0, 0.0033889197891990718
1214.0, 0.005381461527457458
1215.0, 0.005698500560445573
1216.0, 0.005900004614820508
1217.0, 0.006518758731522081
1218.0, 0.006430300784368232
1219.0, 0.0062505287946922295
1220.0, 0.006646895330342274
1221.0, 0.008104866484166928
1222.0, 0.005471355289710707
1223.0, 0.0058850281408459135
1224.0, 0.0055434236055251045
1225.0, 0.001852675468073805
1226.0, 0.0009780416105450414
1227.0, 0.0021552389734478474
1228.0, 0.0015937372814298003
1229.0, 0.0006208099749560052
1230.0, 0.00012030009991018272
1231.0, 0.0019926735352920164
1232.0, 0.0012186603779471225
1233.0, 0.0006842344932931951
1234.0, 0.0024035238953693614
1235.0, 0.0003913547958213293
1236.0, 0.0024250456571241804
1237.0, 0.003316570998908788
1238.0, 0.0007439326977362707
1239.0, 0.0010479835355753334
1240.0, 0.0030098247831698926
1241.0, 0.0043981015870497905
1242.0, 0.003574548006950338
1243.0, 0.004352258534929517
1244.0, 0.0049722520892439455
1245.0, 0.0033717265292875654
1246.0, 0.005267608983391657
1247.0, 0.005326281812952485
1248.0, 0.005305360408959352
1249.0, 0.007503406051743625
1250.0, 0.007113467733799517
1251.0, 0.009271777689044918
1252.0, 0.005574583427377084
1253.0, 0.006016103020811481
1254.0, 0.006328331790327477
1255.0, 0.007500902690033282
1256.0, 0.008824294596568904
1257.0, 0.010468781922765836
1258.0, 0.009738035007101235
1259.0, 0.0052326915489285634
1260.0, 0.006274480588276335
1261.0, 0.005611170315568425
1262.0, 0.006740083819020323
1263.0, 0.005225986452984325
1264.0, 0.005464806559100146
1265.0, 0.0015830445341396965
1266.0, 0.00222013958062464
1267.0, 0.0030055511974804348
1268.0, 0.0032092808328324264
1269.0, 0.0034964314972641313
1270.0, 0.0037550385982272876
1271.0, 0.002909129594863677
1272.0, 0.0021174299257399765
1273.0, 0.0029415826215140163
1274.0, 0.0038187312396817438
1275.0, 0.0032871927326253037
1276.0, 0.000899273204199685
1277.0, 0.0008325775498410827
1278.0, 0.0011884791643151798
1279.0, 0.0022803797032787294
1280.0, 0.000362579571421286
1281.0, 0.00048728081075531616
1282.0, 0.0014673477715562834
1283.0, 0.003001853568736101
1284.0, 0.0027914287383177167
1285.0, 0.0015331584964332799
1286.0, 0.002860479049268735
1287.0, 0.005611994041841286
1288.0, 0.005088025523616327
1289.0, 0.003492939353924093
1290.0, 0.00464661292168626
1291.0, 0.00595449547800229
1292.0, 0.0039705591839181925
1293.0, 0.00495475554050754
1294.0, 0.004918332537676076
1295.0, 0.003936981451092285
1296.0, 0.002896581373060548
1297.0, 0.0006766557924040132
1298.0, 0.00042418724250417795
1299.0, 0.001839449048057853
1300.0, 0.0011655319574526196
1301.0, 7.572976737231282e-05
1302, 0.0
1303, 0.0
1304, 0.0
1305, 0.0
1306, 0.0
1307, 0.0
1308, 0.0
1309, 0.0
1310, 0.0
1311, 0.0
1312, 0.0
1313, 0.0
1314, 0.0
1315, 0.0
1316, 0.0
1317, 0.0
1318, 0.0
1319, 0.0
1320, 0.0
1321, 0.0
1322, 0.0
1323, 0.0
1324, 0.0
1325, 0.0
1326, 0.0
1327, 0.0
1328, 0.0
1329, 0.0
1330, 0.0
1331, 0.0
1332, 0.0
1333, 0.0
1334, 0.0
1335, 0.0
1336, 0.0
1337, 0.0
1338, 0.0
1339, 0.0
1340, 0.0
1341, 0.0
1342, 0.0
1343, 0.0
1344, 0.0
1345, 0.0
1346, 0.0
1347, 0.0
1348, 0.0
1349, 0.0
1350, 0.0
1351, 0.0
1352, 0.0
1353, 0.0
1354, 0.0
1355, 0.0
1356, 0.0
1357, 0.0
1358, 0.0
1359, 0.0
1360, 0.0
1361, 0.0
1362, 0.0
1363, 0.0
1364, 0.0
1365, 0.0
1366, 0.0
1367, 0.0
1368, 0.0
1369, 0.0
1370, 0.0
1371, 0.0
1372, 0.0
1373, 0.0
1374, 0.0
1375, 0.0
1376, 0.0
1377, 0.0
1378, 0.0
1379, 0.0
1380, 0.0
1381, 0.0
1382, 0.0
1383, 0.0
1384, 0.0
1385, 0.0
1386, 0.0
1387, 0.0
1388, 0.0
1389, 0.0
1390, 0.0
1391, 0.0
1392, 0.0
1393, 0.0
1394, 0.0
1395, 0.0
1396, 0.0
1397, 0.0
1398, 0.0
1399, 0.0
1400, 0.0
1401, 0.0
1402, 0.0
1403, 0.0
1404, 0.0
1405, 0.0
1406, 0.0
1407, 0.0
1408, 0.0
1409, 0.0
1410, 0.0
1411, 0.0
1412, 0.0
1413, 0.0
1414, 0.0
1415, 0.0
1416, 0.0
1417, 0.0
1418, 0.0
1419, 0.0
1420, 0.0
1421, 0.0
1422, 0.0
1423, 0.0
1424, 0.0
1425, 0.0
1426, 0.0
1427, 0.0
1428, 0.0
1429, 0.0
1430, 0.0
1431, 0.0
1432, 0.0
1433, 0.0
1434, 0.0
1435, 0.0
1436, 0.0
1437, 0.0
1438, 0.0
1439, 0.0
1440, 0.0
1441, 0.0
1442, 0.0
1443, 0.0
1444, 0.0
1445, 0.0
1446, 0.0
1447, 0.0
1448, 0.0
1449, 0.0
1450, 0.0
1451, 0.0
1452, 0.0
1453, 0.0
1454, 0.0
1455, 0.0
1456, 0.0
1457, 0.0
1458, 0.0
1459, 0.0
1460, 0.0
1461, 0.0
1462, 0.0
1463, 0.0
1464, 0.0
1465, 0.0
1466, 0.0
1467, 0.0
1468, 0.0
1469, 0.0
1470, 0.0
1471, 0.0
1472, 0.0
1473, 0.0
1474, 0.0
1475, 0.0
1476, 0.0
1477, 0.0
1478, 0.0
1479, 0.0
1480, 0.0
1481, 0.0
1482, 0.0
1483, 0.0
1484, 0.0
1485, 0.0
1486, 0.0
1487, 0.0
1488, 0.0
1489, 0.0
1490, 0.0
1491, 0.0
1492, 0.0
1493, 0.0
1494, 0.0
1495, 0.0
1496, 0.0
1497, 0.0
1498, 0.0
1499, 0.0
1500, 0.0
1501, 0.0
1502, 0.0
1503, 0.0
1504, 0.0
1505, 0.0
1506, 0.0
1507, 0.0
1508, 0.0
1509, 0.0
1510, 0.0
1511, 0.0
1512, 0.0
1513, 0.0
1514, 0.0
1515, 0.0
1516, 0.0
1517, 0.0
1518, 0.0
1519, 0.0
1520, 0.0
1521, 0.0
1522, 0.0
1523, 0.0
1524, 0.0
1525, 0.0
1526, 0.0
1527, 0.0
1528, 0.0
1529, 0.0
1530, 0.0
1531, 0.0
1532, 0.0
1533, 0.0
1534, 0.0
1535, 0.0
1536, 0.0
1537, 0.0
1538, 0.0
1539, 0.0
1540, 0.0
1541, 0.0
1542, 0.0
1543, 0.0
1544, 0.0
1545, 0.0
1546, 0.0
1547, 0.0
1548, 0.0
1549, 0.0
1550, 0.0
1551, 0.0
1552, 0.0
1553, 0.0
1554, 0.0
1555, 0.0
1556, 0.0
1557, 0.0
1558, 0.0
1559, 0.0
1560, 0.0
1561, 0.0
1562, 0.0
1563, 0.0
1564, 0.0
1565, 0.0
1566, 0.0
1567, 0.0
1568, 0.0
1569, 0.0
1570, 0.0
1571, 0.0
1572, 0.0
1573, 0.0
1574, 0.0
1575, 0.0
1576, 0.0
1577, 0.0
1578, 0.0
1579, 0.0
1580, 0.0
1581, 0.0
1582, 0.0
1583, 0.0
1584, 0.0
1585, 0.0
1586, 0.0
1587, 0.0
1588, 0.0
1589, 0.0
1590, 0.0
1591, 0.0
1592, 0.0
1593, 0.0
1594, 0.0
1595, 0.0
1596, 0.0
1597, 0.0
1598, 0.0
1599, 0.0
