30, 0.0
31, 0.0
32, 0.0
33, 0.0
34, 0.0
35, 0.0
36, 0.0
37, 0.0
38, 0.0
39, 0.0
40, 0.0
41, 0.0
42, 0.0
43, 0.0
44, 0.0
45, 0.0
46, 0.0
47, 0.0
48, 0.0
49, 0.0
50, 0.0
51, 0.0
52, 0.0
53, 0.0
54, 0.0
55, 0.0
56, 0.0
57, 0.0
58, 0.0
59, 0.0
60, 0.0
61, 0.0
62, 0.0
63, 0.0
64, 0.0
65, 0.0
66, 0.0
67, 0.0
68, 0.0
69, 0.0
70, 0.0
71, 0.0
72, 0.0
73, 0.0
74, 0.0
75, 0.0
76, 0.0
77, 0.0
78, 0.0
79, 0.0
80, 0.0
81, 0.0
82, 0.0
83, 0.0
84, 0.0
85, 0.0
86, 0.0
87, 0.0
88, 0.0
89, 0.0
90, 0.0
91, 0.0
92, 0.0
93, 0.0
94, 0.0
95, 0.0
96, 0.0
97, 0.0
98, 0.0
99, 0.0
100, 0.0
101, 0.0
102, 0.0
103, 0.0
104, 0.0
105, 0.0
106, 0.0
107, 0.0
108, 0.0
109, 0.0
110, 0.0
111, 0.0
112, 0.0
113, 0.0
114, 0.0
115, 0.0
116, 0.0
117, 0.0
118, 0.0
119, 0.0
120, 0.0
121, 0.0
122, 0.0
123, 0.0
124, 0.0
125, 0.0
126, 0.0
127, 0.0
128, 0.0
129, 0.0
130, 0.0
131, 0.0
132, 0.0
133, 0.0
134, 0.0
135, 0.0
136, 0.0
137, 0.0
138, 0.0
139, 0.0
140, 0.0
141, 0.0
142, 0.0
143, 0.0
144, 0.0
145, 0.0
146, 0.0
147, 0.0
148, 0.0
149, 0.0
150, 0.0
151, 0.0
152, 0.0
153, 0.0
154, 0.0
155, 0.0
156, 0.0
157, 0.0
158, 0.0
159, 0.0
160, 0.0
161, 0.0
162, 0.0
163, 0.0
164, 0.0
165, 0.0
166, 0.0
167, 0.0
168, 0.0
169, 0.0
170.0, 0.00038550381309398877
171.0, 0.002022759071501554
172.0, 0.00047670139026310455
173.0, 0.0010628152209804103
174.0, 0.0023047589229863784
175.0, 0.0027563202259465024
176.0, 0.0015157648414107032
177.0, 0.0026244591875247423
178.0, 0.0032936766963078245
179.0, 0.0035262266577756646
180.0, 0.004171290240727918
181.0, 0.005545365607002426
182.0, 0.00455088074492322
183.0, 0.004660864726906611
184.0, 0.005515819249035238
185.0, 0.006337209291757286
186.0, 0.007018113250443177
187.0, 0.008804736409868346
188.0, 0.00964109762105404
189.0, 0.009975248113049284
190.0, 0.010543161269414373
191.0, 0.011128704784144596
192.0, 0.011022121888250275
193.0, 0.014401463723208024
194.0, 0.016447364577340473
195.0, 0.017159238188124586
196.0, 0.017749701049611034
197.0, 0.019317606680367187
198.0, 0.020475476089371773
199.0, 0.020637433020003534
200.0, 0.02137969806525657
201.0, 0.023081147377338268
202.0, 0.02497633531004193
203.0, 0.024752028782699793
204.0, 0.026742670026810713
205.0, 0.025559308669529702
206.0, 0.024959834456415312
207.0, 0.025676250501663396
208.0, 0.026153994789525126
209.0, 0.026315549727610524
210.0, 0.027607103990800776
211.0, 0.02824842974426854
212.0, 0.028554472242568768
213.0, 0.02913706289227313
214.0, 0.02964077706830944
215.0, 0.031174196822551386
216.0, 0.031198287951911916
217.0, 0.03133513904599952
218.0, 0.03229292895724171
219.0, 0.033355545156205264
220.0, 0.035538740168057505
221.0, 0.03664464868728831
222.0, 0.03798546868260921
223.0, 0.038739483519945966
224.0, 0.03794346160675697
225.0, 0.03824290243492058
226.0, 0.03758438086482363
227.0, 0.036049884215968137
228.0, 0.03513959234274312
229.0, 0.03459199467081243
230.0, 0.03131214924013466
231.0, 0.032071037927426695
232.0, 0.030457439257071093
233.0, 0.02860995057684606
234.0, 0.027644692757486974
235.0, 0.02762149038865889
236.0, 0.026522201488884643
237.0, 0.025078820265962688
238.0, 0.023437213998663112
239.0, 0.022113675182267915
240.0, 0.02095414529624593
241.0, 0.01856635673813378
242.0, 0.017370199673982636
243.0, 0.015964939727147635
244.0, 0.01482340502383652
245.0, 0.013839029356754722
246.0, 0.012666414410981684
247.0, 0.01181712831307207
248.0, 0.010256392853499394
249.0, 0.009119698189222557
250.0, 0.007836024998852576
251.0, 0.006430423429149357
252.0, 0.006419391872617757
253.0, 0.0048570548679166626
254.0, 0.004265443214516589
255.0, 0.003585884046624744
256.0, 0.002404621650346974
257.0, 0.001105278655426127
258.0, 0.0020717387910752687
259.0, 0.0013068754446018222
260.0, 0.0020159652977847537
261.0, 0.0018596989945973423
262.0, 0.0007906625710764183
263.0, 0.0029453673822666215
264.0, 0.0021418392710169836
265.0, 0.0017745306699493287
266.0, 0.0016778374818141205
267.0, 0.0022250001610504
268.0, 0.003359088027536341
269.0, 0.002536907372937881
270.0, 0.0031030851313606964
271.0, 0.0028257158131058226
272.0, 0.0028729154421486373
273.0, 0.003169524431766142
274.0, 0.0022773858230138644
275.0, 0.0030619062787108184
276.0, 0.0024055544549176837
277.0, 0.0015233884546994093
278.0, 0.001191256730395056
279.0, 0.001798963986667837
280.0, 0.0031662392749512765
281.0, 0.003228438147786571
282.0, 0.004837443384017491
283.0, 0.006397042711508896
284.0, 0.008629732903761135
285.0, 0.01303203852470472
286.0, 0.015710917485736036
287.0, 0.020455002140911022
288.0, 0.026026216225745
289.0, 0.03202341942587979
290.0, 0.038329697096429506
291.0, 0.04510207394532648
292.0, 0.053551862210006275
293.0, 0.0622864430495335
294.0, 0.07028113752165904
295.0, 0.0776159536428623
296.0, 0.0850331468416671
297.0, 0.09381827396085776
298.0, 0.09602593767650831
299.0, 0.09483303235716412
300.0, 0.09154715900637622
301.0, 0.08660853641866145
302.0, 0.07990569233724258
303.0, 0.07168807895993931
304.0, 0.06386494870148839
305.0, 0.05468869385970176
306.0, 0.04682554777900079
307.0, 0.04103974864382833
308.0, 0.03502760947741717
309.0, 0.03022272708890594
310.0, 0.026323073803175775
311.0, 0.024381169609656823
312.0, 0.022859742924557513
313.0, 0.02065935432006505
314.0, 0.019396603513683334
315.0, 0.01757522438872367
316.0, 0.016878234955672162
317.0, 0.01657924536356722
318.0, 0.016291720986243503
319.0, 0.015940929193713274
320.0, 0.015736239423217484
321.0, 0.0157522720995086
322.0, 0.01651460348974531
323.0, 0.016691663790679035
324.0, 0.016417400323038452
325.0, 0.01702999200459194
326.0, 0.01879853061723755
327.0, 0.018927332160574233
328.0, 0.018867155880116813
329.0, 0.019190269964498446
330.0, 0.019703401407937565
331.0, 0.019604814202165942
332.0, 0.019904066367187716
333.0, 0.021735432255349893
334.0, 0.023002028913653376
335.0, 0.0235471737069513
336.0, 0.024038082502155556
337.0, 0.025437245739394283
338.0, 0.024735456021058713
339.0, 0.026021111937690848
340.0, 0.027141420167999582
341.0, 0.027648634767653307
342.0, 0.02821469827300429
343.0, 0.030333317143109256
344.0, 0.031612575047573414
345.0, 0.03220253272356303
346.0, 0.033075274903946905
347.0, 0.03389405695198969
348.0, 0.03423173606986151
349.0, 0.035770576907865684
350.0, 0.037113421797549444
351.0, 0.038174163354364375
352.0, 0.03888558110673036
353.0, 0.039764459946712634
354.0, 0.04146968209881542
355.0, 0.04368034778278295
356.0, 0.04446602074616425
357.0, 0.0463430884829048
358.0, 0.04832023171743714
359.0, 0.04986032027732236
360.0, 0.05114831938123223
361.0, 0.05233571672372038
362.0, 0.05480872498920153
363.0, 0.05697151099723785
364.0, 0.0602415747677093
365.0, 0.06399385038490996
366.0, 0.06611985603386722
367.0, 0.07031998371894164
368.0, 0.07235838201104025
369.0, 0.07537036557228338
370.0, 0.0794328128634718
371.0, 0.08375355123878897
372.0, 0.08747580073253403
373.0, 0.0919063992756942
374.0, 0.09483376522443018
375.0, 0.09775464391397101
376.0, 0.1008806663447096
377.0, 0.10442716095675343
378.0, 0.10869684706169375
379.0, 0.11248628474468067
380.0, 0.11546066601011332
381.0, 0.11982800852110098
382.0, 0.12310243511220846
383.0, 0.12464417854178718
384.0, 0.12690352150629985
385.0, 0.12952875457865026
386.0, 0.13046424140465737
387.0, 0.13202808228699103
388.0, 0.13268544062749757
389.0, 0.1326375033851081
390.0, 0.13408307227267427
391.0, 0.1302125048789357
392.0, 0.12688233754080705
393.0, 0.12227404679746688
394.0, 0.11878464680556339
395.0, 0.11685460977687527
396.0, 0.11361115229966585
397.0, 0.10515044207390346
398.0, 0.09962709221848037
399.0, 0.09347928033590605
400.0, 0.08775750982425486
401.0, 0.08257349200694625
402.0, 0.07664219200655094
403.0, 0.07197148808328445
404.0, 0.06677777193386836
405.0, 0.061421221873146886
406.0, 0.056745254895475224
407.0, 0.053242984884978174
408.0, 0.05058826712393167
409.0, 0.04640543474514236
410.0, 0.04379768590695126
411.0, 0.0412994703649074
412.0, 0.03923234071397671
413.0, 0.036952398059894524
414.0, 0.033667249999853266
415.0, 0.03198412150849791
416.0, 0.03162638756901356
417.0, 0.02895326264375257
418.0, 0.026947505280524614
419.0, 0.026294460764592714
420.0, 0.02555118714918611
421.0, 0.02311778170075186
422.0, 0.02359456142376814
423.0, 0.022489175426915947
424.0, 0.020851866579073883
425.0, 0.019703073729649016
426.0, 0.019095825990449587
427.0, 0.01728795967397779
428.0, 0.01983314058020596
429.0, 0.019312801750682777
430.0, 0.018721249729516925
431.0, 0.01937493697344178
432.0, 0.020590202442488926
433.0, 0.019884046534243697
434.0, 0.02046842419919559
435.0, 0.020582400069178
436.0, 0.021039363518447977
437.0, 0.02183197429726213
438.0, 0.02301319921974237
439.0, 0.024835647524586217
440.0, 0.025231214620939947
441.0, 0.026691562090453553
442.0, 0.02762751193354802
443.0, 0.0292622142889063
444.0, 0.03141666490604121
445.0, 0.03257057192882423
446.0, 0.03449822649827696
447.0, 0.0393670720488025
448.0, 0.04053911487195847
449.0, 0.043619043329857166
450.0, 0.04832282361798556
451.0, 0.05133046378945274
452.0, 0.05613433579156204
453.0, 0.06078718462181851
454.0, 0.06718313822064208
455.0, 0.07398545700973025
456.0, 0.08063894407839246
457.0, 0.08751075169667494
458.0, 0.09578868347290742
459.0, 0.10713929297164164
460.0, 0.11739204835674687
461.0, 0.13104014635094297
462.0, 0.14466476062312728
463.0, 0.15876311131372026
464.0, 0.17974227782692673
465.0, 0.19984874771664496
466.0, 0.22334918042807977
467.0, 0.2501854067081084
468.0, 0.2819527295256065
469.0, 0.3174836009009212
470.0, 0.3548939519612341
471.0, 0.3982873234778952
472.0, 0.44531348763959794
473.0, 0.49872746761261744
474.0, 0.5543085022583882
475.0, 0.6144161892109451
476.0, 0.6796164766882432
477.0, 0.7412554219026571
478.0, 0.8050213366780651
479.0, 0.8632859964408189
480.0, 0.9119473560729467
481.0, 0.9537566327871562
482.0, 0.9854950083199039
483.0, 0.9983357653562583
484.0, 0.9998853320636528
485.0, 0.9765585175361524
486.0, 0.944366982632447
487.0, 0.8975271989797627
488.0, 0.8402274079965469
489.0, 0.7811590544186843
490.0, 0.7195764075945261
491.0, 0.6465445519979548
492.0, 0.5884266761572196
493.0, 0.5309191381111541
494.0, 0.47534916488721024
495.0, 0.4247267652975257
496.0, 0.37754270251094857
497.0, 0.3423580453077192
498.0, 0.3077139171406351
499.0, 0.2759929098478971
500.0, 0.24813077843993006
501.0, 0.22364150969591925
502.0, 0.20165241905522002
503.0, 0.18276896082740604
504.0, 0.164173724627887
505.0, 0.1501414311029683
506.0, 0.13865799714749008
507.0, 0.12769683685099262
508.0, 0.11659006993503213
509.0, 0.10661547168979789
510.0, 0.1003012674201738
511.0, 0.08968284378283006
512.0, 0.08252734882656866
513.0, 0.07791840258560122
514.0, 0.07324975757865655
515.0, 0.06732614735446943
516.0, 0.0631177083262197
517.0, 0.059165260021919845
518.0, 0.05522373817440987
519.0, 0.05165173312759981
520.0, 0.048338353664495196
521.0, 0.045245853406516184
522.0, 0.042559740520363876
523.0, 0.04010323139302249
524.0, 0.03823018840965524
525.0, 0.03573519801075191
526.0, 0.03326136622448258
527.0, 0.030920679520537744
528.0, 0.028859933793995582
529.0, 0.027984330031309713
530.0, 0.025608838007874776
531.0, 0.024232753020620935
532.0, 0.023591546858760373
533.0, 0.021383476768544477
534.0, 0.018634754911434116
535.0, 0.018147114131418136
536.0, 0.016239452460565303
537.0, 0.016472883258234285
538.0, 0.015430506115280716
539.0, 0.014759436812084034
540.0, 0.013994891546929083
541.0, 0.012505166585552627
542.0, 0.01087827987807917
543.0, 0.010069914897819486
544.0, 0.008372451832280097
545.0, 0.007832163008556508
546.0, 0.0074997620080693665
547.0, 0.006709256936761341
548.0, 0.005803846883768371
549.0, 0.006006206761310968
550.0, 0.0037633952429232983
551.0, 0.0033494482230820998
552.0, 0.0034265870348562013
553.0, 0.002905810615615483
554.0, 0.0019338663814931737
555.0, 0.0013591456824431233
556.0, 0.0009588713476972238
557.0, 0.00032100719424983014
558.0, 0.000666417171915338
559.0, 0.0009197956616620999
560.0, 0.0013337129061134901
561.0, 0.0021009997072355692
562.0, 0.0027627828751524653
563.0, 0.0027823121857058312
564.0, 0.002328395085366841
565.0, 0.0019284684842373757
566.0, 0.0013529373514838286
567.0, 0.0008057157158549314
568.0, 0.0006303168604061609
569.0, 0.0008785754069324212
570.0, 0.0005543702100465857
571.0, 0.0001367771900269991
572.0, 0.0012551935759226277
573.0, 0.0012751110398894743
574.0, 0.0009960837339516053
575.0, 0.0014915452225456134
576.0, 0.0005522744741534131
577.0, 0.0001827663881274824
578.0, 0.001025600806787285
579.0, 0.0009332593349348435
580.0, 0.0004361644865847951
581.0, 0.00048527008550023997
582.0, 0.0011720768212754701
583.0, 0.001043947022283089
584.0, 0.0013428929345025722
585.0, 0.0018461318849328347
586.0, 0.002445959523913898
587.0, 0.002761471691985545
588.0, 0.0027820224164222386
589.0, 0.0026705008699465464
590.0, 0.0022455205064327547
591.0, 0.0031419589568171076
592.0, 0.0031196836574862493
593.0, 0.00297988477380695
594.0, 0.003864516519248283
595.0, 0.004347472528839243
596.0, 0.0028848829086856194
597.0, 0.00327359242586828
598.0, 0.004753752877000154
599.0, 0.004449305762970699
600.0, 0.004692816822185529
601.0, 0.0051278142099522115
602.0, 0.0056558445123330615
603.0, 0.006499460361723053
604.0, 0.006506362060052491
605.0, 0.007771005982840369
606.0, 0.007938157898862782
607.0, 0.0075523012648193695
608.0, 0.007630186327648863
609.0, 0.00854452815170049
610.0, 0.009682504915780082
611.0, 0.009784793770546599
612.0, 0.0099794990725192
613.0, 0.009478876551035265
614.0, 0.009730246292359003
615.0, 0.01063876451793217
616.0, 0.011284252116299933
617.0, 0.011529284053350984
618.0, 0.013773398396589358
619.0, 0.014474944166096885
620.0, 0.01462683870001114
621.0, 0.01421379511244908
622.0, 0.014326009877974008
623.0, 0.015597971777931477
624.0, 0.017201857918608697
625.0, 0.016741596564642247
626.0, 0.017277814958665698
627.0, 0.017578966973092733
628.0, 0.01672604077408664
629.0, 0.016023135358692202
630.0, 0.015057805830990876
631.0, 0.013187872910702555
632.0, 0.012158961523016132
633.0, 0.012297383946088172
634.0, 0.011828476547456319
635.0, 0.011747088552942864
636.0, 0.011524753892109763
637.0, 0.01099921288337387
638.0, 0.010539154725233453
639.0, 0.010637060143412785
640.0, 0.010847046414602357
641.0, 0.01103865361505462
642.0, 0.011704041884409714
643.0, 0.012538867154063717
644.0, 0.013200928106738563
645.0, 0.013506317887373316
646.0, 0.01353754227277829
647.0, 0.013753728478256086
648.0, 0.014651673860422878
649.0, 0.015637470020161977
650.0, 0.014313287423241975
651.0, 0.012827481464678476
652.0, 0.012944901487709009
653.0, 0.013934618696081121
654.0, 0.014609614457552796
655.0, 0.0137935338882218
656.0, 0.013283911155300412
657.0, 0.013598365408804616
658.0, 0.013827881859383264
659.0, 0.013338616722557874
660.0, 0.012414008802254869
661.0, 0.012019215577140623
662.0, 0.01210276822312386
663.0, 0.012967118157221057
664.0, 0.013263272992417094
665.0, 0.013387456155196297
666.0, 0.013887584337333541
667.0, 0.014593049575900975
668.0, 0.014540983416835414
669.0, 0.013803290057789555
670.0, 0.012721071316966625
671.0, 0.01360925483974404
672.0, 0.013344615325581455
673.0, 0.012883538900837623
674.0, 0.01316287517971593
675.0, 0.01319188536283964
676.0, 0.012479286623583535
677.0, 0.011377886188686574
678.0, 0.010938306621489521
679.0, 0.01037753977317126
680.0, 0.009583776927306885
681.0, 0.008299153395310547
682.0, 0.006733376741778819
683.0, 0.00617438733466486
684.0, 0.005645362567127903
685.0, 0.005800021021547061
686.0, 0.005262829628167965
687.0, 0.004512742912269267
688.0, 0.004087067103481903
689.0, 0.0035786443289737087
690.0, 0.0023234551970500346
691.0, 0.0026141722980582466
692.0, 0.0010314670365563065
693.0, 0.0008085113575215902
694.0, 0.0009372897183312682
695.0, 0.0008812751452608308
696.0, 0.000721942387722603
697.0, 0.0008444358211729502
698.0, 0.0013166792922910452
699.0, 0.0008001283148574396
700.0, 0.0009025189291251441
701.0, 0.00034777471972955495
702.0, 0.00032896331585813125
703.0, 0.00106699148616637
704.0, 0.001711297478873303
705.0, 0.0014052025612092864
706.0, 0.0010773172882161514
707.0, 0.0007223005173083755
708.0, 0.0005167032449679193
709.0, 0.00018584829911142897
710.0, 0.00010890575063113284
711.0, 0.00029094129870546376
712.0, 0.00038972296784854074
713.0, 0.00023385843729760485
714.0, 0.0002730769281828987
715.0, 0.0007209557180282304
716.0, 0.00033487228795380826
717.0, 0.0004250291736955301
718.0, 0.0005110324737474391
719.0, 0.00039311545031670047
720.0, 0.0005077571509731405
721.0, 0.0003692268313219695
722.0, 0.000513114005422786
723.0, 0.0005984452083745929
724.0, 0.0004689715282208882
725.0, 0.00018844088003091934
726.0, 0.00020450557284585957
727.0, 0.0004038481068433643
728.0, 0.00015281865386224328
729.0, 0.00036800260913327776
730.0, 0.0005376896205412871
731.0, 0.00040489238894660134
732.0, 0.00026112286488693233
733.0, 0.0003554817168402398
734.0, 0.000404839143062942
735.0, 0.0004446542775475338
736.0, 0.0011282659641199462
737.0, 0.0006988771158665651
738.0, 0.0002928014004148944
739.0, 0.00027706405783257655
740.0, 0.0005816230561504726
741.0, 0.0006484480146266813
742.0, 0.0003665592492492572
743.0, 0.00013896340878150542
744.0, 0.0003008341709357854
745.0, 0.0005020031421210205
746.0, 0.0001500148147144909
747.0, 0.0002590340649605701
748.0, 0.00020065668668430302
749.0, 0.000323997850629038
750.0, 0.0008177285872041525
751.0, 0.0011063837012339874
752.0, 0.0003865930150031695
753.0, 3.4929824195416076e-05
754.0, 0.0002818339569238795
755.0, 0.00032805912336661923
756.0, 0.000220536845592341
757.0, 0.0006291789842212913
758.0, 0.001253007517794842
759.0, 0.0011919493344562343
760.0, 0.0011816479524274118
761.0, 0.00216827529274551
762.0, 0.0021504151758146195
763.0, 0.002014438019633522
764.0, 0.0026954121443557555
765.0, 0.002742359158626122
766.0, 0.0021197910885034574
767.0, 0.002515846099025264
768.0, 0.0029644363535579832
769.0, 0.0024692986995192043
770.0, 0.0033096826555630873
771.0, 0.0038011639442536754
772.0, 0.0034527673573784357
773.0, 0.003812279776611805
774.0, 0.004991641680510234
775.0, 0.0054256443026640235
776.0, 0.005632537549439078
777.0, 0.00518478823083424
778.0, 0.00655062961500521
779.0, 0.006726607501386049
780.0, 0.0072073100666018965
781.0, 0.007326463568372175
782.0, 0.007041125902959007
783.0, 0.007545138666678949
784.0, 0.008409114734935347
785.0, 0.009021390035612075
786.0, 0.009369185267668277
787.0, 0.009758072426004152
788.0, 0.009995679803804995
789.0, 0.010270835476192
790.0, 0.010483038759836118
791.0, 0.010497981374860568
792.0, 0.010836364557898616
793.0, 0.010431848114224264
794.0, 0.011337374409054695
795.0, 0.011272032996689668
796.0, 0.010334629383611842
797.0, 0.01004468075539287
798.0, 0.010078822183768942
799.0, 0.009792056155387295
800.0, 0.01064185357811019
801.0, 0.010031127287774087
802.0, 0.009829789557996097
803.0, 0.009464811482794752
804.0, 0.008917346895452583
805.0, 0.008473819453250644
806.0, 0.008094094224004308
807.0, 0.007763178522008894
808.0, 0.007639454092799555
809.0, 0.006846714495368366
810.0, 0.006880551535196037
811.0, 0.00658385821937586
812.0, 0.006481208725791938
813.0, 0.0066636456781837645
814.0, 0.006296341416615189
815.0, 0.005733792188822811
816.0, 0.006337299916142199
817.0, 0.006958162554824872
818.0, 0.0074371481697730266
819.0, 0.006500703350037252
820.0, 0.005892604576103385
821.0, 0.0058602428424271965
822.0, 0.005949009087464007
823.0, 0.005790163160351651
824.0, 0.005430339899142578
825.0, 0.005187821044637084
826.0, 0.005479373160993382
827.0, 0.0050149693020018595
828.0, 0.004758340386503788
829.0, 0.004503386703780247
830.0, 0.004902495545561692
831.0, 0.005698665384725845
832.0, 0.006250242261232027
833.0, 0.006306022455338633
834.0, 0.005221929343877712
835.0, 0.00448011752749395
836.0, 0.0052032798356520926
837.0, 0.0055146925049979565
838.0, 0.006362646013466392
839.0, 0.006768401762836881
840.0, 0.006366930743813356
841.0, 0.006141244828769617
842.0, 0.006441107243828225
843.0, 0.007283974374347162
844.0, 0.0063190432361131905
845.0, 0.007050784316774734
846.0, 0.0068201765596140615
847.0, 0.007030586238126307
848.0, 0.007248795951020297
849.0, 0.006647960465736219
850.0, 0.006466154505580332
851.0, 0.007542493494516669
852.0, 0.007188858005608901
853.0, 0.008117017479013758
854.0, 0.008407859384313404
855.0, 0.008841429039109422
856.0, 0.009251943678493742
857.0, 0.009278619710073939
858.0, 0.009288790050945102
859.0, 0.010058343512127184
860.0, 0.010528031888638751
861.0, 0.010280749850026203
862.0, 0.009884021269006471
863.0, 0.009720135203688638
864.0, 0.009178809190483245
865.0, 0.00843346134354845
866.0, 0.007585324540942643
867.0, 0.006534873944573849
868.0, 0.005978735624713513
869.0, 0.005610678883744305
870.0, 0.004718829577190983
871.0, 0.004708717862288785
872.0, 0.003705923079454319
873.0, 0.003140741496117823
874.0, 0.003209026852589979
875.0, 0.0033200752812719584
876.0, 0.0035567327684768568
877.0, 0.003815259913217842
878.0, 0.0029184511630513522
879.0, 0.003029217867365053
880.0, 0.003075018042401109
881.0, 0.003565042271385515
882.0, 0.0032618191401923824
883.0, 0.003059937677932172
884.0, 0.0031461495365565557
885.0, 0.0018896068995186868
886.0, 0.0028208624571186853
887.0, 0.001734546045160878
888.0, 0.0020697651372911055
889.0, 0.0020597620789684075
890.0, 0.0021006149302113275
891.0, 0.0016383033541135068
892.0, 0.0012522041574504325
893.0, 0.0014329385692221745
894.0, 0.0012241329747784805
895.0, 0.0009762361972739977
896.0, 0.0010626146202472012
897.0, 0.001468518959271544
898.0, 0.0013453201301440842
899.0, 0.0015173317924735419
900.0, 0.001154296390278409
901.0, 0.0008854057152116056
902.0, 0.0010659463680981031
903.0, 0.0004168145916036708
904.0, 0.001030348168854652
905.0, 0.000684255225505516
906.0, 0.0010648963549284712
907.0, 0.0008051550946320723
908.0, 0.0011857270852620326
909.0, 0.0009042743362579919
910.0, 0.0005650787230983428
911.0, 0.0008132145045411956
912.0, 0.0003998540247187511
913.0, 0.0006871851339235552
914.0, 8.652639892048212e-05
915.0, 0.0003919101103320821
916.0, 0.0002496187300636216
917.0, 0.00036724196990329714
918.0, 0.0007982993161667774
919.0, 0.0007963645080143178
920.0, 0.0005125091346693567
921.0, 0.0007515710812909944
922.0, 0.0003156029351747107
923.0, 0.0009838569676066371
924.0, 0.000270742208968885
925.0, 0.00014404747866865694
926.0, 7.369185766657702e-05
927.0, 0.0001550420286956198
928.0, 0.0005735068954794604
929.0, 0.0007124595517046332
930.0, 0.0002786110329958758
931.0, 0.0007926541922873309
932.0, 0.0008540968084514145
933.0, 0.0004535145865778084
934.0, 0.0002809239634576846
935.0, 0.00043499026249125915
936.0, 0.00030916699554325947
937.0, 0.00018286914759332962
938.0, 0.00035231711938041077
939.0, 0.00047958604314537714
940.0, 0.00015819059362074992
941.0, 0.00019149996417589053
942.0, 0.001064316949157179
943.0, 0.0004237699123485617
944.0, 0.000617238928830983
945.0, 0.00048679994051780453
946.0, 0.0008143500305185083
947.0, 0.0009694656571693262
948.0, 0.0008780465719905394
949.0, 0.0014138276822875011
950.0, 0.0003308379533944971
951.0, 0.0008485691825791532
952.0, 0.0010490357082387227
953.0, 0.00045948355302321084
954.0, 0.00021207530038036174
955.0, 0.000991226226112682
956.0, 0.0012255622202304738
957.0, 0.0011940903957468
958.0, 0.001810004876423131
959.0, 0.0014090963073993647
960.0, 0.0016268095096493634
961.0, 0.0022811337211959826
962.0, 0.0016185857292125953
963.0, 0.0017228781438488592
964.0, 0.0011975035696708289
965.0, 0.0007690216060864472
966.0, 0.001240919787778982
967.0, 0.001613679774635429
968.0, 0.001034819223270397
969.0, 0.0017950297413553663
970.0, 0.0022026399369508673
971.0, 0.0014620587002029592
972.0, 0.002348784625355374
973.0, 0.00259450723015061
974.0, 0.0030218263881345584
975.0, 0.003541815932918101
976.0, 0.003968131741297016
977.0, 0.004302637707635641
978.0, 0.004308910225717346
979.0, 0.003877451449457789
980.0, 0.0037861398933484182
981.0, 0.004413015385038745
982.0, 0.0054834957920291165
983.0, 0.0058242451994457295
984.0, 0.006100115072256074
985.0, 0.00617305029876964
986.0, 0.006442600056895808
987.0, 0.007706413886021847
988.0, 0.008953140442916339
989.0, 0.0071706820860872435
990.0, 0.007644313553799066
991.0, 0.008331918575876032
992.0, 0.007459331091436843
993.0, 0.008822420170325177
994.0, 0.009210264725198135
995.0, 0.008675003976520223
996.0, 0.009189405468175574
997.0, 0.01049270584158749
998.0, 0.01083545121794493
999.0, 0.012320182335840871
1000.0, 0.013360366605871091
1001.0, 0.016546776508671788
1002.0, 0.018941554986001266
1003.0, 0.018432567892547776
1004.0, 0.016891241780514918
1005.0, 0.014823904399505927
1006.0, 0.012778513586121755
1007.0, 0.01167705910125819
1008.0, 0.011250524973347966
1009.0, 0.011250489531849534
1010.0, 0.010002534323611329
1011.0, 0.01015913986935069
1012.0, 0.010394484150760419
1013.0, 0.01090356105124015
1014.0, 0.011056173611214233
1015.0, 0.011326145628381627
1016.0, 0.012077760742701463
1017.0, 0.012452389503309897
1018.0, 0.012061380151973796
1019.0, 0.013637434430130439
1020.0, 0.014051228714999548
1021.0, 0.014481971535665812
1022.0, 0.0141161084632375
1023.0, 0.014668538290609667
1024.0, 0.015074909955070017
1025.0, 0.015429447806186039
1026.0, 0.015798826927111792
1027.0, 0.016002265710909874
1028.0, 0.016104432863370675
1029.0, 0.01597460126595865
1030.0, 0.016341092544888445
1031.0, 0.015899618759124823
1032.0, 0.016067681575256423
1033.0, 0.016196739053227136
1034.0, 0.016758586207556096
1035.0, 0.016890090858859366
1036.0, 0.01665141460966989
1037.0, 0.016755359388471846
1038.0, 0.01741663669293054
1039.0, 0.018247625883536275
1040.0, 0.01859488459090901
1041.0, 0.020503713963560086
1042.0, 0.02007023212009479
1043.0, 0.01949773561484411
1044.0, 0.019508361727910695
1045.0, 0.020851028918823386
1046.0, 0.021994434290096416
1047.0, 0.022159134491059107
1048.0, 0.021973025938849526
1049.0, 0.02204859089959269
1050.0, 0.023134810836251088
1051.0, 0.024004784958896876
1052.0, 0.024382907481450812
1053.0, 0.02267388885051323
1054.0, 0.025094991254183553
1055.0, 0.025372137270225574
1056.0, 0.02484165917601405
1057.0, 0.025530752787407063
1058.0, 0.026545038540007903
1059.0, 0.0265055373108354
1060.0, 0.02617286987729399
1061.0, 0.027104288083969426
1062.0, 0.02986758568672228
1063.0, 0.02984697960625233
1064.0, 0.030551164735827824
1065.0, 0.032255463423870125
1066.0, 0.03286361192778162
1067.0, 0.03320937169529063
1068.0, 0.03403505294822962
1069.0, 0.03492423898133527
1070.0, 0.03581957578729827
1071.0, 0.0372682557596273
1072.0, 0.038210782460410195
1073.0, 0.04061920880846134
1074.0, 0.04029933740802149
1075.0, 0.04316563306476746
1076.0, 0.04460718953173283
1077.0, 0.04613535122602725
1078.0, 0.04787063877913302
1079.0, 0.0493445678687953
1080.0, 0.050576837796310975
1081.0, 0.05176141137118098
1082.0, 0.05342513702845153
1083.0, 0.05548687167216082
1084.0, 0.05691902403005172
1085.0, 0.05992744511352245
1086.0, 0.059505535710606704
1087.0, 0.06169882371644302
1088.0, 0.061897997116172054
1089.0, 0.06130781914575806
1090.0, 0.06178858031208221
1091.0, 0.06277668235149975
1092.0, 0.06355039583317199
1093.0, 0.06370716482100076
1094.0, 0.0646252511416668
1095.0, 0.06532071149237399
1096.0, 0.06580653368721842
1097.0, 0.06637441026443561
1098.0, 0.06709364262533471
1099.0, 0.06694013043932066
1100.0, 0.06638789122741574
1101.0, 0.0663364684972887
1102.0, 0.06678546798810077
1103.0, 0.06703173199183776
1104.0, 0.06663905760967506
1105.0, 0.06561732969295782
1106.0, 0.06601085807576154
1107.0, 0.06626829518810635
1108.0, 0.06603231407061962
1109.0, 0.06426209879012139
1110.0, 0.0636707813788825
1111.0, 0.062283301282433944
1112.0, 0.060751762851851104
1113.0, 0.05979216102288181
1114.0, 0.05884857920536443
1115.0, 0.05819105600364871
1116.0, 0.05538757096634053
1117.0, 0.0551293890079654
1118.0, 0.05587075492494056
1119.0, 0.05391646333823725
1120.0, 0.053388809901807985
1121.0, 0.05222564871693896
1122.0, 0.05010376648065998
1123.0, 0.04913498172721371
1124.0, 0.04775303748034272
1125.0, 0.04584148598657014
1126.0, 0.04563329278255534
1127.0, 0.043238464435197736
1128.0, 0.043573328078218884
1129.0, 0.04136776934734254
1130.0, 0.040368167984218696
1131.0, 0.03776479296053984
1132.0, 0.036531845084462305
1133.0, 0.0348910679533964
1134.0, 0.033857893052594665
1135.0, 0.033572034079871756
1136.0, 0.03248210262421706
1137.0, 0.03072838213789593
1138.0, 0.0297934210923249
1139.0, 0.027590664034904143
1140.0, 0.026685204071718427
1141.0, 0.025397695508063346
1142.0, 0.024375544790063503
1143.0, 0.02299287409917501
1144.0, 0.022003885642065298
1145.0, 0.02069227741876303
1146.0, 0.020554736347476187
1147.0, 0.02058247869382182
1148.0, 0.01954069876356359
1149.0, 0.018031623277665443
1150.0, 0.016515014188886144
1151.0, 0.015982387443187213
1152.0, 0.015057124303455703
1153.0, 0.01496949790960861
1154.0, 0.014470589666648546
1155.0, 0.014171364979867339
1156.0, 0.01367080235554855
1157.0, 0.012885122405348696
1158.0, 0.0119866887820304
1159.0, 0.011441583395721037
1160.0, 0.011126973099790544
1161.0, 0.010702629588070741
1162.0, 0.010598500242535749
1163.0, 0.010692851733854173
1164.0, 0.0097394475904327
1165.0, 0.009653212423385087
1166.0, 0.00873434319047218
1167.0, 0.008544805331006954
1168.0, 0.007920921635084805
1169.0, 0.007077166811136782
1170.0, 0.006581387033478396
1171.0, 0.006843524312023505
1172.0, 0.006887149381390555
1173.0, 0.0063254498196212375
1174.0, 0.006140679156717065
1175.0, 0.0051655207111350136
1176.0, 0.0059610851058787325
1177.0, 0.004949279565371761
1178.0, 0.00564795581070933
1179.0, 0.004872275897446789
1180.0, 0.0035903284369507497
1181.0, 0.002743272608710665
1182.0, 0.0019669471100737185
1183.0, 0.0014662461388657913
1184.0, 0.0021566374614827486
1185.0, 0.0027872372505670937
1186.0, 0.001881831162198151
1187.0, 0.0022034717754872172
1188.0, 0.0030385899123498844
1189.0, 0.0014062731176661717
1190.0, 0.0009195967723452066
1191.0, 0.0005142547710571837
1192.0, 0.0010048897280327729
1193.0, 0.0008075389204615333
1194.0, 0.00027535191100968437
1195.0, 0.00044918519085251815
1196.0, 0.00043444896567888135
1197.0, 0.00023089470900117514
1198.0, 0.00059424729096376
1199.0, 0.0006276195045131456
1200.0, 0.00043551025275789964
1201.0, 0.0007089698010166011
1202.0, 0.00039140003787071186
1203.0, 0.00038748417180450726
1204.0, 0.0005840009423020349
1205.0, 0.0005077366398353071
1206.0, 0.0005383355997975106
1207.0, 0.0012239236766854434
1208.0, 0.0013054944950725142
1209.0, 0.0007775058109777518
1210.0, 0.0004633925766338651
1211.0, 0.0007589705408802014
1212.0, 0.0013939840167962554
1213.0, 0.0005089513769887897
1214.0, 0.00012913995902428253
1215.0, 0.000707855409289727
1216.0, 0.0009522772773899214
1217.0, 0.0007833392175566527
1218.0, 0.0003991183539617653
1219.0, 0.0005755149549802896
1220.0, 0.0006834122456735823
1221.0, 0.0006946445049287604
1222.0, 0.0004951643960681182
1223.0, 0.0003371014128964716
1224.0, 0.00040150579760431346
1225.0, 0.0001826508635072038
1226.0, 0.0002948156745971149
1227.0, 0.00032145050690078847
1228.0, 3.7463164371961304e-05
1229.0, 0.00083154314985481
1230.0, 0.0003094310876238073
1231.0, 0.0008868204697115239
1232.0, 0.0009191500313097944
1233.0, 0.0015470114399734713
1234.0, 0.0009818917335547984
1235.0, 0.0006411343844120558
1236.0, 0.0009754853123023573
1237.0, 0.0007730487901599918
1238.0, 0.000620970413110078
1239.0, 0.00030975042218668537
1240.0, 0.0013970741218102588
1241.0, 7.463340905402189e-05
1242.0, 0.0010222070332473702
1243.0, 0.0014159127216472206
1244.0, 0.0014910143879616048
1245.0, 0.0008943757097493993
1246.0, 0.0009201528426781933
1247.0, 0.0013658809476966463
1248.0, 0.0015796211492151576
1249.0, 0.0018573291501340784
1250.0, 0.0018178232998906387
1251.0, 0.0012588432612251296
1252.0, 0.0012559186213090198
1253.0, 0.0003633838113695126
1254.0, 0.0003386541745929447
1255.0, 0.0016700644263293815
1256.0, 0.0008593923067306223
1257.0, 0.0011985711534365738
1258.0, 0.0012590562710672103
1259.0, 0.0016553761671558552
1260.0, 0.001450547934489516
1261.0, 0.0013994492057452965
1262.0, 0.0018681536627678636
1263.0, 0.0020342544980404345
1264.0, 0.0019178848461412368
1265.0, 0.002180616003869097
1266.0, 0.002282417797982347
1267.0, 0.0025056106345931733
1268.0, 0.0033630848961968295
1269.0, 0.003375069904234844
1270.0, 0.002722747948727495
1271.0, 0.0036792228528774954
1272.0, 0.004709717408545026
1273.0, 0.0035052616116368032
1274.0, 0.003185097249163998
1275.0, 0.003491354165504181
1276.0, 0.002767939647520352
1277.0, 0.0021742098234191127
1278.0, 0.0023989044011490466
1279.0, 0.002396369392313617
1280.0, 0.002536859005194047
1281.0, 0.0023100574398097263
1282.0, 0.00189593010259483
1283.0, 0.0018731734241505757
1284.0, 0.001670762315951116
1285.0, 0.0032502271627531947
1286.0, 0.0018399015547974381
1287.0, 0.0023888515199729475
1288.0, 0.0027585662443783986
1289.0, 0.002163906077693074
1290.0, 0.002291046141407466
1291.0, 0.0030311566595769323
1292.0, 0.003768390891973313
1293.0, 0.0036243373737293813
1294.0, 0.0022310514591214986
1295.0, 0.002506369961987775
1296.0, 0.0031467080245261335
1297.0, 0.004751508040336652
1298.0, 0.0031931749770789074
1299.0, 0.003346847304287164
1300.0, 0.00360370540964858
1301.0, 0.003446951091774026
1302.0, 0.003161167495244692
1303.0, 0.0037484115215400083
1304.0, 0.004108079769973815
1305.0, 0.003905927483470011
1306.0, 0.0036986917309256443
1307.0, 0.003707408619813134
1308.0, 0.004209039580710837
1309.0, 0.004838540191734101
1310.0, 0.003940209042484595
1311.0, 0.0040018551216388885
1312.0, 0.004017273272625183
1313.0, 0.005859603186136819
1314.0, 0.004537346435772259
1315.0, 0.005066472034178326
1316.0, 0.006420512407491404
1317.0, 0.005692873185774278
1318.0, 0.005073543485188212
1319.0, 0.005931974918032995
1320.0, 0.0056800174962581785
1321.0, 0.004719814221834702
1322.0, 0.0041559222352238545
1323.0, 0.0037838892279033133
1324.0, 0.004209517171858594
1325.0, 0.004199663845679812
1326.0, 0.003678614257909192
1327.0, 0.0030598731911320198
1328.0, 0.0038444362269429285
1329.0, 0.0022808652911872783
1330.0, 0.0022714015182620896
1331.0, 0.0017494338037841333
1332.0, 0.0014844647946810304
1333.0, 0.0013177654649020505
1334.0, 0.0018224008265450551
1335.0, 0.002391501518452771
1336.0, 0.00193620734746506
1337.0, 0.0019615118347366374
1338.0, 0.0021154368887111234
1339.0, 0.0007427446062578827
1340.0, 0.00027601738090519826
1341.0, 0.00013300982786553685
1342.0, 0.0007144532156542493
1343.0, 0.001457976398338821
1344.0, 0.0014322680460984193
1345.0, 0.00136011611893385
1346.0, 0.0011559828933101325
1347.0, 0.0007733160302088119
1348.0, 0.0006019852175924438
1349.0, 0.0006744664153014224
1350.0, 0.001126824229585045
1351.0, 0.0013450725291695824
1352.0, 0.0013580795542423925
1353.0, 0.0008256123021931132
1354.0, 0.00022180936237610542
1355.0, 0.00040218981777249643
1356.0, 0.0004988229151411596
1357.0, 0.0013377218691378809
1358.0, 0.001075218915679478
1359.0, 0.00011103226074817501
1360.0, 0.00037710472090248323
1361.0, 0.00022259077609609204
1362.0, 8.811581361748685e-05
1363.0, 0.00043681625797118275
1364.0, 0.0006229555829737141
1365.0, 0.0008271510564542303
1366.0, 0.0005753348067738692
1367.0, 0.0002533254288663774
1368.0, 0.0005822877993551176
1369.0, 0.0008641779240145351
1370.0, 0.000899799892741068
1371.0, 0.0011190527681634683
1372.0, 0.0008000277991379277
1373.0, 0.0006782075907376202
1374.0, 0.0019997116320215106
1375.0, 0.0014509861589882159
1376.0, 0.0012998989287475889
1377.0, 0.0022874946936806686
1378.0, 0.001566720310526379
1379.0, 0.00182612628511376
1380.0, 0.002320724881113173
1381.0, 0.0021740642864776128
1382.0, 0.0016574171239689397
1383.0, 0.0013538124874535626
1384.0, 0.001846084316940635
1385.0, 0.002823485635961164
1386.0, 0.002522104979550268
1387.0, 0.0018299678900820923
1388.0, 0.0021953351162555465
1389.0, 0.0018831016090682079
1390.0, 0.0022103246374219855
1391.0, 0.0025548869800387283
1392.0, 0.00094060069381644
1393.0, 0.00023665039697645104
1394.0, 0.000969618273781785
1395.0, 0.0009295249725101836
1396.0, 0.0014561304337055696
1397.0, 0.001552645975595262
1398.0, 0.0016494826078332291
1399.0, 0.0016315982374325102
1400.0, 0.0014664757289814458
1401.0, 0.001265442011510149
1402.0, 0.001373144918280766
1403.0, 0.0014069233752516924
1404.0, 0.0012272198721191582
1405.0, 0.0011349809117879675
1406.0, 0.001036224145801454
1407.0, 0.0010309561464456633
1408.0, 0.0009540148172637313
1409.0, 0.001221879853302039
1410.0, 0.001238130711444508
1411.0, 0.0016571562419490842
1412.0, 0.0016362371968883503
1413.0, 0.002048074608782566
1414.0, 0.00155365959985661
1415.0, 0.0009741449721662149
1416.0, 0.00035466909503723747
1417.0, 0.00033600403753512853
1418.0, 0.0004988794098006786
1419.0, 0.0006814485053908271
1420.0, 0.000653949267653762
1421.0, 0.0010715893015581497
1422.0, 0.0013443142093943446
1423.0, 0.0011278725651680613
1424.0, 0.001543554181822267
1425.0, 0.0013540212121628797
1426.0, 0.0011172568723716817
1427.0, 0.0012682827697350937
1428.0, 0.001315965586771359
1429.0, 0.002531445157322105
1430.0, 0.001355412182144182
1431.0, 0.0025848583729625573
1432.0, 0.003008434565164956
1433.0, 0.003093661883755809
1434.0, 0.002443596251062657
1435.0, 0.003639014137638101
1436.0, 0.003809494732748755
1437.0, 0.00409283706020487
1438.0, 0.005074198852337679
1439.0, 0.006007119283634303
1440.0, 0.0069102107487928315
1441.0, 0.007581030893133551
1442.0, 0.008044328801556701
1443.0, 0.008985767775018734
1444.0, 0.009505596577443775
1445.0, 0.009700846084785653
1446.0, 0.009611090847703558
1447.0, 0.010474017852125728
1448.0, 0.010776206928260514
1449.0, 0.011026237506567626
1450.0, 0.01132970161423403
1451.0, 0.012481271099377425
1452.0, 0.01208014871452162
1453.0, 0.012003408258654707
1454.0, 0.012208493123175134
1455.0, 0.011434238489169397
1456.0, 0.011156751643304035
1457.0, 0.012086586008164474
1458.0, 0.012308460260116692
1459.0, 0.011775804795111453
1460.0, 0.011491247339502285
1461.0, 0.011064191879031116
1462.0, 0.010376367006489922
1463.0, 0.00982899619740807
1464.0, 0.009569724522731174
1465.0, 0.008683791119469554
1466.0, 0.00870663984644464
1467.0, 0.00767154084633213
1468.0, 0.0069679651933678526
1469.0, 0.005979957678962884
1470.0, 0.005405633555075271
1471.0, 0.005542230695844028
1472.0, 0.0048616166419234025
1473.0, 0.004413531325610231
1474.0, 0.004805236161921955
1475.0, 0.005021645605386754
1476.0, 0.0045202024364766015
1477.0, 0.004108724136617233
1478.0, 0.004365793921632405
1479.0, 0.004400454341634798
1480.0, 0.004095594757945725
1481.0, 0.0040480008169191985
1482.0, 0.003922931942394408
1483.0, 0.0038117896065784952
1484.0, 0.003560870707909448
1485.0, 0.002499370247910416
1486.0, 0.002555946306934045
1487.0, 0.0028436924196820006
1488.0, 0.0022693503005114394
1489.0, 0.0029405321524228383
1490.0, 0.0020322834542981162
1491.0, 0.0017093078630029167
1492.0, 0.0015158042858425228
1493.0, 0.0006341383300073398
1494.0, 0.0015495798698910597
1495.0, 0.0014807013767340234
1496.0, 0.0008803341843536447
1497.0, 0.0010645531770817527
1498.0, 0.001025397254325883
1499.0, 0.0006797835590330236
1500.0, 0.0006826586840332408
1501.0, 0.0007511306775482343
1502.0, 0.0004583570428378409
1503.0, 0.0003246633997887519
1504.0, 0.0006476350749940674
1505.0, 0.000601654755984362
1506.0, 0.0007855101788006259
1507.0, 0.00013020084003224696
1508.0, 0.0006846385397741197
1509.0, 0.0004149165385304392
1510.0, 0.0015294722445114352
1511.0, 0.000975428565059108
1512.0, 0.0008273012036099077
1513.0, 0.000656879878665269
1514.0, 0.0006442427728375752
1515.0, 0.0003059313390440176
1516.0, 0.001135600072953761
1517.0, 0.0007542919887698681
1518.0, 0.0008616719579476837
1519.0, 0.0014929259309270422
1520.0, 0.0007610919367936995
1521.0, 0.00029429744523784215
1522.0, 0.001259105968813683
1523.0, 0.001228215645075571
1524.0, 0.00032258881995121235
1525.0, 0.0007091564437855598
1526.0, 0.0010628090375605123
1527.0, 0.0008172119968732847
1528.0, 0.0007038970598348956
1529.0, 0.0017181197062434896
1530.0, 0.001962246920265767
1531.0, 0.0014521279544494052
1532.0, 0.0019530641456336848
1533.0, 0.0016082407961700229
1534.0, 0.0015211479514333358
1535.0, 0.0025657671063465245
1536.0, 0.002338024755463873
1537.0, 0.0027889418537316068
1538.0, 0.0023979219237884814
1539.0, 0.0017494714770307212
1540.0, 0.0016363036324606728
1541.0, 0.0013898529215300923
1542.0, 0.0017432206270984617
1543.0, 0.002104450449038129
1544.0, 0.0016801363869836203
1545.0, 0.0019023802484738654
1546.0, 0.0018148876093976966
1547.0, 0.0013354531591213369
1548.0, 0.0019456122444551415
1549.0, 0.001971482448160436
1550.0, 0.001505419480433698
1551.0, 0.0008868376173789894
1552.0, 0.0006810178268071631
1553.0, 0.0010577293676944646
1554.0, 0.0018760170002592978
1555.0, 0.0011649317486920265
1556.0, 0.001696553464387249
1557.0, 0.001870370055817966
1558.0, 0.0012643924146339375
1559.0, 0.00016635310499274177
1560.0, 0.0016451493962883878
1561.0, 0.000785051920444285
1562.0, 0.002014622526656737
1563.0, 0.0015116052050503349
1564.0, 0.00034864578030416527
1565.0, 2.433424190978214e-06
1566, 0.0
1567, 0.0
1568, 0.0
1569, 0.0
1570, 0.0
1571, 0.0
1572, 0.0
1573, 0.0
1574, 0.0
1575, 0.0
1576, 0.0
1577, 0.0
1578, 0.0
1579, 0.0
1580, 0.0
1581, 0.0
1582, 0.0
1583, 0.0
1584, 0.0
1585, 0.0
1586, 0.0
1587, 0.0
1588, 0.0
1589, 0.0
1590, 0.0
1591, 0.0
1592, 0.0
1593, 0.0
1594, 0.0
1595, 0.0
1596, 0.0
1597, 0.0
1598, 0.0
1599, 0.0
