30, 0.0
31, 0.0
32, 0.0
33, 0.0
34, 0.0
35, 0.0
36, 0.0
37, 0.0
38, 0.0
39, 0.0
40, 0.0
41, 0.0
42, 0.0
43, 0.0
44, 0.0
45, 0.0
46, 0.0
47, 0.0
48, 0.0
49, 0.0
50, 0.0
51, 0.0
52, 0.0
53, 0.0
54, 0.0
55, 0.0
56, 0.0
57, 0.0
58, 0.0
59, 0.0
60, 0.0
61, 0.0
62, 0.0
63, 0.0
64, 0.0
65, 0.0
66, 0.0
67, 0.0
68, 0.0
69, 0.0
70, 0.0
71, 0.0
72, 0.0
73, 0.0
74, 0.0
75, 0.0
76, 0.0
77, 0.0
78, 0.0
79, 0.0
80, 0.0
81, 0.0
82, 0.0
83, 0.0
84, 0.0
85, 0.0
86, 0.0
87, 0.0
88, 0.0
89, 0.0
90, 0.0
91, 0.0
92, 0.0
93, 0.0
94, 0.0
95, 0.0
96, 0.0
97, 0.0
98, 0.0
99, 0.0
100, 0.0
101, 0.0
102, 0.0
103, 0.0
104, 0.0
105, 0.0
106, 0.0
107, 0.0
108, 0.0
109, 0.0
110, 0.0
111, 0.0
112, 0.0
113, 0.0
114, 0.0
115, 0.0
116, 0.0
117, 0.0
118, 0.0
119, 0.0
120, 0.0
121, 0.0
122.0, 0.0021392437732218536
123.0, 0.05100967605817372
124.0, 0.12819129775871713
125.0, 0.19596014662722377
126.0, 0.22149826495893601
127.0, 0.22110551468989387
128.0, 0.19966157171541454
129.0, 0.17543013356960394
130.0, 0.17110219220608744
131.0, 0.18573841233137997
132.0, 0.22837165984483632
133.0, 0.2748031927656397
134.0, 0.28418203162627387
135.0, 0.20532034979909505
136.0, 0.12486177919292778
137.0, 0.08504242010125988
138.0, 0.09004844866971705
139.0, 0.10599061298290785
140.0, 0.12816945280293385
141.0, 0.14379255711161584
142.0, 0.15186548594513993
143.0, 0.17055890543839622
144.0, 0.1922286845302256
145.0, 0.20709063495701635
146.0, 0.20409629590299583
147.0, 0.1720476175948571
148.0, 0.11811861732372954
149.0, 0.06579235452721269
150.0, 0.02568455968737173
151.0, 0.01994608050584807
152.0, 0.012593794091816112
153.0, 0.008039395073972723
154.0, 0.0047364629618489185
155.0, 0.002192281828210142
156.0, 0.0010864981892531773
157.0, 0.0007689439427832166
158.0, 0.0019446103694189705
159.0, 0.003326113704122416
160.0, 0.006968289186164965
161.0, 0.01144070075794322
162.0, 0.01568450603374415
163.0, 0.023581459738167245
164.0, 0.037846566006082216
165.0, 0.04226592722135396
166.0, 0.057612615358328303
167.0, 0.08273276548329186
168.0, 0.10800965771911274
169.0, 0.13868078385155752
170.0, 0.17479183885460237
171.0, 0.21041659477615188
172.0, 0.24123265728080887
173.0, 0.26873530450625616
174.0, 0.29939115234225383
175.0, 0.335145161520945
176.0, 0.37161511978978995
177.0, 0.39654389258047995
178.0, 0.3745276074649378
179.0, 0.3166413226431999
180.0, 0.24321028244508225
181.0, 0.17873931221921896
182.0, 0.12546442274236208
183.0, 0.0924191109217774
184.0, 0.07170873103563999
185.0, 0.05322853443186485
186.0, 0.03977116625348824
187.0, 0.028272913099460874
188.0, 0.02338346330385312
189.0, 0.02300653238518449
190.0, 0.018016392886195852
191.0, 0.015273110429200631
192.0, 0.014743933365770902
193.0, 0.013440782258933293
194.0, 0.010169373216151946
195.0, 0.013887537418975358
196.0, 0.01512816008389092
197.0, 0.017139303000353177
198.0, 0.024849361961846988
199.0, 0.03628698277035439
200.0, 0.04364416156130413
201.0, 0.048889927660330366
202.0, 0.054031330416585505
203.0, 0.0590126331155921
204.0, 0.06879828703668939
205.0, 0.0757837491166093
206.0, 0.0826355196303964
207.0, 0.09433146256078175
208.0, 0.1044229691117331
209.0, 0.10862216725371167
210.0, 0.1032903277348975
211.0, 0.08868391978497853
212.0, 0.07010449591791154
213.0, 0.05992557632499532
214.0, 0.05268265783534846
215.0, 0.04652646727618727
216.0, 0.04367622291334846
217.0, 0.043879167418662
218.0, 0.04983678361470357
219.0, 0.05507114475907576
220.0, 0.05567891868941203
221.0, 0.0625224489167296
222.0, 0.06886655630212066
223.0, 0.06951095018804276
224.0, 0.06231316011156214
225.0, 0.04833917634699932
226.0, 0.031205567833612842
227.0, 0.01766608834606258
228.0, 0.009848745292316172
229.0, 0.007038915893190761
230.0, 0.008135552206639637
231.0, 0.005123019853986813
232.0, 0.0005856322349049453
233.0, 0.0017831529816012225
234.0, 0.0031994950022228934
235.0, 0.0008276381365713973
236.0, 0.0007717885871865245
237.0, 0.0013871684043355583
238.0, 0.005414274636915264
239.0, 0.0011440965635646262
240.0, 0.00042289144815730044
241.0, 0.00373069757166941
242.0, 0.00702124633660974
243.0, 0.003203614649533904
244.0, 0.0003880243581948264
245.0, 0.0010305488114688921
246.0, 0.004605088133817785
247.0, 0.006130882181493678
248.0, 0.006736294669042492
249.0, 0.005223906051617565
250.0, 0.0034252618262536603
251.0, 0.00413453272533713
252.0, 0.008802498780023095
253.0, 0.003013461301983884
254.0, 0.0016169239460996744
255.0, 0.001311854302092561
256.0, 0.0004715813031397261
257.0, 0.007005897189442098
258.0, 0.01127836861632739
259.0, 0.013882874961333376
260.0, 0.01754651535567123
261.0, 0.024523379855815514
262.0, 0.03398756530677403
263.0, 0.04549875720956625
264.0, 0.058714687441405844
265.0, 0.07250100708646606
266.0, 0.0844633768909836
267.0, 0.10137069217391147
268.0, 0.11739458832897566
269.0, 0.13074775624478346
270.0, 0.14711843656352527
271.0, 0.1670085975869802
272.0, 0.18389533444114464
273.0, 0.19408515505222515
274.0, 0.19538093115594968
275.0, 0.18386534940432397
276.0, 0.16621864796441166
277.0, 0.1487252587962061
278.0, 0.13402081600115148
279.0, 0.12248631912978615
280.0, 0.11833182673957204
281.0, 0.11534030600041385
282.0, 0.11320495698822783
283.0, 0.10979934783738264
284.0, 0.0952773900054269
285.0, 0.07682321752006514
286.0, 0.0612007713650357
287.0, 0.05022333749355962
288.0, 0.04354759464717174
289.0, 0.04186237547005707
290.0, 0.03788675531296017
291.0, 0.03225731684293523
292.0, 0.030581386072121942
293.0, 0.03622886450305233
294.0, 0.040216663202799145
295.0, 0.04213916521037885
296.0, 0.04593195230770916
297.0, 0.05398367604086946
298.0, 0.05772925247107387
299.0, 0.07289591198638486
300.0, 0.07850437097702011
301.0, 0.07288544347178065
302.0, 0.07295709132679733
303.0, 0.07495358379156147
304.0, 0.0770846305339529
305.0, 0.08198537547079433
306.0, 0.09234385721024696
307.0, 0.10806954193669092
308.0, 0.12506556450098422
309.0, 0.13954475569247562
310.0, 0.14859922465246883
311.0, 0.149116979335182
312.0, 0.12868722114184636
313.0, 0.1053780832408277
314.0, 0.09839800178178326
315.0, 0.10576882229481221
316.0, 0.11269710072743366
317.0, 0.13706315341436018
318.0, 0.16681380301256535
319.0, 0.20169796519145547
320.0, 0.24236147695642915
321.0, 0.2823178785000105
322.0, 0.3298877397040921
323.0, 0.38144359268174416
324.0, 0.4334162878897028
325.0, 0.4835915080709725
326.0, 0.530211137088062
327.0, 0.5839812630480875
328.0, 0.6385884942109777
329.0, 0.685013256846763
330.0, 0.7156303602690862
331.0, 0.7354358329926394
332.0, 0.7339706287497996
333.0, 0.705964701451727
334.0, 0.6539615925784886
335.0, 0.5868734372474783
336.0, 0.514449072915895
337.0, 0.44238324770375737
338.0, 0.3756207281726484
339.0, 0.3180460152930828
340.0, 0.2720867695798537
341.0, 0.23853394353096197
342.0, 0.21438183996830193
343.0, 0.19863973586397665
344.0, 0.18926136635405538
345.0, 0.17913367613159709
346.0, 0.17935383802469096
347.0, 0.18069278043357132
348.0, 0.18149672775511297
349.0, 0.18806300848418087
350.0, 0.18808925837870252
351.0, 0.18944499906611056
352.0, 0.19331654303700746
353.0, 0.1920067724723567
354.0, 0.17465902432916122
355.0, 0.1573138662600931
356.0, 0.1408020133925593
357.0, 0.12463277131213828
358.0, 0.10922549288281791
359.0, 0.0975748530693915
360.0, 0.09181100632638003
361.0, 0.09079389907691805
362.0, 0.09247612363574488
363.0, 0.09590541967438769
364.0, 0.10382862831527169
365.0, 0.11247081301715149
366.0, 0.12081907270569173
367.0, 0.1308105058762812
368.0, 0.14636905220995106
369.0, 0.16710759326362182
370.0, 0.17714465561208168
371.0, 0.1795621052901813
372.0, 0.1804960168178553
373.0, 0.18234448921346064
374.0, 0.17462421665952915
375.0, 0.1614195485207789
376.0, 0.14940875679763937
377.0, 0.140285413900178
378.0, 0.13159166274019707
379.0, 0.1314636107646131
380.0, 0.1309178027105681
381.0, 0.1260816270339798
382.0, 0.11265967232165956
383.0, 0.0849339774770783
384.0, 0.05824694510741108
385.0, 0.03869338141982312
386.0, 0.02470230410777394
387.0, 0.014202619258190103
388.0, 0.008199123519079726
389.0, 0.002958024066201979
390.0, 0.001037645641854304
391.0, 0.0038976622024441913
392.0, 0.008186029462616193
393.0, 0.0054704054339787065
394.0, 0.002666781458537919
395.0, 0.006910136731875227
396.0, 0.014139459282745527
397.0, 0.01876530611389639
398.0, 0.02205752328173472
399.0, 0.02292027630383618
400.0, 0.022772237369707543
401.0, 0.024274977974349084
402.0, 0.02768267147625571
403.0, 0.027359624987128066
404.0, 0.027993431868527336
405.0, 0.030076575495532495
406.0, 0.029262473346379932
407.0, 0.021811198257993766
408.0, 0.01429171083334947
409.0, 0.012806654984348007
410.0, 0.006335954949657937
411.0, 0.004348769614883834
412.0, 0.008708078046164086
413.0, 0.005434714857317393
414.0, 0.005006532636319866
415.0, 0.005400618127008427
416.0, 0.006996680765000616
417.0, 0.010445638312475431
418.0, 0.008290194807069462
419.0, 0.00954344222188586
420.0, 0.010644717032359334
421.0, 0.009176345292344963
422.0, 0.006073728814359155
423.0, 0.004845101481603293
424.0, 0.00440610016904305
425.0, 0.005859756816238433
426.0, 0.0013324684912359155
427.0, 0.0029501798956178826
428.0, 0.00925266210050254
429.0, 0.008314210686654014
430.0, 0.008124842114631877
431.0, 0.012097681255834084
432.0, 0.017885037203637738
433.0, 0.0244612187509006
434.0, 0.02967531911163971
435.0, 0.036197206367443543
436.0, 0.04325771590740261
437.0, 0.05118525764629148
438.0, 0.06709149962277004
439.0, 0.07630456171079315
440.0, 0.08584138018463645
441.0, 0.09808161366616525
442.0, 0.10996870534688162
443.0, 0.1209305044571466
444.0, 0.1346247567747929
445.0, 0.14460988279264184
446.0, 0.14968874719192898
447.0, 0.15269005420732912
448.0, 0.15870055133421676
449.0, 0.16090654991927394
450.0, 0.1572440715082613
451.0, 0.14906972597675133
452.0, 0.13686453820228162
453.0, 0.11785926164924687
454.0, 0.09741400358049176
455.0, 0.08312916958959388
456.0, 0.07236872719127141
457.0, 0.060541700326059766
458.0, 0.0484251674942077
459.0, 0.03831383828628345
460.0, 0.035083028198743184
461.0, 0.03554957562048228
462.0, 0.035148598575934754
463.0, 0.031850906148229635
464.0, 0.026230653733100746
465.0, 0.026609954331049207
466.0, 0.030718172233825655
467.0, 0.032934986979350954
468.0, 0.030900115328337963
469.0, 0.035360472822691905
470.0, 0.03388066176015384
471.0, 0.033647302295108095
472.0, 0.039050809474337554
473.0, 0.04726572621524343
474.0, 0.05091490723416104
475.0, 0.050109853322483994
476.0, 0.051554718217818
477.0, 0.0561406362967998
478.0, 0.06156866568354231
479.0, 0.06794053087083864
480.0, 0.06808318941224122
481.0, 0.07085311071302709
482.0, 0.07570517821640006
483.0, 0.07940594721503351
484.0, 0.08830934949461344
485.0, 0.10155989267264204
486.0, 0.10710059414017975
487.0, 0.11156714027261969
488.0, 0.1235996245034244
489.0, 0.1444193686131285
490.0, 0.1667898206782558
491.0, 0.18554080533193074
492.0, 0.205365637869009
493.0, 0.22761481809381695
494.0, 0.2492456140512847
495.0, 0.2772414830264029
496.0, 0.3082357271440023
497.0, 0.3315299632630024
498.0, 0.3497663145112917
499.0, 0.3711093852458676
500.0, 0.39241901149685504
501.0, 0.41149879773191217
502.0, 0.4218910495954476
503.0, 0.4212886925874046
504.0, 0.41193480607162164
505.0, 0.4005288816128192
506.0, 0.3855024365063658
507.0, 0.35286521721412106
508.0, 0.3197591623408688
509.0, 0.2976049253002908
510.0, 0.27243487649297665
511.0, 0.23885932685971356
512.0, 0.2169608193486692
513.0, 0.19826544259450232
514.0, 0.1789311689381268
515.0, 0.16547321023935438
516.0, 0.15199243966644171
517.0, 0.13645668933018706
518.0, 0.1260165647825494
519.0, 0.11809450588797744
520.0, 0.10901448329744107
521.0, 0.10487996241916368
522.0, 0.10077257401947644
523.0, 0.09429220750509554
524.0, 0.08580923414625173
525.0, 0.07715411529994057
526.0, 0.06958875251781796
527.0, 0.06065591237894716
528.0, 0.05292484973706062
529.0, 0.042945356087901745
530.0, 0.032033112527357105
531.0, 0.024574942310292693
532.0, 0.02077262076085504
533.0, 0.015361569028780123
534.0, 0.015619986755372016
535.0, 0.014860316608744362
536.0, 0.008338889719151121
537.0, 0.005278842636825446
538.0, 0.007371921468046725
539.0, 0.006287223608531442
540.0, 0.004858325659147945
541.0, 0.0041423735903633584
542.0, 0.002027961071150737
543.0, 0.004804615755761737
544.0, 0.00452835075183355
545.0, 0.0039412799690145064
546.0, 0.005124711242417611
547.0, 0.0072032944671464524
548.0, 0.007585756801842245
549.0, 0.006789113373000407
550.0, 0.00298268400726098
551.0, 0.00025608808352651645
552.0, 0.00030313047569404685
553.0, 0.00020506183227190835
554.0, 0.003749658076816158
555.0, 0.004260437828824422
556.0, 0.002127119103235398
557.0, 0.00041578408898825355
558.0, 0.0007630366316234542
559.0, 0.0017450637556089513
560.0, 0.00035752408351666777
561.0, 0.001402067761936238
562.0, 0.0010502010485324157
563.0, 0.0014992785903613455
564.0, 0.001030395944964199
565.0, 0.00010742446688026338
566.0, 0.0026995584652058564
567.0, 0.0007981609576191945
568.0, 0.0019352675602221836
569.0, 0.0015453287341436726
570.0, 0.005697755547591018
571.0, 0.0041976851245203095
572.0, 0.0045161934443640715
573.0, 0.002073142234178837
574.0, 0.004571425672907263
575.0, 0.006300408295718162
576.0, 0.003511840948893192
577.0, 0.00804922284349671
578.0, 0.0050486951894627595
579.0, 0.0015971275324343768
580.0, 0.00688847394582427
581.0, 0.013247526075915915
582.0, 0.01117957169346888
583.0, 0.010606298559075168
584.0, 0.014378410698766443
585.0, 0.016639395218341246
586.0, 0.013908257498831685
587.0, 0.015762039751650556
588.0, 0.01620424119362712
589.0, 0.015560391224866065
590.0, 0.017725395221503702
591.0, 0.02222193946901805
592.0, 0.02532240264287786
593.0, 0.029989910200689467
594.0, 0.029024174388402338
595.0, 0.027674790385393774
596.0, 0.02954137169787168
597.0, 0.03212320741766249
598.0, 0.030365257943859462
599.0, 0.035602969936273744
600.0, 0.035479244559021794
601.0, 0.03568311531658963
602.0, 0.04053974232923849
603.0, 0.04547079909457463
604.0, 0.042365195604638806
605.0, 0.04974160463029192
606.0, 0.059725679593250876
607.0, 0.06641622001418207
608.0, 0.07053171931607244
609.0, 0.07527331073676143
610.0, 0.0811723117185529
611.0, 0.09102585092006056
612.0, 0.10369794562182147
613.0, 0.11182065464712738
614.0, 0.11434182550244919
615.0, 0.12284806670226629
616.0, 0.1389973373322987
617.0, 0.1509799369264966
618.0, 0.16320272970528182
619.0, 0.1756567105599123
620.0, 0.18511097708779745
621.0, 0.19302083815287358
622.0, 0.20723941078489502
623.0, 0.21266638828992052
624.0, 0.2196888126895554
625.0, 0.22493366884983643
626.0, 0.21918420352048118
627.0, 0.21223127225286884
628.0, 0.20314794314895374
629.0, 0.18365457831182225
630.0, 0.1657072310185565
631.0, 0.14964301615325976
632.0, 0.12855020958439173
633.0, 0.11668057809342942
634.0, 0.10308790600294522
635.0, 0.08986872075249508
636.0, 0.08297504222726218
637.0, 0.08132731654644716
638.0, 0.08060077508307521
639.0, 0.09037114102940627
640.0, 0.09880553274502737
641.0, 0.11053716811403781
642.0, 0.11998219803621671
643.0, 0.12848595169227892
644.0, 0.14520402991978318
645.0, 0.15961351912538604
646.0, 0.17331722534500216
647.0, 0.1888403763253633
648.0, 0.2013432038931416
649.0, 0.2116168005400589
650.0, 0.22575925551416615
651.0, 0.2230754858676826
652.0, 0.21395685408891377
653.0, 0.21216689555892912
654.0, 0.2085364639138648
655.0, 0.19456058799833353
656.0, 0.17588462608741492
657.0, 0.15072370737331292
658.0, 0.1297990308016682
659.0, 0.11470751597731485
660.0, 0.10664625699781419
661.0, 0.10062864402440949
662.0, 0.0875648052752238
663.0, 0.07845649529525024
664.0, 0.07844305207879815
665.0, 0.0716114641673075
666.0, 0.0671536756651487
667.0, 0.07100318924926394
668.0, 0.06692805678674839
669.0, 0.06567916565930057
670.0, 0.061278511398132667
671.0, 0.05614591349757202
672.0, 0.053071380986334606
673.0, 0.0498985239648734
674.0, 0.04260442625099202
675.0, 0.03253001906894917
676.0, 0.025254237771443953
677.0, 0.025112263129758075
678.0, 0.023050442002499543
679.0, 0.016109542577744794
680.0, 0.013644775578817643
681.0, 0.010603848452214227
682.0, 0.007630133140088921
683.0, 0.009432764756680272
684.0, 0.008528030385211587
685.0, 0.006087632177685229
686.0, 0.011504470778021376
687.0, 0.010842901454569061
688.0, 0.0043559497774554035
689.0, 0.00280940136231085
690.0, 0.004459195174799938
691.0, 0.003797488270995816
692.0, 0.0009216773017483152
693.0, 0.0030876567097042644
694.0, 0.0005643388352069785
695.0, 0.00541269962024585
696.0, 0.009787174556329837
697.0, 0.006105036423766135
698.0, 0.00106765098287625
699.0, 0.0013070785547602886
700.0, 0.0028896973454818164
701.0, 0.0008517811956192955
702.0, 0.0011547472278351932
703.0, 0.0008628999389256184
704.0, 0.0004794103872359456
705.0, 0.0021192171783901252
706.0, 0.002090867950814206
707.0, 0.0018847163175908913
708.0, 0.0024466863859056278
709.0, 0.0015891288286279772
710.0, 0.005115181428439139
711.0, 0.0027269810548300653
712.0, 0.007588652916723572
713.0, 0.00535914215699162
714.0, 0.0031329600332882473
715.0, 0.0036757680628537806
716.0, 0.0047207483208775445
717.0, 0.00664899717149733
718.0, 0.0028562461076390407
719.0, 0.003643921946382871
720.0, 0.0034015125890185533
721.0, 0.0030003493151249
722.0, 0.0032282944198269753
723.0, 0.0026193869187755327
724.0, 0.0022245543959458916
725.0, 0.0033886819075624576
726.0, 0.0010684344664244937
727.0, 0.0015483981269378178
728.0, 0.004226642245902074
729.0, 0.0025099130948399
730.0, 0.0030563325224437564
731.0, 0.0107250128003965
732.0, 0.008438292679798093
733.0, 0.010373817113983066
734.0, 0.011854234788699368
735.0, 0.011386799673527067
736.0, 0.01523560444994198
737.0, 0.006917281499720808
738.0, 0.013778697043641302
739.0, 0.02000436832386363
740.0, 0.017670009151582552
741.0, 0.014939956836347508
742.0, 0.01766923708327285
743.0, 0.016356031525603543
744.0, 0.013474959483460551
745.0, 0.012176972561311951
746.0, 0.012533557890113387
747.0, 0.014230671924636753
748.0, 0.01643539246715556
749.0, 0.016822207429065386
750.0, 0.014263159855229003
751.0, 0.012313743601713318
752.0, 0.014721304241368945
753.0, 0.017786129757180958
754.0, 0.01803414666422916
755.0, 0.01839247045221241
756.0, 0.024346106158781897
757.0, 0.018754151749541113
758.0, 0.014007208758729638
759.0, 0.012698557748556346
760.0, 0.012933740945951261
761.0, 0.015313622138628784
762.0, 0.019199498193907007
763.0, 0.012954910509039238
764.0, 0.018909362690476068
765.0, 0.018138804602222714
766.0, 0.012367725908887309
767.0, 0.01260059178372674
768.0, 0.018372744207909235
769.0, 0.018934976579862425
770.0, 0.02114754010714665
771.0, 0.01907066578071173
772.0, 0.01429611284606857
773.0, 0.012018205199431673
774.0, 0.0105079088438151
775.0, 0.006003463456030197
776.0, 0.010561828419620337
777.0, 0.009732638437247624
778.0, 0.0037030171673319377
779.0, 0.00400450462829645
780.0, 0.0063903346494582555
781.0, 0.0038204114434055767
782.0, 0.001637245824598154
783.0, 0.004726958384391742
784.0, 0.003393100138243042
785.0, 0.0010822372092004903
786.0, 0.0016921337355082743
787.0, 0.002919220316124056
788.0, 0.00145011405861781
789.0, 0.002978291839942412
790.0, 0.004357778494259355
791.0, 0.0044260195129192225
792.0, 0.004377020751727577
793.0, 0.0004172884298894661
794.0, 0.000466843008815119
795.0, 0.002680553429152685
796.0, 0.0029254402933120245
797.0, 0.006785950724578568
798.0, 0.004982506677696902
799.0, 0.0004939602446192013
800.0, 0.003797395576811017
801.0, 0.0017736249556613932
802.0, 0.002601255024467978
803.0, 0.002487189618313614
804.0, 0.001234622684410151
805.0, 0.004882409871409678
806.0, 0.0030287781525754234
807.0, 0.004777445390220489
808.0, 0.003042089267402922
809.0, 0.006838916835600527
810.0, 0.0035700163910148486
811.0, 0.0008471923664682347
812.0, 0.0006946493665634353
813.0, 0.000984991072017702
814.0, 0.002801860309056105
815.0, 0.0019482701940286527
816.0, 0.005517443082354498
817.0, 0.010754706590659935
818.0, 0.013929054537461188
819.0, 0.02313297346602651
820.0, 0.03577162488027771
821.0, 0.045407901557354524
822.0, 0.050984826383793605
823.0, 0.05724118528303797
824.0, 0.0643330504176234
825.0, 0.06522685170523744
826.0, 0.07449783662741528
827.0, 0.09038730468111664
828.0, 0.1036935590553393
829.0, 0.11222013839409184
830.0, 0.1236887146547975
831.0, 0.1345157085990135
832.0, 0.16127089290854163
833.0, 0.18276523728563834
834.0, 0.19938374415162008
835.0, 0.22019007736616578
836.0, 0.24306084460778093
837.0, 0.2592702399272151
838.0, 0.278939559742882
839.0, 0.3021441563860966
840.0, 0.3164112802011471
841.0, 0.33575300323039764
842.0, 0.35160979847735685
843.0, 0.3535976650433621
844.0, 0.3588432254463584
845.0, 0.36423105584618753
846.0, 0.36152449032584655
847.0, 0.34983958243313795
848.0, 0.3382708601789416
849.0, 0.32423709535444667
850.0, 0.30564113420826966
851.0, 0.2901198037279156
852.0, 0.2751315906434114
853.0, 0.2597424979519006
854.0, 0.2566470195409728
855.0, 0.25739764343933497
856.0, 0.2587884272355635
857.0, 0.26401047766088703
858.0, 0.2753326812890463
859.0, 0.291618962353771
860.0, 0.30800203714610963
861.0, 0.3253464801508777
862.0, 0.35496412220617496
863.0, 0.38788326693584363
864.0, 0.42234847026558575
865.0, 0.4631831045018132
866.0, 0.5015654969893001
867.0, 0.5418023659815364
868.0, 0.5841084424996421
869.0, 0.6336621874232897
870.0, 0.6834128704753385
871.0, 0.7344290307864656
872.0, 0.7867971007268497
873.0, 0.8291306869168392
874.0, 0.8676440045989241
875.0, 0.908409002706898
876.0, 0.9386936282958849
877.0, 0.9657387259041366
878.0, 0.9889134759609366
879.0, 0.9999442224547246
880.0, 0.9965889201133122
881.0, 0.9823450176785389
882.0, 0.9580139113983595
883.0, 0.9160910027973231
884.0, 0.8570002316110086
885.0, 0.7879386675302607
886.0, 0.7128825104880223
887.0, 0.6338052665084394
888.0, 0.5559000211875259
889.0, 0.47427795784833504
890.0, 0.4056464600287928
891.0, 0.35937356193692643
892.0, 0.31469627341327217
893.0, 0.27014622013391576
894.0, 0.23518656464213614
895.0, 0.209786121048409
896.0, 0.18855119837176654
897.0, 0.1701451291357981
898.0, 0.1506805781764551
899.0, 0.1327754737641564
900.0, 0.12769292842985774
901.0, 0.1292531875989577
902.0, 0.12517314470316232
903.0, 0.12045237022714891
904.0, 0.12606192695304697
905.0, 0.13910586562213254
906.0, 0.15776097294967625
907.0, 0.17346293883877156
908.0, 0.19001142590042422
909.0, 0.212919975980873
910.0, 0.24060991411526553
911.0, 0.26993239458428925
912.0, 0.2967790062760788
913.0, 0.32233326869924267
914.0, 0.3316000717596169
915.0, 0.32154574388860296
916.0, 0.293730152413462
917.0, 0.24994726577681894
918.0, 0.1958144839178668
919.0, 0.13957402366929245
920.0, 0.0982523771201282
921.0, 0.06432476391811895
922.0, 0.04364434437553516
923.0, 0.03165218377131707
924.0, 0.021924943536139007
925.0, 0.0147778484248232
926.0, 0.011042170237989533
927.0, 0.00428630439578819
928.0, 0.009743011686102396
929.0, 0.009034324930233524
930.0, 0.004933897713451693
931.0, 0.004155581788387989
932.0, 0.0016406445605957592
933.0, 0.012215954741215054
934.0, 0.005637871740221431
935.0, 0.011474685649452077
936.0, 0.010513154890415616
937.0, 0.007790377248298473
938.0, 0.003477651628009876
939.0, 0.0007665926427704692
940.0, 0.006707469385565338
941.0, 0.012729016614778392
942.0, 0.011469308284417331
943.0, 0.018804850095062046
944.0, 0.0295874600795942
945.0, 0.03772984797078146
946.0, 0.04814907823643133
947.0, 0.05789632515217495
948.0, 0.0663267419769561
949.0, 0.07526669569366645
950.0, 0.08224787327905338
951.0, 0.09887090772923679
952.0, 0.11182368070880412
953.0, 0.1336438984351804
954.0, 0.15702421994923826
955.0, 0.18438395335173066
956.0, 0.21649312984854815
957.0, 0.2522673054401623
958.0, 0.2960971095014598
959.0, 0.3369676058909163
960.0, 0.3908808983715708
961.0, 0.44098031324193754
962.0, 0.5002907702104541
963.0, 0.5567389119512233
964.0, 0.5908734749527869
965.0, 0.5870587738631657
966.0, 0.5332095075688176
967.0, 0.43500552285375343
968.0, 0.32748142326373436
969.0, 0.24148938690910585
970.0, 0.17423859715795598
971.0, 0.13029240174667528
972.0, 0.09859498308695182
973.0, 0.071173522977436
974.0, 0.05574223605162752
975.0, 0.043555734040331556
976.0, 0.027442151799280345
977.0, 0.01886073814468513
978.0, 0.01819886677085652
979.0, 0.015852057376188902
980.0, 0.015020417503110877
981.0, 0.019302877471816308
982.0, 0.022942097037044598
983.0, 0.0223357225598544
984.0, 0.016041408525748486
985.0, 0.01881928971067131
986.0, 0.020697296140978406
987.0, 0.018769569587008806
988.0, 0.02341357017737312
989.0, 0.030167472720605052
990.0, 0.03182325062396667
991.0, 0.0360381152707419
992.0, 0.03217611391491732
993.0, 0.02025252188871832
994.0, 0.018987064226435046
995.0, 0.009069750416137926
996.0, 0.00048725342811728847
997.0, 0.002005405908187057
998.0, 0.0017222159912391275
999.0, 0.0007223980999243281
1000.0, 0.00044679207569622425
1001.0, 0.002568131048090391
1002.0, 0.005427399190985445
1003.0, 0.0027242396535920002
1004.0, 0.0009631784869118706
1005.0, 0.0007129499282320894
1006.0, 0.004287040171479519
1007.0, 0.006414289115760934
1008.0, 0.0016895934751010068
1009.0, 0.0007978064168075248
1010.0, 0.0014552690011741115
1011.0, 0.0028881728216382098
1012.0, 0.0011391807664591633
1013.0, 0.006056504755744767
1014.0, 0.004161907803721437
1015.0, 0.0013069366497680207
1016.0, 0.0027168068134024647
1017.0, 0.005321464792874564
1018.0, 0.006694123804988257
1019.0, 0.0068609581450424974
1020.0, 0.004327728507086895
1021.0, 0.004483985275552453
1022.0, 0.006414654916013862
1023.0, 0.006834915558477263
1024.0, 0.01109328020943309
1025.0, 0.018573911484552307
1026.0, 0.01561052298154097
1027.0, 0.013961457227874967
1028.0, 0.020115880279864544
1029.0, 0.0215232443816336
1030.0, 0.02461534938155739
1031.0, 0.01929594111785737
1032.0, 0.018045220057283536
1033.0, 0.022515056358278024
1034.0, 0.01836731019696359
1035.0, 0.017047896988438116
1036.0, 0.022173061236406673
1037.0, 0.018531942133780652
1038.0, 0.023853126382453668
1039.0, 0.02252479950002942
1040.0, 0.02480178223948483
1041.0, 0.022778804161699605
1042.0, 0.019510831662176053
1043.0, 0.023655459821159606
1044.0, 0.01886924812582395
1045.0, 0.014802120100891894
1046.0, 0.011478624968230178
1047.0, 0.016736451592112154
1048.0, 0.01566441692785088
1049.0, 0.014469234151287584
1050.0, 0.014267062480088221
1051.0, 0.010267027018724846
1052.0, 0.00848206988665416
1053.0, 0.013114533137452563
1054.0, 0.005553214758595344
1055.0, 0.007684166690590086
1056.0, 0.012380776057837835
1057.0, 0.004622792748440551
1058.0, 0.0056050888038123425
1059.0, 0.011509563669642994
1060.0, 0.00855269035317737
1061.0, 0.003971956778108133
1062.0, 0.007876094931367417
1063.0, 0.0099414172371751
1064.0, 0.005952653225467188
1065.0, 0.007972738810933033
1066.0, 0.009087671903969901
1067.0, 0.006568890158560096
1068.0, 0.00796961280446063
1069.0, 0.006525501164471879
1070.0, 0.002473030112847144
1071.0, 0.0053258441202870535
1072.0, 0.009495905290006965
1073.0, 0.014143287943176945
1074.0, 0.013743001004674574
1075.0, 0.014421652423773869
1076.0, 0.013215782133041415
1077.0, 0.018062042589503256
1078.0, 0.015841799686762845
1079.0, 0.010126301682372335
1080.0, 0.009564099955968674
1081.0, 0.005620744625221075
1082.0, 0.0012029439561457534
1083.0, 0.007738435445051629
1084.0, 0.010523340289283045
1085.0, 0.008196673684292577
1086.0, 0.004050131117402853
1087.0, 0.002309078499579002
1088.0, 0.002609943929112305
1089.0, 0.005904435406741688
1090.0, 0.008464228756143291
1091.0, 0.004601480867434649
1092.0, 0.005518556289170262
1093.0, 0.003797758274248958
1094.0, 0.001743000721549123
1095.0, 0.004688503885757417
1096.0, 0.006958586085912154
1097.0, 0.0055342867668024785
1098.0, 0.004682463125660764
1099.0, 0.003419017965995312
1100.0, 0.0018642179840765538
1101.0, 0.005288434672272276
1102.0, 0.0016789272483877286
1103.0, 0.0022461691106788867
1104.0, 0.004343100081679285
1105.0, 0.004546608993554968
1106.0, 0.007177380492613789
1107.0, 0.010219078926454767
1108.0, 0.010291050754242819
1109.0, 0.006289542371481186
1110.0, 0.002353121396449941
1111.0, 0.0035350576551190383
1112.0, 0.0038826309403982152
1113.0, 0.008538583747946511
1114.0, 0.007468627073606986
1115.0, 0.009949763466998815
1116.0, 0.011001435667064218
1117.0, 0.0047096149561632735
1118.0, 0.0037065564341456246
1119.0, 0.010264028181193785
1120.0, 0.017339292199007088
1121.0, 0.01081182947988482
1122.0, 0.012017334896726043
1123.0, 0.013801250105340208
1124.0, 0.012762219883280572
1125.0, 0.013901616520017996
1126.0, 0.00927703965002632
1127.0, 0.006275892288753514
1128.0, 0.007128867542281221
1129.0, 0.004802052561647161
1130.0, 0.001080528311108499
1131.0, 0.0009127257855798832
1132.0, 0.003466596750977476
1133.0, 0.0027787309244099866
1134.0, 0.0045577512051732435
1135.0, 0.006276079504610387
1136.0, 0.0045116244642011746
1137.0, 0.00454538287590305
1138.0, 0.00936618680539844
1139.0, 0.010507119220465622
1140.0, 0.009119543602299387
1141.0, 0.010538358609123102
1142.0, 0.008503241595510849
1143.0, 0.007147048573770651
1144.0, 0.008583688761472634
1145.0, 0.007970926403656261
1146.0, 0.011758123241340446
1147.0, 0.019839744079175024
1148.0, 0.020464274765562507
1149.0, 0.018651688182238755
1150.0, 0.019866820395028923
1151.0, 0.020728358443517853
1152.0, 0.018139026584486108
1153.0, 0.017123912937116032
1154.0, 0.01893295089324533
1155.0, 0.014346394464315742
1156.0, 0.019361880037549635
1157.0, 0.01608349207503759
1158.0, 0.017748110024964465
1159.0, 0.01540821909374169
1160.0, 0.01507240596882799
1161.0, 0.015278929051996345
1162.0, 0.011029318991450147
1163.0, 0.009535683818933698
1164.0, 0.014672642715122534
1165.0, 0.012448132557033965
1166.0, 0.011435145163772021
1167.0, 0.017887470507171058
1168.0, 0.014499384597443885
1169.0, 0.006725899779840856
1170.0, 0.007637210608730962
1171.0, 0.003668233598655073
1172.0, 0.0015158397757727095
1173.0, 0.0025587533349690434
1174.0, 0.0068728178161568095
1175.0, 0.003054764120268008
1176.0, 0.0008425388594468393
1177.0, 0.00028911546014139574
1178.0, 0.0023234940448687742
1179.0, 0.006119485842896482
1180.0, 0.006666344812641775
1181.0, 0.006884443124512757
1182.0, 0.0047818004427448305
1183.0, 0.0008135383557539089
1184.0, 0.0006778616059309195
1185.0, 0.0011538456290871445
1186.0, 0.0013165137190902093
1187.0, 0.006078242327969971
1188.0, 0.004883503957716911
1189.0, 0.0003097140734893448
1190.0, 0.0019101941722754713
1191.0, 0.005454615329410164
1192.0, 0.0029416452378893754
1193.0, 0.0023167913272801465
1194.0, 0.0028208690392214817
1195.0, 0.0012140291701593824
1196.0, 0.0015824319641964454
1197.0, 0.0021024859912002706
1198.0, 0.004656977162184152
1199.0, 0.005229993885299595
1200.0, 0.01066705417374254
1201.0, 0.007719973210507862
1202.0, 0.012699787534479116
1203.0, 0.008457786184064689
1204.0, 0.005952238944501216
1205.0, 0.005168730219025838
1206.0, 0.0066596215463763184
1207.0, 0.00533069160186837
1208.0, 0.0032022883824599185
1209.0, 0.005340828905564111
1210.0, 0.007114342778462137
1211.0, 0.008598018959537943
1212.0, 0.010935760906048812
1213.0, 0.013176026372273586
1214.0, 0.011091515457328276
1215.0, 0.009737283283593617
1216.0, 0.008357786792816888
1217.0, 0.014419840785272088
1218.0, 0.01559021710099913
1219.0, 0.011752139762492293
1220.0, 0.010206833533097178
1221.0, 0.010303182167701121
1222.0, 0.010313766049861516
1223.0, 0.010144227514892865
1224.0, 0.006045135902295844
1225.0, 0.011232233415905393
1226.0, 0.000708579398045005
1227.0, 0.00993795553995483
1228.0, 0.009307995064672822
1229.0, 0.006131124249377748
1230.0, 0.000662573601631753
1231.0, 0.004355397165659433
1232.0, 0.005773600391898839
1233.0, 0.0007128733361134888
1234.0, 0.0007074777009138613
1235.0, 0.0004370892888556971
1236.0, 0.0010713592203391797
1237.0, 0.0008229646599682134
1238.0, 0.005369914654648549
1239.0, 0.011914045010758496
1240.0, 0.010633135657449907
1241.0, 0.006924519041273209
1242.0, 0.007757566854124332
1243.0, 0.0019117670705959672
1244.0, 0.00219319212577635
1245.0, 0.0024090624263227497
1246.0, 0.0019967396409190825
1247.0, 0.0050670544873841275
1248.0, 0.0012621727904251372
1249.0, 0.002180122597284231
1250.0, 0.00863282534821335
1251.0, 0.006612463547526754
1252.0, 0.002288422938177621
1253.0, 3.26162442130715e-05
1254.0, 0.01234961471575012
1255.0, 0.01048196423176201
1256.0, 0.008378166540865479
1257.0, 0.0064841270026193285
1258.0, 0.0032037745821387647
1259.0, 0.002625688160290828
1260.0, 0.00595768211373761
1261.0, 0.008507026219316979
1262.0, 0.005629073275839409
1263.0, 0.005791939738439842
1264.0, 0.005824804032236773
1265.0, 0.006230987717980413
1266.0, 0.006784644556313222
1267.0, 0.009063030682960152
1268.0, 0.005461503217152975
1269.0, 0.012009325923402741
1270.0, 0.010900838432364933
1271.0, 0.005509658077716783
1272.0, 0.005387831249507535
1273.0, 0.006350954693067125
1274.0, 0.008428927944986194
1275.0, 0.01331300793367537
1276.0, 0.012445002355637759
1277.0, 0.009492118706801271
1278.0, 0.012752016968855966
1279.0, 0.014198888094430154
1280.0, 0.004801860005138182
1281.0, 0.006306146171836404
1282.0, 0.0038630226816770133
1283.0, 0.0003724410781168779
1284.0, 0.0048905299179542155
1285.0, 0.007698121334016337
1286.0, 0.0023247152719134117
1287.0, 0.0004248950514873562
1288, 0.0
1289, 0.0
1290, 0.0
1291, 0.0
1292, 0.0
1293, 0.0
1294, 0.0
1295, 0.0
1296, 0.0
1297, 0.0
1298, 0.0
1299, 0.0
1300, 0.0
1301, 0.0
1302, 0.0
1303, 0.0
1304, 0.0
1305, 0.0
1306, 0.0
1307, 0.0
1308, 0.0
1309, 0.0
1310, 0.0
1311, 0.0
1312, 0.0
1313, 0.0
1314, 0.0
1315, 0.0
1316, 0.0
1317, 0.0
1318, 0.0
1319, 0.0
1320, 0.0
1321, 0.0
1322, 0.0
1323, 0.0
1324, 0.0
1325, 0.0
1326, 0.0
1327, 0.0
1328, 0.0
1329, 0.0
1330, 0.0
1331, 0.0
1332, 0.0
1333, 0.0
1334, 0.0
1335, 0.0
1336, 0.0
1337, 0.0
1338, 0.0
1339, 0.0
1340, 0.0
1341, 0.0
1342, 0.0
1343, 0.0
1344, 0.0
1345, 0.0
1346, 0.0
1347, 0.0
1348, 0.0
1349, 0.0
1350, 0.0
1351, 0.0
1352, 0.0
1353, 0.0
1354, 0.0
1355, 0.0
1356, 0.0
1357, 0.0
1358, 0.0
1359, 0.0
1360, 0.0
1361, 0.0
1362, 0.0
1363, 0.0
1364, 0.0
1365, 0.0
1366, 0.0
1367, 0.0
1368, 0.0
1369, 0.0
1370, 0.0
1371, 0.0
1372, 0.0
1373, 0.0
1374, 0.0
1375, 0.0
1376, 0.0
1377, 0.0
1378, 0.0
1379, 0.0
1380, 0.0
1381, 0.0
1382, 0.0
1383, 0.0
1384, 0.0
1385, 0.0
1386, 0.0
1387, 0.0
1388, 0.0
1389, 0.0
1390, 0.0
1391, 0.0
1392, 0.0
1393, 0.0
1394, 0.0
1395, 0.0
1396, 0.0
1397, 0.0
1398, 0.0
1399, 0.0
1400, 0.0
1401, 0.0
1402, 0.0
1403, 0.0
1404, 0.0
1405, 0.0
1406, 0.0
1407, 0.0
1408, 0.0
1409, 0.0
1410, 0.0
1411, 0.0
1412, 0.0
1413, 0.0
1414, 0.0
1415, 0.0
1416, 0.0
1417, 0.0
1418, 0.0
1419, 0.0
1420, 0.0
1421, 0.0
1422, 0.0
1423, 0.0
1424, 0.0
1425, 0.0
1426, 0.0
1427, 0.0
1428, 0.0
1429, 0.0
1430, 0.0
1431, 0.0
1432, 0.0
1433, 0.0
1434, 0.0
1435, 0.0
1436, 0.0
1437, 0.0
1438, 0.0
1439, 0.0
1440, 0.0
1441, 0.0
1442, 0.0
1443, 0.0
1444, 0.0
1445, 0.0
1446, 0.0
1447, 0.0
1448, 0.0
1449, 0.0
1450, 0.0
1451, 0.0
1452, 0.0
1453, 0.0
1454, 0.0
1455, 0.0
1456, 0.0
1457, 0.0
1458, 0.0
1459, 0.0
1460, 0.0
1461, 0.0
1462, 0.0
1463, 0.0
1464, 0.0
1465, 0.0
1466, 0.0
1467, 0.0
1468, 0.0
1469, 0.0
1470, 0.0
1471, 0.0
1472, 0.0
1473, 0.0
1474, 0.0
1475, 0.0
1476, 0.0
1477, 0.0
1478, 0.0
1479, 0.0
1480, 0.0
1481, 0.0
1482, 0.0
1483, 0.0
1484, 0.0
1485, 0.0
1486, 0.0
1487, 0.0
1488, 0.0
1489, 0.0
1490, 0.0
1491, 0.0
1492, 0.0
1493, 0.0
1494, 0.0
1495, 0.0
1496, 0.0
1497, 0.0
1498, 0.0
1499, 0.0
1500, 0.0
1501, 0.0
1502, 0.0
1503, 0.0
1504, 0.0
1505, 0.0
1506, 0.0
1507, 0.0
1508, 0.0
1509, 0.0
1510, 0.0
1511, 0.0
1512, 0.0
1513, 0.0
1514, 0.0
1515, 0.0
1516, 0.0
1517, 0.0
1518, 0.0
1519, 0.0
1520, 0.0
1521, 0.0
1522, 0.0
1523, 0.0
1524, 0.0
1525, 0.0
1526, 0.0
1527, 0.0
1528, 0.0
1529, 0.0
1530, 0.0
1531, 0.0
1532, 0.0
1533, 0.0
1534, 0.0
1535, 0.0
1536, 0.0
1537, 0.0
1538, 0.0
1539, 0.0
1540, 0.0
1541, 0.0
1542, 0.0
1543, 0.0
1544, 0.0
1545, 0.0
1546, 0.0
1547, 0.0
1548, 0.0
1549, 0.0
1550, 0.0
1551, 0.0
1552, 0.0
1553, 0.0
1554, 0.0
1555, 0.0
1556, 0.0
1557, 0.0
1558, 0.0
1559, 0.0
1560, 0.0
1561, 0.0
1562, 0.0
1563, 0.0
1564, 0.0
1565, 0.0
1566, 0.0
1567, 0.0
1568, 0.0
1569, 0.0
1570, 0.0
1571, 0.0
1572, 0.0
1573, 0.0
1574, 0.0
1575, 0.0
1576, 0.0
1577, 0.0
1578, 0.0
1579, 0.0
1580, 0.0
1581, 0.0
1582, 0.0
1583, 0.0
1584, 0.0
1585, 0.0
1586, 0.0
1587, 0.0
1588, 0.0
1589, 0.0
1590, 0.0
1591, 0.0
1592, 0.0
1593, 0.0
1594, 0.0
1595, 0.0
1596, 0.0
1597, 0.0
1598, 0.0
1599, 0.0
