30, 0.0
31, 0.0
32, 0.0
33, 0.0
34, 0.0
35, 0.0
36, 0.0
37, 0.0
38, 0.0
39, 0.0
40, 0.0
41, 0.0
42, 0.0
43, 0.0
44, 0.0
45, 0.0
46, 0.0
47, 0.0
48, 0.0
49, 0.0
50, 0.0
51, 0.0
52, 0.0
53, 0.0
54, 0.0
55, 0.0
56, 0.0
57, 0.0
58, 0.0
59, 0.0
60, 0.0
61, 0.0
62, 0.0
63, 0.0
64, 0.0
65, 0.0
66, 0.0
67, 0.0
68, 0.0
69, 0.0
70, 0.0
71, 0.0
72, 0.0
73, 0.0
74, 0.0
75, 0.0
76, 0.0
77, 0.0
78, 0.0
79, 0.0
80, 0.0
81, 0.0
82, 0.0
83, 0.0
84, 0.0
85, 0.0
86, 0.0
87, 0.0
88, 0.0
89, 0.0
90, 0.0
91.0, 0.0005966437783980798
92.0, 0.0004971112353492267
93.0, 0.00018822839717492034
94.0, 0.002054822116042969
95.0, 0.003035276845358327
96.0, 0.003959105806010159
97.0, 0.004358225837656864
98.0, 0.0035753788847099617
99.0, 0.004444598269769886
100.0, 0.0053650035351273115
101.0, 0.006228153808628019
102.0, 0.007102523828583297
103.0, 0.006751471963681736
104.0, 0.006987684672609613
105.0, 0.007966505957086055
106.0, 0.00940938085836529
107.0, 0.010114354625941714
108.0, 0.011208450018163353
109.0, 0.013229473957660717
110.0, 0.014478069783245055
111.0, 0.01664637784267383
112.0, 0.018124778346308188
113.0, 0.017888294622622862
114.0, 0.01649858450578955
115.0, 0.013628433744565764
116.0, 0.011213518549259057
117.0, 0.010083499576852397
118.0, 0.009327249715825724
119.0, 0.007902802057162407
120.0, 0.00700133663477622
121.0, 0.005596952053093686
122.0, 0.004496975886390509
123.0, 0.004096739586479056
124.0, 0.002654725282794148
125.0, 0.0009226249119430994
126.0, 0.0007425911397613234
127.0, 0.0018708544247510435
128.0, 0.001744386862815914
129.0, 0.001011160159032463
130.0, 0.001093214356415473
131.0, 0.0019699331738737115
132.0, 0.002258835300562105
133.0, 0.0011162909612252442
134.0, 0.0004088389839052989
135.0, 0.0021825397826363453
136.0, 0.004908372845093073
137.0, 0.009153830716773939
138.0, 0.01659039252907794
139.0, 0.02391399341873541
140.0, 0.02891127374098395
141.0, 0.035884062775692685
142.0, 0.04539337537447171
143.0, 0.05417302439258702
144.0, 0.060496936751002504
145.0, 0.0652638936250462
146.0, 0.07139360540677275
147.0, 0.08001523127043508
148.0, 0.09196774433635574
149.0, 0.10805908784590401
150.0, 0.12710989912335438
151.0, 0.14906376177555936
152.0, 0.17487848471809567
153.0, 0.20467444623402248
154.0, 0.23423080964379994
155.0, 0.2711187718338588
156.0, 0.30952160065340595
157.0, 0.344374326236006
158.0, 0.37712535022532606
159.0, 0.3996190669673205
160.0, 0.4045841116856838
161.0, 0.3877768513674555
162.0, 0.3478810599671104
163.0, 0.2930991164209167
164.0, 0.23994275013694266
165.0, 0.19516569430906078
166.0, 0.16022755347335874
167.0, 0.13178589960204623
168.0, 0.11110851837321978
169.0, 0.09540921015374634
170.0, 0.08236102330497305
171.0, 0.07230329805624838
172.0, 0.066378330534659
173.0, 0.060428487514890834
174.0, 0.054404034320159014
175.0, 0.051091367159212926
176.0, 0.047240144609592714
177.0, 0.04456099333418947
178.0, 0.04324180960359051
179.0, 0.04241503936144896
180.0, 0.0419223385974048
181.0, 0.044312918392134415
182.0, 0.047657893306834814
183.0, 0.0500476687095082
184.0, 0.05117727307822239
185.0, 0.05172481099046071
186.0, 0.051756402768838694
187.0, 0.051926599081814746
188.0, 0.05324123283526097
189.0, 0.0554437842271826
190.0, 0.05827367745271785
191.0, 0.062396007902714254
192.0, 0.06781061834329231
193.0, 0.07281900232466393
194.0, 0.07870547134592007
195.0, 0.0866534103275844
196.0, 0.09603245531978373
197.0, 0.10509020455445302
198.0, 0.11700913931410478
199.0, 0.12875790570519663
200.0, 0.138705279794418
201.0, 0.1457743235588409
202.0, 0.1473827467188328
203.0, 0.1380600737480427
204.0, 0.12158197205504728
205.0, 0.10383828754760964
206.0, 0.08794578736086327
207.0, 0.07603917036893375
208.0, 0.06902392423553685
209.0, 0.06623087716058239
210.0, 0.06636097964856338
211.0, 0.06930416842205468
212.0, 0.0749819120667559
213.0, 0.08114073596130798
214.0, 0.08689902386609621
215.0, 0.09682226349325343
216.0, 0.1067623557183244
217.0, 0.11834223550096096
218.0, 0.13108460580250106
219.0, 0.14169496099821094
220.0, 0.15179647961789308
221.0, 0.15754137141288416
222.0, 0.15709404063790144
223.0, 0.15080032239428426
224.0, 0.14079662598342296
225.0, 0.13348234734267705
226.0, 0.13077450178045014
227.0, 0.13184590449941855
228.0, 0.1344375125883557
229.0, 0.13925298055081697
230.0, 0.13610134595195353
231.0, 0.12251474993233422
232.0, 0.10067646135391033
233.0, 0.07383825002439376
234.0, 0.049387122009773236
235.0, 0.03021816952539607
236.0, 0.017118583052229144
237.0, 0.010006572774334706
238.0, 0.003980451067495061
239.0, 0.0006770628264577825
240.0, 0.00434357888818691
241.0, 0.007469379005204699
242.0, 0.0095199378536904
243.0, 0.009864186769014118
244.0, 0.00949312903636927
245.0, 0.008771872025898953
246.0, 0.006910133191500294
247.0, 0.0029804370428035748
248.0, 0.0006883334485524472
249.0, 0.004905009454272514
250.0, 0.011974991449611743
251.0, 0.019424192229172667
252.0, 0.03100703693566294
253.0, 0.044620365089736456
254.0, 0.058690448679240594
255.0, 0.07268502389070008
256.0, 0.08598721456914264
257.0, 0.08801525703936083
258.0, 0.07906732142637
259.0, 0.06300395302955814
260.0, 0.04203714610516456
261.0, 0.02649040173919351
262.0, 0.014914085554374363
263.0, 0.006788465653360424
264.0, 0.003161245252718639
265.0, 0.0005320308957971052
266.0, 0.0001895266773594874
267.0, 0.001338264028587144
268.0, 0.003565146371217804
269.0, 0.0075603756706744745
270.0, 0.010195753901181475
271.0, 0.013096449837538948
272.0, 0.01627848356733111
273.0, 0.01911397707526258
274.0, 0.022881698891625002
275.0, 0.025387239521965102
276.0, 0.027915471764153862
277.0, 0.030893409411044116
278.0, 0.032900117384980734
279.0, 0.03145433191431593
280.0, 0.03064041399374322
281.0, 0.030152015990366772
282.0, 0.02898919217104705
283.0, 0.028410729570352292
284.0, 0.028472455728872692
285.0, 0.031132266649753677
286.0, 0.035821161513222816
287.0, 0.040828030449177787
288.0, 0.04741120464984059
289.0, 0.052258769871938275
290.0, 0.055617960133133366
291.0, 0.05785098056772167
292.0, 0.058314500563691946
293.0, 0.05899378890391052
294.0, 0.06185656796753679
295.0, 0.06571584050436696
296.0, 0.0701787998916385
297.0, 0.07845653749809216
298.0, 0.08987154698965115
299.0, 0.10225451843586152
300.0, 0.11642181236550761
301.0, 0.13340380635787713
302.0, 0.14617216944327902
303.0, 0.15594795001000178
304.0, 0.15894758683078816
305.0, 0.15209468700179432
306.0, 0.13541150077585634
307.0, 0.11293778849298704
308.0, 0.09157006989963279
309.0, 0.07252289307821652
310.0, 0.05681604884185195
311.0, 0.047612133705535346
312.0, 0.04095650036225324
313.0, 0.03752647876544819
314.0, 0.036630992930992784
315.0, 0.03711652065511237
316.0, 0.04034237257103335
317.0, 0.044387440073952684
318.0, 0.04813584410318177
319.0, 0.05118472577766811
320.0, 0.05339317939455616
321.0, 0.05459045940688393
322.0, 0.053658361176663484
323.0, 0.05163405973305259
324.0, 0.04970416086695874
325.0, 0.04850350943918942
326.0, 0.04832114981888871
327.0, 0.050029275035608625
328.0, 0.052623809051724396
329.0, 0.05605454534138516
330.0, 0.06387038828456969
331.0, 0.07215861246569559
332.0, 0.08171213535902791
333.0, 0.09293478629968303
334.0, 0.10544608214546593
335.0, 0.11969994982827366
336.0, 0.13622641046942655
337.0, 0.15295314016922917
338.0, 0.17048122345593184
339.0, 0.19207071791493532
340.0, 0.21450789379635624
341.0, 0.2401374569530367
342.0, 0.26731311264690416
343.0, 0.2934889824809841
344.0, 0.31722767941793123
345.0, 0.3349506499033341
346.0, 0.3431253685259609
347.0, 0.33773011800792163
348.0, 0.3177189707088943
349.0, 0.28705469256806443
350.0, 0.25038811724004795
351.0, 0.21204815897191026
352.0, 0.1767336648168554
353.0, 0.14746839132272352
354.0, 0.12337208033036205
355.0, 0.10483618244503928
356.0, 0.08929354255709666
357.0, 0.07634796588702211
358.0, 0.06657226995529718
359.0, 0.05872990942196796
360.0, 0.051532602175823145
361.0, 0.04657106448394762
362.0, 0.04339203815732698
363.0, 0.040736265801953525
364.0, 0.04079749684054529
365.0, 0.04115279665124396
366.0, 0.0425384473176111
367.0, 0.04546316529817244
368.0, 0.04918580922546368
369.0, 0.05195827197620666
370.0, 0.05644465935755314
371.0, 0.06183717007035999
372.0, 0.06742123402608727
373.0, 0.07358114882544738
374.0, 0.07718875488555585
375.0, 0.08079360982450678
376.0, 0.08250070286228271
377.0, 0.08095139537050904
378.0, 0.07728714204542864
379.0, 0.07121590830117672
380.0, 0.06348715244777677
381.0, 0.05495193145323853
382.0, 0.0458143332162099
383.0, 0.03583839875041426
384.0, 0.027771729922817914
385.0, 0.020822295988982983
386.0, 0.014658065539118576
387.0, 0.009531129344316738
388.0, 0.005838252104184872
389.0, 0.0025803675546836927
390.0, 0.0003463399218583823
391.0, 0.002813588218233143
392.0, 0.0046937844496282915
393.0, 0.006101965573506971
394.0, 0.007774668105568139
395.0, 0.007502133195605157
396.0, 0.006796221033569429
397.0, 0.00693818686606357
398.0, 0.006128127627645149
399.0, 0.00535506900969369
400.0, 0.004539920376561194
401.0, 0.0030966925881054687
402.0, 0.0008465318106019236
403.0, 0.0014689680758250266
404.0, 0.004507724758422985
405.0, 0.007808954819771419
406.0, 0.011052250929321867
407.0, 0.014614912319540764
408.0, 0.0194240862215488
409.0, 0.022399393566301957
410.0, 0.025770631336923183
411.0, 0.029330796258047957
412.0, 0.031039341831249567
413.0, 0.029252795157707488
414.0, 0.026752544504507147
415.0, 0.024018792233424163
416.0, 0.021099629770945368
417.0, 0.018188163655842738
418.0, 0.015623413393596821
419.0, 0.014095894671992175
420.0, 0.013421280657237265
421.0, 0.014049467893920834
422.0, 0.015473078883611565
423.0, 0.015854798535522477
424.0, 0.019409222727065426
425.0, 0.02265694299300002
426.0, 0.026309240712244646
427.0, 0.031353840685687265
428.0, 0.03654544882908557
429.0, 0.041674048021758815
430.0, 0.04784983210446363
431.0, 0.05530967460934888
432.0, 0.06379251262068404
433.0, 0.07276056908094836
434.0, 0.08186131026467629
435.0, 0.0915479077118566
436.0, 0.10244021664582692
437.0, 0.1146567879203585
438.0, 0.12735515719971596
439.0, 0.1385463401142253
440.0, 0.15137319969075322
441.0, 0.16449132997258634
442.0, 0.17684866889880294
443.0, 0.1888106007617162
444.0, 0.19864704003631978
445.0, 0.20525769521818799
446.0, 0.21249897396722411
447.0, 0.22127544298937205
448.0, 0.22902936175449068
449.0, 0.2333768436846387
450.0, 0.2372694390437244
451.0, 0.2413604013965138
452.0, 0.244714554596976
453.0, 0.24619678624970717
454.0, 0.24486010071701694
455.0, 0.24444640080762603
456.0, 0.24098216972814623
457.0, 0.23379575447567924
458.0, 0.22398245195706326
459.0, 0.2111376510570753
460.0, 0.19921103989221078
461.0, 0.18527582711604154
462.0, 0.16964852343233836
463.0, 0.15452432290465548
464.0, 0.14129673596773024
465.0, 0.13026335682280785
466.0, 0.11954269911236307
467.0, 0.1097664579218271
468.0, 0.1019361498690866
469.0, 0.09643880546911807
470.0, 0.08999198866932527
471.0, 0.08481694887782648
472.0, 0.08014557450053715
473.0, 0.07536839999078392
474.0, 0.07042276111625466
475.0, 0.0639531059522432
476.0, 0.0579279901255335
477.0, 0.0532066527258587
478.0, 0.04922708842588324
479.0, 0.04538368768286684
480.0, 0.04234466467034874
481.0, 0.040341117142911574
482.0, 0.03988437272647367
483.0, 0.0394279103459908
484.0, 0.03802443391890748
485.0, 0.036996024563013576
486.0, 0.03599510633625069
487.0, 0.03547687328003318
488.0, 0.034286704339284255
489.0, 0.032481463069626425
490.0, 0.0316837274231768
491.0, 0.03044749678426279
492.0, 0.030025225325915526
493.0, 0.028661030395581773
494.0, 0.027107068139296156
495.0, 0.02698238223547951
496.0, 0.02455063735086118
497.0, 0.02283990443023736
498.0, 0.02045915137522043
499.0, 0.01793501400015116
500.0, 0.016121026053526576
501.0, 0.01379900551337912
502.0, 0.011983516657310633
503.0, 0.008956662458561174
504.0, 0.005592453764715043
505.0, 0.0034113043753643117
506.0, 0.0027645366168908224
507.0, 0.0002921417478118012
508.0, 0.0012861038480024684
509.0, 0.0017674658726503803
510.0, 0.0022648530481187883
511.0, 0.0033703418402042332
512.0, 0.003323676317441826
513.0, 0.002771325305762394
514.0, 0.0022888914709445203
515.0, 0.0011580172674527246
516.0, 0.0009932382608453861
517.0, 0.003262835589865131
518.0, 0.005775245487490671
519.0, 0.008789911195749293
520.0, 0.012422352861189196
521.0, 0.016815955047951168
522.0, 0.02207013858035429
523.0, 0.027209603239882727
524.0, 0.03277031109063043
525.0, 0.03833059897859325
526.0, 0.04424153297529476
527.0, 0.051476130913057826
528.0, 0.0599809037590356
529.0, 0.06601866399352135
530.0, 0.07325630706148932
531.0, 0.08072360681590536
532.0, 0.0872320260681702
533.0, 0.09391789402973724
534.0, 0.1015370405744767
535.0, 0.10644428429988313
536.0, 0.10960443842765054
537.0, 0.11217259682268715
538.0, 0.11428557760280807
539.0, 0.11452850040878797
540.0, 0.11303217628631196
541.0, 0.11158632975400087
542.0, 0.10929240424993678
543.0, 0.1058055322106281
544.0, 0.10225787712966601
545.0, 0.09798275075130387
546.0, 0.09506368213832336
547.0, 0.09217489754105655
548.0, 0.089255431440514
549.0, 0.08709964464925306
550.0, 0.08533782528052553
551.0, 0.0839473599932805
552.0, 0.08305385910338023
553.0, 0.08251290326371702
554.0, 0.08214000902984589
555.0, 0.08199623714941875
556.0, 0.08245630642949876
557.0, 0.0828545577263165
558.0, 0.0840810845608304
559.0, 0.08567084750238425
560.0, 0.08674076696267971
561.0, 0.08740265368202312
562.0, 0.08806124479169851
563.0, 0.0887265672557187
564.0, 0.08828443933959122
565.0, 0.08730177532154595
566.0, 0.08704329967116024
567.0, 0.08608916067446935
568.0, 0.0844695082395705
569.0, 0.08265716663429808
570.0, 0.08111978761593783
571.0, 0.07949993822030516
572.0, 0.07711206075020571
573.0, 0.07484980794397707
574.0, 0.07216656123977236
575.0, 0.06865644332992313
576.0, 0.06369197955362392
577.0, 0.05768364219019141
578.0, 0.05378630842383623
579.0, 0.04772767323516633
580.0, 0.04197226418015521
581.0, 0.035749405638132684
582.0, 0.02915646138312212
583.0, 0.023900580182158532
584.0, 0.01923310474065637
585.0, 0.01462129075412442
586.0, 0.010225713795409362
587.0, 0.0070909157698237964
588.0, 0.004988234461192647
589.0, 0.002305233141433417
590.0, 0.0013332335627703044
591.0, 0.000488344580809962
592.0, 0.00034118632048345363
593.0, 0.0014078115978107268
594.0, 0.002688557842156103
595.0, 0.0030957294364704117
596.0, 0.0013144124589751984
597.0, 0.001243918312593733
598.0, 0.0016517496597727376
599.0, 0.0011226159647186953
600.0, 0.00014477063016929612
601.0, 0.0006267020907509913
602.0, 0.0001636190816971725
603.0, 0.0023811886667871
604.0, 0.00395783368095478
605.0, 0.0037836141669731387
606.0, 0.004448720636892237
607.0, 0.0055028241365774645
608.0, 0.006545350516809168
609.0, 0.008467852460790109
610.0, 0.009208690771436056
611.0, 0.009012220802405206
612.0, 0.010643692115152871
613.0, 0.011263608007384466
614.0, 0.011523943691706812
615.0, 0.012465540972141417
616.0, 0.012979009888418772
617.0, 0.012439430394436875
618.0, 0.012361834521270848
619.0, 0.0122324889989012
620.0, 0.012062941057500928
621.0, 0.011139566002081845
622.0, 0.010025552938804477
623.0, 0.009419729890898015
624.0, 0.008802912388352064
625.0, 0.007946938043523666
626.0, 0.007237294281463177
627.0, 0.0063164227771289475
628.0, 0.0049322885320730835
629.0, 0.003305559877905363
630.0, 0.0022452887848331765
631.0, 0.0023506271594324526
632.0, 0.0018097449066201165
633.0, 0.0010105680474549945
634.0, 0.000803516091126492
635.0, 0.0009713023546815186
636.0, 0.00017405430864311623
637.0, 0.00010108626159805297
638.0, 0.0005469293114892245
639.0, 0.0006920651824040484
640.0, 0.0004214478204855386
641.0, 0.0003202283268340175
642.0, 0.00032584665496002537
643.0, 0.0007214262793291562
644.0, 0.00035237795594376194
645.0, 0.00011311417373207043
646.0, 0.0005695740185813975
647.0, 0.0013372475324466586
648.0, 0.0016908916503442747
649.0, 0.001858520995113545
650.0, 0.0019464869523947068
651.0, 0.0019090396223776427
652.0, 0.0019794603625291817
653.0, 0.002297229265749295
654.0, 0.002546525788578912
655.0, 0.0033042134660774746
656.0, 0.0032347569851281254
657.0, 0.00389935869099324
658.0, 0.004663352925083551
659.0, 0.004351616555571066
660.0, 0.005465977726329538
661.0, 0.005441488213811616
662.0, 0.005424917759913811
663.0, 0.006059421049053457
664.0, 0.006437448230402564
665.0, 0.0060516144235744414
666.0, 0.0062710621872254825
667.0, 0.0073051682105464665
668.0, 0.0077422870679257
669.0, 0.0076983976569907605
670.0, 0.007755034959432911
671.0, 0.008056987419056976
672.0, 0.00811554469322351
673.0, 0.008974858913547877
674.0, 0.009254876125471975
675.0, 0.008901086418200666
676.0, 0.0087280958753195
677.0, 0.008953727163657227
678.0, 0.008918989119511452
679.0, 0.009349639065760003
680.0, 0.010385344340984416
681.0, 0.009651031481195307
682.0, 0.008686868720223714
683.0, 0.00879686093378949
684.0, 0.008674148057392311
685.0, 0.009414972374908143
686.0, 0.00922146610558475
687.0, 0.008169944585791674
688.0, 0.007385964054863304
689.0, 0.007221373243136398
690.0, 0.007184781573961774
691.0, 0.007527736507881027
692.0, 0.007006830369569729
693.0, 0.007003575234587458
694.0, 0.006622197233061267
695.0, 0.005796608250667133
696.0, 0.005455808303717496
697.0, 0.00597044711446983
698.0, 0.0047078474943200565
699.0, 0.004582360950624037
700.0, 0.004082081919089197
701.0, 0.003284952236079699
702.0, 0.0028804497798147846
703.0, 0.0017644356352023887
704.0, 0.0021297358307939
705.0, 0.001919619638937446
706.0, 0.0013529543275803899
707.0, 0.00109422229200296
708.0, 0.0010028935697850364
709.0, 0.0007483310529712373
710.0, 0.001650611711832373
711.0, 0.0014030964154059346
712.0, 0.0008400712340167578
713.0, 0.0006669573381300602
714.0, 0.0009948334801529715
715.0, 0.0014856067269276249
716.0, 0.0012560584549464585
717.0, 0.001028028009879404
718.0, 0.0007010311947620911
719.0, 0.0006414229084230308
720.0, 0.000872906775624849
721.0, 0.0013035906851326675
722.0, 0.0018840217293272343
723.0, 0.0012885257512479985
724.0, 0.002012822722714775
725.0, 0.0021448111294339513
726.0, 0.001627338071508684
727.0, 0.0011735182181076016
728.0, 0.0012556943893834664
729.0, 0.0019302641610174664
730.0, 0.002137619152772383
731.0, 0.0013569807567837757
732.0, 0.001433434271604944
733.0, 0.002434660862112562
734.0, 0.0030417095008808477
735.0, 0.0030565307066467563
736.0, 0.0040925626868312925
737.0, 0.0038119453085049895
738.0, 0.0037943875737659763
739.0, 0.0038795486507621824
740.0, 0.004218055269862793
741.0, 0.005519603186785767
742.0, 0.005168464983647855
743.0, 0.004878932709979745
744.0, 0.005421894619314601
745.0, 0.006324943430897077
746.0, 0.007274767092152009
747.0, 0.007996855506946208
748.0, 0.008023687890255229
749.0, 0.00807435426496984
750.0, 0.008268903288401814
751.0, 0.008609917382975956
752.0, 0.009167199439995437
753.0, 0.009806298028465287
754.0, 0.010160632104834082
755.0, 0.01007540443004718
756.0, 0.01140529254690671
757.0, 0.011584987840506215
758.0, 0.012209580565594005
759.0, 0.012807201363779129
760.0, 0.012712809774107766
761.0, 0.013167227296703141
762.0, 0.012930659709485204
763.0, 0.01369383144221749
764.0, 0.01394049248070191
765.0, 0.01366828939319856
766.0, 0.013560649818091549
767.0, 0.01380716748487061
768.0, 0.013931426068357889
769.0, 0.01381617320835836
770.0, 0.013534975349594778
771.0, 0.01337775305221202
772.0, 0.013210272376911197
773.0, 0.013019902801621033
774.0, 0.013118120352985343
775.0, 0.013360914338154159
776.0, 0.01256443181393903
777.0, 0.011639134303374692
778.0, 0.011355507210320727
779.0, 0.011363896211234008
780.0, 0.01121664713337567
781.0, 0.01105032937261036
782.0, 0.011010833691842636
783.0, 0.010060064660061393
784.0, 0.010343886658833802
785.0, 0.010013069437542786
786.0, 0.009267216642069073
787.0, 0.009301114577074318
788.0, 0.009209906857392524
789.0, 0.008486559150739573
790.0, 0.007124429893062919
791.0, 0.007592272529840157
792.0, 0.006985151884042629
793.0, 0.006137715721881133
794.0, 0.006651612607123843
795.0, 0.006094866658152659
796.0, 0.005599974868030506
797.0, 0.004741805361791303
798.0, 0.004097692234084497
799.0, 0.0037636438940884124
800.0, 0.0037703825569613478
801.0, 0.003717738069071156
802.0, 0.002966710226348013
803.0, 0.0031093665170719978
804.0, 0.003287554410736865
805.0, 0.0018560478065433948
806.0, 0.0010987006112668039
807.0, 0.0011605851741854714
808.0, 0.0008065564386792208
809.0, 0.001016448147807783
810.0, 0.0012159880756285153
811.0, 0.00033787160246437814
812.0, 0.00048614480504135496
813.0, 0.000533375371233792
814.0, 0.0007207586099593855
815.0, 0.001023374950188412
816.0, 0.0016098303928559288
817.0, 0.0012998750188112163
818.0, 0.0007836264977158138
819.0, 0.0011748832269217733
820.0, 0.001678377865021961
821.0, 0.0017461812451874557
822.0, 0.001531079032058584
823.0, 0.0012506661193822436
824.0, 0.0011848290019514833
825.0, 0.0012451756949352802
826.0, 0.0018315448735989385
827.0, 0.001537314117012956
828.0, 0.0010792383036897137
829.0, 0.001232937295054465
830.0, 0.0005968449573267204
831.0, 8.985676156879891e-05
832.0, 0.001140152825281524
833.0, 0.0008721338811762812
834.0, 0.0009646884977027362
835.0, 0.0017225495091270596
836.0, 0.0021898965517237632
837.0, 0.002537390607830411
838.0, 0.0033178546665009593
839.0, 0.004847063453984544
840.0, 0.00670014450243935
841.0, 0.007248211747211379
842.0, 0.007509875388623482
843.0, 0.00813620426693206
844.0, 0.00858173977391639
845.0, 0.01041250500002561
846.0, 0.012499550249778653
847.0, 0.013851614848562998
848.0, 0.015138209894295613
849.0, 0.015912233200335347
850.0, 0.01650205749264184
851.0, 0.017952239974661412
852.0, 0.01971245600877348
853.0, 0.021332616413334532
854.0, 0.021881749301487518
855.0, 0.023512998708804047
856.0, 0.024890966766524938
857.0, 0.025841160870867658
858.0, 0.02720666851652517
859.0, 0.028424774722245003
860.0, 0.02961642067024669
861.0, 0.03028662462904168
862.0, 0.03236291539151484
863.0, 0.03342227969888964
864.0, 0.033881510716512526
865.0, 0.03463831923464272
866.0, 0.0350215167707234
867.0, 0.036488599586667246
868.0, 0.037082237103100185
869.0, 0.0377686969392363
870.0, 0.03770034592062277
871.0, 0.037255425246999145
872.0, 0.036720393364271825
873.0, 0.036470444779323694
874.0, 0.03730500546185615
875.0, 0.03675231998488274
876.0, 0.035894282595986135
877.0, 0.034372320646493766
878.0, 0.03352053367215288
879.0, 0.03268249631705496
880.0, 0.03143137366193181
881.0, 0.030521776297377682
882.0, 0.028822570443797716
883.0, 0.02777572512630105
884.0, 0.026008955603967175
885.0, 0.023525012129174672
886.0, 0.021404114468778445
887.0, 0.019479894677345663
888.0, 0.01768674404786967
889.0, 0.01676511744004906
890.0, 0.015098031110890014
891.0, 0.012756295691744506
892.0, 0.011477559816232991
893.0, 0.010437758362015515
894.0, 0.00949724551446085
895.0, 0.008714560915870747
896.0, 0.007582203549727655
897.0, 0.006065045635103648
898.0, 0.004871482299573636
899.0, 0.003849051603302754
900.0, 0.0031407813913301094
901.0, 0.002667748633213304
902.0, 0.0021346067081541363
903.0, 0.0018354684799571828
904.0, 0.002393372089003553
905.0, 0.002880205877371783
906.0, 0.0020633818016207515
907.0, 0.002110334258972629
908.0, 0.002479701876362802
909.0, 0.002727666855788283
910.0, 0.003510222885562361
911.0, 0.004645165378746186
912.0, 0.005043161296922339
913.0, 0.005527116717064351
914.0, 0.007307124862211691
915.0, 0.00859643927493562
916.0, 0.010626865782462745
917.0, 0.012424566844982922
918.0, 0.014029281421894163
919.0, 0.016609775366828877
920.0, 0.01972480276149881
921.0, 0.022494333922879587
922.0, 0.025809066249579588
923.0, 0.029322075119118395
924.0, 0.032078629465725095
925.0, 0.036371256601621646
926.0, 0.042333221040336336
927.0, 0.04812529374243227
928.0, 0.0537268908538029
929.0, 0.05983199854910751
930.0, 0.06699517621215945
931.0, 0.07383918022469795
932.0, 0.08207859911741845
933.0, 0.09047345283719664
934.0, 0.0993845967499582
935.0, 0.11017883398462468
936.0, 0.12188711090545984
937.0, 0.13488600688500801
938.0, 0.14673150973553858
939.0, 0.16041434719316694
940.0, 0.1764381139365668
941.0, 0.19402854241648218
942.0, 0.21237498563529367
943.0, 0.23127436153724182
944.0, 0.2508573856921484
945.0, 0.2715527268398507
946.0, 0.2964441384370719
947.0, 0.3229058690169205
948.0, 0.34922971304334965
949.0, 0.3799960160805372
950.0, 0.412743414278385
951.0, 0.445377104099617
952.0, 0.4820846998177791
953.0, 0.5222792262108312
954.0, 0.5632226407102703
955.0, 0.6096201787643868
956.0, 0.6545997031000678
957.0, 0.7026847457815246
958.0, 0.7535982667843593
959.0, 0.8048310142980423
960.0, 0.8560256590826778
961.0, 0.904350980139679
962.0, 0.9480223511130605
963.0, 0.980234280266169
964.0, 0.9981328348192472
965.0, 0.9962278116424256
966.0, 0.9727061151647879
967.0, 0.9282313941209618
968.0, 0.8648810434880446
969.0, 0.7861872565377759
970.0, 0.6980385503921217
971.0, 0.6062538786205568
972.0, 0.5178717067268737
973.0, 0.44020360706236916
974.0, 0.37130651947552107
975.0, 0.31051113604633646
976.0, 0.25909033080363214
977.0, 0.21601551581722514
978.0, 0.18154657029613275
979.0, 0.15155124985111973
980.0, 0.12624919685916114
981.0, 0.10588199336488134
982.0, 0.08814374037311537
983.0, 0.07367060821847442
984.0, 0.061827967047500154
985.0, 0.05114192269240985
986.0, 0.04234135253132002
987.0, 0.03449871571032442
988.0, 0.02797017586423784
989.0, 0.022685971530903782
990.0, 0.018505495848167793
991.0, 0.013514927199353556
992.0, 0.009920247645426409
993.0, 0.007802627028796947
994.0, 0.005065586881491574
995.0, 0.0034003786488002686
996.0, 0.0013628482183360247
997.0, 0.0005940638915892908
998.0, 0.002893653367823382
999.0, 0.00334177190009897
1000.0, 0.002891422871891432
1001.0, 0.0025853538361172556
1002.0, 0.00256036919815862
1003.0, 0.00259204227259731
1004.0, 0.0019969511160623423
1005.0, 0.002319679693886709
1006.0, 0.0015796215151304203
1007.0, 0.00039318337491702686
1008.0, 0.00010630297959476571
1009.0, 0.0010391175175120243
1010.0, 0.00285858698539685
1011.0, 0.004759860861241136
1012.0, 0.006844865813490092
1013.0, 0.010653168220441172
1014.0, 0.014452403448018783
1015.0, 0.017899345469383585
1016.0, 0.022074782152250453
1017.0, 0.026492925656472835
1018.0, 0.028023227726292368
1019.0, 0.0276171166181196
1020.0, 0.026465852136811543
1021.0, 0.02286303389370674
1022.0, 0.018112759346322657
1023.0, 0.014504375504779942
1024.0, 0.010348889794668937
1025.0, 0.007879195911019843
1026.0, 0.006105499126351337
1027.0, 0.004920140477596783
1028.0, 0.004109612827737489
1029.0, 0.0038946087100041006
1030.0, 0.004358034470399376
1031.0, 0.0033399402039938795
1032.0, 0.0011757217049480487
1033.0, 0.0008603638558833218
1034.0, 0.00028887157525650525
1035.0, 0.0006969980116768668
1036.0, 0.0007657967150585823
1037.0, 0.00016395005347603363
1038.0, 0.0007244661812725024
1039.0, 0.0010066247415303341
1040.0, 0.0015062007207571892
1041.0, 0.0037876007531841465
1042.0, 0.006654859232445623
1043.0, 0.008936391910672291
1044.0, 0.012114970129790422
1045.0, 0.01731554435237238
1046.0, 0.022384071328697058
1047.0, 0.02688067544289335
1048.0, 0.03233937909095887
1049.0, 0.03937800315936775
1050.0, 0.048084310005973185
1051.0, 0.05733634598984294
1052.0, 0.06656914988377981
1053.0, 0.07712576367383736
1054.0, 0.08702116259998241
1055.0, 0.09541652428725175
1056.0, 0.10129613098075366
1057.0, 0.10276358639556041
1058.0, 0.09935835278930025
1059.0, 0.09201657201115951
1060.0, 0.08030191231706064
1061.0, 0.07055078846990744
1062.0, 0.05881724213518981
1063.0, 0.04936580786627484
1064.0, 0.04172196121183223
1065.0, 0.03531466760876314
1066.0, 0.030922279176184977
1067.0, 0.028046766149684127
1068.0, 0.025078738997180907
1069.0, 0.02367185236710211
1070.0, 0.023656657680880377
1071.0, 0.025873149549500138
1072.0, 0.025887124591696366
1073.0, 0.027584577820746713
1074.0, 0.02897727373579068
1075.0, 0.0318629771167798
1076.0, 0.03640045439200229
1077.0, 0.04001104519965722
1078.0, 0.04424579196792246
1079.0, 0.048744654169111355
1080.0, 0.05302026096267699
1081.0, 0.05776074838623956
1082.0, 0.06150902607708459
1083.0, 0.06377498717995468
1084.0, 0.06535471201091994
1085.0, 0.06751073663197575
1086.0, 0.06957643020946325
1087.0, 0.07133136775409277
1088.0, 0.0746894689304734
1089.0, 0.07844056627408096
1090.0, 0.08220250915326067
1091.0, 0.08420462607112934
1092.0, 0.08508139327240524
1093.0, 0.08078890585955653
1094.0, 0.07481173270961734
1095.0, 0.0676481395165128
1096.0, 0.0593072312538036
1097.0, 0.05209634526672492
1098.0, 0.04549185942352484
1099.0, 0.03910934987059842
1100.0, 0.03314464334031493
1101.0, 0.030399069570534357
1102.0, 0.025227340247421147
1103.0, 0.02197416841723131
1104.0, 0.018490802514537122
1105.0, 0.015649094940556333
1106.0, 0.014411566250457431
1107.0, 0.012975163661750652
1108.0, 0.010791531027165164
1109.0, 0.008811938230050262
1110.0, 0.007026793569787023
1111.0, 0.006966816520068617
1112.0, 0.0063075084408601
1113.0, 0.0043058892123811615
1114.0, 0.003875577379483924
1115.0, 0.0038083007723860194
1116.0, 0.002793137144023294
1117.0, 0.0019899882172913267
1118.0, 0.0018889169911123058
1119.0, 0.0011859663862115355
1120.0, 0.0007623970512186349
1121.0, 0.0011914865207116741
1122.0, 0.0014866421301117617
1123.0, 0.0005137857136337274
1124.0, 0.0003142133985288645
1125.0, 0.00021827536120000725
1126.0, 0.00018448725090280547
1127.0, 0.0002769286056416068
1128.0, 8.592900837148784e-05
1129.0, 0.00015028904546864646
1130.0, 0.0007135000741250121
1131.0, 0.0006942530124764356
1132.0, 0.00012829793603934213
1133.0, 0.00042131210265038496
1134.0, 0.00013988821819770235
1135.0, 0.00024603633820279074
1136.0, 0.00015985605224967802
1137.0, 0.000143325773614234
1138.0, 0.00017256957042424876
1139.0, 0.00029413229080543925
1140.0, 0.00043588251392752517
1141.0, 0.0005996304177691546
1142.0, 0.0002099410076156131
1143.0, 0.0008005519477865914
1144.0, 0.001864221782667919
1145.0, 0.001388794889666311
1146.0, 0.0004388075191806792
1147.0, 0.0007426650034531841
1148.0, 0.000801912232804713
1149.0, 0.0005892507590683834
1150.0, 0.0012020735972892236
1151.0, 0.0014120534850842828
1152.0, 0.0013185979950854376
1153.0, 0.00197738871143192
1154.0, 0.002344870027409976
1155.0, 0.002130537084546341
1156.0, 0.0018907274684804556
1157.0, 0.0018530312937710893
1158.0, 0.0013432126484627398
1159.0, 0.0015456221024638139
1160.0, 0.002244669364948953
1161.0, 0.001929916301013449
1162.0, 0.0010852131251891319
1163.0, 0.0011064000424254395
1164.0, 0.0017254586889426183
1165.0, 0.0017616022538025295
1166.0, 0.0015949424414493467
1167.0, 0.000746435525383353
1168.0, 0.0017997804460116807
1169.0, 0.0017317127970651808
1170.0, 0.0011895853850869195
1171.0, 0.001161628138122774
1172.0, 0.0015820827690076293
1173.0, 0.0016654693738077763
1174.0, 0.0010666819826720799
1175.0, 0.0017062222632008117
1176.0, 0.0014763251819758366
1177.0, 0.0017502067764082713
1178.0, 0.00029931382487862786
1179.0, 0.0009723813388582403
1180.0, 0.001317885443813977
1181.0, 0.0011937209565036832
1182.0, 0.0011351350182395193
1183.0, 0.0011309238361134183
1184.0, 0.0011751569498107935
1185.0, 0.0013886997310196038
1186.0, 0.0013696188568896063
1187.0, 0.0006964278430026172
1188.0, 0.0012925950728292098
1189.0, 0.0014137433686258459
1190.0, 0.0005677691301886131
1191.0, 0.00017427795376630687
1192.0, 0.000698512504705641
1193.0, 0.00043166454414378955
1194.0, 0.0002806874789087705
1195.0, 0.00026591222544412483
1196.0, 0.0003753252778792512
1197.0, 0.0007726173538715905
1198.0, 0.000584819266784947
1199.0, 0.0004220637876971248
1200.0, 0.00052013453946359
1201.0, 0.0009624581051995461
1202.0, 0.00011060455429046874
1203.0, 0.000552614052117618
1204.0, 0.0009016379249320301
1205.0, 0.0006445181798164939
1206.0, 0.00034386126711649374
1207.0, 0.0004482361351464327
1208.0, 0.0005155973217165523
1209.0, 0.00044194401973590144
1210.0, 0.0009209123478510533
1211.0, 0.001358365815829054
1212.0, 0.0005963725802500394
1213.0, 0.0008573079472479843
1214.0, 0.0006405737339882752
1215.0, 0.0007152150350396594
1216.0, 0.0003453278051392376
1217.0, 7.245472038046361e-05
1218.0, 0.00022512023792957642
1219.0, 0.00034121558094172264
1220.0, 0.0008494117954051724
1221.0, 0.0007236119337797787
1222.0, 0.0005777568314291902
1223.0, 0.0006250002218739003
1224.0, 0.0001026199318087596
1225.0, 8.158744862022932e-05
1226.0, 0.0004124399529898325
1227.0, 0.0012698603594352464
1228.0, 0.0002105229869116328
1229.0, 0.00037997770156721105
1230.0, 0.001692410941943337
1231.0, 0.0013299026805371093
1232.0, 0.0010908412470134507
1233.0, 0.0009801908457015263
1234.0, 0.0007867420465222224
1235.0, 0.0008801938146558467
1236.0, 0.0010902162797805936
1237.0, 0.0012099199486886227
1238.0, 0.0009957317002176795
1239.0, 0.0006721650015365812
1240.0, 0.000776527672678177
1241.0, 0.0005252937002174596
1242.0, 0.0002050040404200582
1243.0, 0.0003816814890221852
1244.0, 0.00011719023701871673
1245.0, 0.001190245720879489
1246.0, 0.0016068011073898257
1247.0, 0.0010725429857686764
1248.0, 0.0006089854153975252
1249.0, 0.00035950927788866335
1250.0, 0.0006087167131278788
1251.0, 0.00019530121409377227
1252.0, 6.89340639024781e-05
1253.0, 0.00034505599603903747
1254.0, 0.0007459611628157639
1255.0, 0.0003918239818860942
1256.0, 0.00025317722481612664
1257.0, 0.00021557158141780226
1258.0, 0.0006700960325940718
1259.0, 0.0016136271149906386
1260.0, 0.001294873282385004
1261.0, 0.000712868751748196
1262.0, 0.0004955348502812949
1263.0, 0.0004756954559680828
1264.0, 0.000715378749927522
1265.0, 0.0005840307819765849
1266.0, 0.0006636963375277587
1267.0, 0.0007012347643541554
1268.0, 0.00046262015799878453
1269.0, 0.0005132209056962331
1270.0, 0.000537751678021992
1271.0, 0.0006178792881881229
1272.0, 0.0008133388264753993
1273.0, 0.0005357846199963636
1274.0, 0.000307248587482038
1275.0, 0.0005479050477646089
1276.0, 0.0007171691159670601
1277.0, 0.0008731446091661125
1278.0, 0.0008513687748702314
1279.0, 0.0002318641740763072
1280.0, 0.0009385342041798613
1281.0, 0.0002559110578591464
1282.0, 0.00015564978788226326
1283.0, 0.0008132769758827519
1284.0, 0.00041942856891725755
1285.0, 0.0008918596580934604
1286.0, 0.001681514689356184
1287.0, 0.0004148305520915404
1288.0, 0.00027897902142846084
1289.0, 0.000635944554826194
1290.0, 0.0005602226651306105
1291.0, 0.0005681547959775949
1292.0, 0.0004581662356634773
1293.0, 0.0004517468876207277
1294.0, 0.0009862602157072213
1295.0, 0.0002157018985808246
1296.0, 0.0001978943256920752
1297.0, 0.001165433660527774
1298.0, 0.00114570166893291
1299.0, 0.001828108498265563
1300.0, 0.0015231450347147455
1301.0, 0.0006659827929305507
1302.0, 0.0006482491048302015
1303.0, 1.7622080449553447e-05
1304, 0.0
1305, 0.0
1306, 0.0
1307, 0.0
1308, 0.0
1309, 0.0
1310, 0.0
1311, 0.0
1312, 0.0
1313, 0.0
1314, 0.0
1315, 0.0
1316, 0.0
1317, 0.0
1318, 0.0
1319, 0.0
1320, 0.0
1321, 0.0
1322, 0.0
1323, 0.0
1324, 0.0
1325, 0.0
1326, 0.0
1327, 0.0
1328, 0.0
1329, 0.0
1330, 0.0
1331, 0.0
1332, 0.0
1333, 0.0
1334, 0.0
1335, 0.0
1336, 0.0
1337, 0.0
1338, 0.0
1339, 0.0
1340, 0.0
1341, 0.0
1342, 0.0
1343, 0.0
1344, 0.0
1345, 0.0
1346, 0.0
1347, 0.0
1348, 0.0
1349, 0.0
1350, 0.0
1351, 0.0
1352, 0.0
1353, 0.0
1354, 0.0
1355, 0.0
1356, 0.0
1357, 0.0
1358, 0.0
1359, 0.0
1360, 0.0
1361, 0.0
1362, 0.0
1363, 0.0
1364, 0.0
1365, 0.0
1366, 0.0
1367, 0.0
1368, 0.0
1369, 0.0
1370, 0.0
1371, 0.0
1372, 0.0
1373, 0.0
1374, 0.0
1375, 0.0
1376, 0.0
1377, 0.0
1378, 0.0
1379, 0.0
1380, 0.0
1381, 0.0
1382, 0.0
1383, 0.0
1384, 0.0
1385, 0.0
1386, 0.0
1387, 0.0
1388, 0.0
1389, 0.0
1390, 0.0
1391, 0.0
1392, 0.0
1393, 0.0
1394, 0.0
1395, 0.0
1396, 0.0
1397, 0.0
1398, 0.0
1399, 0.0
1400, 0.0
1401, 0.0
1402, 0.0
1403, 0.0
1404, 0.0
1405, 0.0
1406, 0.0
1407, 0.0
1408, 0.0
1409, 0.0
1410, 0.0
1411, 0.0
1412, 0.0
1413, 0.0
1414, 0.0
1415, 0.0
1416, 0.0
1417, 0.0
1418, 0.0
1419, 0.0
1420, 0.0
1421, 0.0
1422, 0.0
1423, 0.0
1424, 0.0
1425, 0.0
1426, 0.0
1427, 0.0
1428, 0.0
1429, 0.0
1430, 0.0
1431, 0.0
1432, 0.0
1433, 0.0
1434, 0.0
1435, 0.0
1436, 0.0
1437, 0.0
1438, 0.0
1439, 0.0
1440, 0.0
1441, 0.0
1442, 0.0
1443, 0.0
1444, 0.0
1445, 0.0
1446, 0.0
1447, 0.0
1448, 0.0
1449, 0.0
1450, 0.0
1451, 0.0
1452, 0.0
1453, 0.0
1454, 0.0
1455, 0.0
1456, 0.0
1457, 0.0
1458, 0.0
1459, 0.0
1460, 0.0
1461, 0.0
1462, 0.0
1463, 0.0
1464, 0.0
1465, 0.0
1466, 0.0
1467, 0.0
1468, 0.0
1469, 0.0
1470, 0.0
1471, 0.0
1472, 0.0
1473, 0.0
1474, 0.0
1475, 0.0
1476, 0.0
1477, 0.0
1478, 0.0
1479, 0.0
1480, 0.0
1481, 0.0
1482, 0.0
1483, 0.0
1484, 0.0
1485, 0.0
1486, 0.0
1487, 0.0
1488, 0.0
1489, 0.0
1490, 0.0
1491, 0.0
1492, 0.0
1493, 0.0
1494, 0.0
1495, 0.0
1496, 0.0
1497, 0.0
1498, 0.0
1499, 0.0
1500, 0.0
1501, 0.0
1502, 0.0
1503, 0.0
1504, 0.0
1505, 0.0
1506, 0.0
1507, 0.0
1508, 0.0
1509, 0.0
1510, 0.0
1511, 0.0
1512, 0.0
1513, 0.0
1514, 0.0
1515, 0.0
1516, 0.0
1517, 0.0
1518, 0.0
1519, 0.0
1520, 0.0
1521, 0.0
1522, 0.0
1523, 0.0
1524, 0.0
1525, 0.0
1526, 0.0
1527, 0.0
1528, 0.0
1529, 0.0
1530, 0.0
1531, 0.0
1532, 0.0
1533, 0.0
1534, 0.0
1535, 0.0
1536, 0.0
1537, 0.0
1538, 0.0
1539, 0.0
1540, 0.0
1541, 0.0
1542, 0.0
1543, 0.0
1544, 0.0
1545, 0.0
1546, 0.0
1547, 0.0
1548, 0.0
1549, 0.0
1550, 0.0
1551, 0.0
1552, 0.0
1553, 0.0
1554, 0.0
1555, 0.0
1556, 0.0
1557, 0.0
1558, 0.0
1559, 0.0
1560, 0.0
1561, 0.0
1562, 0.0
1563, 0.0
1564, 0.0
1565, 0.0
1566, 0.0
1567, 0.0
1568, 0.0
1569, 0.0
1570, 0.0
1571, 0.0
1572, 0.0
1573, 0.0
1574, 0.0
1575, 0.0
1576, 0.0
1577, 0.0
1578, 0.0
1579, 0.0
1580, 0.0
1581, 0.0
1582, 0.0
1583, 0.0
1584, 0.0
1585, 0.0
1586, 0.0
1587, 0.0
1588, 0.0
1589, 0.0
1590, 0.0
1591, 0.0
1592, 0.0
1593, 0.0
1594, 0.0
1595, 0.0
1596, 0.0
1597, 0.0
1598, 0.0
1599, 0.0
