30, 0.0
31, 0.0
32, 0.0
33, 0.0
34, 0.0
35, 0.0
36, 0.0
37, 0.0
38, 0.0
39, 0.0
40, 0.0
41, 0.0
42, 0.0
43, 0.0
44, 0.0
45, 0.0
46, 0.0
47, 0.0
48, 0.0
49, 0.0
50, 0.0
51, 0.0
52, 0.0
53, 0.0
54, 0.0
55, 0.0
56, 0.0
57, 0.0
58, 0.0
59, 0.0
60, 0.0
61, 0.0
62, 0.0
63, 0.0
64, 0.0
65, 0.0
66, 0.0
67, 0.0
68, 0.0
69, 0.0
70, 0.0
71, 0.0
72, 0.0
73, 0.0
74, 0.0
75, 0.0
76, 0.0
77, 0.0
78, 0.0
79, 0.0
80, 0.0
81, 0.0
82, 0.0
83, 0.0
84, 0.0
85, 0.0
86, 0.0
87, 0.0
88, 0.0
89, 0.0
90, 0.0
91, 0.0
92, 0.0
93, 0.0
94, 0.0
95, 0.0
96, 0.0
97, 0.0
98, 0.0
99, 0.0
100, 0.0
101, 0.0
102, 0.0
103, 0.0
104, 0.0
105, 0.0
106, 0.0
107, 0.0
108, 0.0
109, 0.0
110, 0.0
111, 0.0
112, 0.0
113, 0.0
114, 0.0
115, 0.0
116, 0.0
117, 0.0
118, 0.0
119, 0.0
120, 0.0
121, 0.0
122, 0.0
123, 0.0
124, 0.0
125, 0.0
126, 0.0
127, 0.0
128, 0.0
129, 0.0
130, 0.0
131, 0.0
132, 0.0
133, 0.0
134, 0.0
135, 0.0
136, 0.0
137, 0.0
138, 0.0
139, 0.0
140, 0.0
141, 0.0
142, 0.0
143, 0.0
144, 0.0
145, 0.0
146, 0.0
147, 0.0
148, 0.0
149, 0.0
150, 0.0
151, 0.0
152, 0.0
153, 0.0
154, 0.0
155, 0.0
156, 0.0
157.0, 0.02285602114989365
158.0, 0.031664794610837634
159.0, 0.02845740041043269
160.0, 0.019726682929474475
161.0, 0.007755658232552892
162.0, 0.0011291319275021838
163.0, 0.00022933381662267765
164.0, 0.0017839889291163156
165.0, 0.0023687737615245364
166.0, 0.0017801040260325943
167.0, 0.0009655469438957441
168.0, 0.00029726773405745397
169.0, 0.0002481435149339167
170.0, 0.0012496473100740005
171.0, 0.0012799907501439205
172.0, 0.000965085809751211
173.0, 0.0006393167714351745
174.0, 0.0005987991686846157
175.0, 0.0022410712197087593
176.0, 0.005601966478406653
177.0, 0.00993905672223865
178.0, 0.013150905498504721
179.0, 0.014739307905103305
180.0, 0.014082148965052785
181.0, 0.01215186308718042
182.0, 0.010388426448110815
183.0, 0.01047043778532884
184.0, 0.011020323233585712
185.0, 0.011891857004038303
186.0, 0.013318252789045618
187.0, 0.015332581482188879
188.0, 0.016176167904574844
189.0, 0.016962479870877147
190.0, 0.01827949187731414
191.0, 0.02001824193324164
192.0, 0.02161746902824339
193.0, 0.02489613245637989
194.0, 0.029451286224171192
195.0, 0.03420297010695796
196.0, 0.03903555226106267
197.0, 0.038189590729869646
198.0, 0.030168724832036534
199.0, 0.019017893217068045
200.0, 0.011107049779874496
201.0, 0.007279554970787249
202.0, 0.005460903695501743
203.0, 0.00490189826931562
204.0, 0.005600282544278917
205.0, 0.007260708687495042
206.0, 0.008650760479460427
207.0, 0.009942991613203167
208.0, 0.011385305800585053
209.0, 0.012811542647787168
210.0, 0.014610284040506856
211.0, 0.016487092610908145
212.0, 0.01879730894246901
213.0, 0.02188475074198119
214.0, 0.026252021179850513
215.0, 0.03267123107565686
216.0, 0.03602422580825591
217.0, 0.03518191464097834
218.0, 0.03196987331182234
219.0, 0.029879926603599442
220.0, 0.02821439911281146
221.0, 0.028021005732226816
222.0, 0.030879138452476904
223.0, 0.035432424161880575
224.0, 0.041599865339827576
225.0, 0.04816035138067501
226.0, 0.05400706860153878
227.0, 0.05855958740027635
228.0, 0.06118222488721094
229.0, 0.06264385069308984
230.0, 0.06426280044413508
231.0, 0.06728634567782753
232.0, 0.07045147095902834
233.0, 0.07333779143184271
234.0, 0.07629670539073978
235.0, 0.07929548716703817
236.0, 0.081405007891198
237.0, 0.08300812981375864
238.0, 0.08489522293893258
239.0, 0.0867466199452377
240.0, 0.08778518065154514
241.0, 0.08773920811499998
242.0, 0.08730561820209509
243.0, 0.08395140500493355
244.0, 0.07627008405980597
245.0, 0.0650393645897982
246.0, 0.05188390859454649
247.0, 0.03874798024426305
248.0, 0.027353921536013848
249.0, 0.0189569845105923
250.0, 0.013418635811416786
251.0, 0.010851902545986676
252.0, 0.010246457969099395
253.0, 0.010875825228087693
254.0, 0.012697754453137318
255.0, 0.016455965955053838
256.0, 0.021461478344468446
257.0, 0.028449390968916435
258.0, 0.03763751046323235
259.0, 0.04837906949705683
260.0, 0.0627062398136038
261.0, 0.0799042525331991
262.0, 0.1005941142697638
263.0, 0.1254770569814488
264.0, 0.151115409908993
265.0, 0.17674082024184026
266.0, 0.19977423304076608
267.0, 0.22011251703252627
268.0, 0.24102245529263996
269.0, 0.26619766065011546
270.0, 0.29669081402498276
271.0, 0.3310652988212272
272.0, 0.3666893688741932
273.0, 0.3994426223343909
274.0, 0.42466225417969716
275.0, 0.4425624736827593
276.0, 0.45533177205810016
277.0, 0.4666965791157635
278.0, 0.4790183546715656
279.0, 0.4922961734763726
280.0, 0.5042193294978353
281.0, 0.5120329075590945
282.0, 0.5125897832663776
283.0, 0.49949616220836546
284.0, 0.47402258226561583
285.0, 0.4439533395286907
286.0, 0.4158373440348609
287.0, 0.3925160905490516
288.0, 0.37362577434180255
289.0, 0.35513916827898784
290.0, 0.33012096809206265
291.0, 0.2922154117787456
292.0, 0.2383681473832541
293.0, 0.18027872947375131
294.0, 0.12909508402643388
295.0, 0.08971592713122312
296.0, 0.06185480059231959
297.0, 0.043010091295157135
298.0, 0.02979836372888875
299.0, 0.020261876739110722
300.0, 0.01336723338417241
301.0, 0.008236914757638639
302.0, 0.0042213386925855625
303.0, 0.0015620520449852735
304.0, 0.0003035619996899935
305.0, 0.0012045005242833351
306.0, 0.002253958426370741
307.0, 0.0029834262407758654
308.0, 0.0036992675625193215
309.0, 0.004439853411256761
310.0, 0.004900432486803716
311.0, 0.004663420464480271
312.0, 0.0029471639196539407
313.0, 0.0017198610076729587
314.0, 0.0007757707563214293
315.0, 0.0036498471255755212
316.0, 0.008400503470116493
317.0, 0.015632367049936435
318.0, 0.024480944882897395
319.0, 0.03315424769243609
320.0, 0.039974971828350116
321.0, 0.04231236715693725
322.0, 0.04226941154643649
323.0, 0.04207013987348725
324.0, 0.04316166901549027
325.0, 0.04543618895284305
326.0, 0.049286837248165946
327.0, 0.053309105019122546
328.0, 0.057185730825811694
329.0, 0.06107970359402151
330.0, 0.063956433953545
331.0, 0.0671995097428024
332.0, 0.07114385144069457
333.0, 0.0751628551022446
334.0, 0.07907169862592019
335.0, 0.08401022064945435
336.0, 0.08510818796080848
337.0, 0.0778643652128125
338.0, 0.06257375039427594
339.0, 0.04294069743300204
340.0, 0.027168135469087692
341.0, 0.01772692228349774
342.0, 0.012522276843442292
343.0, 0.01006221366439207
344.0, 0.00973754611097487
345.0, 0.010356493740140207
346.0, 0.011212868548512389
347.0, 0.013086770677421575
348.0, 0.015621498213618213
349.0, 0.017443375266158558
350.0, 0.01945820923895278
351.0, 0.021031854407684233
352.0, 0.023105722661223817
353.0, 0.026280664995143203
354.0, 0.029832147120604613
355.0, 0.033573283149616155
356.0, 0.03854693468147578
357.0, 0.04413511630832052
358.0, 0.050204185554741654
359.0, 0.05781366438848351
360.0, 0.06565068676128683
361.0, 0.0731651910662357
362.0, 0.07964622442074312
363.0, 0.08384163312279978
364.0, 0.08480077271680646
365.0, 0.08476409267507694
366.0, 0.08526439238085667
367.0, 0.08566011199380158
368.0, 0.0862936597205856
369.0, 0.08855549371271398
370.0, 0.08941260306119986
371.0, 0.08993472041444807
372.0, 0.09055215083299584
373.0, 0.09120946291726097
374.0, 0.09192797331895802
375.0, 0.09303654352907013
376.0, 0.09297652359664026
377.0, 0.08978785227940723
378.0, 0.08261996229645484
379.0, 0.07224897064588776
380.0, 0.058374493038578515
381.0, 0.044901154187712004
382.0, 0.033503200429859034
383.0, 0.024406506247174033
384.0, 0.017423459135517374
385.0, 0.01303804078189615
386.0, 0.00916818209913782
387.0, 0.006473109774700193
388.0, 0.004871568734480318
389.0, 0.0028565371490492358
390.0, 0.0019119157966267244
391.0, 0.0015675864493803003
392.0, 0.0009230365488386555
393.0, 0.00013090939756124945
394.0, 0.00023815099947522203
395.0, 0.00025308300318263165
396.0, 9.477402463427822e-05
397.0, 0.0004222792749887178
398.0, 0.0006234334340234994
399.0, 0.0005118992955998009
400.0, 0.0004890812042068202
401.0, 0.0009472729542801188
402.0, 0.0007410368510485783
403.0, 0.000413670919862356
404.0, 0.0006385810964228267
405.0, 0.00022565138753808292
406.0, 0.00010905007860254192
407.0, 0.00048051170927168406
408.0, 0.0004302252420072841
409.0, 0.000211915053966496
410.0, 0.00010807185920495323
411.0, 9.723644629647023e-05
412.0, 0.00019077381805499756
413.0, 0.00031423660272184034
414.0, 0.0003344890999628149
415.0, 0.00047205837893857233
416.0, 0.0005536767541815515
417.0, 0.00025909042035699424
418.0, 0.00019563934138029556
419.0, 0.0005709954801435842
420.0, 0.000502511192168567
421.0, 0.0006612672695736616
422.0, 0.0009962580180315102
423.0, 0.0009827552082453735
424.0, 0.0009244149674775085
425.0, 0.0014622859010774286
426.0, 0.0010702783728351116
427.0, 0.0012030468236553672
428.0, 0.0016788760025677556
429.0, 0.0020062419469212434
430.0, 0.0020601396032666297
431.0, 0.0021539946808400716
432.0, 0.002530671284414231
433.0, 0.002866476275321783
434.0, 0.0031602158292704636
435.0, 0.003460371029168348
436.0, 0.00339345316592659
437.0, 0.003908664056536323
438.0, 0.004388713700223494
439.0, 0.004701343738759388
440.0, 0.005170354276899664
441.0, 0.005829724478727773
442.0, 0.006335130055820897
443.0, 0.007627718897471664
444.0, 0.008341200367847216
445.0, 0.008725538804843181
446.0, 0.009972992816612286
447.0, 0.011190962409622775
448.0, 0.012649722494907627
449.0, 0.014337555659175417
450.0, 0.016051255950108555
451.0, 0.017759933343272517
452.0, 0.019749779834441723
453.0, 0.021561819306552196
454.0, 0.02368175022085185
455.0, 0.025511184687708084
456.0, 0.026763726707488326
457.0, 0.028074711023202095
458.0, 0.029605492282973527
459.0, 0.03065009203263756
460.0, 0.03191207588429619
461.0, 0.03317765046618742
462.0, 0.03387112741631586
463.0, 0.03496692281587797
464.0, 0.03571137631434782
465.0, 0.03582741145089646
466.0, 0.03570846258135336
467.0, 0.03566457315165375
468.0, 0.03564574099001161
469.0, 0.034095048572087276
470.0, 0.032108685695215876
471.0, 0.030020345655008374
472.0, 0.02775574401106625
473.0, 0.025294806288692667
474.0, 0.023356059374492238
475.0, 0.020875291127820505
476.0, 0.018614317260808068
477.0, 0.016938602828966736
478.0, 0.015375961811464235
479.0, 0.013500772961689592
480.0, 0.011998463915989159
481.0, 0.01112319293451728
482.0, 0.01007275543477681
483.0, 0.008859657558474739
484.0, 0.008231487399138135
485.0, 0.006799793461781854
486.0, 0.006499337481550478
487.0, 0.005688902145620091
488.0, 0.0046368619002142225
489.0, 0.00444045935454477
490.0, 0.0037217286549699165
491.0, 0.0034683996221262694
492.0, 0.0029461711352330587
493.0, 0.0026125828845483543
494.0, 0.0023847127227459887
495.0, 0.0018623940669692447
496.0, 0.00255368489342721
497.0, 0.002288268887949696
498.0, 0.001887491744640203
499.0, 0.0017860898370335079
500.0, 0.00164094894721382
501.0, 0.0010555012322815856
502.0, 0.0008927497826270475
503.0, 0.0009858374294862365
504.0, 0.0012241995847031004
505.0, 0.0012600161272079277
506.0, 0.0009460103186653916
507.0, 0.0009813466745815125
508.0, 0.0008020421592529043
509.0, 0.0006832521809317931
510.0, 0.0005728022083346864
511.0, 0.0005202168646210626
512.0, 0.0008215257950643317
513.0, 0.0012973113982749345
514.0, 0.0006984287110995514
515.0, 0.0005661029163011161
516.0, 0.0008964366497404882
517.0, 0.0008452539376322838
518.0, 0.0006843632413915137
519.0, 0.0006713368917754862
520.0, 0.0005277201289139282
521.0, 0.000529192347169681
522.0, 0.0006276474937376025
523.0, 0.0005676075441570187
524.0, 0.0006766984996969551
525.0, 0.0004937585011058317
526.0, 0.0002750049626452702
527.0, 0.0004203084215266733
528.0, 0.0006749742370251579
529.0, 0.0005539002469882647
530.0, 9.687295776682823e-05
531.0, 3.2866902604177604e-05
532.0, 0.00025619090190898315
533.0, 0.00030509572020193484
534.0, 0.00025990439009853885
535.0, 0.0005225574208969136
536.0, 0.0002482085152520642
537.0, 0.00035365676449591405
538.0, 0.0002543142059419936
539.0, 4.980721208141674e-05
540.0, 0.00017221021008762916
541.0, 0.0001456101197464911
542.0, 7.52978611034136e-05
543.0, 2.021347431529193e-05
544.0, 0.00022898853410490867
545.0, 0.00014762877441749797
546.0, 0.00044154416420455304
547.0, 0.00034549719819762807
548.0, 0.00025140564922987647
549.0, 0.00021980995683173256
550.0, 0.0005431148143525563
551.0, 0.0004748842685290433
552.0, 0.0002844657197149746
553.0, 0.000382145367391929
554.0, 0.000834899126023263
555.0, 0.0007976111724362978
556.0, 0.0006114171919593696
557.0, 0.00032618353314648363
558.0, 0.00010919795933038102
559.0, 0.00030464828750995137
560.0, 0.00012112710569359364
561.0, 0.0003853187510883611
562.0, 0.0005979029490488524
563.0, 0.00039060010548584755
564.0, 0.00024742528360204957
565.0, 0.0002772896022576279
566.0, 0.00040371638336522523
567.0, 0.00010077343725490808
568.0, 7.45295530513906e-05
569.0, 0.00023451418345825587
570.0, 0.000266630856773666
571.0, 0.0002502117224442523
572.0, 0.00013278882282838234
573.0, 0.00024395236551078058
574.0, 0.0002169181147719508
575.0, 0.000219792825374999
576.0, 0.00014219587073337726
577.0, 9.522061265101138e-05
578.0, 4.647401156433097e-05
579.0, 0.00011811814996807565
580.0, 0.0001192965330404631
581.0, 6.491258040656011e-05
582.0, 0.00018594816010436186
583.0, 0.00019059874046866955
584.0, 0.000267855710458835
585.0, 0.00011092527543699176
586.0, 0.00015692579858597754
587.0, 0.0003916396431613359
588.0, 0.00017133806200360263
589.0, 0.0008486978720774749
590.0, 0.0004101281167490255
591.0, 0.0004750356518508032
592.0, 0.0006821289631942622
593.0, 0.0006502371361339158
594.0, 0.0007424724510071645
595.0, 0.0009553632650586565
596.0, 0.0010524860770054695
597.0, 0.0009267926775239064
598.0, 0.0015022556314153
599.0, 0.0020355782379610434
600.0, 0.0017594312090759413
601.0, 0.002095379001264403
602.0, 0.0018545251177553945
603.0, 0.002000848445735043
604.0, 0.0023367041917807777
605.0, 0.0028374426533062246
606.0, 0.003321990770122089
607.0, 0.0031737980297956827
608.0, 0.0035102699321465968
609.0, 0.0037419951062369183
610.0, 0.0036950502492227918
611.0, 0.0037782636005295567
612.0, 0.0040657387869515674
613.0, 0.00427759090252339
614.0, 0.0050427548149114204
615.0, 0.005294442176644951
616.0, 0.005536995893737761
617.0, 0.006101673485564132
618.0, 0.006369397605327572
619.0, 0.006084850764763429
620.0, 0.006941568565285352
621.0, 0.007134157371863156
622.0, 0.007473173750878549
623.0, 0.007905102394392656
624.0, 0.008302467952772018
625.0, 0.00876924655961868
626.0, 0.009246678821139396
627.0, 0.00987951643100522
628.0, 0.010564586116433676
629.0, 0.011578538318616974
630.0, 0.012113935116929514
631.0, 0.012191688170040215
632.0, 0.013276481066468018
633.0, 0.014487685830915602
634.0, 0.015620596188791101
635.0, 0.0171037308178783
636.0, 0.018248130099774957
637.0, 0.019637304444269033
638.0, 0.02235600839257483
639.0, 0.024706750887572158
640.0, 0.027592398924749153
641.0, 0.03097145155251391
642.0, 0.03473238230817825
643.0, 0.03911081056726599
644.0, 0.044662358814395973
645.0, 0.05177528001142289
646.0, 0.059946313087783185
647.0, 0.06896095507982748
648.0, 0.08003815533644534
649.0, 0.09166182757118026
650.0, 0.10272944804404974
651.0, 0.11405070948256876
652.0, 0.12518671179610458
653.0, 0.1342035785406725
654.0, 0.1422974499937213
655.0, 0.15059330179359695
656.0, 0.1579625525910184
657.0, 0.1640891607920367
658.0, 0.17109504348842527
659.0, 0.1769883513327463
660.0, 0.18036424947755347
661.0, 0.1814295371433936
662.0, 0.18071092286570434
663.0, 0.17793629467894762
664.0, 0.17201383774127776
665.0, 0.16218517228985002
666.0, 0.14821730801109292
667.0, 0.13310338024607518
668.0, 0.1162532363060167
669.0, 0.09868285817581483
670.0, 0.08272153029155409
671.0, 0.06887770093114749
672.0, 0.05783364445066988
673.0, 0.048205570961569945
674.0, 0.04004859726590052
675.0, 0.03360676556781819
676.0, 0.028738209036769026
677.0, 0.024719598441113093
678.0, 0.020694169151062945
679.0, 0.017627949839256155
680.0, 0.015570671873051728
681.0, 0.013299032563532463
682.0, 0.011370224589307969
683.0, 0.00986953004570373
684.0, 0.008155511370806322
685.0, 0.007224812639805179
686.0, 0.0065805147616809015
687.0, 0.005804462919285293
688.0, 0.004891944763496417
689.0, 0.004006907568778379
690.0, 0.0034859150731580786
691.0, 0.003439785399088797
692.0, 0.0032102341050589908
693.0, 0.0023698524799684426
694.0, 0.0017960113806291828
695.0, 0.0016509457371936612
696.0, 0.0014525151932581195
697.0, 0.0009591994488581636
698.0, 0.0006887551677201117
699.0, 0.0013591664639036032
700.0, 0.0010486827762369107
701.0, 0.0003176190400188089
702.0, 0.0005222794274246292
703.0, 0.0007122446472703856
704.0, 0.0002341081501030028
705.0, 0.00016381426340797919
706.0, 0.0003517680309785469
707.0, 0.00019597348308665315
708.0, 0.00031319716384613054
709.0, 0.00018526336108593583
710.0, 0.0005404233058477686
711.0, 0.0008552532937732134
712.0, 0.00032943816944193687
713.0, 0.0003791721825480321
714.0, 0.0005694088032686506
715.0, 0.0007631409112981611
716.0, 0.0006629276031513316
717.0, 0.0004486038174015832
718.0, 0.0005281047675288448
719.0, 0.0007862956464476914
720.0, 0.0006889673188373164
721.0, 0.0005502883027424955
722.0, 0.0003817488446515697
723.0, 0.0004515876303830619
724.0, 0.0008368547625015065
725.0, 0.0010868899581444982
726.0, 0.000768545746354609
727.0, 0.000492472880600869
728.0, 0.000506812012763703
729.0, 0.00022274420898000358
730.0, 0.0004308183379767333
731.0, 0.0007793857619811026
732.0, 0.00044591856065353896
733.0, 0.0001955650024161125
734.0, 0.0003911155607433806
735.0, 9.421813202233914e-05
736.0, 0.0006862117902032799
737.0, 0.0009156101549625373
738.0, 0.0009240988597067786
739.0, 0.0014628482010566222
740.0, 0.0019527213457166464
741.0, 0.002105195036438568
742.0, 0.0023798905749348306
743.0, 0.0024858678790466563
744.0, 0.002893188181280711
745.0, 0.003292294263039871
746.0, 0.0036156192409877498
747.0, 0.004066006299868609
748.0, 0.004567355852169255
749.0, 0.005286349072594229
750.0, 0.0059525126067331855
751.0, 0.00591665071443945
752.0, 0.0063230090357637644
753.0, 0.006953882109758026
754.0, 0.007273624900249692
755.0, 0.007762507600173258
756.0, 0.008085710001290453
757.0, 0.00861865679132509
758.0, 0.009733101590398904
759.0, 0.01054776692627253
760.0, 0.011275927202647099
761.0, 0.012133672116196141
762.0, 0.012792512500628767
763.0, 0.013917719158295462
764.0, 0.014237503137084596
765.0, 0.015146867910062442
766.0, 0.016095774261356124
767.0, 0.016945205622096907
768.0, 0.017951462076944244
769.0, 0.01900436302400744
770.0, 0.019667392446880323
771.0, 0.021287207413917993
772.0, 0.02224555789183472
773.0, 0.023864636772752204
774.0, 0.02553850417870036
775.0, 0.02682889050159356
776.0, 0.02841414085436537
777.0, 0.030254438294986835
778.0, 0.03099882189800307
779.0, 0.03387491729861101
780.0, 0.036235305035296615
781.0, 0.03789884561434327
782.0, 0.04050262653935681
783.0, 0.04345131025903614
784.0, 0.046580132003100225
785.0, 0.05070131282945411
786.0, 0.05439780332466664
787.0, 0.05914407674072025
788.0, 0.0650413347238968
789.0, 0.07074281728898338
790.0, 0.0775045265301905
791.0, 0.08548475155221204
792.0, 0.09405281684167523
793.0, 0.10438681588903649
794.0, 0.11672678326715392
795.0, 0.13083902230298503
796.0, 0.147933493469259
797.0, 0.168720662247604
798.0, 0.1943541621144564
799.0, 0.22651411405121355
800.0, 0.26613232967690703
801.0, 0.31327150794099234
802.0, 0.37023392547946316
803.0, 0.4354434688888676
804.0, 0.5097788319680226
805.0, 0.5840890528005966
806.0, 0.6529533480516074
807.0, 0.7136199663634696
808.0, 0.765365014115961
809.0, 0.8139339855720334
810.0, 0.8552276205161649
811.0, 0.8963569773357347
812.0, 0.9308819091032461
813.0, 0.9611780178754726
814.0, 0.9853661800742556
815.0, 0.998451336360388
816.0, 0.9957475103686718
817.0, 0.9704178085652719
818.0, 0.9155044381658554
819.0, 0.8326666338955571
820.0, 0.7298903323645491
821.0, 0.6171754075045691
822.0, 0.5076254872122691
823.0, 0.4116983167182936
824.0, 0.33256727733534946
825.0, 0.2698977470808208
826.0, 0.22088132325036305
827.0, 0.182889872068269
828.0, 0.15301843432807943
829.0, 0.12911631817140498
830.0, 0.10956952262917877
831.0, 0.09383516573351036
832.0, 0.08140444691819734
833.0, 0.07093596437840094
834.0, 0.06271349659232821
835.0, 0.05531752148698612
836.0, 0.04949538549490783
837.0, 0.044108158447413386
838.0, 0.039160834594419255
839.0, 0.03511240887307798
840.0, 0.03166497457474557
841.0, 0.028316230437487218
842.0, 0.025751909837497464
843.0, 0.02345966579222044
844.0, 0.021355143506525117
845.0, 0.01901726827888477
846.0, 0.01711874535291862
847.0, 0.01590516484635572
848.0, 0.014675079843988834
849.0, 0.013203772347127949
850.0, 0.012036442284464684
851.0, 0.010558309158744467
852.0, 0.00979179394583073
853.0, 0.008967006783530965
854.0, 0.008149549544490762
855.0, 0.007380276136347037
856.0, 0.006717548296427122
857.0, 0.006159826380976423
858.0, 0.005515447950398537
859.0, 0.004928282045553557
860.0, 0.00466527076816105
861.0, 0.004162227116387525
862.0, 0.002957111351385076
863.0, 0.0025688476594811255
864.0, 0.002628283610236226
865.0, 0.002375324982162015
866.0, 0.0021570245507466436
867.0, 0.0020423312916777758
868.0, 0.0017285030769180576
869.0, 0.001311886783460025
870.0, 0.0007143367337298273
871.0, 0.00036345471907166054
872.0, 0.00013912318764508684
873.0, 0.00027296925603622024
874.0, 0.00043790724614557383
875.0, 0.00020553768545155993
876.0, 0.0001499734322302598
877.0, 0.0001405458832326492
878.0, 0.0009477407932150407
879.0, 0.0009419420728208213
880.0, 0.0006275391830605138
881.0, 0.00035501301988102824
882.0, 0.00039789078150511456
883.0, 0.000781233131347683
884.0, 0.0009113588616895041
885.0, 0.000525857711058958
886.0, 0.00012212947666803443
887.0, 0.000618123154386317
888.0, 0.0006780671276898283
889.0, 0.0007539285348484784
890.0, 0.0009371826655096647
891.0, 0.0006630346008926119
892.0, 0.00019454643313441855
893.0, 9.471196610711821e-05
894.0, 4.6204721797692674e-05
895.0, 5.700490219725122e-05
896.0, 9.742179380013495e-05
897.0, 0.000398143948902264
898.0, 0.0002417326425067328
899.0, 0.00011140192848155679
900.0, 0.00029652739993024787
901.0, 3.0833969919192347e-05
902.0, 0.0005355490908425514
903.0, 0.00017513423368172362
904.0, 0.0005287829867678528
905.0, 0.0009401997925362666
906.0, 0.0002675255456483216
907.0, 0.0005115188372920911
908.0, 0.0007538710641322348
909.0, 0.00100050030327003
910.0, 0.0009639690117297901
911.0, 0.0005664906729438517
912.0, 0.0011907838056648974
913.0, 0.0013779280431983777
914.0, 0.0009409967984310881
915.0, 0.0010436813891253303
916.0, 0.0012152092399403934
917.0, 0.0016286766203643642
918.0, 0.001853566988632147
919.0, 0.0017950877830767789
920.0, 0.0017829117228983736
921.0, 0.0016088088239317418
922.0, 0.0012542558197313654
923.0, 0.0016463630214189947
924.0, 0.0015453524550117768
925.0, 0.001750640050339831
926.0, 0.0017342474750081753
927.0, 0.0016670696149803069
928.0, 0.0017057822158393925
929.0, 0.001775777299179014
930.0, 0.0017949200118620387
931.0, 0.0017544741051310029
932.0, 0.001867451795296626
933.0, 0.001927027700539791
934.0, 0.001705120461340173
935.0, 0.0016467265963734574
936.0, 0.0016034270849628511
937.0, 0.0016772934063310379
938.0, 0.0015658231276236873
939.0, 0.0012202377199430564
940.0, 0.0012922504560030999
941.0, 0.0015840751052079386
942.0, 0.0006123592781035461
943.0, 0.0010108721415199127
944.0, 0.0013003918261134655
945.0, 0.001004400414600445
946.0, 0.001116895642959539
947.0, 0.0009968987329656508
948.0, 0.0008834322263767187
949.0, 0.000798227821673118
950.0, 0.00048471992529151533
951.0, 0.0007126597319177677
952.0, 0.00023773901833631168
953.0, 0.0009445849151644804
954.0, 0.0012683582510945868
955.0, 0.0010340768987396997
956.0, 0.0006031662879342429
957.0, 0.0009412072590099453
958.0, 0.0010016222201058443
959.0, 0.0007502342440118445
960.0, 0.0014072517265949682
961.0, 0.001269557031033947
962.0, 0.0015078646507871384
963.0, 0.0023020763547198955
964.0, 0.002752669249459263
965.0, 0.0031302295745963267
966.0, 0.0031528140446012644
967.0, 0.003553994795041027
968.0, 0.004606068585970698
969.0, 0.005227637370700248
970.0, 0.005702451941539681
971.0, 0.00708761476348214
972.0, 0.0077818387132400305
973.0, 0.007945403672450464
974.0, 0.00883814988331454
975.0, 0.010304009410474352
976.0, 0.01231690851288527
977.0, 0.014977065828411627
978.0, 0.018404909742551503
979.0, 0.025349667104644365
980.0, 0.04099278160213431
981.0, 0.07347759366563117
982.0, 0.12892417836005318
983.0, 0.18618875684393613
984.0, 0.20084448155937812
985.0, 0.18433556027813042
986.0, 0.18211790386089774
987.0, 0.1980303041482199
988.0, 0.22326002681189694
989.0, 0.2475604828903777
990.0, 0.26413811741822546
991.0, 0.27564385004646474
992.0, 0.2928255994328301
993.0, 0.3228075581548783
994.0, 0.3546502786157736
995.0, 0.3077904238991788
996.0, 0.18732626159408197
997.0, 0.092439575048704
998.0, 0.04613052074851873
999.0, 0.027076629689557034
1000.0, 0.018946373583229058
1001.0, 0.01492316501922544
1002.0, 0.012170358568704699
1003.0, 0.01000120766021038
1004.0, 0.007866901919139703
1005.0, 0.006529715069311887
1006.0, 0.00531702827136805
1007.0, 0.004364413339097781
1008.0, 0.003338451793561274
1009.0, 0.002783433469877581
1010.0, 0.0018652904758731292
1011.0, 0.0014433545394253104
1012.0, 0.0010815783346008582
1013.0, 0.0005875937593923837
1014.0, 0.0006706855693879198
1015.0, 0.0004450892035523149
1016.0, 0.0001637820642462235
1017.0, 4.6880892616630375e-05
1018.0, 0.00036687917843886196
1019.0, 9.1844195262289e-05
1020.0, 4.0972449415152635e-05
1021.0, 0.00011132632251288388
1022.0, 6.538293469563489e-05
1023.0, 0.00013566947319898083
1024.0, 0.00029364442260834797
1025.0, 0.0001538300388346181
1026.0, 0.00012277096388229615
1027.0, 0.00011263083291242028
1028.0, 0.0003458272816087464
1029.0, 0.00034574144919518327
1030.0, 0.00021311545501097396
1031.0, 7.984025695048878e-05
1032.0, 0.00034085187767406535
1033.0, 0.0002708750005677948
1034.0, 0.00021757304745029606
1035.0, 0.0005489987464873719
1036.0, 0.0005137406208522899
1037.0, 0.0004399527232299503
1038.0, 0.0005717757953106087
1039.0, 0.0006232761862248442
1040.0, 0.00048492081202916533
1041.0, 0.0001298368278955754
1042.0, 0.0002456952527088965
1043.0, 0.0004818982264080746
1044.0, 0.0002620929807952354
1045.0, 0.0005044522735826889
1046.0, 0.0005350521159895702
1047.0, 0.0003545475834340206
1048.0, 0.0005540339214890743
1049.0, 0.0008280695013927933
1050.0, 0.0007518485806214616
1051.0, 0.0006239331313377007
1052.0, 0.0005302515040718135
1053.0, 0.0006760725893397004
1054.0, 0.0004944836417305455
1055.0, 0.0005950624609477669
1056.0, 0.000514886669830697
1057.0, 0.0007265125220922188
1058.0, 0.00033553302623649827
1059.0, 0.0001457066501486047
1060.0, 0.0003880326651132821
1061.0, 0.000830490565061734
1062.0, 0.0010251303488414056
1063.0, 0.00070372456625223
1064.0, 0.0005956810587026945
1065.0, 0.00020498763235489803
1066.0, 0.00041984819392713987
1067.0, 0.0004805440964566182
1068.0, 0.0005886293397929069
1069.0, 0.0008663321638682008
1070.0, 0.00040156575268929527
1071.0, 0.0005245400247810047
1072.0, 0.0006525929834487586
1073.0, 0.0007260041216851939
1074.0, 0.0005823543729086193
1075.0, 0.0002037414674278832
1076.0, 0.0004013985222863064
1077.0, 0.0005069306405042809
1078.0, 0.00018292182302427715
1079.0, 0.00030485088210691096
1080.0, 0.0005396129197705957
1081.0, 0.0006169706980483308
1082.0, 0.0005010109955762794
1083.0, 0.0009783492583574586
1084.0, 0.0007291292406209935
1085.0, 0.0005346996078658982
1086.0, 0.00047249166128207653
1087.0, 0.00024337946012165391
1088.0, 0.0001247098224678374
1089.0, 0.00018546341088611864
1090.0, 0.00037527942900935653
1091.0, 0.0005111689100599703
1092.0, 7.80609754181659e-05
1093.0, 6.479474349132852e-05
1094.0, 0.0003495615113588153
1095.0, 0.0003181741493707968
1096.0, 6.25453696270498e-05
1097.0, 0.00017370907963266643
1098.0, 0.00030237770731222945
1099.0, 0.00028876216360687346
1100.0, 0.00024092638703562857
1101.0, 6.489751204913428e-05
1102.0, 0.00010893693106404795
1103.0, 3.0437373406993795e-05
1104.0, 0.00023587239077214347
1105.0, 0.00024802036782770417
1106.0, 0.000132238167698132
1107.0, 0.00018952802260749742
1108.0, 0.0003832752981977413
1109.0, 0.0008142578666287361
1110.0, 0.0003282113397211839
1111.0, 7.718366198334731e-05
1112.0, 0.00015688882760416515
1113.0, 5.343550424033119e-05
1114.0, 0.00017832348817227277
1115.0, 0.0003148440262495893
1116.0, 0.0005152123580724383
1117.0, 0.00033409646308955475
1118.0, 0.00016191211756577372
1119.0, 0.000277613795541779
1120.0, 0.00010091624826485166
1121.0, 0.00019312209989424598
1122.0, 0.0006736155246134111
1123.0, 0.0005945503080038073
1124.0, 0.0002947959557564647
1125.0, 0.00035576722446901336
1126.0, 0.00043008964765777754
1127.0, 0.0007013259835175345
1128.0, 0.0010112795038584588
1129.0, 0.00041917943762139083
1130.0, 0.00024377442655515582
1131.0, 0.0005699430811128742
1132.0, 0.0003983371179127161
1133.0, 3.635345631484086e-05
1134.0, 0.00023168388833765127
1135.0, 0.0005417954552889719
1136.0, 0.0008984771654703324
1137.0, 0.0007148994382272796
1138.0, 0.0005237691057366221
1139.0, 0.000559918726503839
1140.0, 0.0003826109674604543
1141.0, 0.0006563013957175084
1142.0, 0.0007767646735913188
1143.0, 0.0006757300577486339
1144.0, 7.891064642065882e-05
1145.0, 0.000330054127713631
1146.0, 0.0010225279719702468
1147.0, 0.0007774023779200746
1148.0, 0.00044832934753179655
1149.0, 0.0007705810544903218
1150.0, 0.0008298337861744347
1151.0, 0.0007443237597240801
1152.0, 0.0009374804866830491
1153.0, 0.0008591429488840634
1154.0, 0.0006281408079052814
1155.0, 0.0004044848790095871
1156.0, 0.0005950084824092246
1157.0, 0.00029980124647025185
1158.0, 0.0008150661019122568
1159.0, 0.0007997091109945732
1160.0, 0.0006848134308890972
1161.0, 0.0007021396922914453
1162.0, 0.0008828853072931026
1163.0, 0.0009576039471554911
1164.0, 0.0009376611906600164
1165.0, 0.000809608165688206
1166.0, 0.000685159294629758
1167.0, 0.0004685670178714331
1168.0, 0.00012615697382713
1169.0, 0.000662555538488995
1170.0, 0.0004512773628914838
1171.0, 0.00042229688208994976
1172.0, 0.0004202018514451556
1173.0, 0.0005584503620386165
1174.0, 0.00048009659677670754
1175.0, 0.00043318884102746104
1176.0, 0.00016763024189579966
1177.0, 0.0003615896511042011
1178.0, 0.0006522569367952251
1179.0, 0.0006469861137886099
1180.0, 0.00045561421746625726
1181.0, 0.00046170024608349267
1182.0, 0.00036073056719682333
1183.0, 0.0001090286345652761
1184.0, 0.00034643775960354825
1185.0, 0.0006234471260559976
1186.0, 0.0004433865506589546
1187.0, 0.0005462411298017842
1188.0, 0.00030906209050064233
1189.0, 0.0006507136670384247
1190.0, 0.000348535498595664
1191.0, 8.681223669495457e-05
1192.0, 9.070182297281529e-05
1193.0, 0.0005486210220596238
1194.0, 0.00033280697028030337
1195.0, 0.00024608739622463
1196.0, 0.00012145464131946525
1197.0, 0.00043546737162523973
1198.0, 0.0005903024977290035
1199.0, 0.00013330799540587653
1200.0, 0.00015105844675322797
1201.0, 2.854405292816192e-05
1202.0, 0.00018455981288966996
1203.0, 0.00010485776810071937
1204.0, 0.0001018321757030255
1205.0, 0.0004933116209952286
1206.0, 0.0003339761459832799
1207.0, 0.0001336509974000452
1208.0, 0.000557591546299296
1209.0, 0.0006795138267007717
1210.0, 0.00037862615107774386
1211.0, 0.0003887203886926731
1212.0, 5.655683794125201e-05
1213.0, 0.0003508972305820611
1214.0, 0.0005184381147535309
1215.0, 0.0005068891723398403
1216.0, 0.00017507395333849697
1217.0, 0.0007949052806952682
1218.0, 0.000752939784801455
1219.0, 0.0005953436314602966
1220.0, 0.000548409599323897
1221.0, 0.0005538110490358923
1222.0, 0.0005035037968248747
1223.0, 0.00044489792725781944
1224.0, 0.0003379102990300968
1225.0, 0.00037671682686068623
1226.0, 0.000875556291120815
1227.0, 0.000662505641055734
1228.0, 0.00033037462833728415
1229.0, 0.00046835755950679146
1230.0, 0.0008711577742371717
1231.0, 0.0009293279187638908
1232.0, 0.0006461223057174768
1233.0, 0.00020342034281943267
1234.0, 0.00010648773772279974
1235.0, 0.0003895803100293309
1236.0, 0.0009407845043997581
1237.0, 0.0007532410963054685
1238.0, 0.0005346175378796762
1239.0, 0.000315014055046932
1240.0, 0.00027813225009561506
1241.0, 0.0003575272698784561
1242.0, 0.0004704343182615619
1243.0, 0.000531354325766404
1244.0, 0.0004852436832498533
1245.0, 0.0006997808529329615
1246.0, 0.0007532028860970232
1247.0, 0.0004473437834201053
1248.0, 0.0003621598021564191
1249.0, 0.0004918341365286734
1250.0, 0.0003681289047109917
1251.0, 0.0002588561931178926
1252.0, 0.0006245036368440955
1253.0, 0.00023268651325430252
1254.0, 9.083540633940256e-05
1255.0, 0.0006213678452264582
1256.0, 0.0005323200717782107
1257.0, 0.0003475121339074235
1258.0, 0.0006480170444051603
1259.0, 0.0008978861309120475
1260.0, 0.0006657039555791243
1261.0, 0.0003010984137466378
1262.0, 0.0005445090072544312
1263.0, 0.0001232858343841771
1264.0, 0.00035138905883591424
1265.0, 0.000369926647834889
1266.0, 0.000728152816931676
1267.0, 0.0003322058768180339
1268.0, 4.631113462032678e-05
1269.0, 0.00032874931435366417
1270.0, 0.00027266298995678274
1271.0, 9.695050428850809e-05
1272.0, 0.0004916474744967635
1273.0, 0.0007375029940934968
1274.0, 0.000662342166368707
1275.0, 0.0006233274240557316
1276.0, 0.0006050794354125416
1277.0, 0.0004299405473261805
1278.0, 0.0004930018642147547
1279.0, 0.0007648005508635289
1280.0, 0.0005488051565901463
1281.0, 0.0002635377785877079
1282.0, 0.00024767799435963697
1283.0, 5.048806563507009e-05
1284.0, 8.335886364851973e-07
1285, 0.0
1286, 0.0
1287, 0.0
1288, 0.0
1289, 0.0
1290, 0.0
1291, 0.0
1292, 0.0
1293, 0.0
1294, 0.0
1295, 0.0
1296, 0.0
1297, 0.0
1298, 0.0
1299, 0.0
1300, 0.0
1301, 0.0
1302, 0.0
1303, 0.0
1304, 0.0
1305, 0.0
1306, 0.0
1307, 0.0
1308, 0.0
1309, 0.0
1310, 0.0
1311, 0.0
1312, 0.0
1313, 0.0
1314, 0.0
1315, 0.0
1316, 0.0
1317, 0.0
1318, 0.0
1319, 0.0
1320, 0.0
1321, 0.0
1322, 0.0
1323, 0.0
1324, 0.0
1325, 0.0
1326, 0.0
1327, 0.0
1328, 0.0
1329, 0.0
1330, 0.0
1331, 0.0
1332, 0.0
1333, 0.0
1334, 0.0
1335, 0.0
1336, 0.0
1337, 0.0
1338, 0.0
1339, 0.0
1340, 0.0
1341, 0.0
1342, 0.0
1343, 0.0
1344, 0.0
1345, 0.0
1346, 0.0
1347, 0.0
1348, 0.0
1349, 0.0
1350, 0.0
1351, 0.0
1352, 0.0
1353, 0.0
1354, 0.0
1355, 0.0
1356, 0.0
1357, 0.0
1358, 0.0
1359, 0.0
1360, 0.0
1361, 0.0
1362, 0.0
1363, 0.0
1364, 0.0
1365, 0.0
1366, 0.0
1367, 0.0
1368, 0.0
1369, 0.0
1370, 0.0
1371, 0.0
1372, 0.0
1373, 0.0
1374, 0.0
1375, 0.0
1376, 0.0
1377, 0.0
1378, 0.0
1379, 0.0
1380, 0.0
1381, 0.0
1382, 0.0
1383, 0.0
1384, 0.0
1385, 0.0
1386, 0.0
1387, 0.0
1388, 0.0
1389, 0.0
1390, 0.0
1391, 0.0
1392, 0.0
1393, 0.0
1394, 0.0
1395, 0.0
1396, 0.0
1397, 0.0
1398, 0.0
1399, 0.0
1400, 0.0
1401, 0.0
1402, 0.0
1403, 0.0
1404, 0.0
1405, 0.0
1406, 0.0
1407, 0.0
1408, 0.0
1409, 0.0
1410, 0.0
1411, 0.0
1412, 0.0
1413, 0.0
1414, 0.0
1415, 0.0
1416, 0.0
1417, 0.0
1418, 0.0
1419, 0.0
1420, 0.0
1421, 0.0
1422, 0.0
1423, 0.0
1424, 0.0
1425, 0.0
1426, 0.0
1427, 0.0
1428, 0.0
1429, 0.0
1430, 0.0
1431, 0.0
1432, 0.0
1433, 0.0
1434, 0.0
1435, 0.0
1436, 0.0
1437, 0.0
1438, 0.0
1439, 0.0
1440, 0.0
1441, 0.0
1442, 0.0
1443, 0.0
1444, 0.0
1445, 0.0
1446, 0.0
1447, 0.0
1448, 0.0
1449, 0.0
1450, 0.0
1451, 0.0
1452, 0.0
1453, 0.0
1454, 0.0
1455, 0.0
1456, 0.0
1457, 0.0
1458, 0.0
1459, 0.0
1460, 0.0
1461, 0.0
1462, 0.0
1463, 0.0
1464, 0.0
1465, 0.0
1466, 0.0
1467, 0.0
1468, 0.0
1469, 0.0
1470, 0.0
1471, 0.0
1472, 0.0
1473, 0.0
1474, 0.0
1475, 0.0
1476, 0.0
1477, 0.0
1478, 0.0
1479, 0.0
1480, 0.0
1481, 0.0
1482, 0.0
1483, 0.0
1484, 0.0
1485, 0.0
1486, 0.0
1487, 0.0
1488, 0.0
1489, 0.0
1490, 0.0
1491, 0.0
1492, 0.0
1493, 0.0
1494, 0.0
1495, 0.0
1496, 0.0
1497, 0.0
1498, 0.0
1499, 0.0
1500, 0.0
1501, 0.0
1502, 0.0
1503, 0.0
1504, 0.0
1505, 0.0
1506, 0.0
1507, 0.0
1508, 0.0
1509, 0.0
1510, 0.0
1511, 0.0
1512, 0.0
1513, 0.0
1514, 0.0
1515, 0.0
1516, 0.0
1517, 0.0
1518, 0.0
1519, 0.0
1520, 0.0
1521, 0.0
1522, 0.0
1523, 0.0
1524, 0.0
1525, 0.0
1526, 0.0
1527, 0.0
1528, 0.0
1529, 0.0
1530, 0.0
1531, 0.0
1532, 0.0
1533, 0.0
1534, 0.0
1535, 0.0
1536, 0.0
1537, 0.0
1538, 0.0
1539, 0.0
1540, 0.0
1541, 0.0
1542, 0.0
1543, 0.0
1544, 0.0
1545, 0.0
1546, 0.0
1547, 0.0
1548, 0.0
1549, 0.0
1550, 0.0
1551, 0.0
1552, 0.0
1553, 0.0
1554, 0.0
1555, 0.0
1556, 0.0
1557, 0.0
1558, 0.0
1559, 0.0
1560, 0.0
1561, 0.0
1562, 0.0
1563, 0.0
1564, 0.0
1565, 0.0
1566, 0.0
1567, 0.0
1568, 0.0
1569, 0.0
1570, 0.0
1571, 0.0
1572, 0.0
1573, 0.0
1574, 0.0
1575, 0.0
1576, 0.0
1577, 0.0
1578, 0.0
1579, 0.0
1580, 0.0
1581, 0.0
1582, 0.0
1583, 0.0
1584, 0.0
1585, 0.0
1586, 0.0
1587, 0.0
1588, 0.0
1589, 0.0
1590, 0.0
1591, 0.0
1592, 0.0
1593, 0.0
1594, 0.0
1595, 0.0
1596, 0.0
1597, 0.0
1598, 0.0
1599, 0.0
