30, 0.0
31, 0.0
32, 0.0
33, 0.0
34, 0.0
35, 0.0
36, 0.0
37, 0.0
38, 0.0
39, 0.0
40, 0.0
41, 0.0
42, 0.0
43, 0.0
44, 0.0
45, 0.0
46, 0.0
47, 0.0
48, 0.0
49, 0.0
50, 0.0
51, 0.0
52, 0.0
53, 0.0
54, 0.0
55, 0.0
56, 0.0
57, 0.0
58, 0.0
59, 0.0
60, 0.0
61, 0.0
62, 0.0
63, 0.0
64, 0.0
65, 0.0
66, 0.0
67, 0.0
68, 0.0
69, 0.0
70, 0.0
71, 0.0
72, 0.0
73, 0.0
74, 0.0
75, 0.0
76, 0.0
77, 0.0
78, 0.0
79, 0.0
80, 0.0
81, 0.0
82, 0.0
83, 0.0
84, 0.0
85, 0.0
86, 0.0
87, 0.0
88, 0.0
89, 0.0
90, 0.0
91, 0.0
92, 0.0
93, 0.0
94, 0.0
95, 0.0
96, 0.0
97, 0.0
98, 0.0
99, 0.0
100, 0.0
101, 0.0
102, 0.0
103, 0.0
104, 0.0
105, 0.0
106, 0.0
107, 0.0
108, 0.0
109, 0.0
110, 0.0
111, 0.0
112, 0.0
113, 0.0
114, 0.0
115, 0.0
116, 0.0
117, 0.0
118, 0.0
119, 0.0
120, 0.0
121, 0.0
122, 0.0
123, 0.0
124, 0.0
125, 0.0
126.0, 0.009271539249992283
127.0, 0.0346266869225587
128.0, 0.0518474980808485
129.0, 0.05653994305637903
130.0, 0.058577247448160494
131.0, 0.05109201035998814
132.0, 0.03484799136241246
133.0, 0.01671306640927674
134.0, 0.008167658953369687
135.0, 0.0027588735165005995
136.0, 0.0011533720725605862
137.0, 0.007345441290182369
138.0, 0.025178140621763
139.0, 0.044540098317918816
140.0, 0.06659730678363035
141.0, 0.089215948260835
142.0, 0.09769326208551271
143.0, 0.11495256608607163
144.0, 0.13616649613994136
145.0, 0.1540401887084631
146.0, 0.16688237314610727
147.0, 0.17610047426708955
148.0, 0.18194671669245274
149.0, 0.18922609647506766
150.0, 0.20781049625510875
151.0, 0.2045688988519878
152.0, 0.21128856590909195
153.0, 0.227515836569463
154.0, 0.24384583488041017
155.0, 0.26769513752259055
156.0, 0.2894219143018126
157.0, 0.3082192138123368
158.0, 0.326350708899518
159.0, 0.3467423667628783
160.0, 0.358981141409625
161.0, 0.3690887213703212
162.0, 0.3742388280594921
163.0, 0.3595141719224772
164.0, 0.34750206623175284
165.0, 0.32759676682242705
166.0, 0.3002123265162998
167.0, 0.27259865331724975
168.0, 0.23901409320394332
169.0, 0.20131290689128734
170.0, 0.17236145003240294
171.0, 0.15662635991287055
172.0, 0.12903427086237843
173.0, 0.11116618442340274
174.0, 0.0974984309780947
175.0, 0.08407418611514203
176.0, 0.08298379547306783
177.0, 0.07954480633584245
178.0, 0.07886937335094395
179.0, 0.07819319033340569
180.0, 0.06892349896381447
181.0, 0.07234663654701122
182.0, 0.0714646284076422
183.0, 0.07368521752659955
184.0, 0.09010339603809041
185.0, 0.09847088065546775
186.0, 0.10557872014161213
187.0, 0.10943698653079438
188.0, 0.10803271304941457
189.0, 0.10813937788268539
190.0, 0.10716660366785698
191.0, 0.1064866024116062
192.0, 0.10400435426963273
193.0, 0.09486409743323476
194.0, 0.0919341402404133
195.0, 0.09100046873935476
196.0, 0.08872473831032339
197.0, 0.08502158127724199
198.0, 0.08266319422775079
199.0, 0.08191810141736346
200.0, 0.07998571538664069
201.0, 0.07682628709063156
202.0, 0.0780666160536447
203.0, 0.08395467497915574
204.0, 0.08077146574893204
205.0, 0.07588306502557517
206.0, 0.09159980109027686
207.0, 0.09411134325170262
208.0, 0.08726269073001368
209.0, 0.08295966185130944
210.0, 0.08615763800593416
211.0, 0.07797978463053262
212.0, 0.08213977820242366
213.0, 0.08442862944872152
214.0, 0.07888209278108947
215.0, 0.08549841313782457
216.0, 0.09595569922110933
217.0, 0.10100153182039179
218.0, 0.10393440078798552
219.0, 0.11281344651159046
220.0, 0.11153163325852825
221.0, 0.10513474399193755
222.0, 0.09634049125261931
223.0, 0.08612191257475696
224.0, 0.07483811821940743
225.0, 0.07249732662839861
226.0, 0.06639367172172055
227.0, 0.05628126735880456
228.0, 0.055866950373981004
229.0, 0.04681732032056435
230.0, 0.04359952863276017
231.0, 0.03952131253798492
232.0, 0.02424070510807128
233.0, 0.01945404328997683
234.0, 0.01584335473462104
235.0, 0.009574972906606374
236.0, 0.0020034560142076258
237.0, 0.0016208444307272058
238.0, 0.010818228864289459
239.0, 0.017053470517579414
240.0, 0.014821447901220568
241.0, 0.006329194455292866
242.0, 0.009147614252183151
243.0, 0.011079773436568892
244.0, 0.01015214915578407
245.0, 0.006096748595112236
246.0, 0.004040183087979259
247.0, 0.013034089642392515
248.0, 0.018730994472201737
249.0, 0.02512121117811918
250.0, 0.03825157995665448
251.0, 0.055920495332505246
252.0, 0.06948238285822401
253.0, 0.08866871819346756
254.0, 0.11806296725647727
255.0, 0.14717449664909138
256.0, 0.17469170906344786
257.0, 0.20886979763844976
258.0, 0.24558024701090264
259.0, 0.27620185750827
260.0, 0.31243832919795017
261.0, 0.34597329229836155
262.0, 0.37507573822718265
263.0, 0.39213574814794605
264.0, 0.3795245872087326
265.0, 0.35678376736601536
266.0, 0.3256547657627163
267.0, 0.2882277157912288
268.0, 0.24669259366026086
269.0, 0.19199370490234685
270.0, 0.15713433908415902
271.0, 0.1283221745808334
272.0, 0.09433903966699485
273.0, 0.0707853781034592
274.0, 0.05136659681480452
275.0, 0.0375962861551171
276.0, 0.02829822517575364
277.0, 0.02166208146601656
278.0, 0.02214666541504184
279.0, 0.01743477083827328
280.0, 0.01001909368437487
281.0, 0.0049379043973229635
282.0, 0.0037633800827570106
283.0, 0.0031685667550733483
284.0, 0.004947262544053077
285.0, 0.0064601970388456385
286.0, 0.005923383117896517
287.0, 0.010668111508631777
288.0, 0.02203872361466316
289.0, 0.037120031775170356
290.0, 0.05209781789825113
291.0, 0.06452811289639977
292.0, 0.07652760224568111
293.0, 0.09394618930107641
294.0, 0.1148738300874294
295.0, 0.13814886707691187
296.0, 0.16697816447710456
297.0, 0.18780290752363146
298.0, 0.18864580085535596
299.0, 0.16923829384601896
300.0, 0.13677289168324325
301.0, 0.10225204497344001
302.0, 0.07174125180997837
303.0, 0.0506000355002419
304.0, 0.03947768376571518
305.0, 0.03345539809086183
306.0, 0.03041980293806258
307.0, 0.025836974914979147
308.0, 0.020986903743613176
309.0, 0.01704343819234645
310.0, 0.008906782545307634
311.0, 0.006181910476653113
312.0, 0.007153222919370117
313.0, 0.007917029180720478
314.0, 0.006227425438126684
315.0, 0.005874752317163144
316.0, 0.00271186631411147
317.0, 0.009748110666961554
318.0, 0.009879851467749527
319.0, 0.011062108050294246
320.0, 0.0077121360531439065
321.0, 0.0011109105606517508
322.0, 0.0028283336327740325
323.0, 0.0017864261484941718
324.0, 0.003797059973330125
325.0, 0.011660695011597218
326.0, 0.017480567113600208
327.0, 0.016513663972445723
328.0, 0.008677573096509251
329.0, 0.014612330965181544
330.0, 0.011740258045782524
331.0, 0.008116191878066798
332.0, 0.011043594403724145
333.0, 0.013583399900434043
334.0, 0.012677618446438237
335.0, 0.01839461486912393
336.0, 0.019863307479909467
337.0, 0.010281647591649705
338.0, 0.015104818144433119
339.0, 0.01988652611193668
340.0, 0.021835170000627808
341.0, 0.02363594729967863
342.0, 0.028234683512568328
343.0, 0.031974406041588
344.0, 0.03280495744177472
345.0, 0.0352531628957714
346.0, 0.04241404855145174
347.0, 0.05289592637497552
348.0, 0.058329028604102405
349.0, 0.06853375684402814
350.0, 0.08137260151229168
351.0, 0.09147973005418851
352.0, 0.0976689666329757
353.0, 0.10592818853099337
354.0, 0.11798556342393952
355.0, 0.12900915045375472
356.0, 0.13488218881331135
357.0, 0.14018953548578442
358.0, 0.15617841658761344
359.0, 0.16322919466147032
360.0, 0.16583692857198615
361.0, 0.17359042580835604
362.0, 0.16058805489237324
363.0, 0.142412404242433
364.0, 0.12628467927540907
365.0, 0.11042464625481366
366.0, 0.08995333962450307
367.0, 0.06875659541927287
368.0, 0.06379979116589195
369.0, 0.06552913660276609
370.0, 0.06636879692959721
371.0, 0.06762771379125983
372.0, 0.06336478186022405
373.0, 0.06759165752097003
374.0, 0.07595310697486636
375.0, 0.08113852243224917
376.0, 0.08448046573017917
377.0, 0.08731984015114101
378.0, 0.0887091845636499
379.0, 0.08863111349552676
380.0, 0.08771902215977408
381.0, 0.08809588530216139
382.0, 0.09176288100237275
383.0, 0.09052538676850319
384.0, 0.08842161731060637
385.0, 0.08926248118741374
386.0, 0.0787985996225862
387.0, 0.07982328717335933
388.0, 0.07096329481284355
389.0, 0.05527344602413969
390.0, 0.05004363225789579
391.0, 0.04800669097722935
392.0, 0.034436795693065125
393.0, 0.022564206591705473
394.0, 0.014826597314593005
395.0, 0.005279686807932612
396.0, 0.0055850672416610505
397.0, 0.004188959683582819
398.0, 0.0024591406100869977
399.0, 0.007111875971271468
400.0, 0.001711908668980211
401.0, 0.000520285474316331
402.0, 0.0034024678341514685
403.0, 0.0039022795899022558
404.0, 0.0009372031393374022
405.0, 0.0010882136652797206
406.0, 0.006697265435892593
407.0, 0.005886068195805522
408.0, 0.011764938931574712
409.0, 0.02627356431498991
410.0, 0.031994701394244755
411.0, 0.04364705056249287
412.0, 0.05142505086778149
413.0, 0.05827092382797379
414.0, 0.06996421195914336
415.0, 0.0865810227488881
416.0, 0.11154304663301562
417.0, 0.12039370306447794
418.0, 0.1296258595312082
419.0, 0.1464166869803546
420.0, 0.15181063257374353
421.0, 0.14830475402145885
422.0, 0.1397895253454583
423.0, 0.12727684258705527
424.0, 0.10908419838476416
425.0, 0.08421382925477613
426.0, 0.07092910808635099
427.0, 0.05765159286023161
428.0, 0.054477858555810214
429.0, 0.06179210740931768
430.0, 0.05954833224817184
431.0, 0.05777925764809895
432.0, 0.06755907534968544
433.0, 0.07969021631154181
434.0, 0.083843404281045
435.0, 0.0824733660112573
436.0, 0.10029870083862877
437.0, 0.11958004919624239
438.0, 0.13728290730533188
439.0, 0.1605851928466423
440.0, 0.19152729433797344
441.0, 0.21024910779853948
442.0, 0.238144497272404
443.0, 0.26830259419227304
444.0, 0.300430530986912
445.0, 0.34909359051919975
446.0, 0.39977736592158414
447.0, 0.4567131260765451
448.0, 0.5171401208294587
449.0, 0.5877428993006323
450.0, 0.680846689214173
451.0, 0.7626367670828473
452.0, 0.8468035575057239
453.0, 0.9230623851015368
454.0, 0.971634055102985
455.0, 0.984918252274952
456.0, 0.9922763172108753
457.0, 0.9982672666939159
458.0, 0.9997053363709152
459.0, 0.9921473225777947
460.0, 0.9726844843360473
461.0, 0.9406036301454476
462.0, 0.9008334805511103
463.0, 0.8423604631204092
464.0, 0.7738911642078707
465.0, 0.7103343882516401
466.0, 0.6383880932133108
467.0, 0.5724858701048772
468.0, 0.5134280407112717
469.0, 0.4612605732643597
470.0, 0.41511658567205206
471.0, 0.36714538438221184
472.0, 0.32216840440235694
473.0, 0.2898579312263218
474.0, 0.25577027244055905
475.0, 0.2124119200810086
476.0, 0.1888505382420422
477.0, 0.18198077147427477
478.0, 0.18115887714541257
479.0, 0.15918211427179085
480.0, 0.1237751202581381
481.0, 0.11792691604765175
482.0, 0.09858753679841328
483.0, 0.08727717551272147
484.0, 0.08358513289404501
485.0, 0.07903183037597726
486.0, 0.06993854021602183
487.0, 0.05855768938932484
488.0, 0.046285662409103735
489.0, 0.03415090379875319
490.0, 0.024573549368691924
491.0, 0.020070402550942702
492.0, 0.017944136094522268
493.0, 0.013147328757429154
494.0, 0.007238115349336122
495.0, 0.004195003226591083
496.0, 0.003939035734172195
497.0, 0.0011292309046913084
498.0, 0.0040353743011023015
499.0, 0.0036417133559667487
500.0, 0.00846757715234597
501.0, 0.01754877042871733
502.0, 0.009844933315245488
503.0, 0.0020683802459305653
504.0, 0.0037685355823768247
505.0, 0.006993982103935805
506.0, 0.005476113605995097
507.0, 0.002787896936781685
508.0, 0.003083656815018269
509.0, 0.00612791133793688
510.0, 0.007375069396684152
511.0, 0.0033237884334790567
512.0, 0.0033366016226815637
513.0, 7.679528385751014e-05
514.0, 0.006296857599837005
515.0, 0.014504455012652982
516.0, 0.01943282869664387
517.0, 0.021063894551241722
518.0, 0.021857412813852645
519.0, 0.04469021800741077
520.0, 0.06138259061294842
521.0, 0.07783275648923996
522.0, 0.10125531895404302
523.0, 0.1235967908518267
524.0, 0.14993902369113687
525.0, 0.1735620148083402
526.0, 0.20345464337457844
527.0, 0.23793467832836865
528.0, 0.26974072529592086
529.0, 0.31311685593027494
530.0, 0.3717372118679895
531.0, 0.42601690303797185
532.0, 0.47612695231838237
533.0, 0.5332690742725602
534.0, 0.5970382791824403
535.0, 0.6342147412490098
536.0, 0.6477955693522081
537.0, 0.6356616686486097
538.0, 0.5984079322194331
539.0, 0.5413879772761784
540.0, 0.4686516028676563
541.0, 0.4063569857010054
542.0, 0.3453885617441183
543.0, 0.2892492899323621
544.0, 0.24638928986128575
545.0, 0.20700824751426325
546.0, 0.17798363208671655
547.0, 0.15056014947727336
548.0, 0.1342980076673481
549.0, 0.12579861997585104
550.0, 0.10296514330561582
551.0, 0.08233464864375084
552.0, 0.07266523905449734
553.0, 0.06894905846869591
554.0, 0.06292355668969626
555.0, 0.04973763568341923
556.0, 0.03566097572784514
557.0, 0.045071624494064065
558.0, 0.050762158224016106
559.0, 0.04203405591554849
560.0, 0.033161063037317876
561.0, 0.03770455029941282
562.0, 0.029605626294616938
563.0, 0.038929396623471814
564.0, 0.045446228580479406
565.0, 0.0445366835371243
566.0, 0.046288085352690966
567.0, 0.046682413154614466
568.0, 0.04536473924264341
569.0, 0.04257538086865373
570.0, 0.040170866687635726
571.0, 0.03946829312144485
572.0, 0.03991624638113506
573.0, 0.0374986307872252
574.0, 0.03260041058007398
575.0, 0.03123500999425309
576.0, 0.03560955615951056
577.0, 0.039402005555590994
578.0, 0.02919633908327458
579.0, 0.028683530334706622
580.0, 0.041767136354247295
581.0, 0.04631078505846545
582.0, 0.03990259735096363
583.0, 0.04505263046456642
584.0, 0.055420675599335334
585.0, 0.05840684651961133
586.0, 0.057781870339557034
587.0, 0.056111240339317116
588.0, 0.054881973553855386
589.0, 0.05889859664822838
590.0, 0.06723367156068426
591.0, 0.05037298828482311
592.0, 0.0687688486647112
593.0, 0.0528550842158988
594.0, 0.058612245576453864
595.0, 0.06826031044078083
596.0, 0.06606738137727759
597.0, 0.07298698208090011
598.0, 0.07051998664952426
599.0, 0.07957480750303446
600.0, 0.07448730683875188
601.0, 0.07466607675661369
602.0, 0.08398161850224543
603.0, 0.09238646884059319
604.0, 0.09597521985329505
605.0, 0.09965437798046099
606.0, 0.1093581895580794
607.0, 0.1121285682259762
608.0, 0.11766118984061492
609.0, 0.12035045711194438
610.0, 0.12140998431405162
611.0, 0.12544373301548845
612.0, 0.12762500669993626
613.0, 0.11452637203676434
614.0, 0.13497533212731985
615.0, 0.1221363505556674
616.0, 0.12418092988923869
617.0, 0.12732997524733228
618.0, 0.14010975491595123
619.0, 0.1457884973936058
620.0, 0.1560522107812155
621.0, 0.15665297987109342
622.0, 0.14824723829844355
623.0, 0.1608244724090585
624.0, 0.15739870987754154
625.0, 0.15773803629133182
626.0, 0.1616933073895612
627.0, 0.16099137710445904
628.0, 0.15673197909017578
629.0, 0.16028069490605315
630.0, 0.15341508088301228
631.0, 0.1489997987395701
632.0, 0.1498090911831065
633.0, 0.14578256322076805
634.0, 0.1341650366257287
635.0, 0.13518847428830816
636.0, 0.11381791178239642
637.0, 0.09506146997340753
638.0, 0.08527862640445291
639.0, 0.07932312446324556
640.0, 0.0684905547386238
641.0, 0.054223899509068155
642.0, 0.05681003458992463
643.0, 0.04714310985013586
644.0, 0.035894908293697785
645.0, 0.03270572353197904
646.0, 0.031563744169436865
647.0, 0.03546267124278882
648.0, 0.03535063265091352
649.0, 0.031160522757721264
650.0, 0.02668861460885867
651.0, 0.022787621802845277
652.0, 0.01988159618740428
653.0, 0.025197458896749757
654.0, 0.022933799327258253
655.0, 0.017709222324923318
656.0, 0.01107390821548994
657.0, 0.008094752736020805
658.0, 0.013650744416035396
659.0, 0.011308123283513338
660.0, 0.01442819271663148
661.0, 0.015908875098094584
662.0, 0.009573118291053243
663.0, 0.0035152677289398164
664.0, 0.007973061816478532
665.0, 0.0009396466360066086
666.0, 0.0034492996383410795
667.0, 0.002985813287294443
668.0, 0.00665231077651095
669.0, 0.0008512766242844886
670.0, 0.0011727538732234687
671.0, 0.003959538044728979
672.0, 0.0014631113577051303
673.0, 0.006046482717877233
674.0, 0.00917409371508882
675.0, 0.00852109281225476
676.0, 0.011631767282847595
677.0, 0.004602477088151921
678.0, 0.007540687450848766
679.0, 0.0031725041516997743
680.0, 0.0010521176103566012
681.0, 0.0008084761684755544
682.0, 0.003919253439634196
683.0, 0.0032542247183206152
684.0, 0.011985586438077856
685.0, 0.005912164210696677
686.0, 0.005688060481268312
687.0, 0.01219976057693815
688.0, 0.008116940075228684
689.0, 0.017957467059175666
690.0, 0.016050527842738662
691.0, 0.016816727274718928
692.0, 0.017289828611566974
693.0, 0.017407104560762898
694.0, 0.021964413675533274
695.0, 0.02520700429067125
696.0, 0.01635633427330229
697.0, 0.018977137501286476
698.0, 0.02354139923667933
699.0, 0.0249778532279017
700.0, 0.026562739433287862
701.0, 0.02672018001700963
702.0, 0.025857895085081312
703.0, 0.03322286579432939
704.0, 0.032535404933660035
705.0, 0.027485311076540207
706.0, 0.029657001658568053
707.0, 0.03642943977168951
708.0, 0.03401076463893918
709.0, 0.04036935941856517
710.0, 0.03072210262147732
711.0, 0.023828584514559898
712.0, 0.02980840663999424
713.0, 0.026521798416778583
714.0, 0.026447336598711364
715.0, 0.025296930762471508
716.0, 0.022769436519624806
717.0, 0.024683735380269568
718.0, 0.024477433202817027
719.0, 0.016072386028085563
720.0, 0.02381414251627068
721.0, 0.024894134201339634
722.0, 0.02524689711038501
723.0, 0.02713690082562603
724.0, 0.022896264710676094
725.0, 0.014824726673670633
726.0, 0.02135690304519452
727.0, 0.01549981726378057
728.0, 0.020076651830074278
729.0, 0.014219439887805232
730.0, 0.005187870939701634
731.0, 0.005720363581256533
732.0, 0.009337164156925037
733.0, 0.008996444280628532
734.0, 0.006234483451285234
735.0, 0.006268990102315719
736.0, 0.0035514804185722585
737.0, 0.006343781511852489
738.0, 0.0016195616596314803
739.0, 0.0019407628712554508
740.0, 0.000668601878906356
741.0, 0.007283418961748321
742.0, 0.004463715429805006
743.0, 0.004796441434478041
744.0, 0.00807815746356563
745.0, 0.014990530857592584
746.0, 0.026706171692748946
747.0, 0.030432830925255686
748.0, 0.03696900502074398
749.0, 0.03604807666355063
750.0, 0.0291404570588312
751.0, 0.03430520105957512
752.0, 0.04178231965273428
753.0, 0.056229567563878896
754.0, 0.07739814945227921
755.0, 0.08307545644191534
756.0, 0.08694251654148041
757.0, 0.1056917049996201
758.0, 0.11871320330159466
759.0, 0.12771492729521014
760.0, 0.13248699057303925
761.0, 0.14966042724449813
762.0, 0.16854718235478586
763.0, 0.1886305632739126
764.0, 0.2170223267009867
765.0, 0.2254840486877563
766.0, 0.2556679754211157
767.0, 0.272954610010048
768.0, 0.2962584029414965
769.0, 0.31647174056597116
770.0, 0.3214638015272323
771.0, 0.32931590252480947
772.0, 0.31197954433479547
773.0, 0.3031885325336624
774.0, 0.2950108159671596
775.0, 0.2728506794778307
776.0, 0.24170530219381067
777.0, 0.21550903988531406
778.0, 0.18836770871391037
779.0, 0.15157716917373687
780.0, 0.12794876204625572
781.0, 0.10735638218703648
782.0, 0.07588500210353366
783.0, 0.04613427804901186
784.0, 0.04063296027631555
785.0, 0.025654235758812954
786.0, 0.01926686619501704
787.0, 0.008919305252253377
788.0, 0.009715785845650176
789.0, 0.013224434528534241
790.0, 0.00439017718399933
791.0, 0.002022363690446143
792.0, 0.009597995331682844
793.0, 0.013833930303185043
794.0, 0.003112822111706796
795.0, 0.007498654505115769
796.0, 0.0033838218578980343
797.0, 0.007477644990333374
798.0, 0.0020419430859411757
799.0, 0.00133315812690242
800.0, 0.001949289405780021
801.0, 0.0028670744644993004
802.0, 0.0031631323145245504
803.0, 0.004576808739421338
804.0, 0.013273288893963463
805.0, 0.008109429996664664
806.0, 0.01681835358123897
807.0, 0.013537896164232524
808.0, 0.021380224968784226
809.0, 0.03133784891048051
810.0, 0.03202495212235975
811.0, 0.03641948733211812
812.0, 0.05669030385115035
813.0, 0.05967880079849762
814.0, 0.06754144910412133
815.0, 0.07351765054955899
816.0, 0.08008519586157291
817.0, 0.09251994003542051
818.0, 0.10584958433834046
819.0, 0.11661120374069465
820.0, 0.13042010760285974
821.0, 0.1397562137881558
822.0, 0.14588516938308532
823.0, 0.1505267872998628
824.0, 0.15163300973112676
825.0, 0.14863773618111176
826.0, 0.15081596141523806
827.0, 0.16319864091702024
828.0, 0.1601548483507499
829.0, 0.15113142039130578
830.0, 0.15158642618185486
831.0, 0.15689052126792596
832.0, 0.15150543902109995
833.0, 0.14188537331980805
834.0, 0.13450296209485652
835.0, 0.1377257359843038
836.0, 0.1342957460744281
837.0, 0.12719229231088988
838.0, 0.12263246589038682
839.0, 0.11477710882546922
840.0, 0.12181099470391672
841.0, 0.10982775443768965
842.0, 0.10717248847341988
843.0, 0.10509999133514586
844.0, 0.10384791906381675
845.0, 0.10199046533867887
846.0, 0.10008141332425521
847.0, 0.09326966477033645
848.0, 0.08653237515308522
849.0, 0.07727027806043293
850.0, 0.07016819316718445
851.0, 0.07317284621918277
852.0, 0.07010772470457596
853.0, 0.052910338329659856
854.0, 0.05974288840308942
855.0, 0.05556928509194199
856.0, 0.05150305110270131
857.0, 0.046968051711401615
858.0, 0.04541310476500465
859.0, 0.05094829431274564
860.0, 0.05413422598424048
861.0, 0.04580878815824917
862.0, 0.04744321844843792
863.0, 0.05438056596346191
864.0, 0.04894576760808838
865.0, 0.044024550566582124
866.0, 0.04494669373045132
867.0, 0.04161004762956869
868.0, 0.0298750132111135
869.0, 0.03163371025681791
870.0, 0.02745926345731561
871.0, 0.03577123067540782
872.0, 0.03875891507333403
873.0, 0.031112066750494934
874.0, 0.02708780935972949
875.0, 0.03256884292150851
876.0, 0.03447511733477948
877.0, 0.024185626051250637
878.0, 0.0303468451003056
879.0, 0.024433480493096713
880.0, 0.030823016618361593
881.0, 0.035976444340792134
882.0, 0.021181309887942135
883.0, 0.024594684114966618
884.0, 0.021951556875476935
885.0, 0.025703429756022
886.0, 0.030798717563645658
887.0, 0.038772045993020615
888.0, 0.03915908005810526
889.0, 0.03482126613521981
890.0, 0.03907555626780537
891.0, 0.036587247234333556
892.0, 0.04624491712951346
893.0, 0.044358983669078464
894.0, 0.04281656855508648
895.0, 0.039205863791203166
896.0, 0.037847911072664636
897.0, 0.0405276721791615
898.0, 0.03114386308871592
899.0, 0.025320061196070283
900.0, 0.016969984990009988
901.0, 0.02280212753317745
902.0, 0.01971116558915341
903.0, 0.013647644656762204
904.0, 0.010439059152601179
905.0, 0.004526417184972533
906.0, 0.012765326927117928
907.0, 0.011610773638838546
908.0, 0.011950175520815969
909.0, 0.0069064898970031775
910.0, 0.0024637763939138794
911.0, 0.0013939919435747275
912.0, 0.0005286476847575506
913.0, 0.0013869636005657082
914.0, 0.00042712386937655974
915.0, 0.0024689671355746464
916.0, 0.003310833259120292
917.0, 0.00616615821071855
918.0, 0.003686118094908631
919.0, 0.007792972126425213
920.0, 0.0024474409108282643
921.0, 0.008277731475451374
922.0, 0.0040592130747621035
923.0, 0.011759708534045097
924.0, 0.015382157111757775
925.0, 0.014703372753419998
926.0, 0.015402557752715661
927.0, 0.01735338128485146
928.0, 0.019310312857225714
929.0, 0.022538374083292716
930.0, 0.017201454733626383
931.0, 0.006402898934517552
932.0, 0.013322866029703279
933.0, 0.010475012236439304
934.0, 0.006498968427515476
935.0, 0.006091034010373649
936.0, 0.002506396214464625
937.0, 0.012827617445837956
938.0, 0.006109871845746123
939.0, 0.0012032224690502454
940.0, 0.0038673157472651205
941.0, 0.0021044949096397187
942.0, 0.0023961308298755184
943.0, 0.0038532970540347284
944.0, 0.00692690118069663
945.0, 0.004753625807273045
946.0, 0.007991059379863467
947.0, 0.0017360919229892642
948.0, 0.0006383800509863338
949.0, 0.0033074685325697106
950.0, 0.006689866971939729
951.0, 0.006644771556131308
952.0, 0.0035452854565587665
953.0, 0.00633024414740611
954.0, 0.00821637956519819
955.0, 0.0022442824912280277
956.0, 0.006399681351349981
957.0, 0.011690062794215363
958.0, 0.014565448632834526
959.0, 0.013884468159225904
960.0, 0.005937860970389326
961.0, 0.00657629303882602
962.0, 0.003661299436539337
963.0, 0.0055927361703668205
964.0, 0.010305876390586187
965.0, 0.007046662098287134
966.0, 0.003439788255065136
967.0, 0.0031154570413179376
968.0, 0.0033486286025505964
969.0, 0.004438645102876003
970.0, 0.008008291655944879
971.0, 0.006419474494517174
972.0, 0.0020107857861684144
973.0, 0.004926824968806349
974.0, 0.004693611415066579
975.0, 0.0006471196833327099
976.0, 0.0010675086848392424
977.0, 0.008122779719196204
978.0, 0.017841801840338654
979.0, 0.017018891051704052
980.0, 0.008827708254898765
981.0, 0.0011208975566961966
982.0, 0.00042868108487156625
983.0, 0.006071204778672682
984.0, 0.007616473441923467
985.0, 0.0006808523056578354
986.0, 0.009792554454607258
987.0, 0.012635597064461128
988.0, 0.010087958126917929
989.0, 0.010213662748747103
990.0, 0.009751615481447588
991.0, 0.027552646436916666
992.0, 0.0253032664737552
993.0, 0.024468584802279324
994.0, 0.02835636793093431
995.0, 0.026846699723056915
996.0, 0.034211354479413446
997.0, 0.03033955646985703
998.0, 0.04041167687129661
999.0, 0.01723806085298582
1000.0, 0.02337329461950849
1001.0, 0.02400019819892681
1002.0, 0.024189387797609437
1003.0, 0.014796112088737006
1004.0, 0.01607774339636998
1005.0, 0.019734312233510194
1006.0, 0.01360468332762675
1007.0, 0.009355131703395518
1008.0, 0.004841666625422805
1009.0, 0.00623286657789463
1010.0, 0.01308260486080191
1011.0, 0.012889897234463224
1012.0, 0.008103530807313162
1013.0, 0.00591941745899325
1014.0, 0.004853018942599277
1015.0, 0.00798150969745899
1016.0, 0.004862984395323596
1017.0, 0.004636452753477454
1018.0, 0.007951278498683344
1019.0, 0.007981214105718105
1020.0, 0.0017089116842307806
1021.0, 0.0044740049478052026
1022.0, 0.004302318572841652
1023.0, 0.008649763343616597
1024.0, 0.007719838102651604
1025.0, 0.01591047040444532
1026.0, 0.01899746059995139
1027.0, 0.017031540556531444
1028.0, 0.019110411726033925
1029.0, 0.016543752555352502
1030.0, 0.0032430373306698347
1031.0, 0.011338709242192805
1032.0, 0.004264532118077084
1033.0, 0.004777742791457315
1034.0, 0.005715153261793742
1035.0, 0.010443562997762104
1036.0, 0.012369250460468254
1037.0, 0.016220788333009287
1038.0, 0.016054706923956424
1039.0, 0.010950031437436919
1040.0, 0.020198556982105858
1041.0, 0.021853474028782332
1042.0, 0.01484749254369337
1043.0, 0.02135497434061251
1044.0, 0.022828963048888352
1045.0, 0.019402269904878554
1046.0, 0.02350085648218842
1047.0, 0.015015488111580731
1048.0, 0.017585026249316297
1049.0, 0.023729056415905968
1050.0, 0.01898503160061155
1051.0, 0.029662302327054246
1052.0, 0.03558259981052004
1053.0, 0.03986626038162167
1054.0, 0.04904368399543912
1055.0, 0.05093204465725871
1056.0, 0.04531066576274864
1057.0, 0.0580113227868823
1058.0, 0.049054529527193316
1059.0, 0.05621838791113916
1060.0, 0.05665627167148916
1061.0, 0.05722355731537714
1062.0, 0.06224820662871473
1063.0, 0.06653989035002751
1064.0, 0.0664146658331388
1065.0, 0.06535489939422848
1066.0, 0.07106451456613151
1067.0, 0.08677038345215696
1068.0, 0.08993453422313599
1069.0, 0.10271899459668944
1070.0, 0.09954494326593648
1071.0, 0.10781206456134801
1072.0, 0.12070197027217096
1073.0, 0.13112757990216561
1074.0, 0.13480334322071383
1075.0, 0.12863076797134915
1076.0, 0.13167123091185678
1077.0, 0.134796274846237
1078.0, 0.14499862074254222
1079.0, 0.1369647114319777
1080.0, 0.13583463917412975
1081.0, 0.150683536179089
1082.0, 0.1632598099129693
1083.0, 0.17712901724260333
1084.0, 0.19071125937725833
1085.0, 0.19242576258374175
1086.0, 0.21446463278386424
1087.0, 0.2274089739854804
1088.0, 0.2289744904593253
1089.0, 0.24153767334495385
1090.0, 0.2467245300583406
1091.0, 0.262914254293509
1092.0, 0.2827503533381331
1093.0, 0.29395187251432325
1094.0, 0.29841414689783125
1095.0, 0.29984965136084424
1096.0, 0.3112135861382266
1097.0, 0.31101609622940957
1098.0, 0.3088372578029306
1099.0, 0.2901885523735814
1100.0, 0.2902025074591494
1101.0, 0.2700142677817321
1102.0, 0.2393725543827256
1103.0, 0.22383570389831298
1104.0, 0.21824062897098304
1105.0, 0.21671154074691754
1106.0, 0.21069597082933472
1107.0, 0.20711700110080805
1108.0, 0.2095986454662079
1109.0, 0.22429744014707564
1110.0, 0.2228891466309309
1111.0, 0.21975376191594725
1112.0, 0.21218324291028726
1113.0, 0.18974076388164496
1114.0, 0.16798992060229148
1115.0, 0.14452005509748114
1116.0, 0.08958089183335
1117.0, 0.06517965475499203
1118.0, 0.0426256896876055
1119.0, 0.03715774129605288
1120.0, 0.023251014295144444
1121.0, 0.025303523888554776
1122.0, 0.024028205004363434
1123.0, 0.022526942567083055
1124.0, 0.028843698168216882
1125.0, 0.023667535408289846
1126.0, 0.018292103348566797
1127.0, 0.03263382071268659
1128.0, 0.04035868635526088
1129.0, 0.04187269407201079
1130.0, 0.03773248609928983
1131.0, 0.03606291659202443
1132.0, 0.03820748886643313
1133.0, 0.039992697018067624
1134.0, 0.03435468705327085
1135.0, 0.026376489006890397
1136.0, 0.02483891186892785
1137.0, 0.017155605158383172
1138.0, 0.018170428864847456
1139.0, 0.009443592488670247
1140.0, 0.004503720403587626
1141.0, 0.0032437554433831462
1142.0, 0.013122004046010915
1143.0, 0.009851018766566725
1144.0, 0.0014083615143874692
1145.0, 0.0018039338286749674
1146.0, 0.006650089575409596
1147.0, 0.005918468614814373
1148.0, 0.00048092418574348524
1149.0, 0.002275881206329153
1150.0, 0.0013715672602907366
1151.0, 0.0020386824970948076
1152.0, 0.0010066596487330675
1153.0, 0.0012119267315531311
1154.0, 0.009421153908768286
1155.0, 0.01645699777433919
1156.0, 0.019338438377911236
1157.0, 0.01652128885356456
1158.0, 0.005223269938309809
1159.0, 0.00669303471285803
1160.0, 0.007849566032147601
1161.0, 0.017284338755795693
1162.0, 0.01135708751265835
1163.0, 0.00791853117680323
1164.0, 0.005308443060011116
1165.0, 0.008300511397604191
1166.0, 0.004987713407309615
1167.0, 0.006683279787196698
1168.0, 0.0041164232102315935
1169.0, 0.00031423834429791656
1170.0, 0.0015918099375447443
1171.0, 0.009391436837356928
1172.0, 0.017529699887343524
1173.0, 0.026427010599830828
1174.0, 0.025906174387711284
1175.0, 0.01971308020190104
1176.0, 0.02114029679435957
1177.0, 0.026918520652462852
1178.0, 0.0259432672448374
1179.0, 0.022879722169552683
1180.0, 0.024770296527030774
1181.0, 0.025694216071001735
1182.0, 0.034808299635059346
1183.0, 0.030156280346959274
1184.0, 0.02466443477055433
1185.0, 0.020415781583871955
1186.0, 0.020748347228211936
1187.0, 0.02462474251158577
1188.0, 0.02560197980475792
1189.0, 0.019293930013745107
1190.0, 0.012978089973324499
1191.0, 0.013736752761648534
1192.0, 0.018222765202329735
1193.0, 0.027165549863498954
1194.0, 0.024836654976305474
1195.0, 0.008480974833419662
1196.0, 0.02456039341462946
1197.0, 0.02327957940261099
1198.0, 0.024418167461292425
1199.0, 0.01782654798775747
1200.0, 0.02085193559778729
1201.0, 0.026467265423880493
1202.0, 0.02406406590686983
1203.0, 0.023678095455462532
1204.0, 0.02562624707506308
1205.0, 0.02551223812952564
1206.0, 0.02883909085856375
1207.0, 0.027172279942065936
1208.0, 0.023281356442205626
1209.0, 0.027781505615586566
1210.0, 0.027319451937111248
1211.0, 0.03237201544169108
1212.0, 0.03434822146329396
1213.0, 0.02936414471375794
1214.0, 0.032844734635586174
1215.0, 0.03671956457978841
1216.0, 0.027723451360870507
1217.0, 0.029966532503136023
1218.0, 0.026211780654468626
1219.0, 0.036372600367457056
1220.0, 0.032575469579470204
1221.0, 0.016930471960531927
1222.0, 0.015391201844956749
1223.0, 0.015271172521679434
1224.0, 0.023462935672367922
1225.0, 0.021370563215474033
1226.0, 0.025183796812954153
1227.0, 0.029214551703780428
1228.0, 0.016702194108770066
1229.0, 0.01771749171724844
1230.0, 0.01511045238222419
1231.0, 0.0157186296580799
1232.0, 0.021409690816310847
1233.0, 0.030071764395405903
1234.0, 0.015326894921214107
1235.0, 0.027367488192874927
1236.0, 0.025180301556291525
1237.0, 0.030685301120434157
1238.0, 0.025672737207229762
1239.0, 0.015928100020750964
1240.0, 0.017728390253611403
1241.0, 0.019943927604522703
1242.0, 0.02513354255360612
1243.0, 0.021192340187940664
1244.0, 0.026885536440888817
1245.0, 0.034117539643624684
1246.0, 0.044639617318842494
1247.0, 0.039670711445589354
1248.0, 0.033694239660694306
1249.0, 0.031525419913117296
1250.0, 0.025853279584485057
1251.0, 0.015953112566048616
1252.0, 0.023200002476538174
1253.0, 0.02300099829530329
1254.0, 0.017512179420773006
1255.0, 0.019846153942425667
1256.0, 0.02789965616127021
1257.0, 0.02640780104301704
1258.0, 0.024041913953107435
1259.0, 0.016829579282197367
1260.0, 0.008958123985716708
1261.0, 0.01707123992296893
1262.0, 0.023543734882045992
1263.0, 0.006047323145430439
1264.0, 0.007261291224291868
1265.0, 0.011188776191219552
1266.0, 0.0029242876040890316
1267.0, 0.002029393078124147
1268.0, 0.018942397763667098
1269.0, 0.02210531309087388
1270.0, 0.026475231059994303
1271.0, 0.02934371861505533
1272.0, 0.033848850562844555
1273.0, 0.030358784468660447
1274.0, 0.02186899206421111
1275.0, 0.02822218433734543
1276.0, 0.0316022756050894
1277.0, 0.021929499283936914
1278.0, 0.01464137770099348
1279.0, 0.019430187300829495
1280.0, 0.02514490414193848
1281.0, 0.02562082781729901
1282.0, 0.020376690903558977
1283.0, 0.016327998365105095
1284.0, 0.021860723365023507
1285.0, 0.024204098701472655
1286.0, 0.020607999992870114
1287.0, 0.019705798837532592
1288.0, 0.015592368104937398
1289.0, 0.0027023950079964696
1290.0, 0.013720925534375504
1291.0, 0.013681854351587855
1292.0, 0.009445091511224584
1293.0, 0.011241009383217175
1294.0, 0.008137203121872017
1295.0, 0.0025730095519102504
1296.0, 0.002760941787749786
1297.0, 0.0030949271219778
1298.0, 0.0008517493871281241
1299, 0.0
1300, 0.0
1301, 0.0
1302, 0.0
1303, 0.0
1304, 0.0
1305, 0.0
1306, 0.0
1307, 0.0
1308, 0.0
1309, 0.0
1310, 0.0
1311, 0.0
1312, 0.0
1313, 0.0
1314, 0.0
1315, 0.0
1316, 0.0
1317, 0.0
1318, 0.0
1319, 0.0
1320, 0.0
1321, 0.0
1322, 0.0
1323, 0.0
1324, 0.0
1325, 0.0
1326, 0.0
1327, 0.0
1328, 0.0
1329, 0.0
1330, 0.0
1331, 0.0
1332, 0.0
1333, 0.0
1334, 0.0
1335, 0.0
1336, 0.0
1337, 0.0
1338, 0.0
1339, 0.0
1340, 0.0
1341, 0.0
1342, 0.0
1343, 0.0
1344, 0.0
1345, 0.0
1346, 0.0
1347, 0.0
1348, 0.0
1349, 0.0
1350, 0.0
1351, 0.0
1352, 0.0
1353, 0.0
1354, 0.0
1355, 0.0
1356, 0.0
1357, 0.0
1358, 0.0
1359, 0.0
1360, 0.0
1361, 0.0
1362, 0.0
1363, 0.0
1364, 0.0
1365, 0.0
1366, 0.0
1367, 0.0
1368, 0.0
1369, 0.0
1370, 0.0
1371, 0.0
1372, 0.0
1373, 0.0
1374, 0.0
1375, 0.0
1376, 0.0
1377, 0.0
1378, 0.0
1379, 0.0
1380, 0.0
1381, 0.0
1382, 0.0
1383, 0.0
1384, 0.0
1385, 0.0
1386, 0.0
1387, 0.0
1388, 0.0
1389, 0.0
1390, 0.0
1391, 0.0
1392, 0.0
1393, 0.0
1394, 0.0
1395, 0.0
1396, 0.0
1397, 0.0
1398, 0.0
1399, 0.0
1400, 0.0
1401, 0.0
1402, 0.0
1403, 0.0
1404, 0.0
1405, 0.0
1406, 0.0
1407, 0.0
1408, 0.0
1409, 0.0
1410, 0.0
1411, 0.0
1412, 0.0
1413, 0.0
1414, 0.0
1415, 0.0
1416, 0.0
1417, 0.0
1418, 0.0
1419, 0.0
1420, 0.0
1421, 0.0
1422, 0.0
1423, 0.0
1424, 0.0
1425, 0.0
1426, 0.0
1427, 0.0
1428, 0.0
1429, 0.0
1430, 0.0
1431, 0.0
1432, 0.0
1433, 0.0
1434, 0.0
1435, 0.0
1436, 0.0
1437, 0.0
1438, 0.0
1439, 0.0
1440, 0.0
1441, 0.0
1442, 0.0
1443, 0.0
1444, 0.0
1445, 0.0
1446, 0.0
1447, 0.0
1448, 0.0
1449, 0.0
1450, 0.0
1451, 0.0
1452, 0.0
1453, 0.0
1454, 0.0
1455, 0.0
1456, 0.0
1457, 0.0
1458, 0.0
1459, 0.0
1460, 0.0
1461, 0.0
1462, 0.0
1463, 0.0
1464, 0.0
1465, 0.0
1466, 0.0
1467, 0.0
1468, 0.0
1469, 0.0
1470, 0.0
1471, 0.0
1472, 0.0
1473, 0.0
1474, 0.0
1475, 0.0
1476, 0.0
1477, 0.0
1478, 0.0
1479, 0.0
1480, 0.0
1481, 0.0
1482, 0.0
1483, 0.0
1484, 0.0
1485, 0.0
1486, 0.0
1487, 0.0
1488, 0.0
1489, 0.0
1490, 0.0
1491, 0.0
1492, 0.0
1493, 0.0
1494, 0.0
1495, 0.0
1496, 0.0
1497, 0.0
1498, 0.0
1499, 0.0
1500, 0.0
1501, 0.0
1502, 0.0
1503, 0.0
1504, 0.0
1505, 0.0
1506, 0.0
1507, 0.0
1508, 0.0
1509, 0.0
1510, 0.0
1511, 0.0
1512, 0.0
1513, 0.0
1514, 0.0
1515, 0.0
1516, 0.0
1517, 0.0
1518, 0.0
1519, 0.0
1520, 0.0
1521, 0.0
1522, 0.0
1523, 0.0
1524, 0.0
1525, 0.0
1526, 0.0
1527, 0.0
1528, 0.0
1529, 0.0
1530, 0.0
1531, 0.0
1532, 0.0
1533, 0.0
1534, 0.0
1535, 0.0
1536, 0.0
1537, 0.0
1538, 0.0
1539, 0.0
1540, 0.0
1541, 0.0
1542, 0.0
1543, 0.0
1544, 0.0
1545, 0.0
1546, 0.0
1547, 0.0
1548, 0.0
1549, 0.0
1550, 0.0
1551, 0.0
1552, 0.0
1553, 0.0
1554, 0.0
1555, 0.0
1556, 0.0
1557, 0.0
1558, 0.0
1559, 0.0
1560, 0.0
1561, 0.0
1562, 0.0
1563, 0.0
1564, 0.0
1565, 0.0
1566, 0.0
1567, 0.0
1568, 0.0
1569, 0.0
1570, 0.0
1571, 0.0
1572, 0.0
1573, 0.0
1574, 0.0
1575, 0.0
1576, 0.0
1577, 0.0
1578, 0.0
1579, 0.0
1580, 0.0
1581, 0.0
1582, 0.0
1583, 0.0
1584, 0.0
1585, 0.0
1586, 0.0
1587, 0.0
1588, 0.0
1589, 0.0
1590, 0.0
1591, 0.0
1592, 0.0
1593, 0.0
1594, 0.0
1595, 0.0
1596, 0.0
1597, 0.0
1598, 0.0
1599, 0.0
