30, 0.0
31, 0.0
32, 0.0
33, 0.0
34, 0.0
35, 0.0
36, 0.0
37, 0.0
38, 0.0
39, 0.0
40, 0.0
41, 0.0
42, 0.0
43, 0.0
44, 0.0
45, 0.0
46, 0.0
47, 0.0
48, 0.0
49, 0.0
50, 0.0
51, 0.0
52, 0.0
53, 0.0
54, 0.0
55, 0.0
56, 0.0
57, 0.0
58, 0.0
59, 0.0
60, 0.0
61, 0.0
62, 0.0
63, 0.0
64, 0.0
65, 0.0
66, 0.0
67, 0.0
68, 0.0
69, 0.0
70, 0.0
71, 0.0
72, 0.0
73, 0.0
74, 0.0
75, 0.0
76, 0.0
77, 0.0
78, 0.0
79, 0.0
80, 0.0
81, 0.0
82, 0.0
83, 0.0
84, 0.0
85, 0.0
86, 0.0
87, 0.0
88, 0.0
89, 0.0
90, 0.0
91, 0.0
92, 0.0
93, 0.0
94, 0.0
95, 0.0
96, 0.0
97, 0.0
98, 0.0
99, 0.0
100, 0.0
101, 0.0
102, 0.0
103, 0.0
104, 0.0
105, 0.0
106, 0.0
107, 0.0
108, 0.0
109, 0.0
110, 0.0
111, 0.0
112, 0.0
113, 0.0
114, 0.0
115, 0.0
116, 0.0
117, 0.0
118, 0.0
119, 0.0
120, 0.0
121.0, 0.013132314509731648
122.0, 0.05826809488894363
123.0, 0.09707445134572207
124.0, 0.11209326700303868
125.0, 0.12003480169078633
126.0, 0.13374635513972274
127.0, 0.1647934831388365
128.0, 0.2210854642116647
129.0, 0.23344917343838992
130.0, 0.21651151320670828
131.0, 0.19421751389117856
132.0, 0.17122097903174238
133.0, 0.1420662782569198
134.0, 0.11361331105167813
135.0, 0.09698556689795897
136.0, 0.09683702550148869
137.0, 0.06711938940916462
138.0, 0.04571622742614046
139.0, 0.045596078324523386
140.0, 0.03480615418282646
141.0, 0.025276310966747633
142.0, 0.01557719201153086
143.0, 0.00951129729290749
144.0, 0.014943759048558861
145.0, 0.015633013504429926
146.0, 0.02500216380742154
147.0, 0.03883308199431126
148.0, 0.04644892630090411
149.0, 0.06384514381457783
150.0, 0.08111528763562881
151.0, 0.09395959717704502
152.0, 0.10919990164551488
153.0, 0.1257725388507968
154.0, 0.1431214017513624
155.0, 0.16926714729280926
156.0, 0.20269713081903828
157.0, 0.22241062615245139
158.0, 0.25450083840421533
159.0, 0.2742086826731755
160.0, 0.27792767931581747
161.0, 0.288635651134095
162.0, 0.31057676589008076
163.0, 0.31394769189173155
164.0, 0.2964701751421992
165.0, 0.27278296408382446
166.0, 0.2598098985735993
167.0, 0.23383460909078813
168.0, 0.20052606705921425
169.0, 0.17172338589558403
170.0, 0.13974715283393482
171.0, 0.10048542722958771
172.0, 0.07009370556991032
173.0, 0.05124666930746158
174.0, 0.021769612419248328
175.0, 0.007255494573281049
176.0, 0.001618062760506557
177.0, 0.005802505602092206
178.0, 0.02031026850220929
179.0, 0.022753493772285468
180.0, 0.017445203243693287
181.0, 0.009156368461020909
182.0, 0.0020439874693865007
183.0, 0.004674978776119426
184.0, 0.006751055924137758
185.0, 0.013338658211759705
186.0, 0.0293825481841703
187.0, 0.03721019988315158
188.0, 0.030062102686519092
189.0, 0.03176754994067479
190.0, 0.04930400501778556
191.0, 0.058652989483253044
192.0, 0.056218367220177756
193.0, 0.04888702358493144
194.0, 0.04338637725536323
195.0, 0.04396962442940085
196.0, 0.04294500867840398
197.0, 0.03709875637444255
198.0, 0.031392878175475196
199.0, 0.029868799090352616
200.0, 0.024672076429631852
201.0, 0.0205002827061545
202.0, 0.02371902270271604
203.0, 0.032309644854429505
204.0, 0.032841209303607885
205.0, 0.02901709961471832
206.0, 0.024937989522486086
207.0, 0.02133979765089559
208.0, 0.01766190182171534
209.0, 0.01890248431144943
210.0, 0.023993707438883485
211.0, 0.030185972291593612
212.0, 0.03280891235151599
213.0, 0.025316161880581566
214.0, 0.029535168628991994
215.0, 0.041557095889575145
216.0, 0.05149349707246394
217.0, 0.052932890020319125
218.0, 0.05888528298061035
219.0, 0.07217178348992936
220.0, 0.0809079535448601
221.0, 0.06994777343278825
222.0, 0.07103889805185291
223.0, 0.06833586357505186
224.0, 0.06639716816825514
225.0, 0.06970114190987056
226.0, 0.05957198780252645
227.0, 0.055910040491232396
228.0, 0.04945260443643124
229.0, 0.0373406310563773
230.0, 0.03011152301007592
231.0, 0.02375659878968027
232.0, 0.021359879636342498
233.0, 0.019856341239187395
234.0, 0.013761654270119637
235.0, 0.001535874766390568
236.0, 0.0025134210333936017
237.0, 0.003914711365855989
238.0, 0.00740089437274822
239.0, 0.00538948267028456
240.0, 0.0104891850352729
241.0, 0.008434069238569252
242.0, 0.003299536242033503
243.0, 0.011221039991729019
244.0, 0.00788171518571598
245.0, 0.017653840128809994
246.0, 0.022386902911467547
247.0, 0.03409010222789863
248.0, 0.05187798342847386
249.0, 0.055174086207246564
250.0, 0.06166365878575273
251.0, 0.07913583699816394
252.0, 0.0980399276343845
253.0, 0.11463432641296972
254.0, 0.1332347163957752
255.0, 0.15428374685097326
256.0, 0.17787946242108102
257.0, 0.2032822975256521
258.0, 0.23430095681657745
259.0, 0.2579200118094725
260.0, 0.27507783804058794
261.0, 0.30235083201068125
262.0, 0.3251480566792906
263.0, 0.3414542666471754
264.0, 0.34357119931886293
265.0, 0.3246239926924873
266.0, 0.2932506115163675
267.0, 0.2706046397065897
268.0, 0.24209803145933684
269.0, 0.20238361775676822
270.0, 0.16654881343272368
271.0, 0.14127655750892953
272.0, 0.12157949879422722
273.0, 0.10281680598658047
274.0, 0.0849300520107154
275.0, 0.08113919240387917
276.0, 0.06759887477553793
277.0, 0.058469713274721044
278.0, 0.06181007256529549
279.0, 0.06370801475472099
280.0, 0.05597575818576935
281.0, 0.05766599018117971
282.0, 0.06616138005953737
283.0, 0.07075183544235328
284.0, 0.07774879040907474
285.0, 0.09709024047032082
286.0, 0.10906590989079366
287.0, 0.10902155551074859
288.0, 0.11480088453704221
289.0, 0.12032651036248757
290.0, 0.13149155671023596
291.0, 0.1391597881859506
292.0, 0.13480729196703295
293.0, 0.13102814746680735
294.0, 0.12857463580675374
295.0, 0.13654987023616294
296.0, 0.1532130900459234
297.0, 0.17040776848708042
298.0, 0.18475748982671497
299.0, 0.1786884573898934
300.0, 0.1503902823509465
301.0, 0.10845891105129092
302.0, 0.07537357831379593
303.0, 0.05264762003255651
304.0, 0.031435207556184105
305.0, 0.015109555824493106
306.0, 0.010776585973783009
307.0, 0.005520329802980616
308.0, 0.013504895996079706
309.0, 0.01303004566556086
310.0, 0.002466051922167472
311.0, 0.002960270628434072
312.0, 0.009133657787407016
313.0, 0.0029379084440272095
314.0, 0.009874110111547641
315.0, 0.002279903763282056
316.0, 0.00012862021076683923
317.0, 0.0015947692236412273
318.0, 0.005265081925762865
319.0, 0.012345954773970803
320.0, 0.00193756101619235
321.0, 0.0026350836795592
322.0, 0.008950541172171221
323.0, 0.024527078235044276
324.0, 0.0328666680201105
325.0, 0.029701511041669383
326.0, 0.03834958086960471
327.0, 0.03877082154159593
328.0, 0.03492677206458912
329.0, 0.041356259849471104
330.0, 0.05222922303026505
331.0, 0.06131233208482591
332.0, 0.07279719073293446
333.0, 0.0813841151936149
334.0, 0.07298122325270032
335.0, 0.07687833697155008
336.0, 0.06976999541163056
337.0, 0.06107567479100537
338.0, 0.06292698194362287
339.0, 0.061874624506371316
340.0, 0.06038050968713534
341.0, 0.05425376933778372
342.0, 0.04707132203379128
343.0, 0.04592170124644754
344.0, 0.04764176004764276
345.0, 0.04876691652135302
346.0, 0.047308906605620586
347.0, 0.04775287257552472
348.0, 0.056315929417165705
349.0, 0.06107942838223842
350.0, 0.0631074293316738
351.0, 0.07045420432483161
352.0, 0.08193954583953114
353.0, 0.080606189784085
354.0, 0.08835574533515245
355.0, 0.10081991095724259
356.0, 0.1113439023185483
357.0, 0.11909118689861907
358.0, 0.13318885504865896
359.0, 0.14537084175559956
360.0, 0.14780627276041747
361.0, 0.14706457718342042
362.0, 0.15001842201341578
363.0, 0.13151516951140177
364.0, 0.11750174214779265
365.0, 0.10154544151923615
366.0, 0.0820467365496304
367.0, 0.07039211621444363
368.0, 0.06422833438450225
369.0, 0.05849677749448058
370.0, 0.051871593372897304
371.0, 0.04587742708749728
372.0, 0.05137304364137137
373.0, 0.058021886181656185
374.0, 0.055507690050516714
375.0, 0.049101636534768206
376.0, 0.050095951924586844
377.0, 0.057467096501896096
378.0, 0.06242787706171371
379.0, 0.06475352367905984
380.0, 0.06457249813216784
381.0, 0.06132403315073233
382.0, 0.06678542880681779
383.0, 0.06388553274106193
384.0, 0.05259266840110788
385.0, 0.04376208561442959
386.0, 0.04589657150880139
387.0, 0.03953164978941383
388.0, 0.026774175950128175
389.0, 0.01798395184360504
390.0, 0.013693055432229886
391.0, 0.005401699468723101
392.0, 0.005079335365954827
393.0, 0.0009946163777578433
394.0, 0.00037193567995849196
395.0, 0.005392469511474734
396.0, 0.001196624822357208
397.0, 0.0018239336598810342
398.0, 0.006458411092391272
399.0, 0.0078920543179626
400.0, 0.002882488963756729
401.0, 0.001716520347208962
402.0, 0.00414454042442412
403.0, 0.001577912029788029
404.0, 0.00416359783039949
405.0, 0.0024443424945928788
406.0, 0.0002243542778241291
407.0, 0.007530415509299154
408.0, 0.010141918133223654
409.0, 0.008572825260435785
410.0, 0.012831390748748363
411.0, 0.027256306150488695
412.0, 0.029564272707363077
413.0, 0.0309327654071817
414.0, 0.04237094097219303
415.0, 0.06007204005764833
416.0, 0.06614959769393007
417.0, 0.07267182309163885
418.0, 0.08025603764989421
419.0, 0.08499325666500189
420.0, 0.08665318611283729
421.0, 0.1030876736819906
422.0, 0.09490220687380398
423.0, 0.08091901377487697
424.0, 0.07204651172036432
425.0, 0.059877078832941244
426.0, 0.05326239679513436
427.0, 0.054651511963029885
428.0, 0.057068627722650214
429.0, 0.05541660891290477
430.0, 0.05048591974645101
431.0, 0.050562626071733105
432.0, 0.05356100658952843
433.0, 0.0638174661407466
434.0, 0.08063416253856408
435.0, 0.0944540014652176
436.0, 0.10466143581312962
437.0, 0.11263322948853302
438.0, 0.1278709818053274
439.0, 0.152458082456243
440.0, 0.17747977082762245
441.0, 0.19959730871771134
442.0, 0.21419618603556523
443.0, 0.23485303585618406
444.0, 0.2701749670588469
445.0, 0.3117538856693808
446.0, 0.34011877469497004
447.0, 0.3827184006231552
448.0, 0.4402080086791312
449.0, 0.5050213767149335
450.0, 0.5728001006332172
451.0, 0.6538624595881068
452.0, 0.7391831991040031
453.0, 0.819077052936691
454.0, 0.8880416719063629
455.0, 0.9446098309431364
456.0, 0.9821643027407805
457.0, 0.9964026982240171
458.0, 0.9997100838457228
459.0, 0.9994845481064838
460.0, 0.9882815275182029
461.0, 0.9339441296081814
462.0, 0.8932112924726563
463.0, 0.8414869106955549
464.0, 0.7675936925338198
465.0, 0.6918566121937587
466.0, 0.6070586627810041
467.0, 0.538812581731403
468.0, 0.480739133486815
469.0, 0.42154882958125406
470.0, 0.3598671163265392
471.0, 0.31396117464758927
472.0, 0.2862696077164654
473.0, 0.2579684268562097
474.0, 0.22395355587965796
475.0, 0.19409690390129833
476.0, 0.1764438572589703
477.0, 0.14858936922926066
478.0, 0.12551073673658938
479.0, 0.11102286920195394
480.0, 0.09502515290401888
481.0, 0.07730027921856907
482.0, 0.06956898801803432
483.0, 0.06843841834469128
484.0, 0.06661650699893386
485.0, 0.06214444338703367
486.0, 0.06319143243257029
487.0, 0.05750367297132992
488.0, 0.045676229032029135
489.0, 0.035976183520503954
490.0, 0.03306806730564886
491.0, 0.028526346174122724
492.0, 0.02797061483959511
493.0, 0.02676681630131268
494.0, 0.026047208613594438
495.0, 0.023211171654950846
496.0, 0.01165299587786867
497.0, 0.011156932517283157
498.0, 0.005427002218956081
499.0, 0.0049294672265103
500.0, 0.006798917042863683
501.0, 0.00978659445424888
502.0, 0.013387190924778901
503.0, 0.005002096786929035
504.0, 0.002719816629298869
505.0, 0.005561882461639663
506.0, 0.0004379125111814919
507.0, 0.0013884333972925271
508.0, 0.0031950323902416654
509.0, 0.0021882210813580208
510.0, 0.009181038815129465
511.0, 0.015038288656267537
512.0, 0.017850667313123757
513.0, 0.014387270613274945
514.0, 0.01386326988564455
515.0, 0.0156764073116459
516.0, 0.018084387879537
517.0, 0.02540555206501117
518.0, 0.033556631729606066
519.0, 0.03204561724815533
520.0, 0.03676731583296776
521.0, 0.054206258445438735
522.0, 0.0643194805463118
523.0, 0.0695019206311278
524.0, 0.09120187331209291
525.0, 0.11638997882956366
526.0, 0.1354515839120006
527.0, 0.15518404499275293
528.0, 0.1875812893070614
529.0, 0.2157012061242127
530.0, 0.2519909999964829
531.0, 0.2964874588907834
532.0, 0.3412074027960173
533.0, 0.3864722531866198
534.0, 0.43963685471438047
535.0, 0.48994328376869256
536.0, 0.5165409865667397
537.0, 0.5184236849793689
538.0, 0.5153873835591267
539.0, 0.4642792111814604
540.0, 0.4031192960121987
541.0, 0.34810605715642906
542.0, 0.3030072540603916
543.0, 0.2667019756857328
544.0, 0.22535009765668607
545.0, 0.18000288650813065
546.0, 0.15283463010009135
547.0, 0.1327467827471647
548.0, 0.10493361035341872
549.0, 0.09301396351952992
550.0, 0.08365606052869119
551.0, 0.08209718506496747
552.0, 0.06835053619967878
553.0, 0.05837039191900881
554.0, 0.04852421885100241
555.0, 0.04642999777043407
556.0, 0.03845015338768087
557.0, 0.03437118815404566
558.0, 0.025091205194305313
559.0, 0.012266176270418278
560.0, 0.014093554140648001
561.0, 0.006398704986189061
562.0, 0.005868130965148707
563.0, 0.012613862199961263
564.0, 0.016481710804721092
565.0, 0.010405257119000103
566.0, 0.009994626204117295
567.0, 0.007620952129605905
568.0, 0.011793036661502944
569.0, 0.019900680177140244
570.0, 0.018509975052643433
571.0, 0.011102227078208881
572.0, 0.009553635625321955
573.0, 0.0033439266867681
574.0, 0.005606229757785434
575.0, 0.0011873714620644167
576.0, 0.003999565115416223
577.0, 0.010044099251999415
578.0, 0.004428601310330709
579.0, 0.0024447994559396546
580.0, 0.0036026017703511574
581.0, 0.02299619295539575
582.0, 0.017646939446788273
583.0, 0.016705259165532168
584.0, 0.01399180555327998
585.0, 0.011644751742618116
586.0, 0.011831588267979604
587.0, 0.006021202326547549
588.0, 0.0099302078958515
589.0, 0.02059276340758775
590.0, 0.016715298493546596
591.0, 0.007624323287872723
592.0, 0.016049170939533595
593.0, 0.015702885352483976
594.0, 0.007918160175157809
595.0, 0.01251505103800908
596.0, 0.018967774496404546
597.0, 0.013959679383801151
598.0, 0.006560903259578978
599.0, 0.01634229918131464
600.0, 0.007115358385890315
601.0, 0.0007881476027361359
602.0, 0.003914364765945034
603.0, 0.009822199602593345
604.0, 0.01500849568925005
605.0, 0.012319002566379045
606.0, 0.01790418612360756
607.0, 0.02164357318374096
608.0, 0.015962711333803562
609.0, 0.01203268173413288
610.0, 0.020005443834303305
611.0, 0.019568613717036634
612.0, 0.02034246061850396
613.0, 0.018861692370732826
614.0, 0.013047118644225466
615.0, 0.02310702932871291
616.0, 0.019942424726825465
617.0, 0.02718449892390601
618.0, 0.027126525173743296
619.0, 0.020357651888668147
620.0, 0.022550591181721175
621.0, 0.012448360222698565
622.0, 0.012924189266350498
623.0, 0.012936225473168915
624.0, 0.010376476563479025
625.0, 0.00782362606471103
626.0, 0.005937561212470989
627.0, 0.003707011953215634
628.0, 0.004167170088199858
629.0, 0.0038165872288627428
630.0, 0.003913831467974476
631.0, 0.003912133938228599
632.0, 0.0012087653512842032
633.0, 0.0006448604054855341
634.0, 0.00889061773607313
635.0, 0.0030717404924040484
636.0, 0.0067883685448577764
637.0, 0.0034555719849640723
638.0, 0.010438649428295987
639.0, 0.0013761953133582232
640.0, 0.0037999905264452364
641.0, 0.0026147030291563704
642.0, 0.004741464090147458
643.0, 0.005062653157271832
644.0, 0.0071395078234518135
645.0, 0.0022701403247493888
646.0, 0.0020512311605267813
647.0, 0.008762345961391553
648.0, 0.012133161411223394
649.0, 0.00994273294596196
650.0, 0.008934889804544826
651.0, 0.0020534522032926825
652.0, 0.009892028328678477
653.0, 0.01951839235342194
654.0, 0.013670324510987184
655.0, 0.0034108830356478427
656.0, 0.0005389765025563943
657.0, 0.00739484378948722
658.0, 0.00324664433506443
659.0, 0.007335902958430507
660.0, 0.006630171302763197
661.0, 0.008379416614131373
662.0, 0.016306835713326535
663.0, 0.0220213527787828
664.0, 0.018912043413190156
665.0, 0.01332605814389271
666.0, 0.013826341312044969
667.0, 0.01667169016199341
668.0, 0.014037159635702491
669.0, 0.010919695967193103
670.0, 0.01424054900305155
671.0, 0.018613028905432812
672.0, 0.01664533947387435
673.0, 0.014891484868866326
674.0, 0.011911532427314407
675.0, 0.0011535613966409146
676.0, 0.001953915086897598
677.0, 0.012367758831294946
678.0, 0.01054307703701906
679.0, 0.01442458393637109
680.0, 0.020945618416698147
681.0, 0.01617816278663448
682.0, 0.008516376604525805
683.0, 0.005044540172045834
684.0, 0.004021390309873927
685.0, 0.005617942482104419
686.0, 0.008078233711622525
687.0, 0.004507865429313973
688.0, 0.0028080146172626795
689.0, 0.005941767957945481
690.0, 0.008331367625855526
691.0, 0.002109464365385588
692.0, 0.008273377343221498
693.0, 0.0025371387922772017
694.0, 0.0042193091357999755
695.0, 0.017500203590549466
696.0, 0.01452092194284735
697.0, 0.01681943319066528
698.0, 0.017084163957192283
699.0, 0.014730724673507655
700.0, 0.021625089468049065
701.0, 0.02926988315928906
702.0, 0.025794268730770665
703.0, 0.026458898723779444
704.0, 0.029534789919879213
705.0, 0.026741777609046568
706.0, 0.02647599827322893
707.0, 0.025422098709013533
708.0, 0.02159084102537685
709.0, 0.029898406461790546
710.0, 0.01608799581199301
711.0, 0.025481122025896173
712.0, 0.026234005536161766
713.0, 0.01901902438859535
714.0, 0.025202140762278863
715.0, 0.0334900557059737
716.0, 0.022980524816687803
717.0, 0.026057014546591727
718.0, 0.027557519812329668
719.0, 0.026130502438930763
720.0, 0.026992500946123585
721.0, 0.026412028274484724
722.0, 0.020834218710840628
723.0, 0.011679641660242686
724.0, 0.010977193428220075
725.0, 0.014914626932340217
726.0, 0.015866950026748365
727.0, 0.012922118404041446
728.0, 0.01010383226735771
729.0, 0.032171936151168395
730.0, 0.02674352533966118
731.0, 0.015278711340919173
732.0, 0.01917151966973701
733.0, 0.027436389417477208
734.0, 0.02638687191307241
735.0, 0.01439568231456587
736.0, 0.007137426331830148
737.0, 0.004318540938867048
738.0, 0.003382255297609256
739.0, 0.010468008619726682
740.0, 0.02871189222694062
741.0, 0.01987217386796469
742.0, 0.008576936305730788
743.0, 0.020045825773706182
744.0, 0.02958871464792226
745.0, 0.019421792086292935
746.0, 0.015849983772920746
747.0, 0.014748468976770962
748.0, 0.016128846303086645
749.0, 0.019563139774434846
750.0, 0.025761252862854998
751.0, 0.03227241434739344
752.0, 0.03566781779412501
753.0, 0.041520574803815886
754.0, 0.05892562676732289
755.0, 0.05961116239975952
756.0, 0.06080193788986223
757.0, 0.07726379420396169
758.0, 0.09636831773785297
759.0, 0.09160636636573466
760.0, 0.10248407021236154
761.0, 0.1188181192841681
762.0, 0.13294475992261437
763.0, 0.13758741461742652
764.0, 0.1421386766169233
765.0, 0.16036903946466174
766.0, 0.1741009212502164
767.0, 0.19795081870939538
768.0, 0.21835906378467168
769.0, 0.22217815852032297
770.0, 0.22269169258875487
771.0, 0.2376803099867731
772.0, 0.2479416632647139
773.0, 0.24285509611008727
774.0, 0.235522214880016
775.0, 0.22231115643139954
776.0, 0.203672691421161
777.0, 0.1847684873711883
778.0, 0.16605914201957378
779.0, 0.14249703452970156
780.0, 0.127622493340445
781.0, 0.11130046299888058
782.0, 0.0853093915600991
783.0, 0.06639592929923316
784.0, 0.06509294765808896
785.0, 0.04258855087392136
786.0, 0.02532020942761233
787.0, 0.024981701455452608
788.0, 0.025293960662579686
789.0, 0.022081651434919147
790.0, 0.017915809817753016
791.0, 0.014608422506165153
792.0, 0.025918440473771745
793.0, 0.015531190524778275
794.0, 0.003086734513087614
795.0, 0.00614012572642046
796.0, 0.011211783136367299
797.0, 0.006477003157254767
798.0, 0.010122279861685797
799.0, 0.014348518368033946
800.0, 0.01564500534444575
801.0, 0.018563018674950884
802.0, 0.017732504317854742
803.0, 0.01735426513063925
804.0, 0.021960921670446925
805.0, 0.009431284397967105
806.0, 0.01575945010961252
807.0, 0.01633283455325772
808.0, 0.01621796321838549
809.0, 0.02038329388344673
810.0, 0.019807599672500148
811.0, 0.008859581654598705
812.0, 0.023103460812118653
813.0, 0.016679613978315785
814.0, 0.008250396480531396
815.0, 0.006147775874894781
816.0, 0.010578510487808503
817.0, 0.012419917257013111
818.0, 0.0030172999592274607
819.0, 0.008380732679221266
820.0, 0.003931424181973554
821.0, 0.00439420882048251
822.0, 0.0031318493141031184
823.0, 0.012185786142686924
824.0, 0.01040682590548276
825.0, 0.004233846255002108
826.0, 0.011752489720186653
827.0, 0.005785833286732635
828.0, 0.008769249156290328
829.0, 0.015980661282466536
830.0, 0.01364801099656902
831.0, 0.009325435586747335
832.0, 0.01989425453554315
833.0, 0.02256850933417517
834.0, 0.015598869505155717
835.0, 0.0095959804308492
836.0, 0.00105400190391651
837.0, 0.001862392304370425
838.0, 0.017556058682782535
839.0, 0.0175239517157221
840.0, 0.016161767490177593
841.0, 0.015757279013164982
842.0, 0.010144048911433369
843.0, 0.004597204558655982
844.0, 0.009702582050798558
845.0, 0.017999903602177066
846.0, 0.0025166320830100355
847.0, 0.002322310859492448
848.0, 0.00632756230431044
849.0, 0.011776526476717475
850.0, 0.006854200072729545
851.0, 0.004678229404769422
852.0, 0.028811712778978704
853.0, 0.009104865700533376
854.0, 0.005205035426013557
855.0, 0.009631632160984279
856.0, 0.01460192539410531
857.0, 0.021494833522003414
858.0, 0.019616647156030058
859.0, 0.001999153852073316
860.0, 0.003050565293731243
861.0, 0.013404985798648747
862.0, 0.014972294894667176
863.0, 0.006763203972370257
864.0, 0.0017227110915098891
865.0, 0.0032604574514601414
866.0, 0.003274720770226068
867.0, 0.0007973444843781081
868.0, 0.00117853165170033
869.0, 0.008331492556067473
870.0, 0.00781523945281698
871.0, 0.0022077044859367717
872.0, 0.002283833005585793
873.0, 0.005983441454698706
874.0, 0.002483610588651377
875.0, 0.004448440558259905
876.0, 0.008828444956131998
877.0, 0.0022226634949026433
878.0, 3.194237883526836e-05
879.0, 0.004145435933238407
880.0, 0.006391820780084963
881.0, 0.007327147264504707
882.0, 0.004754476463247626
883.0, 0.0003969038946536216
884.0, 0.0069572026340519065
885.0, 0.005095469118729634
886.0, 0.0009669330889820006
887.0, 0.008140002527302303
888.0, 0.014681379416609158
889.0, 0.010660548335889482
890.0, 0.014070960330572506
891.0, 0.018751195002824694
892.0, 0.021335833324188366
893.0, 0.01765484198369098
894.0, 0.0072027877594194965
895.0, 0.0015030432722730556
896.0, 0.010373716722602308
897.0, 0.0016040157945809478
898.0, 0.005491289925946459
899.0, 0.009313605662783126
900.0, 0.015182102941456903
901.0, 0.021519228468493516
902.0, 0.01771395215503366
903.0, 0.013168595801997718
904.0, 0.017014171337115927
905.0, 0.016081123561855083
906.0, 0.015594833417672392
907.0, 0.01100247906490765
908.0, 0.013537802584717486
909.0, 0.024661157313835176
910.0, 0.02082734848974432
911.0, 0.011946239291454145
912.0, 0.004817364070677127
913.0, 0.00893896271836097
914.0, 0.01633236097608988
915.0, 0.008667795163505621
916.0, 0.001397401336902414
917.0, 0.002391508144183979
918.0, 0.004994362093864876
919.0, 0.00359138735505213
920.0, 0.0031681658819603825
921.0, 0.005031320551159269
922.0, 0.007016666666660301
923.0, 0.011364460035480445
924.0, 0.011632428772448997
925.0, 0.008414403608488719
926.0, 0.016682643753753598
927.0, 0.009096848103832973
928.0, 0.004361167776852191
929.0, 0.009830670989262581
930.0, 0.011723483006242933
931.0, 0.012795680965446069
932.0, 0.01769033870224721
933.0, 0.011219081479363182
934.0, 0.0076772836033250184
935.0, 0.0011976128728487714
936.0, 0.0044963658669750425
937.0, 0.010319013993689997
938.0, 0.004666912312935396
939.0, 0.0030994598262694727
940.0, 0.0022780180066951676
941.0, 0.006043748228363293
942.0, 0.013589276846731557
943.0, 0.004323366416476744
944.0, 0.005046800391290302
945.0, 0.0017523501729860775
946.0, 0.008842651617294027
947.0, 0.003533458939853304
948.0, 0.005366867168008164
949.0, 0.0031127710143213846
950.0, 0.014423647804720694
951.0, 0.013524865375851259
952.0, 0.003413393548139403
953.0, 0.0036826798040483417
954.0, 0.0006610709882693143
955.0, 0.0034794478940878525
956.0, 0.010298064722568244
957.0, 0.011474135168521214
958.0, 0.009831826192748114
959.0, 0.004907031572529521
960.0, 0.0012989702346179006
961.0, 0.008105123997946592
962.0, 0.016996077371839946
963.0, 0.01403793749420671
964.0, 0.008057527987627808
965.0, 0.020126506846704424
966.0, 0.012092022094215709
967.0, 0.017735244084461328
968.0, 0.025985763330696368
969.0, 0.018457246815203828
970.0, 0.009367880900538453
971.0, 0.017031296222967958
972.0, 0.030749253854245404
973.0, 0.026653849389187162
974.0, 0.02469117514276517
975.0, 0.02514105079239928
976.0, 0.02774071703324655
977.0, 0.037115657639608474
978.0, 0.043248110234340206
979.0, 0.036894553822754805
980.0, 0.033186389510124106
981.0, 0.039247806012948395
982.0, 0.04456844771519322
983.0, 0.04517887679242806
984.0, 0.04311569605235812
985.0, 0.04187463402452943
986.0, 0.040502596030687
987.0, 0.041587925854319904
988.0, 0.04960431492404414
989.0, 0.046594644775745375
990.0, 0.06022512552246152
991.0, 0.04267313680252708
992.0, 0.036478372342816145
993.0, 0.038630707946603796
994.0, 0.04137311926803727
995.0, 0.04253501607167002
996.0, 0.038455446606271454
997.0, 0.044941626760299884
998.0, 0.05579853271770219
999.0, 0.046632513331359225
1000.0, 0.04178526946173801
1001.0, 0.03845221966836863
1002.0, 0.031595232917849485
1003.0, 0.03174491993623557
1004.0, 0.04523274423884951
1005.0, 0.051179454834713166
1006.0, 0.04103488596752569
1007.0, 0.04314449974711775
1008.0, 0.04467798124161865
1009.0, 0.04016762303142557
1010.0, 0.03063357406837507
1011.0, 0.01948146428170613
1012.0, 0.012221907601807892
1013.0, 0.009147139665941304
1014.0, 0.0018385319208119783
1015.0, 0.004844723060204282
1016.0, 0.011578514858572385
1017.0, 0.00487289021619093
1018.0, 0.012845447071530814
1019.0, 0.005573427074368811
1020.0, 0.016831448969617368
1021.0, 0.02146382859759616
1022.0, 0.013851181078878207
1023.0, 0.02656219144992207
1024.0, 0.017869378697356282
1025.0, 0.013804908046384354
1026.0, 0.012089533872879088
1027.0, 0.011086044620939354
1028.0, 0.008851895958608028
1029.0, 0.00729567668606535
1030.0, 0.013005465573919978
1031.0, 0.017510233610252716
1032.0, 0.008847709672010387
1033.0, 0.019086442847461402
1034.0, 0.022553472231078144
1035.0, 0.0274009168067365
1036.0, 0.030609628183058086
1037.0, 0.027363606079910417
1038.0, 0.024977086734515912
1039.0, 0.0268637584898154
1040.0, 0.03007430488307561
1041.0, 0.020063599137930127
1042.0, 0.02774105265199012
1043.0, 0.032223575311336856
1044.0, 0.029179186456508643
1045.0, 0.028500057162214786
1046.0, 0.02741614045958641
1047.0, 0.025519241198199455
1048.0, 0.036430849749146135
1049.0, 0.030861765932133713
1050.0, 0.032130945740564125
1051.0, 0.040175803994938385
1052.0, 0.03352704288293285
1053.0, 0.030303598119894602
1054.0, 0.03994556270909539
1055.0, 0.054448480364530774
1056.0, 0.05671223777591228
1057.0, 0.03930172155123464
1058.0, 0.05407488839911738
1059.0, 0.05772142285605227
1060.0, 0.04695879637609873
1061.0, 0.05037649486350096
1062.0, 0.05812151425207172
1063.0, 0.06658076787777807
1064.0, 0.06727359186437665
1065.0, 0.06347481904756037
1066.0, 0.0844442194941753
1067.0, 0.07649784219592738
1068.0, 0.08174698841041902
1069.0, 0.09294535012632466
1070.0, 0.09050746178466956
1071.0, 0.08711972549388339
1072.0, 0.0965912890544231
1073.0, 0.1065015264892952
1074.0, 0.10816391365871038
1075.0, 0.11348091157754686
1076.0, 0.10766572848160695
1077.0, 0.10566846792891275
1078.0, 0.12911491863741859
1079.0, 0.1342505767757206
1080.0, 0.12632442275068284
1081.0, 0.12219734084683966
1082.0, 0.11994575705628498
1083.0, 0.11685148905625946
1084.0, 0.11800276599401956
1085.0, 0.11432587474153591
1086.0, 0.11624919244048525
1087.0, 0.11331098354538859
1088.0, 0.1165202795533845
1089.0, 0.1246022703688453
1090.0, 0.13309274450265934
1091.0, 0.13980024548491748
1092.0, 0.15071022636335574
1093.0, 0.16104675720037526
1094.0, 0.15068678537839048
1095.0, 0.15242972141268016
1096.0, 0.16928515352230897
1097.0, 0.16604888663733197
1098.0, 0.16507261960064734
1099.0, 0.16293621412277512
1100.0, 0.16307019663908268
1101.0, 0.1684072972837607
1102.0, 0.16364704962998092
1103.0, 0.14630209266482655
1104.0, 0.14680795982189185
1105.0, 0.13980853334530186
1106.0, 0.11896128262771025
1107.0, 0.10505645198136626
1108.0, 0.11869210269699902
1109.0, 0.1244552964403882
1110.0, 0.13216316911214201
1111.0, 0.1531900055874702
1112.0, 0.16476455977890192
1113.0, 0.1637920716057881
1114.0, 0.15792469759161076
1115.0, 0.15431052738810128
1116.0, 0.12564855306529946
1117.0, 0.0956700148370861
1118.0, 0.07266687464485307
1119.0, 0.04801050657003413
1120.0, 0.03808292235660939
1121.0, 0.04336677834023735
1122.0, 0.04282453236336504
1123.0, 0.039244169971847265
1124.0, 0.0238317620801842
1125.0, 0.02791652856031399
1126.0, 0.007211972651946264
1127.0, 0.02071651385193658
1128.0, 0.022512906083691563
1129.0, 0.016188322087973123
1130.0, 0.015880376815494878
1131.0, 0.021717737383270132
1132.0, 0.032208933082798784
1133.0, 0.026310466299102525
1134.0, 0.010150207499646045
1135.0, 0.011817163839742071
1136.0, 0.011519357853847582
1137.0, 0.02229381259095362
1138.0, 0.014695745292697926
1139.0, 0.008320744831681064
1140.0, 0.0040803401226507646
1141.0, 0.008510624223649853
1142.0, 0.01200675009563829
1143.0, 0.005502516297128437
1144.0, 0.004952378169606262
1145.0, 0.005145352282068067
1146.0, 0.007593349783117507
1147.0, 0.013760901188117743
1148.0, 0.016214122495948984
1149.0, 0.0083521049595022
1150.0, 0.005108462385896085
1151.0, 0.003927642521525383
1152.0, 0.0036518089015597495
1153.0, 0.005169104471705378
1154.0, 0.007449589965887823
1155.0, 0.013741213387808097
1156.0, 0.014323356748258471
1157.0, 0.011488346031434135
1158.0, 0.007717085452384305
1159.0, 0.008168225045019902
1160.0, 0.0053218972272893895
1161.0, 0.01593669043641593
1162.0, 0.018256719593540433
1163.0, 0.0014389829893189916
1164.0, 0.010255239766112654
1165.0, 0.017306619881443008
1166.0, 0.015419513142656886
1167.0, 0.015609984926712745
1168.0, 0.01862754416575402
1169.0, 0.013291251105242714
1170.0, 0.007048891500941915
1171.0, 0.018239777334842982
1172.0, 0.024499960517186385
1173.0, 0.007118145384566658
1174.0, 0.0017686095821653992
1175.0, 0.02996273275279996
1176.0, 0.023756387457862915
1177.0, 0.019622411317221318
1178.0, 0.023030209455696143
1179.0, 0.010118275431905568
1180.0, 0.01822818467287223
1181.0, 0.014716341203626969
1182.0, 0.006658066721751932
1183.0, 0.0025447166519147572
1184.0, 0.0034683338293519037
1185.0, 0.01738552809486282
1186.0, 0.023331883155952953
1187.0, 0.02852830832888592
1188.0, 0.04156344855318458
1189.0, 0.03603423916256347
1190.0, 0.041429369900987834
1191.0, 0.04572244325571881
1192.0, 0.04096870857980417
1193.0, 0.04387538071606729
1194.0, 0.0372477666452837
1195.0, 0.016559939594352913
1196.0, 0.019855004373680752
1197.0, 0.03720462448803408
1198.0, 0.04601681789148783
1199.0, 0.04096774104478224
1200.0, 0.031958853354892604
1201.0, 0.02924455231552806
1202.0, 0.037327953082942504
1203.0, 0.0356306386250636
1204.0, 0.03866423503764517
1205.0, 0.038413822884136105
1206.0, 0.03131399906319703
1207.0, 0.03590258916387031
1208.0, 0.036199815414743
1209.0, 0.023341035128003805
1210.0, 0.013845917236316278
1211.0, 0.030053659062684496
1212.0, 0.038748212943664075
1213.0, 0.036087928530376664
1214.0, 0.03998922436146808
1215.0, 0.02788930813982115
1216.0, 0.025757397408459774
1217.0, 0.026603795712251906
1218.0, 0.01995380291950718
1219.0, 0.025352037442930114
1220.0, 0.012038813220519726
1221.0, 0.003836912910499601
1222.0, 0.007795560980008442
1223.0, 0.009967623454279715
1224.0, 0.015152351886386993
1225.0, 0.016474732472927696
1226.0, 0.014602876426770973
1227.0, 0.01080221597293167
1228.0, 0.014454607330298061
1229.0, 0.016214771766245435
1230.0, 0.011380755409895986
1231.0, 0.011891629683659054
1232.0, 0.006640699226083297
1233.0, 0.012675560345017297
1234.0, 0.0011690187787471034
1235.0, 0.0028530304716707982
1236.0, 0.001198140196369165
1237.0, 0.009441309489672933
1238.0, 0.02145001503676047
1239.0, 0.024786358299355358
1240.0, 0.026961922951804024
1241.0, 0.02994864171372101
1242.0, 0.032540872206127225
1243.0, 0.038317651062664625
1244.0, 0.043070879569237996
1245.0, 0.02610806352250844
1246.0, 0.02210167931000863
1247.0, 0.040810881680227826
1248.0, 0.030223655963957707
1249.0, 0.03301747127593248
1250.0, 0.03970912353476194
1251.0, 0.04067462213168914
1252.0, 0.03755830410772234
1253.0, 0.02809173712784484
1254.0, 0.02180224330460815
1255.0, 0.022041971727228816
1256.0, 0.015183045054889769
1257.0, 0.013344793696947202
1258.0, 0.017853340044615355
1259.0, 0.00716089856934279
1260.0, 0.002833176789899772
1261.0, 0.024811551682995772
1262.0, 0.03087468495154872
1263.0, 0.02961710716152188
1264.0, 0.03687687777322201
1265.0, 0.04343647701995177
1266.0, 0.038435745775747064
1267.0, 0.024467892106629092
1268.0, 0.018377615158490783
1269.0, 0.023428083307221126
1270.0, 0.016852898753819623
1271.0, 0.01554065212874179
1272.0, 0.00363016704813507
1273.0, 0.004992162320796272
1274.0, 0.0009899415313953457
1275.0, 0.0015052497570260082
1276.0, 0.01830232457581445
1277.0, 0.0112257832772037
1278.0, 0.0030521629830487776
1279.0, 0.004385725830406603
1280.0, 8.069962274601434e-05
1281, 0.0
1282, 0.0
1283, 0.0
1284, 0.0
1285, 0.0
1286, 0.0
1287, 0.0
1288, 0.0
1289, 0.0
1290, 0.0
1291, 0.0
1292, 0.0
1293, 0.0
1294, 0.0
1295, 0.0
1296, 0.0
1297, 0.0
1298, 0.0
1299, 0.0
1300, 0.0
1301, 0.0
1302, 0.0
1303, 0.0
1304, 0.0
1305, 0.0
1306, 0.0
1307, 0.0
1308, 0.0
1309, 0.0
1310, 0.0
1311, 0.0
1312, 0.0
1313, 0.0
1314, 0.0
1315, 0.0
1316, 0.0
1317, 0.0
1318, 0.0
1319, 0.0
1320, 0.0
1321, 0.0
1322, 0.0
1323, 0.0
1324, 0.0
1325, 0.0
1326, 0.0
1327, 0.0
1328, 0.0
1329, 0.0
1330, 0.0
1331, 0.0
1332, 0.0
1333, 0.0
1334, 0.0
1335, 0.0
1336, 0.0
1337, 0.0
1338, 0.0
1339, 0.0
1340, 0.0
1341, 0.0
1342, 0.0
1343, 0.0
1344, 0.0
1345, 0.0
1346, 0.0
1347, 0.0
1348, 0.0
1349, 0.0
1350, 0.0
1351, 0.0
1352, 0.0
1353, 0.0
1354, 0.0
1355, 0.0
1356, 0.0
1357, 0.0
1358, 0.0
1359, 0.0
1360, 0.0
1361, 0.0
1362, 0.0
1363, 0.0
1364, 0.0
1365, 0.0
1366, 0.0
1367, 0.0
1368, 0.0
1369, 0.0
1370, 0.0
1371, 0.0
1372, 0.0
1373, 0.0
1374, 0.0
1375, 0.0
1376, 0.0
1377, 0.0
1378, 0.0
1379, 0.0
1380, 0.0
1381, 0.0
1382, 0.0
1383, 0.0
1384, 0.0
1385, 0.0
1386, 0.0
1387, 0.0
1388, 0.0
1389, 0.0
1390, 0.0
1391, 0.0
1392, 0.0
1393, 0.0
1394, 0.0
1395, 0.0
1396, 0.0
1397, 0.0
1398, 0.0
1399, 0.0
1400, 0.0
1401, 0.0
1402, 0.0
1403, 0.0
1404, 0.0
1405, 0.0
1406, 0.0
1407, 0.0
1408, 0.0
1409, 0.0
1410, 0.0
1411, 0.0
1412, 0.0
1413, 0.0
1414, 0.0
1415, 0.0
1416, 0.0
1417, 0.0
1418, 0.0
1419, 0.0
1420, 0.0
1421, 0.0
1422, 0.0
1423, 0.0
1424, 0.0
1425, 0.0
1426, 0.0
1427, 0.0
1428, 0.0
1429, 0.0
1430, 0.0
1431, 0.0
1432, 0.0
1433, 0.0
1434, 0.0
1435, 0.0
1436, 0.0
1437, 0.0
1438, 0.0
1439, 0.0
1440, 0.0
1441, 0.0
1442, 0.0
1443, 0.0
1444, 0.0
1445, 0.0
1446, 0.0
1447, 0.0
1448, 0.0
1449, 0.0
1450, 0.0
1451, 0.0
1452, 0.0
1453, 0.0
1454, 0.0
1455, 0.0
1456, 0.0
1457, 0.0
1458, 0.0
1459, 0.0
1460, 0.0
1461, 0.0
1462, 0.0
1463, 0.0
1464, 0.0
1465, 0.0
1466, 0.0
1467, 0.0
1468, 0.0
1469, 0.0
1470, 0.0
1471, 0.0
1472, 0.0
1473, 0.0
1474, 0.0
1475, 0.0
1476, 0.0
1477, 0.0
1478, 0.0
1479, 0.0
1480, 0.0
1481, 0.0
1482, 0.0
1483, 0.0
1484, 0.0
1485, 0.0
1486, 0.0
1487, 0.0
1488, 0.0
1489, 0.0
1490, 0.0
1491, 0.0
1492, 0.0
1493, 0.0
1494, 0.0
1495, 0.0
1496, 0.0
1497, 0.0
1498, 0.0
1499, 0.0
1500, 0.0
1501, 0.0
1502, 0.0
1503, 0.0
1504, 0.0
1505, 0.0
1506, 0.0
1507, 0.0
1508, 0.0
1509, 0.0
1510, 0.0
1511, 0.0
1512, 0.0
1513, 0.0
1514, 0.0
1515, 0.0
1516, 0.0
1517, 0.0
1518, 0.0
1519, 0.0
1520, 0.0
1521, 0.0
1522, 0.0
1523, 0.0
1524, 0.0
1525, 0.0
1526, 0.0
1527, 0.0
1528, 0.0
1529, 0.0
1530, 0.0
1531, 0.0
1532, 0.0
1533, 0.0
1534, 0.0
1535, 0.0
1536, 0.0
1537, 0.0
1538, 0.0
1539, 0.0
1540, 0.0
1541, 0.0
1542, 0.0
1543, 0.0
1544, 0.0
1545, 0.0
1546, 0.0
1547, 0.0
1548, 0.0
1549, 0.0
1550, 0.0
1551, 0.0
1552, 0.0
1553, 0.0
1554, 0.0
1555, 0.0
1556, 0.0
1557, 0.0
1558, 0.0
1559, 0.0
1560, 0.0
1561, 0.0
1562, 0.0
1563, 0.0
1564, 0.0
1565, 0.0
1566, 0.0
1567, 0.0
1568, 0.0
1569, 0.0
1570, 0.0
1571, 0.0
1572, 0.0
1573, 0.0
1574, 0.0
1575, 0.0
1576, 0.0
1577, 0.0
1578, 0.0
1579, 0.0
1580, 0.0
1581, 0.0
1582, 0.0
1583, 0.0
1584, 0.0
1585, 0.0
1586, 0.0
1587, 0.0
1588, 0.0
1589, 0.0
1590, 0.0
1591, 0.0
1592, 0.0
1593, 0.0
1594, 0.0
1595, 0.0
1596, 0.0
1597, 0.0
1598, 0.0
1599, 0.0
