30, 0.0
31, 0.0
32, 0.0
33, 0.0
34, 0.0
35, 0.0
36, 0.0
37, 0.0
38, 0.0
39, 0.0
40, 0.0
41, 0.0
42, 0.0
43, 0.0
44, 0.0
45, 0.0
46, 0.0
47, 0.0
48, 0.0
49, 0.0
50, 0.0
51, 0.0
52, 0.0
53, 0.0
54, 0.0
55, 0.0
56, 0.0
57, 0.0
58, 0.0
59, 0.0
60, 0.0
61, 0.0
62, 0.0
63, 0.0
64, 0.0
65, 0.0
66, 0.0
67, 0.0
68, 0.0
69, 0.0
70, 0.0
71, 0.0
72, 0.0
73, 0.0
74, 0.0
75, 0.0
76, 0.0
77, 0.0
78, 0.0
79, 0.0
80, 0.0
81, 0.0
82, 0.0
83, 0.0
84, 0.0
85, 0.0
86, 0.0
87, 0.0
88, 0.0
89, 0.0
90, 0.0
91, 0.0
92, 0.0
93, 0.0
94, 0.0
95, 0.0
96, 0.0
97, 0.0
98, 0.0
99, 0.0
100, 0.0
101, 0.0
102, 0.0
103, 0.0
104, 0.0
105, 0.0
106, 0.0
107, 0.0
108, 0.0
109, 0.0
110, 0.0
111, 0.0
112, 0.0
113, 0.0
114, 0.0
115, 0.0
116, 0.0
117, 0.0
118, 0.0
119, 0.0
120, 0.0
121, 0.0
122, 0.0
123, 0.0
124, 0.0
125, 0.0
126, 0.0
127, 0.0
128, 0.0
129, 0.0
130, 0.0
131, 0.0
132, 0.0
133, 0.0
134, 0.0
135, 0.0
136, 0.0
137, 0.0
138, 0.0
139, 0.0
140, 0.0
141, 0.0
142, 0.0
143, 0.0
144, 0.0
145, 0.0
146, 0.0
147, 0.0
148, 0.0
149, 0.0
150, 0.0
151, 0.0
152, 0.0
153, 0.0
154, 0.0
155, 0.0
156, 0.0
157, 0.0
158, 0.0
159, 0.0
160, 0.0
161, 0.0
162, 0.0
163, 0.0
164, 0.0
165, 0.0
166, 0.0
167, 0.0
168, 0.0
169, 0.0
170, 0.0
171, 0.0
172, 0.0
173, 0.0
174, 0.0
175, 0.0
176, 0.0
177, 0.0
178, 0.0
179, 0.0
180, 0.0
181, 0.0
182, 0.0
183, 0.0
184, 0.0
185, 0.0
186, 0.0
187, 0.0
188, 0.0
189, 0.0
190, 0.0
191, 0.0
192, 0.0
193, 0.0
194, 0.0
195, 0.0
196, 0.0
197, 0.0
198, 0.0
199, 0.0
200, 0.0
201, 0.0
202, 0.0
203, 0.0
204, 0.0
205, 0.0
206, 0.0
207, 0.0
208, 0.0
209, 0.0
210, 0.0
211, 0.0
212, 0.0
213, 0.0
214, 0.0
215, 0.0
216, 0.0
217, 0.0
218, 0.0
219.0, 0.00023705589456941218
220.0, 0.0005213543185706734
221.0, 0.0005759798243577958
222.0, 0.000847470892460691
223.0, 0.0009534638816695519
224.0, 0.0008788529038473285
225.0, 0.0007458301309361687
226.0, 0.0006538152842426881
227.0, 0.0006378211042906816
228.0, 0.0007025461443237133
229.0, 0.0005635529833621594
230.0, 0.0007538934243024163
231.0, 0.0010885113708388424
232.0, 0.001394124533320794
233.0, 0.0015461231324754127
234.0, 0.0012653434459413261
235.0, 0.0006723606540592259
236.0, 0.00011106616153806818
237.0, 0.0006668634118739408
238.0, 0.000754312542504615
239.0, 0.00010414469736728081
240.0, 0.00011977265315468796
241.0, 0.00013039371560897496
242.0, 0.0002268057460522565
243.0, 0.00048045509294739107
244.0, 0.0002374491355594302
245.0, 0.0002990919950463852
246.0, 0.000508620412035838
247.0, 0.0006042296266668048
248.0, 0.0006154755022443696
249.0, 0.0009552487173945692
250.0, 0.0014745425428538063
251.0, 0.001285306813770884
252.0, 0.0015215959609515845
253.0, 0.001750121500870267
254.0, 0.0017740132957929393
255.0, 0.0011413899845041605
256.0, 0.0013970450674936049
257.0, 0.0018510813760891712
258.0, 0.0018997130258702347
259.0, 0.0021464703156668374
260.0, 0.001607194160461734
261.0, 0.0010925525080529557
262.0, 0.0024413018974173257
263.0, 0.002773123617075564
264.0, 0.002390393077906001
265.0, 0.001691726423746212
266.0, 0.0024546177944596583
267.0, 0.002400106969969489
268.0, 0.0027866296745496866
269.0, 0.00403136766545585
270.0, 0.0030168408885783552
271.0, 0.0026874557766644424
272.0, 0.0029031914094429538
273.0, 0.003603329826241189
274.0, 0.005673723298176442
275.0, 0.0072355144219370575
276.0, 0.008542960017169709
277.0, 0.010276360338604911
278.0, 0.011760418939723972
279.0, 0.011984392436497127
280.0, 0.011286891713253557
281.0, 0.01205178267858302
282.0, 0.010940743107321297
283.0, 0.009483652207938035
284.0, 0.008264575617330681
285.0, 0.007327619560353375
286.0, 0.005887475098418053
287.0, 0.004824746433164473
288.0, 0.004890187614090088
289.0, 0.003517728334637566
290.0, 0.0027333574914658173
291.0, 0.0026760094850415334
292.0, 0.0036172693998378492
293.0, 0.0027907635359410423
294.0, 0.0028893268302261563
295.0, 0.0037973623001517536
296.0, 0.004133741509489251
297.0, 0.0047328686114597365
298.0, 0.0047496413647664425
299.0, 0.004159630049886329
300.0, 0.004607971969894537
301.0, 0.004208970415192539
302.0, 0.0031646557727140075
303.0, 0.0016127238097784183
304.0, 0.0016786756599015292
305.0, 0.0009266310445971222
306.0, 0.00043465930921188624
307.0, 0.0013451262732574127
308.0, 0.000939751739782262
309.0, 0.000748782567219495
310.0, 0.0008920947066733608
311.0, 0.0015166969709431738
312.0, 0.0008636158100964334
313.0, 0.001319625022867163
314.0, 0.002402757254729183
315.0, 0.0012401075582428888
316.0, 0.0016365140079178434
317.0, 0.0020389416768852734
318.0, 0.002013325522359746
319.0, 0.0016326374557181003
320.0, 0.002239101418778389
321.0, 0.002479481099118742
322.0, 0.0017697474458076095
323.0, 0.002937838440372392
324.0, 0.0030604775078709313
325.0, 0.0029467810397955673
326.0, 0.0033006873831894095
327.0, 0.004438508854499874
328.0, 0.0043389671698787595
329.0, 0.0038869514996800326
330.0, 0.004480593632518467
331.0, 0.004560205187307083
332.0, 0.004603571621108179
333.0, 0.004664105626895664
334.0, 0.004762399418063398
335.0, 0.004696194247559335
336.0, 0.004716064530960794
337.0, 0.004771843306478988
338.0, 0.0044220388668788305
339.0, 0.0042647741147050135
340.0, 0.0041118162976838445
341.0, 0.0038856341810829366
342.0, 0.003471777885366406
343.0, 0.0036670685535866846
344.0, 0.0037534185306618735
345.0, 0.003389772210278541
346.0, 0.00377640194583283
347.0, 0.0036746360630546347
348.0, 0.0033948489779213687
349.0, 0.0031888247727581555
350.0, 0.0041898489518803
351.0, 0.004071632971351402
352.0, 0.00393145756509908
353.0, 0.005279997877162566
354.0, 0.00528613780446103
355.0, 0.005473496178013557
356.0, 0.005929776590117263
357.0, 0.006653118527321463
358.0, 0.0068189056423704625
359.0, 0.007814300872050602
360.0, 0.009135221998209006
361.0, 0.008671707388502045
362.0, 0.008751282257063446
363.0, 0.008451130906814753
364.0, 0.007870223464851105
365.0, 0.008452205185194857
366.0, 0.008673725294339013
367.0, 0.007983374139181623
368.0, 0.006570783460359906
369.0, 0.007441388303908198
370.0, 0.007218325119289414
371.0, 0.006953724411338611
372.0, 0.007095449393080274
373.0, 0.006732124875174389
374.0, 0.006769046857784605
375.0, 0.006504387890780441
376.0, 0.005496933212469168
377.0, 0.00585562775421767
378.0, 0.006539809973509064
379.0, 0.006790582680840307
380.0, 0.005865021509628115
381.0, 0.007365744518457554
382.0, 0.00863882407081386
383.0, 0.009471389659032943
384.0, 0.009603908646323515
385.0, 0.012491504361689495
386.0, 0.013291792880799411
387.0, 0.013072399759148813
388.0, 0.014040780243432997
389.0, 0.013073008927419926
390.0, 0.011774880583183354
391.0, 0.01070073849844966
392.0, 0.01076757054976167
393.0, 0.008907307190357807
394.0, 0.007534007198555923
395.0, 0.006763121377888532
396.0, 0.005927799577260637
397.0, 0.005631024036256878
398.0, 0.005366147463328158
399.0, 0.004919596594706916
400.0, 0.0038579938399454835
401.0, 0.005255929016637673
402.0, 0.005920505014758
403.0, 0.005474543577634222
404.0, 0.00618663766257672
405.0, 0.0073907592528853734
406.0, 0.007830834431109681
407.0, 0.007497862962164784
408.0, 0.00908187770648157
409.0, 0.00973571489257089
410.0, 0.010486114950327799
411.0, 0.011565958854623267
412.0, 0.011407172723358262
413.0, 0.01139508987873138
414.0, 0.011625373902340997
415.0, 0.012068906472969525
416.0, 0.011796081120816341
417.0, 0.011619953745097748
418.0, 0.01138165218866663
419.0, 0.010966547087075288
420.0, 0.010064923487660027
421.0, 0.008988131958516039
422.0, 0.008014819254477015
423.0, 0.007365658014077023
424.0, 0.007723852161288021
425.0, 0.0074123819311067
426.0, 0.007110976399533829
427.0, 0.007302408583047284
428.0, 0.006690460098356334
429.0, 0.006045120596646958
430.0, 0.005984900251243311
431.0, 0.007017365618218427
432.0, 0.0063730075887899916
433.0, 0.006919078720285518
434.0, 0.007742908582840526
435.0, 0.007986954284676448
436.0, 0.00703381454727476
437.0, 0.007555629141764834
438.0, 0.007992010874977166
439.0, 0.0067310702340684465
440.0, 0.0076070331222382
441.0, 0.007065833615625612
442.0, 0.006213009256741045
443.0, 0.006296370961095033
444.0, 0.006124250518224366
445.0, 0.005506146380422823
446.0, 0.005204536832142887
447.0, 0.006114448556296021
448.0, 0.004420630168904232
449.0, 0.004825444286682311
450.0, 0.005687293743776899
451.0, 0.004927051639452397
452.0, 0.0044833944094031545
453.0, 0.004963918353026759
454.0, 0.005435856044333955
455.0, 0.004740384075764506
456.0, 0.005356687719583099
457.0, 0.005040283998650204
458.0, 0.004771854867992547
459.0, 0.0058289211758787
460.0, 0.006949264877441759
461.0, 0.006685131671531756
462.0, 0.0062702679153550335
463.0, 0.007246803963476218
464.0, 0.008572468365190072
465.0, 0.00957102829682539
466.0, 0.010456201902074393
467.0, 0.011497589093130473
468.0, 0.01193366553164581
469.0, 0.01327644993308125
470.0, 0.014530011892081167
471.0, 0.014531605125278244
472.0, 0.015174979547616681
473.0, 0.01524021574895447
474.0, 0.014881451020302833
475.0, 0.014280936198669653
476.0, 0.01402032830364939
477.0, 0.012527989668815244
478.0, 0.011237286779085854
479.0, 0.011566292515074591
480.0, 0.009110852325540566
481.0, 0.007896037578598986
482.0, 0.007323618170846788
483.0, 0.006815050715338473
484.0, 0.0050740383683424905
485.0, 0.004834057704470512
486.0, 0.004842213706377356
487.0, 0.004109287146030748
488.0, 0.004387315214427966
489.0, 0.004024751068563714
490.0, 0.003501464636808463
491.0, 0.003163191635286805
492.0, 0.002801492809624175
493.0, 0.002477637758490513
494.0, 0.002226057319675702
495.0, 0.0020731323607143157
496.0, 0.0020575596657989178
497.0, 0.0017419236102026486
498.0, 0.0016461042836559507
499.0, 0.0018987858495821464
500.0, 0.0007742252923617784
501.0, 0.0006984952426781473
502.0, 0.0010733884700146335
503.0, 0.0014374474932507292
504.0, 0.00042780430713840504
505.0, 0.000576316928734401
506.0, 0.0007312964194176713
507.0, 0.00048483467071708106
508.0, 0.00017914913366533108
509.0, 0.0003180858722247176
510.0, 0.00031925143919047543
511.0, 0.00012141766710737769
512.0, 0.0003275737568960323
513.0, 0.0008463954183032638
514.0, 0.0010964372738034253
515.0, 0.0010581813945409605
516.0, 0.0012100445930756252
517.0, 0.0007394940535876075
518.0, 0.0003170535882574631
519.0, 0.0002039374792766699
520.0, 0.0007518400338788244
521.0, 0.000381060802397748
522.0, 0.0006635116158031864
523.0, 0.001201822577051478
524.0, 0.0006297461672386611
525.0, 0.001515244035385643
526.0, 0.0012510567824486672
527.0, 0.000531174760927319
528.0, 0.0009548809603472392
529.0, 0.00037424513792670607
530.0, 0.000318914522049618
531.0, 0.0007170313263425575
532.0, 0.001361985949526638
533.0, 0.0016155650563785815
534.0, 0.0019870005066838607
535.0, 0.0024048485122145197
536.0, 0.002792440302935598
537.0, 0.00326991806680255
538.0, 0.0035903797271018153
539.0, 0.0041104634011941395
540.0, 0.0050312602611736765
541.0, 0.00541536372137097
542.0, 0.006344515745517336
543.0, 0.007553578837139573
544.0, 0.008826882919345105
545.0, 0.009585304050092952
546.0, 0.0120089894537134
547.0, 0.014071978140661818
548.0, 0.015160831509838235
549.0, 0.01616873888741527
550.0, 0.017415575537303243
551.0, 0.01768424417161204
552.0, 0.016605651311037854
553.0, 0.014046406180131633
554.0, 0.013517263097910941
555.0, 0.012067549254687109
556.0, 0.010199594939947734
557.0, 0.010214185048312077
558.0, 0.007628191818775556
559.0, 0.006697011013025871
560.0, 0.007006688774058912
561.0, 0.007267536251978176
562.0, 0.006990587997987975
563.0, 0.007589210085685768
564.0, 0.008574575467688174
565.0, 0.009364994078899734
566.0, 0.010121033436386834
567.0, 0.011094149369404777
568.0, 0.011914397975508252
569.0, 0.012397941560224389
570.0, 0.013628846712712157
571.0, 0.014313756678458115
572.0, 0.015102225205924868
573.0, 0.016246581779369967
574.0, 0.01736203660834315
575.0, 0.019344071601139705
576.0, 0.021497255614496804
577.0, 0.0234980228919982
578.0, 0.024959887236786348
579.0, 0.027705181723852643
580.0, 0.02914921921269064
581.0, 0.029364124504744148
582.0, 0.0295412523155443
583.0, 0.029581214478350954
584.0, 0.028036592081647216
585.0, 0.02598222509111976
586.0, 0.025071520593924947
587.0, 0.02211328128517269
588.0, 0.020589535348354806
589.0, 0.019830645207121664
590.0, 0.019144671957925397
591.0, 0.01801851904492359
592.0, 0.018082169584635033
593.0, 0.018460251696279427
594.0, 0.018755354395963854
595.0, 0.019592216160793735
596.0, 0.022240643070366353
597.0, 0.024342644473022673
598.0, 0.025894935831730113
599.0, 0.02966951217096531
600.0, 0.032270825715324344
601.0, 0.03546790699785053
602.0, 0.03941257134938143
603.0, 0.043764576034259636
604.0, 0.04638614093081072
605.0, 0.05025028984412936
606.0, 0.05357699112106657
607.0, 0.054028771905961
608.0, 0.055907471315439314
609.0, 0.05623774685015742
610.0, 0.054231441218894706
611.0, 0.0498878730255134
612.0, 0.048658533225033974
613.0, 0.044251450266050076
614.0, 0.039608613084837124
615.0, 0.035734675968579585
616.0, 0.031609044530896836
617.0, 0.027623451234619904
618.0, 0.024956055390476267
619.0, 0.02295435255307178
620.0, 0.019487523587508007
621.0, 0.01672433017568092
622.0, 0.013836495941019194
623.0, 0.011484120168694026
624.0, 0.010583513562468989
625.0, 0.010013639064743724
626.0, 0.00809551776239286
627.0, 0.006515833342215256
628.0, 0.006449072592876207
629.0, 0.007005184075081065
630.0, 0.004986431148246911
631.0, 0.004164500731482873
632.0, 0.005109514521886674
633.0, 0.00400847542264474
634.0, 0.0026927395621447444
635.0, 0.0023911021075514465
636.0, 0.002590654936105828
637.0, 0.0017703903792386966
638.0, 0.0018903385152047422
639.0, 0.0011555227602281712
640.0, 0.0002628672904515841
641.0, 7.596434389093434e-05
642.0, 0.0002237680036108295
643.0, 0.00020957208188442076
644.0, 0.0002475275557421365
645.0, 0.0005128421092348291
646.0, 0.0013178053661510767
647.0, 0.001716361893208623
648.0, 0.0015886325024124972
649.0, 0.0011264756669712563
650.0, 0.0009526851225663989
651.0, 0.0006128825337503645
652.0, 0.0010417393167328703
653.0, 0.0015588419053615963
654.0, 0.001104348830933473
655.0, 0.0008187743917682707
656.0, 0.0013556458300203395
657.0, 0.0016661766945205993
658.0, 0.0012500653177956763
659.0, 0.0022596166621409765
660.0, 0.002395515732000365
661.0, 0.0020445646620170753
662.0, 0.0016530489315149572
663.0, 0.0022121958077580507
664.0, 0.002063736307831402
665.0, 0.0024969168003661658
666.0, 0.003047418665256566
667.0, 0.002758591848758618
668.0, 0.0020756580447622835
669.0, 0.002239266518373823
670.0, 0.0023731645330737467
671.0, 0.0019268726935665085
672.0, 0.002054939196419862
673.0, 0.0012055881567983914
674.0, 0.0014424970611153587
675.0, 0.002741584975813052
676.0, 0.002753478769132158
677.0, 0.0014510703207158428
678.0, 0.001620567802989843
679.0, 0.0022793051065471944
680.0, 0.0015262014986647606
681.0, 0.0021555078074438844
682.0, 0.0021753845960356846
683.0, 0.0017213474528706434
684.0, 0.0010695071244666858
685.0, 0.0013994265161117799
686.0, 0.0012964797871520407
687.0, 0.0012556567378279675
688.0, 0.0014994367571197753
689.0, 0.002214031714112585
690.0, 0.0012994830963447802
691.0, 0.001119933773371688
692.0, 0.00128130523981475
693.0, 0.0010837060347001495
694.0, 0.0015650504122590619
695.0, 0.0015672357881961324
696.0, 0.0009931819422037101
697.0, 0.0002703442429037449
698.0, 0.0017048485540579446
699.0, 0.0011368416588928235
700.0, 0.0004473493757356551
701.0, 0.00018710506245744847
702.0, 0.0006193612304859631
703.0, 0.0004324703655151199
704.0, 0.0008042765963925391
705.0, 0.0010488027594494015
706.0, 0.0006208541314037482
707.0, 0.0002894507964669342
708.0, 0.0006764668298276698
709.0, 0.0011806459358086915
710.0, 0.0014109536128014025
711.0, 0.0008602459835711299
712.0, 0.0012222345076977079
713.0, 0.0013662839726770273
714.0, 0.0011768319546591305
715.0, 0.0007065231960814767
716.0, 0.0006743412660662852
717.0, 0.0007584503489233007
718.0, 0.0012959556214993378
719.0, 0.0021426619532888993
720.0, 0.0018758124681678271
721.0, 0.0025623051532815493
722.0, 0.003583225029113485
723.0, 0.0041214573204380375
724.0, 0.0030672569820546667
725.0, 0.0047611543646182445
726.0, 0.004443295540876857
727.0, 0.004109927088535953
728.0, 0.004963784518914116
729.0, 0.005165762567897488
730.0, 0.005229158077860873
731.0, 0.00580278271503757
732.0, 0.006723690264862006
733.0, 0.007277775383541411
734.0, 0.007607527291129696
735.0, 0.007702987788260552
736.0, 0.007984061677058204
737.0, 0.008693115235202718
738.0, 0.00874379580889725
739.0, 0.009089521643627665
740.0, 0.009303976031418693
741.0, 0.009425741980680014
742.0, 0.009914595339198612
743.0, 0.01019645764203634
744.0, 0.010703463441971749
745.0, 0.011336219680722646
746.0, 0.011941363118557067
747.0, 0.01232775181855601
748.0, 0.013398018446091021
749.0, 0.013976463144519738
750.0, 0.014071965473050162
751.0, 0.01497969834556912
752.0, 0.01576195591630051
753.0, 0.016002568772421125
754.0, 0.016538775345123585
755.0, 0.018121979331430324
756.0, 0.01845817014488784
757.0, 0.019107292263984475
758.0, 0.020234543640102666
759.0, 0.02125136009712215
760.0, 0.020258133303489904
761.0, 0.021320163245511746
762.0, 0.021084092535683382
763.0, 0.02012374316616345
764.0, 0.019575028252659082
765.0, 0.021393083872854827
766.0, 0.020013030371575494
767.0, 0.018852621050323363
768.0, 0.018996910898458737
769.0, 0.019686604722662645
770.0, 0.01774071386719063
771.0, 0.01772442802403108
772.0, 0.018342214553428167
773.0, 0.01791007118031248
774.0, 0.01693098288912768
775.0, 0.017059165822402328
776.0, 0.016974398485929694
777.0, 0.016851612310523376
778.0, 0.018284253318695265
779.0, 0.016155003572061254
780.0, 0.01718279359155641
781.0, 0.01854581550549659
782.0, 0.017742631629344467
783.0, 0.018297743820563244
784.0, 0.020171082559392164
785.0, 0.020520749159968783
786.0, 0.01977965334711384
787.0, 0.020582329480898068
788.0, 0.022091301659179715
789.0, 0.02103175916249465
790.0, 0.019884264186823847
791.0, 0.020343642487483764
792.0, 0.02096102979363469
793.0, 0.02138040151515316
794.0, 0.021774071250423032
795.0, 0.02213772786100504
796.0, 0.022410039573410156
797.0, 0.023242825537592052
798.0, 0.023352872915228994
799.0, 0.023167719441654248
800.0, 0.02315022722677015
801.0, 0.02410745667218561
802.0, 0.023800345781207797
803.0, 0.02386010831682991
804.0, 0.02403790230207991
805.0, 0.023904256868636963
806.0, 0.02619542016358856
807.0, 0.027768330432994672
808.0, 0.02845838361657738
809.0, 0.028870987690313966
810.0, 0.030741923212039668
811.0, 0.0316420387713742
812.0, 0.03145045527658798
813.0, 0.032669883248017
814.0, 0.03647056156338194
815.0, 0.03606895663926613
816.0, 0.038070031730154094
817.0, 0.04036487339584382
818.0, 0.042191850715771695
819.0, 0.04320911843054264
820.0, 0.047642136756835374
821.0, 0.05051239677105115
822.0, 0.05394680822449885
823.0, 0.0585291747062952
824.0, 0.06186574468120132
825.0, 0.06524898707510642
826.0, 0.07182064084367369
827.0, 0.07880067804609592
828.0, 0.08339820750373664
829.0, 0.09357641083485214
830.0, 0.10516357911154917
831.0, 0.11613164914678425
832.0, 0.12914467388665948
833.0, 0.15094565522523523
834.0, 0.16697859266242834
835.0, 0.19026580688631295
836.0, 0.22099104961775012
837.0, 0.2576413649423072
838.0, 0.29527583393749607
839.0, 0.3534548068505063
840.0, 0.4189549423836126
841.0, 0.4972071264391594
842.0, 0.5957313081027469
843.0, 0.7058060049160075
844.0, 0.8037211330516908
845.0, 0.8927657073639491
846.0, 0.9644687161930908
847.0, 0.9990995970965125
848.0, 0.9624865440238585
849.0, 0.9085329778305951
850.0, 0.8255369928976234
851.0, 0.71706058143013
852.0, 0.6308456864994566
853.0, 0.5473520893809039
854.0, 0.4695589906922631
855.0, 0.40644898360398596
856.0, 0.3641882132248818
857.0, 0.3144068587323766
858.0, 0.2818759648435819
859.0, 0.25735230828685757
860.0, 0.23655853237471286
861.0, 0.2168804550044699
862.0, 0.2092667026580287
863.0, 0.20083055136792843
864.0, 0.1970530521671163
865.0, 0.20035547668807477
866.0, 0.20864250504490348
867.0, 0.21191499313802625
868.0, 0.2170730933041519
869.0, 0.22342144514096446
870.0, 0.2287224375693852
871.0, 0.22660640059972495
872.0, 0.22275999285843448
873.0, 0.20983271312108948
874.0, 0.19216833640266703
875.0, 0.17801091210020656
876.0, 0.15761918800706826
877.0, 0.13901206974956776
878.0, 0.12452814857037074
879.0, 0.11221885662680452
880.0, 0.09570418442381186
881.0, 0.0873820081301575
882.0, 0.07855866428287786
883.0, 0.06903338979265346
884.0, 0.06059792315905677
885.0, 0.059743929156546347
886.0, 0.054094408303380616
887.0, 0.04902342880141237
888.0, 0.045650965515217266
889.0, 0.043971759949950937
890.0, 0.041167314968630825
891.0, 0.03836289893015179
892.0, 0.03598587956785979
893.0, 0.03410629287806207
894.0, 0.032672003018807905
895.0, 0.03190275037278013
896.0, 0.029018303079260364
897.0, 0.028237785271768928
898.0, 0.028555202616977214
899.0, 0.02501000098937722
900.0, 0.025470545381065475
901.0, 0.02446118357787075
902.0, 0.023577104983659603
903.0, 0.023612517869846413
904.0, 0.024247955749107344
905.0, 0.022852092277448277
906.0, 0.0220953845099445
907.0, 0.022422717518805174
908.0, 0.023191718704718783
909.0, 0.02081019199251298
910.0, 0.02075090767658742
911.0, 0.02105125218937258
912.0, 0.020703971518538596
913.0, 0.01966000215898371
914.0, 0.02285389948569401
915.0, 0.021892375398149973
916.0, 0.021700052086034708
917.0, 0.02238599749986127
918.0, 0.0226066630651613
919.0, 0.023021250406550085
920.0, 0.024492696826908116
921.0, 0.025460852427569708
922.0, 0.026107993969353895
923.0, 0.027655558868682196
924.0, 0.03093851151943838
925.0, 0.032905020044244386
926.0, 0.03709572180962945
927.0, 0.043517524282855144
928.0, 0.048603994552211476
929.0, 0.05704635966453313
930.0, 0.06734173254571602
931.0, 0.07665223522047922
932.0, 0.08293745687988598
933.0, 0.08500501994976738
934.0, 0.08279948699081653
935.0, 0.07669786010158444
936.0, 0.07071573035532168
937.0, 0.06737600768831489
938.0, 0.06526416955132196
939.0, 0.0656157436488641
940.0, 0.06923548539075328
941.0, 0.07186980318324278
942.0, 0.07040699519103351
943.0, 0.06786356044937715
944.0, 0.06209770402882841
945.0, 0.054844936598006724
946.0, 0.04843260161386303
947.0, 0.04433838550051839
948.0, 0.03874393529380737
949.0, 0.03524610655691502
950.0, 0.03303008247231074
951.0, 0.03147401659977531
952.0, 0.030190171089353054
953.0, 0.03086719044349309
954.0, 0.029574724108973
955.0, 0.028978459509306435
956.0, 0.03006730798578627
957.0, 0.03272846240165173
958.0, 0.03144084720186871
959.0, 0.035490014389209096
960.0, 0.03999356388958869
961.0, 0.04422851927767772
962.0, 0.049390201950769846
963.0, 0.057696118212774254
964.0, 0.06684697869903748
965.0, 0.08032998336729448
966.0, 0.0966418754331853
967.0, 0.11142693602924655
968.0, 0.12611229649400407
969.0, 0.1363703724637684
970.0, 0.13828355296113098
971.0, 0.13158188359773784
972.0, 0.11880057567473798
973.0, 0.10414536779113738
974.0, 0.08726340487266289
975.0, 0.07373461645484088
976.0, 0.0637829771455891
977.0, 0.053564538265149425
978.0, 0.04471776611343845
979.0, 0.04060092222763236
980.0, 0.03648764047471289
981.0, 0.03154492153198032
982.0, 0.02810684169265905
983.0, 0.025484891031759688
984.0, 0.021385935359120475
985.0, 0.01895515983821033
986.0, 0.01812799676631149
987.0, 0.016066761819278713
988.0, 0.014865761591639505
989.0, 0.014214840864613531
990.0, 0.012563461916306693
991.0, 0.010616805859160328
992.0, 0.01103750175691929
993.0, 0.011183792589957383
994.0, 0.010168376275556707
995.0, 0.009518938738827337
996.0, 0.009227514232547475
997.0, 0.008029002816011521
998.0, 0.008386995127190454
999.0, 0.008038011203137694
1000.0, 0.007654249158137739
1001.0, 0.007742110635251874
1002.0, 0.00859694047034689
1003.0, 0.006991285866352029
1004.0, 0.0067454013840794564
1005.0, 0.007012256047609198
1006.0, 0.0074432852291446295
1007.0, 0.007986545695486283
1008.0, 0.007425952190210667
1009.0, 0.006917078355262383
1010.0, 0.0061697720910418585
1011.0, 0.0058352228278641905
1012.0, 0.006920458461467025
1013.0, 0.005834980286775808
1014.0, 0.005351926521821968
1015.0, 0.005083391579432725
1016.0, 0.00461492786097248
1017.0, 0.0037499045333225568
1018.0, 0.005430093723970668
1019.0, 0.005432413376089193
1020.0, 0.005546066892292519
1021.0, 0.005747604117928518
1022.0, 0.005355112333172647
1023.0, 0.004686258999456112
1024.0, 0.004096317638221297
1025.0, 0.004630557367268718
1026.0, 0.005133222748356564
1027.0, 0.004350375621670716
1028.0, 0.005286041009729444
1029.0, 0.004257269744696349
1030.0, 0.004596012042610354
1031.0, 0.005630955615252452
1032.0, 0.0058288942606068185
1033.0, 0.0043760195273996605
1034.0, 0.00422296241745114
1035.0, 0.005040763388104927
1036.0, 0.00543781871804601
1037.0, 0.004606101281028811
1038.0, 0.004116436293901743
1039.0, 0.0030628027351946125
1040.0, 0.003652986474753779
1041.0, 0.004414300197973477
1042.0, 0.004013707071499759
1043.0, 0.0022973442807725647
1044.0, 0.004276566842226422
1045.0, 0.00402380270575247
1046.0, 0.003436837040595921
1047.0, 0.00352142590622826
1048.0, 0.003262371687892973
1049.0, 0.0031995007628970863
1050.0, 0.003492585013184797
1051.0, 0.0036800976021603214
1052.0, 0.0036354518519620925
1053.0, 0.0035694395528555064
1054.0, 0.0035376620631036686
1055.0, 0.003320220898680979
1056.0, 0.0033077780995069968
1057.0, 0.00339645970743363
1058.0, 0.0031731974037408875
1059.0, 0.0022405673419007266
1060.0, 0.0028803789139734406
1061.0, 0.0021860647456704496
1062.0, 0.001495773333693081
1063.0, 0.002852497392088223
1064.0, 0.002935643865448028
1065.0, 0.0019356482568122562
1066.0, 0.002279955985203934
1067.0, 0.0030353719339368253
1068.0, 0.0027541800737764443
1069.0, 0.0007007419027486254
1070.0, 0.0029744899432465814
1071.0, 0.0026211643291774397
1072.0, 0.0016293102402261215
1073.0, 0.0020024299985715484
1074.0, 0.003954934179916757
1075.0, 0.0021707085805869383
1076.0, 0.0022012683711475542
1077.0, 0.0028429097403438255
1078.0, 0.002827977456180593
1079.0, 0.0012803901193228517
1080.0, 0.0023417547417404873
1081.0, 0.002351982532685859
1082.0, 0.0018303171958810513
1083.0, 0.0021890222979897046
1084.0, 0.004371146100109377
1085.0, 0.0011406884877613371
1086.0, 0.0026499462857182813
1087.0, 0.00288295784231594
1088.0, 0.0019061963654617283
1089.0, 0.0013733837570267997
1090.0, 0.0021909727044511994
1091.0, 0.001924001167488023
1092.0, 0.002188549204224481
1093.0, 0.002613808247777105
1094.0, 0.002634043417718977
1095.0, 0.0018208558606604866
1096.0, 0.0025454275086044097
1097.0, 0.0023360314835920715
1098.0, 0.001589865216373285
1099.0, 0.0011341777053209296
1100.0, 0.0019169305499211586
1101.0, 0.0018752150519911548
1102.0, 0.002429801274156065
1103.0, 0.0028118548398129214
1104.0, 0.002244277851622174
1105.0, 0.0006950864474255024
1106.0, 0.0022340166076692206
1107.0, 0.0013323787159689984
1108.0, 0.0009960080911456872
1109.0, 0.0020344273117148637
1110.0, 0.003382482920961397
1111.0, 0.0006588334969876745
1112.0, 0.0004212063460256348
1113.0, 0.0015669201217331603
1114.0, 0.0018489147831447
1115.0, 0.0015366433646279967
1116.0, 0.0033306071024180378
1117.0, 0.0013709142240138346
1118.0, 0.00145701861909134
1119.0, 0.002038132280145388
1120.0, 0.001959106029605808
1121.0, 0.0008174629033120853
1122.0, 0.001205956062233301
1123.0, 0.001524748302946508
1124.0, 0.0007767027433662506
1125.0, 0.0007506575563195629
1126.0, 0.001991564994084033
1127.0, 0.001261857715956796
1128.0, 0.0008391367720250382
1129.0, 0.002754426596665826
1130.0, 0.002717873743955212
1131.0, 0.0009835181161053515
1132.0, 0.0016167994346835048
1133.0, 0.0003993930346630943
1134.0, 7.694611794516e-05
1135.0, 0.0003757052510818296
1136.0, 0.0006511787897991949
1137.0, 0.0003897240829400751
1138.0, 0.00010263644826279656
1139.0, 0.00025527393705289565
1140.0, 0.0006366153397006403
1141.0, 0.000899825004767823
1142.0, 0.0007727288883618108
1143.0, 0.00015278015087767058
1144.0, 4.557500204162135e-05
1145.0, 0.001580728906085133
1146.0, 0.002056004877659876
1147.0, 0.0012940809760727953
1148.0, 0.0005291263497941907
1149.0, 0.0005032340295204856
1150.0, 0.0006262043022944768
1151.0, 0.001409268234890637
1152.0, 0.0016129106282673853
1153.0, 0.000922269738562187
1154.0, 0.0014076556594886497
1155.0, 0.00328656030424216
1156.0, 0.002660222735965284
1157.0, 0.0018840937625074837
1158.0, 0.0013991382653292938
1159.0, 0.0004417071280806291
1160.0, 0.0010420752033525457
1161.0, 0.0017138446507424738
1162.0, 0.001261796270901004
1163.0, 0.0006977754023143354
1164.0, 0.0009497599441365577
1165.0, 0.0015066160825696327
1166.0, 0.0008975687565059542
1167.0, 0.000863905707276379
1168.0, 0.0009596426840589982
1169.0, 0.0010839666591240453
1170.0, 0.0013199141927978037
1171.0, 0.00026758592780895855
1172.0, 0.0012515332193329346
1173.0, 0.0011752868588273961
1174.0, 0.000576728456559198
1175.0, 0.0006479612402385937
1176.0, 0.0019070823925164573
1177.0, 0.0009464320388752436
1178.0, 0.0010725352694405629
1179.0, 0.0018589009647245788
1180.0, 0.0021450055726413906
1181.0, 0.0008828195185076387
1182.0, 0.0008208275441991717
1183.0, 0.001214989687843071
1184.0, 0.0014841615937849191
1185.0, 0.0012869842948344307
1186.0, 0.0006778497330641774
1187.0, 0.00032934237752813743
1188.0, 0.00021110114671782642
1189.0, 0.0013395052379386856
1190.0, 0.002011995242227862
1191.0, 0.0015553497350128535
1192.0, 0.0005384737815434484
1193.0, 0.002315457264459445
1194.0, 0.0008992838124885782
1195.0, 0.00050170314539961
1196.0, 0.0005746138126989455
1197.0, 0.0007101947442077925
1198.0, 0.0017221445227975736
1199.0, 0.0009528333790361019
1200.0, 0.0016509604685668647
1201.0, 0.0015029119880920348
1202.0, 0.0007798042199255941
1203.0, 0.0007082587923107914
1204.0, 0.0017278384419479717
1205.0, 0.0009478605422168204
1206.0, 0.0014010237184925785
1207.0, 0.0015593234696946426
1208.0, 0.0008416004761110237
1209.0, 3.362754877216208e-05
1210.0, 0.00012452435842028219
1211.0, 0.0004909430323842588
1212.0, 0.00048403241583238476
1213.0, 0.0006112848458934684
1214.0, 0.0010403201790791918
1215.0, 0.0006879437842765807
1216.0, 0.000904568556736045
1217.0, 0.0021742108980290654
1218.0, 0.0017931367419660952
1219.0, 0.0009561906243869799
1220.0, 0.0018852720435268624
1221.0, 0.001317781775216709
1222.0, 0.0003410729162160853
1223.0, 0.0021496572537734277
1224.0, 0.0029284469569580323
1225.0, 0.0020599996734017145
1226.0, 0.0027813452667533383
1227.0, 0.00214133543378201
1228.0, 0.0008643671289320942
1229.0, 0.0019095780742997607
1230.0, 0.0027896100936794484
1231.0, 0.001556805678324626
1232.0, 0.00031010926594224623
1233.0, 0.0037018937134601793
1234.0, 0.0017807495554405888
1235.0, 0.0010891740841088174
1236.0, 0.002839729886821715
1237.0, 0.0044387220332147564
1238.0, 0.0006629551037431024
1239.0, 0.0026639174909524476
1240.0, 0.003282879705736323
1241.0, 0.0026903965744155822
1242.0, 0.0025877837587867957
1243.0, 0.004250142441713032
1244.0, 0.0005416613192826716
1245.0, 0.0017333907193538538
1246.0, 0.003335921343062714
1247.0, 0.0027296588150870276
1248.0, 0.001026603078288964
1249.0, 0.0032063942460866437
1250.0, 0.0009968854423980267
1251.0, 0.0015557744637735703
1252.0, 0.003270224651734933
1253.0, 0.003308728578403205
1254.0, 0.0012158474311592333
1255.0, 0.002252733511669037
1256.0, 0.0024013983443569665
1257.0, 0.0022485912871487114
1258.0, 0.001715799345260721
1259.0, 0.0014964862249777936
1260.0, 0.0019502950694349954
1261.0, 0.0010511064395894538
1262.0, 0.003432354453163288
1263.0, 0.0019432436091998048
1264.0, 0.0003763022238125861
1265.0, 0.0011897158348689004
1266.0, 0.003712607867050318
1267.0, 0.0003255136303747545
1268.0, 0.0007017796940598314
1269.0, 0.0012541816677742112
1270.0, 0.0013429860470046625
1271.0, 0.0013391561570354122
1272.0, 0.001961113792660157
1273.0, 0.0015157977941669145
1274.0, 0.0013850681709191765
1275.0, 0.0020244862658158514
1276.0, 0.0016987973048061325
1277.0, 0.0002899797878103507
1278.0, 0.0001801725132826916
1279.0, 0.0005416609464042262
1280.0, 0.000658933999236172
1281.0, 0.0006438751823725594
1282.0, 0.0008043415918123558
1283.0, 0.0009874120290896027
1284.0, 0.00035199977477347647
1285.0, 0.0020615655419199347
1286.0, 0.0015584536727131421
1287.0, 0.0009373968827498801
1288.0, 0.0009612788274570483
1289.0, 0.0016424247382084086
1290.0, 0.00252360752850693
1291.0, 0.0006831850893964635
1292.0, 0.00045157098462756073
1293.0, 0.0008359394270175306
1294.0, 0.000983843614661844
1295.0, 0.0006520490635871243
1296.0, 0.0007595051248270691
1297.0, 0.000931073604807726
1298.0, 0.0004356173749783869
1299.0, 0.0009993875820779937
1300.0, 0.001311179722639517
1301.0, 0.00011719481054616918
1302.0, 0.00044044326402986817
1303.0, 0.002908667798134769
1304.0, 0.0013828471267819937
1305.0, 0.0005992156458726979
1306.0, 0.00107033860265435
1307.0, 0.001136880314364414
1308.0, 0.0005722739921214492
1309.0, 0.0007739172025283427
1310.0, 0.0020048181536417567
1311.0, 0.0020316339157608406
1312.0, 0.0016576889006400405
1313.0, 0.0022124699149830285
1314.0, 0.0010198705550846822
1315.0, 0.00027971402139227063
1316.0, 0.0012519465460438877
1317.0, 0.0011250702717042925
1318.0, 0.0005599781986641442
1319.0, 0.0014731149289359449
1320.0, 0.0029178551229239076
1321.0, 0.0010689778718243836
1322.0, 0.0017744136859123999
1323.0, 0.0015768010846147918
1324.0, 0.0005374949132883689
1325.0, 0.0006793332939361677
1326.0, 0.0029405602189686688
1327.0, 0.0006492540448087674
1328.0, 0.0006552827189103116
1329.0, 0.000885597017004322
1330.0, 0.000643480411239119
1331.0, 0.0006400064232354883
1332.0, 0.002657481791807301
1333.0, 0.0009581835029962575
1334.0, 0.0008721298501751019
1335.0, 0.0025850370149785567
1336.0, 0.002828951243322638
1337.0, 7.543619083264557e-05
1338.0, 0.00017101681960753935
1339.0, 0.0015836430186769042
1340.0, 0.0018201223385680954
1341.0, 0.001002048764453955
1342.0, 0.0008027311511705917
1343.0, 0.0016277815079180401
1344.0, 0.00043640547951768967
1345.0, 0.000968518511885752
1346.0, 0.0007180296427700993
1347.0, 0.000838762567193523
1348.0, 0.002177840008810755
1349.0, 0.0035215591863049724
1350.0, 0.001212067421810336
1351.0, 0.0006224624246370841
1352.0, 0.0016886306947132528
1353.0, 0.002034602934216777
1354.0, 0.0020361831956884663
1355.0, 0.0024775816134537266
1356.0, 0.003347644600441254
1357.0, 0.0019299555333581555
1358.0, 0.0013317691816805768
1359.0, 0.0006442654691084776
1360.0, 0.00018647226462029182
1361.0, 0.0005548816979328874
1362.0, 0.0018671864479980823
1363.0, 0.0014113950870030696
1364.0, 0.0013712852295787582
1365.0, 0.001125872125616412
1366.0, 0.0012025764078319125
1367.0, 0.0011482637227037055
1368.0, 0.0004234615828381833
1369.0, 0.00156891530509765
1370.0, 0.0020708754583550195
1371.0, 0.0026022848947881948
1372.0, 0.001768661183818593
1373.0, 0.0007753086944836409
1374.0, 0.0011371537498125618
1375.0, 0.0010324122286564873
1376.0, 0.0026324985020946138
1377.0, 0.0013941411326332085
1378.0, 0.0014672914417498803
1379.0, 0.0023674589311686966
1380.0, 0.0022647826163730003
1381.0, 0.0008907130824060128
1382.0, 0.0016475400895065804
1383.0, 0.0016766495785365194
1384.0, 0.0008326253354154832
1385.0, 0.0007149346139793043
1386.0, 0.0013714170719176582
1387.0, 0.0010640303616355554
1388.0, 0.0023649553111031534
1389.0, 0.002385779482821741
1390.0, 0.0012238115461572904
1391.0, 0.0003430305877286843
1392.0, 0.0005805444605116747
1393.0, 0.0015612226559551803
1394.0, 0.0012948006171412127
1395.0, 0.0005855134943660311
1396.0, 0.002322645076382732
1397.0, 0.002840451748437819
1398.0, 0.0024400832080160788
1399.0, 0.002220885442675266
1400.0, 0.00035633258948419974
1401.0, 0.0015800589513366493
1402.0, 0.0021428988827243475
1403.0, 0.0015091845807891544
1404.0, 0.0006193176123300742
1405.0, 0.0005241960960527643
1406.0, 0.0014791393349762308
1407.0, 0.0017735132667363513
1408.0, 0.0010081375174881004
1409.0, 0.0013662562459309461
1410.0, 0.0019991065081890473
1411.0, 0.0018968301352546926
1412.0, 0.0009233890249357481
1413.0, 0.0008054343476117965
1414.0, 0.001282901258368075
1415.0, 0.0026614655283748257
1416.0, 0.002042878814590649
1417.0, 0.0009775771571119251
1418.0, 0.0015368255815625567
1419.0, 0.002786316637172729
1420.0, 0.0009223930238793787
1421.0, 0.0007529052480276595
1422.0, 0.0008860059644700742
1423.0, 0.0006513526763179804
1424.0, 0.0008923925085189762
1425.0, 0.0024204184272615353
1426.0, 0.0003908612632417606
1427.0, 0.00019463889818300517
1428.0, 0.0013780119525872456
1429.0, 0.0014908311277465754
1430.0, 0.0006944232350758618
1431.0, 0.000994206586322808
1432.0, 0.004348249276281858
1433.0, 0.002624402151605504
1434.0, 0.0019136482876795425
1435.0, 0.00223606419496263
1436.0, 0.0018707054112047418
1437.0, 0.0010284549582032568
1438.0, 0.001617390997117307
1439.0, 0.0018890098725773876
1440.0, 0.000621319918578278
1441.0, 0.0024730442766583583
1442.0, 0.0027502262322341947
1443.0, 0.0013833649505420838
1444.0, 0.0010629277103634445
1445.0, 0.0032852554555110047
1446.0, 0.00048434475784243426
1447.0, 0.0016660564428754494
1448.0, 0.002799006454687196
1449.0, 0.0025245626842783564
1450.0, 0.0020082966510777452
1451.0, 0.0030905100766037965
1452.0, 0.0032451928850315797
1453.0, 0.0011304130625708715
1454.0, 0.002854203565481674
1455.0, 0.002927476635640897
1456.0, 0.001659956791460799
1457.0, 0.0020774617458392966
1458.0, 0.0053944480146662374
1459.0, 0.002647635191348329
1460.0, 0.0025585295897899182
1461.0, 0.004111127316099187
1462.0, 0.002852146963879801
1463.0, 0.0012615491235709545
1464.0, 0.003802840514450015
1465.0, 0.004051608027399416
1466.0, 0.00117264870704585
1467.0, 0.0038571832247447143
1468.0, 0.0035147995183925414
1469.0, 0.0013666818435698217
1470.0, 0.0014039276673728461
1471.0, 0.004496617918514323
1472.0, 0.0008049733702870817
1473.0, 0.0014782473075162519
1474.0, 0.004374540994426335
1475.0, 0.0031024060239891386
1476.0, 0.001398167858835913
1477.0, 0.003411025730191788
1478.0, 0.003915561604345096
1479.0, 0.0009275798723133697
1480.0, 0.0033443090446539916
1481.0, 0.003090894985987167
1482.0, 0.0017734491174251554
1483.0, 0.002656190115013984
1484.0, 0.0053208081923011
1485.0, 0.0008907153913021266
1486.0, 0.001828497184326305
1487.0, 0.004647872648333721
1488.0, 0.004466960073490155
1489.0, 0.003197762482685354
1490.0, 0.0030858359521490986
1491.0, 0.003517249608036872
1492.0, 0.00045405344066949227
1493.0, 0.003997839741922277
1494.0, 0.00373217411073967
1495.0, 0.0018614587700066933
1496.0, 0.0020255357031854397
1497.0, 0.0037522152978126137
1498.0, 0.0020236619349604337
1499.0, 0.0008635098915175482
1500.0, 0.0042552838349920775
1501.0, 0.0018434880904879948
1502.0, 0.0003548787255876615
1503.0, 0.002175762463270763
1504.0, 0.003955099750293712
1505.0, 0.00040568087169725784
1506.0, 0.002506095376431156
1507.0, 0.0033900363031144553
1508.0, 0.0017406647381684314
1509.0, 0.0017823781061621815
1510.0, 0.002667093794682566
1511.0, 0.0017157697407398898
1512.0, 0.0009723313497407092
1513.0, 0.0031198898942638147
1514.0, 0.001766946542825705
1515.0, 0.0008961521117281543
1516.0, 0.0021040961822741777
1517.0, 0.0028914126946303154
1518.0, 0.0009848690988071588
1519.0, 0.0011608758508777676
1520.0, 0.002563745314448631
1521.0, 0.0020787350538917105
1522.0, 0.0008250727747512172
1523.0, 7.040841315100037e-05
1524, 0.0
1525, 0.0
1526, 0.0
1527, 0.0
1528, 0.0
1529, 0.0
1530, 0.0
1531, 0.0
1532, 0.0
1533, 0.0
1534, 0.0
1535, 0.0
1536, 0.0
1537, 0.0
1538, 0.0
1539, 0.0
1540, 0.0
1541, 0.0
1542, 0.0
1543, 0.0
1544, 0.0
1545, 0.0
1546, 0.0
1547, 0.0
1548, 0.0
1549, 0.0
1550, 0.0
1551, 0.0
1552, 0.0
1553, 0.0
1554, 0.0
1555, 0.0
1556, 0.0
1557, 0.0
1558, 0.0
1559, 0.0
1560, 0.0
1561, 0.0
1562, 0.0
1563, 0.0
1564, 0.0
1565, 0.0
1566, 0.0
1567, 0.0
1568, 0.0
1569, 0.0
1570, 0.0
1571, 0.0
1572, 0.0
1573, 0.0
1574, 0.0
1575, 0.0
1576, 0.0
1577, 0.0
1578, 0.0
1579, 0.0
1580, 0.0
1581, 0.0
1582, 0.0
1583, 0.0
1584, 0.0
1585, 0.0
1586, 0.0
1587, 0.0
1588, 0.0
1589, 0.0
1590, 0.0
1591, 0.0
1592, 0.0
1593, 0.0
1594, 0.0
1595, 0.0
1596, 0.0
1597, 0.0
1598, 0.0
1599, 0.0
