30, 0.0
31, 0.0
32, 0.0
33, 0.0
34, 0.0
35, 0.0
36, 0.0
37, 0.0
38, 0.0
39, 0.0
40, 0.0
41, 0.0
42, 0.0
43, 0.0
44, 0.0
45, 0.0
46, 0.0
47, 0.0
48, 0.0
49, 0.0
50, 0.0
51, 0.0
52, 0.0
53.0, 0.0001469574288552488
54.0, 0.0012436546591182965
55.0, 0.0019707393483908756
56.0, 0.00221439392540413
57.0, 0.001761174550788265
58.0, 0.0008805354756433489
59.0, 0.0005507565834848695
60.0, 0.000668354412078335
61.0, 0.0004381720666039745
62.0, 0.0006631680350393833
63.0, 0.0010542009973318715
64.0, 0.0014538962275327265
65.0, 0.002957301202752419
66.0, 0.0054060504488818995
67.0, 0.008876147194249125
68.0, 0.014016578908868507
69.0, 0.0192272626257724
70.0, 0.023926269013113968
71.0, 0.027626445828619253
72.0, 0.03482887043765663
73.0, 0.042550281636879975
74.0, 0.05082977371304925
75.0, 0.060620292348678106
76.0, 0.07097949395555711
77.0, 0.08335575990304128
78.0, 0.09893044867377741
79.0, 0.11609588018373371
80.0, 0.1387280039785944
81.0, 0.16606575659372402
82.0, 0.19651774887990547
83.0, 0.23328170853986735
84.0, 0.2705787465927468
85.0, 0.3059247857033871
86.0, 0.3373699125587472
87.0, 0.3658536532687573
88.0, 0.38931340128395875
89.0, 0.40076117745598394
90.0, 0.388916473632093
91.0, 0.3674489147762831
92.0, 0.3402563531714471
93.0, 0.3148472889381546
94.0, 0.28984861980546806
95.0, 0.2681719923434863
96.0, 0.25667733876401405
97.0, 0.2553072212225428
98.0, 0.2697961206624315
99.0, 0.3002861835715724
100.0, 0.3078188415497363
101.0, 0.3250738558905744
102.0, 0.34950202510773454
103.0, 0.3798426464523611
104.0, 0.4061324237324633
105.0, 0.4257656714873949
106.0, 0.4371723500297178
107.0, 0.4313935797503744
108.0, 0.40989670077596885
109.0, 0.3815059871332963
110.0, 0.35276305945199943
111.0, 0.31414293273203125
112.0, 0.28071318505306436
113.0, 0.2533840253676042
114.0, 0.23018540514890995
115.0, 0.21128826568185258
116.0, 0.1956198917544762
117.0, 0.18314291102605573
118.0, 0.17143161215202854
119.0, 0.16123294180782885
120.0, 0.15289473820122487
121.0, 0.14789045138913023
122.0, 0.14211790871300886
123.0, 0.13697983716741202
124.0, 0.1331084624801358
125.0, 0.13244680112504315
126.0, 0.1298973902423777
127.0, 0.12724313209466223
128.0, 0.1277182310030576
129.0, 0.12626296046190247
130.0, 0.12648823740685144
131.0, 0.1288519012867942
132.0, 0.12925851534910968
133.0, 0.1315806611748519
134.0, 0.1341926087675955
135.0, 0.13550692411228607
136.0, 0.1395304012143881
137.0, 0.14245953198314554
138.0, 0.14483996522388037
139.0, 0.1510512105207764
140.0, 0.1541879242776613
141.0, 0.15730682231051682
142.0, 0.16207584543356998
143.0, 0.16509917407770358
144.0, 0.1682399021470569
145.0, 0.17098605784276472
146.0, 0.17191373436029275
147.0, 0.17373058482034104
148.0, 0.17490456671678772
149.0, 0.17496255629108692
150.0, 0.17379512248403423
151.0, 0.17386676818497346
152.0, 0.1735931602050865
153.0, 0.17098899087769293
154.0, 0.17268233181311723
155.0, 0.1719930817048049
156.0, 0.16914185008634525
157.0, 0.1691794667025249
158.0, 0.16903389036773875
159.0, 0.16794891718772154
160.0, 0.16536674787580177
161.0, 0.16645217525231568
162.0, 0.1664934832090525
163.0, 0.16605311631930075
164.0, 0.1664395172131823
165.0, 0.16788327539701142
166.0, 0.16928742354995696
167.0, 0.17041247936372017
168.0, 0.17166542200229215
169.0, 0.1742372119555124
170.0, 0.17733402240013954
171.0, 0.1802935182141735
172.0, 0.18422677802334078
173.0, 0.18836588081048364
174.0, 0.1926122760055112
175.0, 0.19684851429554753
176.0, 0.20181946920176694
177.0, 0.20591911875047372
178.0, 0.20854643749360197
179.0, 0.2146713113231803
180.0, 0.22233336177136795
181.0, 0.2290385145988445
182.0, 0.2307788158975384
183.0, 0.2331239566103563
184.0, 0.23619656800215835
185.0, 0.2396177073986845
186.0, 0.2411096822300758
187.0, 0.24284614419647743
188.0, 0.24151475202003722
189.0, 0.23482021227732158
190.0, 0.2313399139119441
191.0, 0.22590314083239915
192.0, 0.2185713379294822
193.0, 0.20914473437318012
194.0, 0.20057348130519836
195.0, 0.18949535154259456
196.0, 0.17594221009665115
197.0, 0.16587005025898854
198.0, 0.15522946232748336
199.0, 0.14514622493117996
200.0, 0.13651117919248995
201.0, 0.12814120993481734
202.0, 0.1199120130349247
203.0, 0.11217236888612339
204.0, 0.10586443638276496
205.0, 0.10085630401984101
206.0, 0.09650102364807381
207.0, 0.0924519112868596
208.0, 0.0867800532456962
209.0, 0.0827283805393098
210.0, 0.07946985904535511
211.0, 0.07649735645586353
212.0, 0.07348118148750907
213.0, 0.07085457986982434
214.0, 0.06827365545432654
215.0, 0.06487191211817038
216.0, 0.06268999073876211
217.0, 0.06086895177842018
218.0, 0.059145967001427456
219.0, 0.0569293250837893
220.0, 0.05425509719175994
221.0, 0.051936377818151164
222.0, 0.05062765849856971
223.0, 0.04994937430450312
224.0, 0.04761283483707126
225.0, 0.04477686063041448
226.0, 0.04404443907225035
227.0, 0.04237374223894685
228.0, 0.04087309144243574
229.0, 0.03958283837148927
230.0, 0.037109458106481655
231.0, 0.03537053869068145
232.0, 0.034123122052365354
233.0, 0.033273096750523055
234.0, 0.031197828039151842
235.0, 0.03020864885264479
236.0, 0.02964458670896606
237.0, 0.028378263009281923
238.0, 0.027034597136808607
239.0, 0.02555597023348382
240.0, 0.024008335375360037
241.0, 0.022771672028828543
242.0, 0.022585846315156664
243.0, 0.022185291111333834
244.0, 0.02098967957606149
245.0, 0.01991864880228668
246.0, 0.019238177353014335
247.0, 0.018417333769878766
248.0, 0.016764281673338394
249.0, 0.015883954846923388
250.0, 0.014908459995223623
251.0, 0.013916680515680159
252.0, 0.013433778599928845
253.0, 0.013331987253756875
254.0, 0.012714438049990093
255.0, 0.011484349783784877
256.0, 0.01179953829184134
257.0, 0.011002162703275415
258.0, 0.010040513587795268
259.0, 0.009630419104894776
260.0, 0.008722183813100144
261.0, 0.008143199181868059
262.0, 0.007663671358936009
263.0, 0.0068089067736370554
264.0, 0.0064718507640081245
265.0, 0.006109790024930275
266.0, 0.005626206728543453
267.0, 0.004987480066373692
268.0, 0.004716085589265211
269.0, 0.004302874340813003
270.0, 0.003538510899179555
271.0, 0.0028938899148945713
272.0, 0.0021238904789037142
273.0, 0.0015965687039107914
274.0, 0.0017319952403232037
275.0, 0.0015736969745528714
276.0, 0.0013183204870360235
277.0, 0.00101232102504243
278.0, 0.000731470333054209
279.0, 0.00027582532861731223
280.0, 0.0001749586401718474
281.0, 0.0005323457393153633
282.0, 0.0012913021734150022
283.0, 0.0015171437136260453
284.0, 0.001769835237318399
285.0, 0.002307341696645359
286.0, 0.002709437098827402
287.0, 0.002755085320758936
288.0, 0.0027288328805210546
289.0, 0.0029280353930143696
290.0, 0.0033040416969702603
291.0, 0.003508066818445892
292.0, 0.0035859852450629702
293.0, 0.0036759905991333697
294.0, 0.003672188433899093
295.0, 0.0038395122049439843
296.0, 0.004201113748035804
297.0, 0.0046029278166056144
298.0, 0.00483595605535679
299.0, 0.004871611202338809
300.0, 0.00473115448205613
301.0, 0.0051964354590905825
302.0, 0.005381426323594784
303.0, 0.0052761016922822195
304.0, 0.004837658150696246
305.0, 0.004065808353372906
306.0, 0.0035987131230706382
307.0, 0.003269235180940362
308.0, 0.0027525140733665908
309.0, 0.002598014262395746
310.0, 0.002185272174692496
311.0, 0.0016091163488801436
312.0, 0.0015221918865609362
313.0, 0.0013138652157022401
314.0, 0.001086486743528718
315.0, 0.0009347789212180815
316.0, 0.0013906247944906907
317.0, 0.0019303850513855646
318.0, 0.0025770876053477524
319.0, 0.003353386478097607
320.0, 0.0042949436922115735
321.0, 0.005550453618037972
322.0, 0.006816513476522283
323.0, 0.007747771480662124
324.0, 0.008055750059319246
325.0, 0.008288919834087805
326.0, 0.008676197741866204
327.0, 0.009657834424190144
328.0, 0.01068009183533357
329.0, 0.01172498735665006
330.0, 0.012742879923832929
331.0, 0.013546683193347715
332.0, 0.014148909581717533
333.0, 0.015025604203411673
334.0, 0.016239546149185838
335.0, 0.016995997744145275
336.0, 0.01810075456657458
337.0, 0.019432474888858405
338.0, 0.020889641591249005
339.0, 0.0211009374193058
340.0, 0.021948921489843315
341.0, 0.023272494525066783
342.0, 0.024959109340399774
343.0, 0.02605371041141943
344.0, 0.025733507370112898
345.0, 0.024916170736414174
346.0, 0.025165430025764872
347.0, 0.024211781325251588
348.0, 0.023630003029046956
349.0, 0.023346192512228896
350.0, 0.022662069654493324
351.0, 0.021816339505997154
352.0, 0.021293781642146632
353.0, 0.020910998390681994
354.0, 0.01920068071924269
355.0, 0.018585367736484924
356.0, 0.01758114799451963
357.0, 0.015842362965149608
358.0, 0.015626548227036057
359.0, 0.014993114204321012
360.0, 0.014068701663088396
361.0, 0.012952831633816131
362.0, 0.012874326432673723
363.0, 0.013020338494618163
364.0, 0.01296058778701228
365.0, 0.012261813809678718
366.0, 0.011156494231189012
367.0, 0.011040200408904929
368.0, 0.011206976540021236
369.0, 0.010562692092147677
370.0, 0.011491676596640592
371.0, 0.01149237801177227
372.0, 0.011171626363311416
373.0, 0.012382911194327714
374.0, 0.013456213894608927
375.0, 0.014925788479782313
376.0, 0.016619228038710056
377.0, 0.017642887022037753
378.0, 0.020038812559310393
379.0, 0.022305004640571165
380.0, 0.024306670455124395
381.0, 0.02743812910308953
382.0, 0.03189456122719237
383.0, 0.03645415875885247
384.0, 0.04075404281619846
385.0, 0.04581123339836606
386.0, 0.052683946550408
387.0, 0.06048073886766653
388.0, 0.06868067277048409
389.0, 0.0759814992063725
390.0, 0.08321649699211796
391.0, 0.08933143561705541
392.0, 0.09343687744374178
393.0, 0.09546089935124798
394.0, 0.0961104804152381
395.0, 0.09512651391684276
396.0, 0.09212309611783205
397.0, 0.09063161898266298
398.0, 0.08985842012241757
399.0, 0.09083129593157219
400.0, 0.09529057926441667
401.0, 0.10337174144326884
402.0, 0.1144410878803069
403.0, 0.12948117280014704
404.0, 0.15093618815491397
405.0, 0.1710010756673065
406.0, 0.19134674329802445
407.0, 0.2108669968203918
408.0, 0.2259587809679366
409.0, 0.2333925060129255
410.0, 0.23438073501047993
411.0, 0.22873768138369613
412.0, 0.21477377794239208
413.0, 0.19372835765571153
414.0, 0.17318073389576064
415.0, 0.15468884239892475
416.0, 0.13675037809834406
417.0, 0.12097641104890688
418.0, 0.10660248538892239
419.0, 0.09343770077670217
420.0, 0.08163909267610765
421.0, 0.07192190773590836
422.0, 0.06281942925769063
423.0, 0.054090569796967816
424.0, 0.048546013225637834
425.0, 0.043813961937759015
426.0, 0.039994138280169
427.0, 0.03699989756086325
428.0, 0.03283183377827023
429.0, 0.03010020913795005
430.0, 0.027732743433622822
431.0, 0.02520298959587905
432.0, 0.02434134466876793
433.0, 0.02369342526829073
434.0, 0.022485887111530194
435.0, 0.020248547641977324
436.0, 0.020082750445238252
437.0, 0.019029469173034705
438.0, 0.01795299871257757
439.0, 0.017553708672289482
440.0, 0.016340541990315496
441.0, 0.014858919506964545
442.0, 0.01382363380866937
443.0, 0.013932115077956426
444.0, 0.013666179877017081
445.0, 0.01242592793568723
446.0, 0.011276148937071186
447.0, 0.011393497150287393
448.0, 0.009792369854051956
449.0, 0.00881801051734741
450.0, 0.008548383185249819
451.0, 0.009051732412775947
452.0, 0.0077804393222073165
453.0, 0.007716974126336823
454.0, 0.008050012414779551
455.0, 0.007584887821896045
456.0, 0.007362131411333689
457.0, 0.006879808465972391
458.0, 0.0065331241118435825
459.0, 0.0069292072430426795
460.0, 0.005803950984977317
461.0, 0.005688842869513917
462.0, 0.005959646228075112
463.0, 0.005466734969811342
464.0, 0.00460860064972644
465.0, 0.0039258534078507904
466.0, 0.0035458125798944144
467.0, 0.0036326145624817445
468.0, 0.0035208756049625685
469.0, 0.0030759430350908493
470.0, 0.0024222232341968688
471.0, 0.0017693998411872837
472.0, 0.0010557595844368117
473.0, 0.001452736365616833
474.0, 0.001937575343912422
475.0, 0.0006583705065487717
476.0, 0.0008851195484583358
477.0, 0.0007499133282800083
478.0, 0.000412280852773347
479.0, 0.0003629396542469434
480.0, 0.0003208858593766622
481.0, 0.0003603066704854174
482.0, 0.0004186370149449242
483.0, 0.0003844213855053497
484.0, 0.000595351274478717
485.0, 0.0004713857970256922
486.0, 0.00017197252856466046
487.0, 1.1823866093768154e-05
488.0, 1.707468997450429e-05
489.0, 2.6445530529145848e-05
490.0, 0.000198685815709849
491.0, 0.0007993556642121027
492.0, 0.0003608717933353651
493.0, 0.00017528271501586145
494.0, 0.00025833939555630923
495.0, 0.0005337513844952655
496.0, 0.00021854201460591458
497.0, 0.0002635232631383786
498.0, 0.00047970275013477524
499.0, 0.0005565483323677812
500.0, 0.0005605675302308113
501.0, 0.0011843257164277285
502.0, 0.001642289694542188
503.0, 0.0009400916279653994
504.0, 0.0013524055454448374
505.0, 0.00145974545729227
506.0, 0.001336127297212914
507.0, 0.0010961365636722627
508.0, 0.001769586531789612
509.0, 0.002010240865217001
510.0, 0.002068926714142725
511.0, 0.0022015987620792508
512.0, 0.001967452374938087
513.0, 0.002277627712895767
514.0, 0.0025487757145543815
515.0, 0.002294423866875266
516.0, 0.0024370071768576636
517.0, 0.002476658611754837
518.0, 0.0026254653033690105
519.0, 0.002976671525010392
520.0, 0.002182244481077535
521.0, 0.0026177154886352165
522.0, 0.0031669421799484336
523.0, 0.0031195175871882408
524.0, 0.0026040379285489695
525.0, 0.002993211633786651
526.0, 0.0032309077380375337
527.0, 0.0029030241987626606
528.0, 0.0034949453294766406
529.0, 0.0041554253719635085
530.0, 0.004692788654409325
531.0, 0.005058111700431611
532.0, 0.005511613047404364
533.0, 0.005245526012631327
534.0, 0.005543101359038008
535.0, 0.006596975171374981
536.0, 0.007001360964739679
537.0, 0.007453895645803554
538.0, 0.007393371526534619
539.0, 0.0071441358624482094
540.0, 0.00858093729975891
541.0, 0.008670235181579479
542.0, 0.009303825045110327
543.0, 0.010290467047366268
544.0, 0.00984292602705023
545.0, 0.011202319800550144
546.0, 0.012541656158374817
547.0, 0.013826081612436515
548.0, 0.015633407560139593
549.0, 0.01797871592677045
550.0, 0.0197285753085133
551.0, 0.02118273932049301
552.0, 0.023057979967978086
553.0, 0.022942773673359552
554.0, 0.023039065002837786
555.0, 0.022580167706301422
556.0, 0.020406624356584014
557.0, 0.018198145178403777
558.0, 0.015776907920596585
559.0, 0.013581639454346471
560.0, 0.012031427708640189
561.0, 0.010606683581909622
562.0, 0.010530372561585191
563.0, 0.010273903858751304
564.0, 0.008923530178272436
565.0, 0.00944314539982025
566.0, 0.009443300674551219
567.0, 0.009283616977912254
568.0, 0.00924927093149581
569.0, 0.010053545766099093
570.0, 0.009979216315545695
571.0, 0.009978712105811091
572.0, 0.010251301362528659
573.0, 0.010043072316541904
574.0, 0.01036102700132835
575.0, 0.010754732919540091
576.0, 0.011011906698129183
577.0, 0.010831442012462014
578.0, 0.010175595117268859
579.0, 0.010308773787337897
580.0, 0.010975210239951311
581.0, 0.01120602654510966
582.0, 0.01045167099860041
583.0, 0.010178501053135008
584.0, 0.010202296793782241
585.0, 0.01007271372533904
586.0, 0.009181441282941046
587.0, 0.008971139043212697
588.0, 0.008944233040756335
589.0, 0.008580289060078284
590.0, 0.008396324646670493
591.0, 0.008208709787620345
592.0, 0.007957844431895714
593.0, 0.0076302554165225715
594.0, 0.0074941502487518175
595.0, 0.007118547290844682
596.0, 0.006763092497550964
597.0, 0.006518439176639834
598.0, 0.006262238160419286
599.0, 0.006241389564484201
600.0, 0.00634470524895457
601.0, 0.006669985566538965
602.0, 0.007618698155729794
603.0, 0.007072153724932086
604.0, 0.0071492521114140395
605.0, 0.007579188040190458
606.0, 0.007201172645393563
607.0, 0.006701001816614254
608.0, 0.006314660319970182
609.0, 0.00621917065754393
610.0, 0.006597683303560417
611.0, 0.00631456228491456
612.0, 0.006545381426990458
613.0, 0.006582863029559527
614.0, 0.005995245258301088
615.0, 0.006358148751176254
616.0, 0.006513255942858034
617.0, 0.0063140243144305715
618.0, 0.005871570653346202
619.0, 0.006201887626991364
620.0, 0.0059738748904269974
621.0, 0.0057644719958749825
622.0, 0.005722138494596356
623.0, 0.005809543926081173
624.0, 0.005637611464110657
625.0, 0.005618713000319917
626.0, 0.0056013481251740325
627.0, 0.005221786596197916
628.0, 0.005490954595374133
629.0, 0.005636710814109422
630.0, 0.005501598551779964
631.0, 0.005019546308103498
632.0, 0.005817691663835085
633.0, 0.005520321936824907
634.0, 0.004882973762826509
635.0, 0.004403775488052229
636.0, 0.004254934925645109
637.0, 0.004544333728100328
638.0, 0.004134083465387655
639.0, 0.0032127890652710457
640.0, 0.0038738510884096045
641.0, 0.004009370247263868
642.0, 0.003454587064107988
643.0, 0.002787852592627287
644.0, 0.003177378834017959
645.0, 0.0030481045447231835
646.0, 0.0026716483799283054
647.0, 0.0026185630883706467
648.0, 0.0034039174083199107
649.0, 0.0025844539158981655
650.0, 0.002584405748488661
651.0, 0.0022977299679662845
652.0, 0.001394099127700298
653.0, 0.0023380438471071407
654.0, 0.0016128382547942566
655.0, 0.0013091558861005874
656.0, 0.0015867975621480326
657.0, 0.0008033783727880305
658.0, 0.0010562751320792674
659.0, 0.0017034694000676687
660.0, 0.0020316095848058593
661.0, 0.0010419085535202347
662.0, 0.0012497379549300254
663.0, 0.0009011021265065883
664.0, 0.0007194974253824332
665.0, 0.001277958342219989
666.0, 0.0008719275192556805
667.0, 0.0006495569106250273
668.0, 0.0004205172546947768
669.0, 0.0002734787530912257
670.0, 0.0010495802625043614
671.0, 0.0010887220808100892
672.0, 0.0008847131270135615
673.0, 0.0008160738207272371
674.0, 0.0014666036973698111
675.0, 0.0006995517058560068
676.0, 0.0002297195607937055
677.0, 0.0002772909680370575
678.0, 0.0008718143920297063
679.0, 0.00023693322445736048
680.0, 0.0002095868151262278
681.0, 0.0003630774030699761
682.0, 0.0004812566264734195
683.0, 0.0007717469898667645
684.0, 0.0004234995010960879
685.0, 0.0002415717829352377
686.0, 0.0003410859330829055
687.0, 0.00046596210482452606
688.0, 0.00024360717307116082
689.0, 8.223653435825075e-05
690.0, 0.0001704047603404058
691.0, 0.0006491606077275273
692.0, 0.0002505331419914989
693.0, 0.00010019705553371512
694.0, 0.00014334365802468833
695.0, 0.00027347720879412045
696.0, 7.186154205902974e-05
697.0, 0.00047833493387456364
698.0, 0.0005435896252973301
699.0, 0.0003379864296713416
700.0, 0.0006645153408278492
701.0, 0.0005067482997521858
702.0, 0.0002605771837757153
703.0, 0.00039065240365427565
704.0, 0.0012835430950561958
705.0, 0.000470147641155764
706.0, 0.00020279656452780242
707.0, 0.0001559116523763351
708.0, 0.00022505027894282817
709.0, 0.0008209463637647551
710.0, 0.000769521886548963
711.0, 0.0006606630150848055
712.0, 0.000555604448353192
713.0, 0.0003037056630838852
714.0, 0.0013159722108281808
715.0, 0.0009955113359241966
716.0, 0.0006158735663380917
717.0, 0.0013729781447661767
718.0, 0.0012729031560273346
719.0, 0.0011736750556862738
720.0, 0.0008887355316245324
721.0, 0.0006086767039191426
722.0, 0.0013147247815935496
723.0, 0.000951408905061752
724.0, 0.0008020050116687579
725.0, 0.0009327995803077814
726.0, 0.0011339969768197715
727.0, 0.0007799469133249042
728.0, 0.0007012599040835108
729.0, 0.0006746494120973452
730.0, 0.0005443361693501297
731.0, 0.00033574168913169916
732.0, 0.00039685936337602605
733.0, 0.0003583498339841702
734.0, 0.0002973478604732811
735.0, 0.000626337687761398
736.0, 0.0004700061963452159
737.0, 0.0006239825618117305
738.0, 0.0009634004616815285
739.0, 0.0012362748805478637
740.0, 0.0005099957363071159
741.0, 0.000795560577058988
742.0, 0.0011089035989613892
743.0, 0.0010432184825319708
744.0, 0.0006304760594007468
745.0, 0.00037957074207079145
746.0, 0.0001878613582214053
747.0, 6.4095008306582e-05
748.0, 3.773965188720338e-05
749.0, 0.0002682232573911202
750.0, 0.0002568358877125649
751.0, 0.00024410175070662356
752.0, 0.00032033165852531813
753.0, 0.0002533704988170671
754.0, 0.001075084222105552
755.0, 0.0008879393302870807
756.0, 0.00019072821874338688
757.0, 0.000468674614839503
758.0, 0.0013633914345362384
759.0, 0.0013828460563243025
760.0, 0.0014480984482810324
761.0, 0.0020292186171491445
762.0, 0.001812273971182877
763.0, 0.002920718853286328
764.0, 0.003365175519582409
765.0, 0.0029535492778136564
766.0, 0.002356653083580571
767.0, 0.003997972492571581
768.0, 0.004522373436781616
769.0, 0.004895914631067877
770.0, 0.005857967500964067
771.0, 0.00601820786523077
772.0, 0.0066197022466252
773.0, 0.0075064400422237484
774.0, 0.008440808713764928
775.0, 0.008993099548349332
776.0, 0.010691434679237957
777.0, 0.012165492831666465
778.0, 0.013574796375682463
779.0, 0.01510245910317576
780.0, 0.016486066988306947
781.0, 0.017852120182328686
782.0, 0.019136210588715917
783.0, 0.020344647183485547
784.0, 0.021541930020927497
785.0, 0.022662159249580375
786.0, 0.02364430681282663
787.0, 0.02409498082614921
788.0, 0.023867543523650343
789.0, 0.024584586096900656
790.0, 0.0228503987379461
791.0, 0.021426624222235503
792.0, 0.02039419685422526
793.0, 0.017937520002401085
794.0, 0.01575065002554435
795.0, 0.015174034814044274
796.0, 0.014617129084587102
797.0, 0.01316480153282938
798.0, 0.014825929838704677
799.0, 0.014709443313253395
800.0, 0.015234429175853843
801.0, 0.016391386232486302
802.0, 0.01671154275055986
803.0, 0.01853281902403692
804.0, 0.020648557282562426
805.0, 0.02257986838438015
806.0, 0.024551175856377786
807.0, 0.030053504151521786
808.0, 0.036077411093010374
809.0, 0.04403120153538932
810.0, 0.05544460582203913
811.0, 0.0721405129693695
812.0, 0.09840930729842803
813.0, 0.1349082251429401
814.0, 0.18212461201025087
815.0, 0.23949129616471215
816.0, 0.304933361616143
817.0, 0.36355141597755486
818.0, 0.40339259888574713
819.0, 0.4191082731207621
820.0, 0.40737336466156315
821.0, 0.3536644723128836
822.0, 0.2913061326894175
823.0, 0.23322061214535325
824.0, 0.18458601042355885
825.0, 0.1413022240682776
826.0, 0.1123760062703211
827.0, 0.08995066612210485
828.0, 0.07302324284808084
829.0, 0.061080676591425
830.0, 0.053088785970638666
831.0, 0.045762976647211275
832.0, 0.03954422918769186
833.0, 0.03475148144491821
834.0, 0.03172190935329432
835.0, 0.02982691382843424
836.0, 0.027380088262784652
837.0, 0.025352017772908346
838.0, 0.0243780648712012
839.0, 0.023474642501886342
840.0, 0.02187187954357196
841.0, 0.02092602834937018
842.0, 0.020066248104607866
843.0, 0.018018363940225768
844.0, 0.01692756268763078
845.0, 0.01670686805216383
846.0, 0.01676870521002456
847.0, 0.016847198324078723
848.0, 0.017105373970116158
849.0, 0.016894517194340285
850.0, 0.0168736900694234
851.0, 0.017089359877591984
852.0, 0.01734528766674547
853.0, 0.0161023859571732
854.0, 0.014492963325005059
855.0, 0.01331430172446082
856.0, 0.012087384430853663
857.0, 0.009458644743351258
858.0, 0.008613821508710229
859.0, 0.007178004735360786
860.0, 0.0060432423975299255
861.0, 0.0057154162670950085
862.0, 0.00590614511924185
863.0, 0.0044474349115287935
864.0, 0.003996374623204809
865.0, 0.0037318554625678725
866.0, 0.002545348754146217
867.0, 0.0034368383770603163
868.0, 0.0028927054665903603
869.0, 0.0018183399836568157
870.0, 0.0008555187678484337
871.0, 0.0006657581020090718
872.0, 0.0008931565520367439
873.0, 0.0005685952350977639
874.0, 0.00045605563078875226
875.0, 0.0007499420268068011
876.0, 0.00019325734773668115
877.0, 0.0005445176262768882
878.0, 0.0008428426551331937
879.0, 0.001102285553276876
880.0, 0.0013874861333165241
881.0, 0.000648688937915268
882.0, 0.0007468533448804863
883.0, 0.000636665940628656
884.0, 0.0003591031311205037
885.0, 0.0005859664741086186
886.0, 0.00030368236240046716
887.0, 0.0008609381578142234
888.0, 0.0016477408327524171
889.0, 0.0021908899393944725
890.0, 0.002131547524029505
891.0, 0.003391698506756923
892.0, 0.003642710524009888
893.0, 0.003708061265512958
894.0, 0.0045351795892603465
895.0, 0.005859737223351096
896.0, 0.005990232465664689
897.0, 0.006415449603614524
898.0, 0.007766627260491558
899.0, 0.01027192366027602
900.0, 0.010847788517912073
901.0, 0.012287603268636305
902.0, 0.014357336795615213
903.0, 0.0170089962631733
904.0, 0.0203666407751694
905.0, 0.02340481393142533
906.0, 0.028654129370573485
907.0, 0.03502901846287992
908.0, 0.04170583471414463
909.0, 0.04878889271730743
910.0, 0.05860264830683842
911.0, 0.07143954275742752
912.0, 0.08825557073393933
913.0, 0.11016185717297533
914.0, 0.14047297579273263
915.0, 0.18771651867107308
916.0, 0.2428895826373462
917.0, 0.30146949755776725
918.0, 0.3597286010458246
919.0, 0.4134049850506507
920.0, 0.43110594971987176
921.0, 0.42324235053752346
922.0, 0.3978890096708782
923.0, 0.36330775132856635
924.0, 0.3275769870897774
925.0, 0.29541714880485365
926.0, 0.2694480648870536
927.0, 0.2505968374326124
928.0, 0.23741084341062627
929.0, 0.23186607419858446
930.0, 0.23248277348131424
931.0, 0.2393053739591452
932.0, 0.2521055371965998
933.0, 0.27058867158752065
934.0, 0.2975226693027575
935.0, 0.3316747346918022
936.0, 0.3718755509658359
937.0, 0.41779565577065286
938.0, 0.4811324144607132
939.0, 0.5427600071031939
940.0, 0.6151877730269469
941.0, 0.6978224352605235
942.0, 0.7833292110940744
943.0, 0.8596121617498
944.0, 0.9173914579660198
945.0, 0.9619994413122063
946.0, 0.9918839615341674
947.0, 0.9999276071891054
948.0, 0.9597792101736832
949.0, 0.9013407702108336
950.0, 0.8322265178175279
951.0, 0.7576167537731369
952.0, 0.6795905863781587
953.0, 0.6030521313823324
954.0, 0.5311635108301355
955.0, 0.47007527257871073
956.0, 0.42076642165008094
957.0, 0.37241911443589887
958.0, 0.33293387151332954
959.0, 0.29759048301631
960.0, 0.2675271448728004
961.0, 0.24277112406775334
962.0, 0.21706417777682255
963.0, 0.19689894725218018
964.0, 0.18036151933553668
965.0, 0.16546833635989466
966.0, 0.15067733834184802
967.0, 0.1387150669858998
968.0, 0.12892614882980324
969.0, 0.11938681422862403
970.0, 0.11083475443757035
971.0, 0.10446326049274504
972.0, 0.09741908101609323
973.0, 0.09444903266358674
974.0, 0.09060496136854498
975.0, 0.08612349153898678
976.0, 0.08350806412848949
977.0, 0.08168454449606326
978.0, 0.07903707599479518
979.0, 0.07694119005893997
980.0, 0.07514584209747295
981.0, 0.07241539153679591
982.0, 0.07215083265323552
983.0, 0.07151197477317714
984.0, 0.06826645249370236
985.0, 0.06398504462024908
986.0, 0.06367316818643286
987.0, 0.05948654138833857
988.0, 0.056501871692586726
989.0, 0.054382988908582106
990.0, 0.05264941577696145
991.0, 0.050632635827596494
992.0, 0.04833407550723762
993.0, 0.046278230715409534
994.0, 0.04477317554811463
995.0, 0.0436442182269327
996.0, 0.04205370452781718
997.0, 0.042333436965207145
998.0, 0.042518402930639104
999.0, 0.041976296422457295
1000.0, 0.041159566155869076
1001.0, 0.042232787298238886
1002.0, 0.04361577626497197
1003.0, 0.04524062787205789
1004.0, 0.04657090410525344
1005.0, 0.0478317091116186
1006.0, 0.050707281346348464
1007.0, 0.05205728993173693
1008.0, 0.05435235949980995
1009.0, 0.057835627174353796
1010.0, 0.062123418623226366
1011.0, 0.06592207989251336
1012.0, 0.07090428361413152
1013.0, 0.07645565312805074
1014.0, 0.08141192394708309
1015.0, 0.08554305591060833
1016.0, 0.09057161380461129
1017.0, 0.09657477632753676
1018.0, 0.10351950603433652
1019.0, 0.10937324687278799
1020.0, 0.11337775976604866
1021.0, 0.11756185760921481
1022.0, 0.12176635514156155
1023.0, 0.12246217324751066
1024.0, 0.12314302881044775
1025.0, 0.12465880934916193
1026.0, 0.1214592852085347
1027.0, 0.11931656543277122
1028.0, 0.11548911430120874
1029.0, 0.11170493767672555
1030.0, 0.10839999620043793
1031.0, 0.10298989265152422
1032.0, 0.0986391858867854
1033.0, 0.09514699566022532
1034.0, 0.09156305876553086
1035.0, 0.08737975614020878
1036.0, 0.0828798334541807
1037.0, 0.07977500849165219
1038.0, 0.07656416186500692
1039.0, 0.07318715699517729
1040.0, 0.06983074914914199
1041.0, 0.0669567961444234
1042.0, 0.063569931999903
1043.0, 0.06045627219932689
1044.0, 0.058309657125939704
1045.0, 0.05647255799343231
1046.0, 0.05260394216037966
1047.0, 0.05100898811401752
1048.0, 0.048415440615532684
1049.0, 0.046755573402440034
1050.0, 0.04577749498958702
1051.0, 0.042969906863438205
1052.0, 0.04270983725947213
1053.0, 0.04051907436473527
1054.0, 0.03794077218712871
1055.0, 0.035691085500043386
1056.0, 0.033782373481796225
1057.0, 0.03193967396418235
1058.0, 0.03028279554077469
1059.0, 0.028894657366511523
1060.0, 0.02777467623176009
1061.0, 0.026850298512472552
1062.0, 0.025885813131600165
1063.0, 0.024963371916674856
1064.0, 0.024005784910474767
1065.0, 0.02314253718231003
1066.0, 0.02254974486915337
1067.0, 0.021978638118583763
1068.0, 0.021455518732658965
1069.0, 0.020165611487998378
1070.0, 0.01926098130009261
1071.0, 0.019943556607579148
1072.0, 0.02002474271186689
1073.0, 0.01890836781740465
1074.0, 0.01935325628795812
1075.0, 0.020064520058119793
1076.0, 0.01940875094216722
1077.0, 0.01783217037788182
1078.0, 0.018347524015073363
1079.0, 0.018768932043910096
1080.0, 0.018534255165726744
1081.0, 0.01780880362982153
1082.0, 0.017927320376331317
1083.0, 0.01793494099622214
1084.0, 0.0170004960220216
1085.0, 0.01651943335938389
1086.0, 0.016591933174418653
1087.0, 0.015103354697214657
1088.0, 0.015973519553792795
1089.0, 0.015559942130014194
1090.0, 0.015251399214884984
1091.0, 0.015251431281477025
1092.0, 0.014556527787429554
1093.0, 0.014061082769293116
1094.0, 0.013943514458933512
1095.0, 0.013740600850630315
1096.0, 0.013313998346349602
1097.0, 0.012705789356348293
1098.0, 0.011734614260243298
1099.0, 0.011963466794335693
1100.0, 0.010782358237887143
1101.0, 0.009470718486474124
1102.0, 0.009789915175028346
1103.0, 0.009096692227590861
1104.0, 0.00829379641366734
1105.0, 0.007809665250701745
1106.0, 0.007308015401576303
1107.0, 0.006742129619316906
1108.0, 0.007240076273895279
1109.0, 0.005011226489707322
1110.0, 0.0048330248668366025
1111.0, 0.005060797429368535
1112.0, 0.004541888543764565
1113.0, 0.0036360580024020067
1114.0, 0.0035359368632915363
1115.0, 0.0030245870283387836
1116.0, 0.0028387837336520836
1117.0, 0.003230781955454452
1118.0, 0.0039782199118550765
1119.0, 0.004088238731169591
1120.0, 0.004781754319527491
1121.0, 0.005726403922794765
1122.0, 0.006815352125530293
1123.0, 0.00796701533385634
1124.0, 0.008764464005409022
1125.0, 0.010889519727556245
1126.0, 0.012920371076611805
1127.0, 0.015196513376556938
1128.0, 0.017835031209926057
1129.0, 0.019542650776068596
1130.0, 0.017800811549185017
1131.0, 0.015431665671947285
1132.0, 0.012788854190386693
1133.0, 0.010316959093088447
1134.0, 0.00870559605220157
1135.0, 0.007385859171941375
1136.0, 0.007610785582789864
1137.0, 0.0068892060194326865
1138.0, 0.005892886416557101
1139.0, 0.006682130622276362
1140.0, 0.007028598375879635
1141.0, 0.006794484466893674
1142.0, 0.006503203421693467
1143.0, 0.006769734087182985
1144.0, 0.007723398538458615
1145.0, 0.00793149633653841
1146.0, 0.00895150181231064
1147.0, 0.009656301625939367
1148.0, 0.009875730015786255
1149.0, 0.00966526803308941
1150.0, 0.009260757300490901
1151.0, 0.009730919583875642
1152.0, 0.009624197956535605
1153.0, 0.00903255235121273
1154.0, 0.008336048414448414
1155.0, 0.008030518234180651
1156.0, 0.008229042290351412
1157.0, 0.006836842266446657
1158.0, 0.00627882419735544
1159.0, 0.005855691205230435
1160.0, 0.004914876540555906
1161.0, 0.005085943978238887
1162.0, 0.00388794590408335
1163.0, 0.0036528532904641703
1164.0, 0.0034510736307320957
1165.0, 0.0028225684636322963
1166.0, 0.002128979128712488
1167.0, 0.00184667810556495
1168.0, 0.00127920570916943
1169.0, 0.0010448653916219285
1170.0, 0.0008122379171265535
1171.0, 0.00015330739371968374
1172.0, 0.0003205857595277577
1173.0, 0.0006506081794126366
1174.0, 0.0007447178107598475
1175.0, 0.0007934637133046112
1176.0, 0.0008317878049219398
1177.0, 0.0004693946237332594
1178.0, 0.0006633518375076038
1179.0, 0.00046994252400001796
1180.0, 0.0003797820531227899
1181.0, 0.00047728746897281264
1182.0, 0.0005920750514691297
1183.0, 0.0009707380424921479
1184.0, 0.0006193951981834827
1185.0, 0.0009110151824892231
1186.0, 0.0010030613135858393
1187.0, 0.00038372442066234166
1188.0, 0.0005549855693749075
1189.0, 0.0012277399716439448
1190.0, 0.0009327439084169369
1191.0, 0.00041863579444105417
1192.0, 0.00027070999708688316
1193.0, 0.0006630951474863652
1194.0, 0.00026588655941189323
1195.0, 0.00048348993249815745
1196.0, 0.0006433281507129665
1197.0, 0.0005195188807341647
1198.0, 0.0003483261309239886
1199.0, 0.0012373189525091309
1200.0, 0.00030940867438532943
1201.0, 0.00019278093995792547
1202.0, 0.0005414419696152988
1203.0, 0.0009184425801903023
1204.0, 0.0009846689849808406
1205.0, 0.000144514670298082
1206.0, 0.0006291697395278301
1207.0, 0.0011735305131846596
1208.0, 0.0013651144704197498
1209.0, 0.0012250918745105792
1210.0, 0.0012019736623649273
1211.0, 0.0015275362846946662
1212.0, 0.000756651157283145
1213.0, 0.00016537173290898392
1214.0, 0.00024683978165761136
1215.0, 0.0006166357802087407
1216.0, 0.0008583234378912091
1217.0, 0.0006376396780219245
1218.0, 0.00038019846636142067
1219.0, 0.000639242457044848
1220.0, 0.0011903222388852355
1221.0, 4.094459956466485e-05
1222.0, 0.0002615462728229713
1223.0, 0.0004224943432028441
1224.0, 0.0003567134894485828
1225.0, 0.000287476555393252
1226.0, 0.0005089396150100142
1227.0, 9.342479420581834e-05
1228.0, 0.0005181054787391014
1229.0, 0.0003343812916474039
1230.0, 1.7658909411137584e-05
1231.0, 0.00018713960890459088
1232.0, 0.0009843607092097895
1233.0, 0.0006290838627207873
1234.0, 0.00020525112921791167
1235.0, 0.00011122888499140896
1236.0, 0.0002656736176795164
1237.0, 0.0004222391845100875
1238.0, 0.0007450919349771569
1239.0, 0.0008683803173560299
1240.0, 0.0010450268836357688
1241.0, 0.001112719363731468
1242.0, 0.001117588479644174
1243.0, 0.0013184640264343325
1244.0, 0.0009583267142350334
1245.0, 0.0005661851995582346
1246.0, 0.0005373187261388191
1247.0, 0.0005370548628119909
1248.0, 0.0002587909404093156
1249.0, 1.757599128030256e-05
1250.0, 0.00010470657254100668
1251.0, 0.00042118952938975093
1252.0, 0.0004754677839703267
1253.0, 0.0003419946387213229
1254.0, 0.00047798403173590924
1255.0, 0.0012908254651397585
1256.0, 0.0006461408633211763
1257.0, 0.00033307086378382494
1258.0, 0.0005496040420009462
1259.0, 0.0009385335369187553
1260.0, 0.0008199623672184787
1261.0, 0.00013398465980568846
1262.0, 4.371469795192638e-05
1263.0, 0.0002027678086475721
1264.0, 0.0002722636877325216
1265.0, 0.0001595049516650214
1266.0, 0.0003265814483258574
1267.0, 0.00035793102490039563
1268.0, 0.0004828545047134482
1269.0, 0.000622772006049454
1270.0, 0.0005125751762062779
1271.0, 0.00010220815514753643
1272.0, 0.0007550428109760415
1273.0, 0.0005491364385440547
1274.0, 0.0007171728034884497
1275.0, 0.0012640313440761075
1276.0, 0.0017605879508236014
1277.0, 0.0016586492984352313
1278.0, 0.00181438222086137
1279.0, 0.001330487804472655
1280.0, 0.0014577149390891113
1281.0, 0.0015661020514318314
1282.0, 0.001311822546238913
1283.0, 0.0015454758014654677
1284.0, 0.0012616062790079185
1285.0, 0.0019139766615664825
1286.0, 0.0016406402660854608
1287.0, 0.001270019684739504
1288.0, 0.0018348396823379813
1289.0, 0.0018842384437588837
1290.0, 0.0010635108689792938
1291.0, 0.0014589515864700494
1292.0, 0.0019422895671508573
1293.0, 0.0021131508295934662
1294.0, 0.0022017136825727827
1295.0, 0.002584071607048949
1296.0, 0.002516378963132249
1297.0, 0.0024859581560235646
1298.0, 0.0024317409162184496
1299.0, 0.0023496445955420563
1300.0, 0.0023208779699200586
1301.0, 0.002306617565181286
1302.0, 0.002431963832524477
1303.0, 0.002287819973856376
1304.0, 0.0025741899528110646
1305.0, 0.0029753618653817243
1306.0, 0.0020733404399567255
1307.0, 0.0033407179202733298
1308.0, 0.0029599277994406792
1309.0, 0.0028125327722875347
1310.0, 0.0030280734572325574
1311.0, 0.0030915813226995775
1312.0, 0.002367213982567747
1313.0, 0.0029434530402274533
1314.0, 0.0021312834669891733
1315.0, 0.002404033412807886
1316.0, 0.00285575906205055
1317.0, 0.0025655958987472775
1318.0, 0.0032268727644293956
1319.0, 0.0026016143083975618
1320.0, 0.002957746730105319
1321.0, 0.003242888127529688
1322.0, 0.0030814922652035075
1323.0, 0.0027483972439521606
1324.0, 0.003231550567866772
1325.0, 0.003189532886714223
1326.0, 0.004017741062181782
1327.0, 0.0038585238200766333
1328.0, 0.0028267694936807246
1329.0, 0.002164831447955059
1330.0, 0.0027731520050372723
1331.0, 0.002707780241835927
1332.0, 0.0029048705273966905
1333.0, 0.0030162099847132065
1334.0, 0.0030268516075753773
1335.0, 0.0031371933896427394
1336.0, 0.00334463032912166
1337.0, 0.0032691900567933543
1338.0, 0.003261982662377471
1339.0, 0.003175623371924946
1340.0, 0.003187101347274507
1341.0, 0.0034879332024889617
1342.0, 0.003283925688669398
1343.0, 0.0032572893798817407
1344.0, 0.0035097228819238506
1345.0, 0.0038742353801152706
1346.0, 0.003919036816730548
1347.0, 0.0034328620747581095
1348.0, 0.0038481187452616265
1349.0, 0.004287856849706728
1350.0, 0.0036452824072556347
1351.0, 0.0035789677793436666
1352.0, 0.0038791379357122372
1353.0, 0.0033261919054963247
1354.0, 0.003748664586969876
1355.0, 0.0034782640646821186
1356.0, 0.003074032770664903
1357.0, 0.0031919232580869105
1358.0, 0.0033819098204135784
1359.0, 0.0029303351958675315
1360.0, 0.00368882528581004
1361.0, 0.0030408032835633047
1362.0, 0.002620285068824898
1363.0, 0.0030927797861092328
1364.0, 0.003645080637913699
1365.0, 0.003210258046212282
1366.0, 0.0037003664216566272
1367.0, 0.003279365364470083
1368.0, 0.0029791587284816734
1369.0, 0.002940874605909268
1370.0, 0.002947484202762464
1371.0, 0.002748453471175227
1372.0, 0.0026525485045013845
1373.0, 0.002455139699838053
1374.0, 0.0026658918661215006
1375.0, 0.0027136643301554487
1376.0, 0.002938175522433248
1377.0, 0.0036389519932869298
1378.0, 0.0032748152996387603
1379.0, 0.0032381846921121214
1380.0, 0.003475601869607131
1381.0, 0.0034378019077157536
1382.0, 0.003415844995477327
1383.0, 0.003654485635658348
1384.0, 0.003212662586429799
1385.0, 0.0027914831263789065
1386.0, 0.0031552781719943026
1387.0, 0.0030966626437227886
1388.0, 0.0031007838864340626
1389.0, 0.003510643213484127
1390.0, 0.0029882616463785118
1391.0, 0.0018442690115857497
1392.0, 0.0022055054252095706
1393.0, 0.0019908764696985088
1394.0, 0.0018930150534121298
1395.0, 0.0022983366396364248
1396.0, 0.0018448374084296853
1397.0, 0.0018676429608844908
1398.0, 0.0019537282454878007
1399.0, 0.002130495038863597
1400.0, 0.0022271442567462765
1401.0, 0.0022061908565348108
1402.0, 0.002252754228720217
1403.0, 0.0025756441234643834
1404.0, 0.0022819271541826788
1405.0, 0.002249286170964155
1406.0, 0.0023356683460279857
1407.0, 0.001895636965667458
1408.0, 0.0007251955236857003
1409.0, 0.0019119508024217574
1410.0, 0.0018784418567790297
1411.0, 0.0015121535364051072
1412.0, 0.0019557135727596413
1413.0, 0.002402692366719041
1414.0, 0.0018259839318322982
1415.0, 0.0023836820609300993
1416.0, 0.0011403585057968516
1417.0, 0.0014907477162527335
1418.0, 0.001684840201887384
1419.0, 0.0020815933211898847
1420.0, 0.0027394466862842204
1421.0, 0.001379890526033106
1422.0, 0.0016331464720896703
1423.0, 0.0015909544186250586
1424.0, 0.0016291293407572857
1425.0, 0.0018244929578370684
1426.0, 0.002085774030096491
1427.0, 0.002236736385355451
1428.0, 0.0021147142931594557
1429.0, 0.002419255731387669
1430.0, 0.002426559319006473
1431.0, 0.0019294089632209946
1432.0, 0.0014039928964910513
1433.0, 0.0014564113064625952
1434.0, 0.0012644166790736202
1435.0, 0.001739644739222723
1436.0, 0.0021751765526298004
1437.0, 0.0016308667145952715
1438.0, 0.0013847667912707752
1439.0, 0.0023471040484913798
1440.0, 0.0020259917748848286
1441.0, 0.0015738780591697918
1442.0, 0.0017173357557598726
1443.0, 0.001918410595666386
1444.0, 0.0020428722828313506
1445.0, 0.0020696928520445687
1446.0, 0.0019048491621813752
1447.0, 0.001078025010659952
1448.0, 0.0013513401052625616
1449.0, 0.001584675020288099
1450.0, 0.0014481513136677267
1451.0, 0.001511555674341257
1452.0, 0.0023354407268900037
1453.0, 0.0023891712627800623
1454.0, 0.0020332720495825846
1455.0, 0.0030097256751983837
1456.0, 0.0029445338771394115
1457.0, 0.0024130941212085065
1458.0, 0.0025065032076129513
1459.0, 0.0025637808324467707
1460.0, 0.002532286070735843
1461.0, 0.002829668250807653
1462.0, 0.002901032624741767
1463.0, 0.002430981529527163
1464.0, 0.002119472777266187
1465.0, 0.0029858301185587163
1466.0, 0.0034110548513212845
1467.0, 0.0028891683487767376
1468.0, 0.0021161017472892366
1469.0, 0.002330657513770937
1470.0, 0.002883287576905471
1471.0, 0.0029355012317839354
1472.0, 0.0033908636702883474
1473.0, 0.0033173892080374744
1474.0, 0.003023469291557398
1475.0, 0.002741377105925433
1476.0, 0.002286965716996725
1477.0, 0.0015883687501029246
1478.0, 0.0009546717334397068
1479.0, 0.0013757493517792064
1480.0, 0.00035956609558169167
1481.0, 0.0011527032906454336
1482.0, 0.000911427364206295
1483.0, 0.00016959140721367418
1484.0, 0.0004528073862800357
1485.0, 0.0009098255271967511
1486.0, 0.0006958992199245602
1487.0, 0.0005132909758165711
1488.0, 0.0012433806701314543
1489.0, 0.0012857633673847642
1490.0, 0.0005045440594669521
1491.0, 0.0004229745587536671
1492.0, 0.0010202739313954037
1493.0, 0.0015919195789608077
1494.0, 0.0019490210712777753
1495.0, 0.0011868041256704427
1496.0, 0.0003456946694701252
1497.0, 0.0003414937138621679
1498.0, 0.0003839900101408562
1499.0, 0.0006357900933257483
1500.0, 0.0001836108694443218
1501.0, 0.0006086074131521954
1502.0, 0.0009058862739544489
1503.0, 0.0006195241141148927
1504.0, 0.0002956330798922725
1505.0, 0.0009112394989873127
1506.0, 0.00038358965890243103
1507.0, 8.71030839290142e-05
1508, 0.0
1509, 0.0
1510, 0.0
1511, 0.0
1512, 0.0
1513, 0.0
1514, 0.0
1515, 0.0
1516, 0.0
1517, 0.0
1518, 0.0
1519, 0.0
1520, 0.0
1521, 0.0
1522, 0.0
1523, 0.0
1524, 0.0
1525, 0.0
1526, 0.0
1527, 0.0
1528, 0.0
1529, 0.0
1530, 0.0
1531, 0.0
1532, 0.0
1533, 0.0
1534, 0.0
1535, 0.0
1536, 0.0
1537, 0.0
1538, 0.0
1539, 0.0
1540, 0.0
1541, 0.0
1542, 0.0
1543, 0.0
1544, 0.0
1545, 0.0
1546, 0.0
1547, 0.0
1548, 0.0
1549, 0.0
1550, 0.0
1551, 0.0
1552, 0.0
1553, 0.0
1554, 0.0
1555, 0.0
1556, 0.0
1557, 0.0
1558, 0.0
1559, 0.0
1560, 0.0
1561, 0.0
1562, 0.0
1563, 0.0
1564, 0.0
1565, 0.0
1566, 0.0
1567, 0.0
1568, 0.0
1569, 0.0
1570, 0.0
1571, 0.0
1572, 0.0
1573, 0.0
1574, 0.0
1575, 0.0
1576, 0.0
1577, 0.0
1578, 0.0
1579, 0.0
1580, 0.0
1581, 0.0
1582, 0.0
1583, 0.0
1584, 0.0
1585, 0.0
1586, 0.0
1587, 0.0
1588, 0.0
1589, 0.0
1590, 0.0
1591, 0.0
1592, 0.0
1593, 0.0
1594, 0.0
1595, 0.0
1596, 0.0
1597, 0.0
1598, 0.0
1599, 0.0
