30, 0.0
31, 0.0
32, 0.0
33, 0.0
34, 0.0
35, 0.0
36, 0.0
37, 0.0
38, 0.0
39, 0.0
40, 0.0
41, 0.0
42, 0.0
43, 0.0
44, 0.0
45, 0.0
46, 0.0
47, 0.0
48, 0.0
49, 0.0
50, 0.0
51, 0.0
52, 0.0
53, 0.0
54, 0.0
55, 0.0
56, 0.0
57, 0.0
58, 0.0
59, 0.0
60, 0.0
61, 0.0
62, 0.0
63, 0.0
64, 0.0
65, 0.0
66, 0.0
67, 0.0
68, 0.0
69, 0.0
70, 0.0
71, 0.0
72, 0.0
73, 0.0
74, 0.0
75, 0.0
76, 0.0
77, 0.0
78, 0.0
79, 0.0
80, 0.0
81, 0.0
82, 0.0
83.0, 1.825254347056086e-05
84.0, 0.0001514827877812236
85.0, 0.0002912931748968805
86.0, 0.004653126276393656
87.0, 0.017353816115952426
88.0, 0.0245901876419096
89.0, 0.031242848675202113
90.0, 0.03757320966260838
91.0, 0.04301431536790397
92.0, 0.0389505247757
93.0, 0.03751588761968584
94.0, 0.04778722979683248
95.0, 0.04557030437040211
96.0, 0.051201162005873435
97.0, 0.06385545774081079
98.0, 0.07490631610638923
99.0, 0.09544090855911114
100.0, 0.1265365444053162
101.0, 0.17136914052832083
102.0, 0.2043872204448521
103.0, 0.2553862171518155
104.0, 0.3094850380326863
105.0, 0.29987101521599263
106.0, 0.2944654417013271
107.0, 0.28077810682600035
108.0, 0.25022563479242615
109.0, 0.20802367764059917
110.0, 0.1831454272935748
111.0, 0.16814571676051868
112.0, 0.13694922402141096
113.0, 0.12913813316601677
114.0, 0.11957326988055716
115.0, 0.09661416834563626
116.0, 0.09728154019493612
117.0, 0.08938523139893699
118.0, 0.07638165598664069
119.0, 0.06708062189148498
120.0, 0.0636883043986032
121.0, 0.058806318087268356
122.0, 0.049952561791650425
123.0, 0.05348732633809043
124.0, 0.04908858316290017
125.0, 0.042316414437127844
126.0, 0.04367085598173209
127.0, 0.04367562224225955
128.0, 0.042708834149757804
129.0, 0.04115699188607646
130.0, 0.04523281241253148
131.0, 0.04381461619645583
132.0, 0.04295317738404731
133.0, 0.05150766214734129
134.0, 0.04760868145383776
135.0, 0.050511407268015784
136.0, 0.06146674281091563
137.0, 0.06056960234408998
138.0, 0.06009142108969317
139.0, 0.06249819554635167
140.0, 0.07098141643301208
141.0, 0.06825930878110148
142.0, 0.07280403746513567
143.0, 0.08217747506830773
144.0, 0.07500901894539166
145.0, 0.08082681895075028
146.0, 0.08694160405402784
147.0, 0.08559501816084489
148.0, 0.08665782842728569
149.0, 0.09179386161374554
150.0, 0.09716105290034716
151.0, 0.09089780534323848
152.0, 0.096375672877042
153.0, 0.09894373600222815
154.0, 0.09337048426554102
155.0, 0.10161209037400369
156.0, 0.10333849942376362
157.0, 0.10166139303375334
158.0, 0.10113637933879918
159.0, 0.10855242700136439
160.0, 0.11048184810884028
161.0, 0.10601559767453866
162.0, 0.1159416382501081
163.0, 0.11448851141393633
164.0, 0.11249378175777724
165.0, 0.12050189529360898
166.0, 0.12316454771086296
167.0, 0.12672817049497398
168.0, 0.13319332027642464
169.0, 0.14951288099108306
170.0, 0.15022131166751698
171.0, 0.15328707336000333
172.0, 0.16826155048342223
173.0, 0.16549511391221736
174.0, 0.17240728770799174
175.0, 0.18406831355215333
176.0, 0.19008652173808493
177.0, 0.18941584376874182
178.0, 0.19153450954729967
179.0, 0.19747430798253485
180.0, 0.187790576179856
181.0, 0.1919282801730219
182.0, 0.19546729157877257
183.0, 0.18271022301914752
184.0, 0.18499631864226893
185.0, 0.18278590489871824
186.0, 0.1746095415020148
187.0, 0.16171149009101507
188.0, 0.1598253063285019
189.0, 0.15412009718151215
190.0, 0.13695765273764274
191.0, 0.137444581493607
192.0, 0.1291992117294418
193.0, 0.11774213660424682
194.0, 0.11313777412965999
195.0, 0.10703104419860529
196.0, 0.0984164856860021
197.0, 0.088259370327918
198.0, 0.08736648293211426
199.0, 0.08027050334961011
200.0, 0.07469832810419931
201.0, 0.07727728175859457
202.0, 0.06924982251479558
203.0, 0.06290138046859645
204.0, 0.05925382122491692
205.0, 0.05999231590031815
206.0, 0.052766021581590404
207.0, 0.04931124870962637
208.0, 0.05273203720925455
209.0, 0.04584367724161779
210.0, 0.04399249370409912
211.0, 0.04266815968805279
212.0, 0.03668251843169146
213.0, 0.03471003174044248
214.0, 0.03466462904330975
215.0, 0.034808923023378235
216.0, 0.02879384262353968
217.0, 0.02885984904061209
218.0, 0.027666083718710297
219.0, 0.022239636254451724
220.0, 0.02465132681621584
221.0, 0.02331432110380598
222.0, 0.020016954543520336
223.0, 0.016949157568395344
224.0, 0.016378062244861567
225.0, 0.014558214192638653
226.0, 0.012179897737621721
227.0, 0.015254254176274367
228.0, 0.013039348678804056
229.0, 0.010951500081669839
230.0, 0.011601626949665055
231.0, 0.008995750438783702
232.0, 0.006793308230064774
233.0, 0.0058826656590772256
234.0, 0.007963173947628351
235.0, 0.005292421428248738
236.0, 0.004613541520456874
237.0, 0.005777774330307284
238.0, 0.00295892729734282
239.0, 0.0015761449068894223
240.0, 0.0009892905985078417
241.0, 0.000943916180278246
242.0, 0.00037002032509807854
243.0, 0.0013273010404409894
244.0, 0.0024498642907867484
245.0, 0.0016815953537802073
246.0, 0.001239640229503457
247.0, 0.0020609402928691693
248.0, 0.0038671323915118773
249.0, 0.004891854422079857
250.0, 0.003394668991710968
251.0, 0.0028822977585829515
252.0, 0.004778127604447293
253.0, 0.0036858826547517477
254.0, 0.004665158290937363
255.0, 0.005527964383223042
256.0, 0.0034905100788643513
257.0, 0.0035175896046812693
258.0, 0.004261419194808401
259.0, 0.005329086407112121
260.0, 0.005848893632739259
261.0, 0.00658983651373199
262.0, 0.00714199435516372
263.0, 0.0073407540040959975
264.0, 0.006983993070655948
265.0, 0.006982227919458523
266.0, 0.006810872308969917
267.0, 0.005963727519137932
268.0, 0.0049966450881871365
269.0, 0.004449931450228273
270.0, 0.0042142040605078505
271.0, 0.004014928590931388
272.0, 0.00392463232427287
273.0, 0.003979064429159853
274.0, 0.004105188593770663
275.0, 0.0037230980560580057
276.0, 0.003423699451320891
277.0, 0.003343179522756415
278.0, 0.003571317788757563
279.0, 0.0028859274362263224
280.0, 0.0031698546414045455
281.0, 0.003351207646782146
282.0, 0.0018223470408974527
283.0, 0.0012710721975306958
284.0, 0.0020299787840845694
285.0, 0.003068933258895016
286.0, 0.0005195441532607869
287.0, 0.0008749523807701882
288.0, 0.0016022760864175328
289.0, 0.0018425323401573893
290.0, 0.001121903608663445
291.0, 0.0021768617766765395
292.0, 0.0036988364773540504
293.0, 0.004728385565894003
294.0, 0.0038873660480729807
295.0, 0.005265581571599256
296.0, 0.006863708803352553
297.0, 0.004860433677355418
298.0, 0.007893185636577817
299.0, 0.009313460683676144
300.0, 0.009081646376728128
301.0, 0.011169661550465216
302.0, 0.014532507504546795
303.0, 0.016737996226590914
304.0, 0.017201052429122846
305.0, 0.020906743658110506
306.0, 0.02254528988530324
307.0, 0.02490229316406433
308.0, 0.030327410209598032
309.0, 0.03411549120237988
310.0, 0.03686067031733183
311.0, 0.040209826981215065
312.0, 0.04717485854478796
313.0, 0.04724895207576
314.0, 0.0515607588007291
315.0, 0.05895844988032696
316.0, 0.05941328729091272
317.0, 0.0643298914808204
318.0, 0.06833172907902417
319.0, 0.06961803865397624
320.0, 0.06820707320477534
321.0, 0.07350272112769822
322.0, 0.07730176212106507
323.0, 0.07411213640124766
324.0, 0.0790192604921216
325.0, 0.07972749202570859
326.0, 0.07847085960511319
327.0, 0.07808264970203918
328.0, 0.08115273461099343
329.0, 0.08009869963916368
330.0, 0.07764216848742349
331.0, 0.08269336731484359
332.0, 0.07904848615463149
333.0, 0.07769485873717463
334.0, 0.0804258615980849
335.0, 0.08374917366391213
336.0, 0.08025359753165803
337.0, 0.07983672342293302
338.0, 0.08587281014082809
339.0, 0.08131572720763111
340.0, 0.08401480009243636
341.0, 0.08740865795176384
342.0, 0.08622537357441018
343.0, 0.08804899152098788
344.0, 0.08989363510593018
345.0, 0.0896533116918738
346.0, 0.08391749802149671
347.0, 0.08481583296665476
348.0, 0.08097830001949816
349.0, 0.07431681488565135
350.0, 0.07277714585619698
351.0, 0.07017093692780897
352.0, 0.06595372497140355
353.0, 0.060999452512976386
354.0, 0.06043408462526014
355.0, 0.056550062307749616
356.0, 0.05388665035352867
357.0, 0.053893391806779094
358.0, 0.05204329714010048
359.0, 0.05011488253977477
360.0, 0.04910801654880095
361.0, 0.049681128118574946
362.0, 0.04641782665691746
363.0, 0.04596530549013631
364.0, 0.046358364592470405
365.0, 0.04540615819676847
366.0, 0.04763373963296174
367.0, 0.05003006157585665
368.0, 0.05191475850029392
369.0, 0.05222549052482533
370.0, 0.05676838331295319
371.0, 0.05847606269379161
372.0, 0.05843105131675793
373.0, 0.06274441710242308
374.0, 0.06387657757646145
375.0, 0.06569557304697321
376.0, 0.06892252481209662
377.0, 0.07253501135326708
378.0, 0.07345446126342857
379.0, 0.0770003743290278
380.0, 0.08441375504098565
381.0, 0.08680108105585375
382.0, 0.09459439309947794
383.0, 0.10425261140482886
384.0, 0.11369601641299563
385.0, 0.12092469713738814
386.0, 0.13702159540537728
387.0, 0.15231415792995157
388.0, 0.15795812621159336
389.0, 0.17918487127843852
390.0, 0.18942131812660504
391.0, 0.1926929927417668
392.0, 0.19445793170485598
393.0, 0.19524682908170904
394.0, 0.18353653596301087
395.0, 0.1668243490884403
396.0, 0.1611716873222757
397.0, 0.14509372092833459
398.0, 0.13322077345126251
399.0, 0.126041726982987
400.0, 0.11983830232638505
401.0, 0.11364376566176916
402.0, 0.11452877271986903
403.0, 0.12102537612683877
404.0, 0.12084933726252974
405.0, 0.13253290959510639
406.0, 0.1439528566524004
407.0, 0.15153597171459335
408.0, 0.15590075044352358
409.0, 0.1642395423191587
410.0, 0.16611627026843978
411.0, 0.158681048581081
412.0, 0.15978890071772464
413.0, 0.15201211362123834
414.0, 0.1415837452666045
415.0, 0.1320658082705661
416.0, 0.12570120282389805
417.0, 0.1149190272532491
418.0, 0.10570596922203836
419.0, 0.10236799176028395
420.0, 0.08894772421757062
421.0, 0.08224212483046694
422.0, 0.07781164092413888
423.0, 0.07136726978898784
424.0, 0.06407854050528877
425.0, 0.060047084551953095
426.0, 0.056753164862885626
427.0, 0.05094486700716077
428.0, 0.05002809443077188
429.0, 0.04732660015430435
430.0, 0.043955435453221975
431.0, 0.0421647069611649
432.0, 0.041046278267829486
433.0, 0.03891739969318512
434.0, 0.03677046242077629
435.0, 0.03683496808112481
436.0, 0.033876242186551705
437.0, 0.03208847964564755
438.0, 0.031141282716682435
439.0, 0.029114024495396004
440.0, 0.026720778432248283
441.0, 0.0255417271640526
442.0, 0.024843862903886852
443.0, 0.02183019559899556
444.0, 0.022107220258424796
445.0, 0.021376097421325825
446.0, 0.019307086389875727
447.0, 0.017542315227298586
448.0, 0.0175802030705746
449.0, 0.016639025868444103
450.0, 0.015114837692442235
451.0, 0.01718828948996471
452.0, 0.016464870204183142
453.0, 0.015398775234168438
454.0, 0.014709974764979976
455.0, 0.014693057983823973
456.0, 0.013780779457665294
457.0, 0.013226900510239255
458.0, 0.013176118932434972
459.0, 0.012307709614356989
460.0, 0.011649358797432589
461.0, 0.011702293795186
462.0, 0.01227819520944947
463.0, 0.011112709503444581
464.0, 0.01246654266141738
465.0, 0.01258457338478055
466.0, 0.01055105955015133
467.0, 0.009886273184100977
468.0, 0.010855182523539154
469.0, 0.011618273042173787
470.0, 0.011498331580489043
471.0, 0.011031998109590518
472.0, 0.010308223097745662
473.0, 0.009871937638963732
474.0, 0.0098391880167739
475.0, 0.009235947299633894
476.0, 0.009245868529769306
477.0, 0.009507838549399598
478.0, 0.00979144975703296
479.0, 0.00948141510618678
480.0, 0.00985349434411905
481.0, 0.010124876535739432
482.0, 0.010088200339335697
483.0, 0.011026492481932599
484.0, 0.01058448817977149
485.0, 0.009939212083341668
486.0, 0.009649015832584032
487.0, 0.009882006072593937
488.0, 0.009537709673511816
489.0, 0.009822069168903196
490.0, 0.01087837491071352
491.0, 0.00934462116624786
492.0, 0.00931732890090384
493.0, 0.009863828667851546
494.0, 0.010413870607545258
495.0, 0.00967138859316897
496.0, 0.010003135358895906
497.0, 0.010505170200173925
498.0, 0.010642261142785268
499.0, 0.009324326492920719
500.0, 0.010447450731916866
501.0, 0.010890858303424669
502.0, 0.009812717805216751
503.0, 0.009900555411568368
504.0, 0.01016811528245767
505.0, 0.010420611682368481
506.0, 0.010641199692791042
507.0, 0.011146178091706507
508.0, 0.010510329801985593
509.0, 0.01044830721523839
510.0, 0.011133786020529498
511.0, 0.01050619755895838
512.0, 0.010861260719991234
513.0, 0.011189137156013877
514.0, 0.011202793928693174
515.0, 0.010971103225892712
516.0, 0.01128388457504967
517.0, 0.011542946650641631
518.0, 0.011534955001051492
519.0, 0.011047821724636663
520.0, 0.010818885504497592
521.0, 0.011177885795077445
522.0, 0.011741032268843573
523.0, 0.011038327446473437
524.0, 0.01034433728853308
525.0, 0.011365740178086128
526.0, 0.013132613819017612
527.0, 0.012183154377650924
528.0, 0.01159842275340349
529.0, 0.012054930377005342
530.0, 0.013017930364794416
531.0, 0.013072333705787195
532.0, 0.014556701612321012
533.0, 0.014764918974512941
534.0, 0.014212878150007723
535.0, 0.014397548265064026
536.0, 0.015289819294277548
537.0, 0.016319778655079012
538.0, 0.017512642627339096
539.0, 0.018975589902793896
540.0, 0.01888887895306315
541.0, 0.019496368779788005
542.0, 0.021158086031568067
543.0, 0.024186900979536925
544.0, 0.023882749012523265
545.0, 0.025156240772386606
546.0, 0.02584066116032897
547.0, 0.02394414687659903
548.0, 0.026874173564249808
549.0, 0.02866874817828516
550.0, 0.030312643577845678
551.0, 0.03250209935773153
552.0, 0.03422733027536204
553.0, 0.03270823113721881
554.0, 0.031193032480807733
555.0, 0.031136261733442677
556.0, 0.028221409665225742
557.0, 0.025000008061498248
558.0, 0.02275688612861115
559.0, 0.02148348020629119
560.0, 0.017616127707226845
561.0, 0.017964838015469498
562.0, 0.0179577649850465
563.0, 0.016517502841865882
564.0, 0.01535851124535817
565.0, 0.016955989220170085
566.0, 0.017258336523093616
567.0, 0.01652953154427535
568.0, 0.018228151857722866
569.0, 0.019816433526183185
570.0, 0.02089501945077417
571.0, 0.0217978008632414
572.0, 0.023330352161647704
573.0, 0.023055633538011735
574.0, 0.023737724983768808
575.0, 0.024200298939495383
576.0, 0.0224086945097138
577.0, 0.018972780990923012
578.0, 0.01672860326861462
579.0, 0.015397222658409761
580.0, 0.014589634731770957
581.0, 0.01428196267326778
582.0, 0.012774013149165594
583.0, 0.011692178715004393
584.0, 0.011992279543832715
585.0, 0.010909572832552582
586.0, 0.010961443088690143
587.0, 0.011310305345697044
588.0, 0.011325017537373226
589.0, 0.009621415338556549
590.0, 0.009613198585484817
591.0, 0.009746857212360327
592.0, 0.009558445523224041
593.0, 0.00918631883204907
594.0, 0.010948492695923425
595.0, 0.010567590588852942
596.0, 0.008891101814928862
597.0, 0.009941517757337502
598.0, 0.009326677735116624
599.0, 0.00795141530272175
600.0, 0.007135094485120689
601.0, 0.008735001168514668
602.0, 0.008381868505541396
603.0, 0.007637071297620789
604.0, 0.007411751491372567
605.0, 0.00848047812478905
606.0, 0.008660073918543496
607.0, 0.009144795491996878
608.0, 0.008646971144170255
609.0, 0.006855899502595726
610.0, 0.008285346414213397
611.0, 0.007957138600444108
612.0, 0.007339916718082012
613.0, 0.007002786559099152
614.0, 0.0069095811176230915
615.0, 0.0068499310597615465
616.0, 0.006488198468545909
617.0, 0.0060365856036879864
618.0, 0.006224096615594903
619.0, 0.005820760807703225
620.0, 0.005616841791397748
621.0, 0.00556776828150747
622.0, 0.0054747549615419
623.0, 0.005550854839285004
624.0, 0.005368436545425242
625.0, 0.005181031649635917
626.0, 0.005208225070233946
627.0, 0.005031896607240715
628.0, 0.005117920757123493
629.0, 0.005391489470782081
630.0, 0.005618475232609535
631.0, 0.004582387216608808
632.0, 0.0038172504628073266
633.0, 0.004254703838058658
634.0, 0.005396305315170911
635.0, 0.004755738154649065
636.0, 0.004235673225450527
637.0, 0.004180263317572912
638.0, 0.003974652334105052
639.0, 0.002466389974967796
640.0, 0.0026515807342081706
641.0, 0.003112798509885172
642.0, 0.003309815040611672
643.0, 0.002788812105255098
644.0, 0.0019211233985484564
645.0, 0.001840534983141162
646.0, 0.0018400212406277912
647.0, 0.0015993369312135256
648.0, 0.001639142970508475
649.0, 0.0019534204170159387
650.0, 0.001832148858380077
651.0, 0.0014954930377090894
652.0, 0.002214363580298211
653.0, 0.0016651767687327187
654.0, 0.0012010444154352791
655.0, 0.000917381738330599
656.0, 0.0006857479126154155
657.0, 0.0019478173305384349
658.0, 0.001153174722832119
659.0, 0.0002853456166093679
660.0, 0.0009754288445023953
661.0, 0.0016876387561241364
662.0, 0.0017290952455374748
663.0, 0.0012275105781795845
664.0, 0.0004560668499489126
665.0, 0.00035254679549703047
666.0, 0.0002705448991230207
667.0, 0.0003418138251968685
668.0, 0.0007228469655163222
669.0, 0.0016751689123335623
670.0, 0.0005761084401363876
671.0, 0.0006852269615975639
672.0, 0.0012585989686547882
673.0, 0.0012662171491254158
674.0, 0.0005602893971629297
675.0, 0.0008623141803514354
676.0, 0.0011647646499872212
677.0, 0.0010275211244387158
678.0, 0.0010958555414384613
679.0, 0.0011388377774868548
680.0, 0.001476408226043376
681.0, 0.0017722859980878157
682.0, 0.0010328573724452369
683.0, 0.0025791661497188427
684.0, 0.0023016179755586262
685.0, 0.0011803432224451434
686.0, 0.0008527286913274817
687.0, 0.0038860161638036295
688.0, 0.0022276968377681946
689.0, 0.0007115691485513162
690.0, 0.0015386364194206188
691.0, 0.0012452723380870921
692.0, 0.000727834059926705
693.0, 0.0015983155275472462
694.0, 0.0027282644961201773
695.0, 0.0005611924914803628
696.0, 0.0015251875154378015
697.0, 0.0017781202573523458
698.0, 0.0014847158400131235
699.0, 0.0012578330836577134
700.0, 0.003323150188620433
701.0, 0.002479844682866052
702.0, 0.001872857531798386
703.0, 0.0026356311690334975
704.0, 0.0023636572926544063
705.0, 0.0021119769503999807
706.0, 0.0021265708731005306
707.0, 0.002294853525101687
708.0, 0.002296859184334681
709.0, 0.0024083236312775953
710.0, 0.0023843508626742393
711.0, 0.0017142529516894287
712.0, 0.00029427735373988863
713.0, 0.0018101951659314649
714.0, 0.0009941921588619243
715.0, 0.0002863959707649274
716.0, 0.0005424675391601002
717.0, 0.001385066396013558
718.0, 0.0010197240025507366
719.0, 0.0009122829876613359
720.0, 0.0008471786064149381
721.0, 0.0002693163732493514
722.0, 0.0006819019645675759
723.0, 0.0006287622946254484
724.0, 0.0006196287600938022
725.0, 0.0009209774128183274
726.0, 0.0012031891803158084
727.0, 0.0017005460848862576
728.0, 0.0016475453416129589
729.0, 0.0012776313545227339
730.0, 0.0014628963550841509
731.0, 0.002437216267767252
732.0, 0.0018230788925692118
733.0, 0.0019129924103301272
734.0, 0.004204702376348565
735.0, 0.0019987448552453474
736.0, 0.0010198203643272158
737.0, 0.0008998534433219324
738.0, 0.0014474837694240404
739.0, 0.002511093593840515
740.0, 0.003762556957028578
741.0, 0.003988050655477657
742.0, 0.003579892947387255
743.0, 0.003294603443723095
744.0, 0.005922917410662716
745.0, 0.00487837259770975
746.0, 0.005193348258303313
747.0, 0.007660062461250957
748.0, 0.005823344407310534
749.0, 0.005858456816347024
750.0, 0.00695661511973067
751.0, 0.008142486556908224
752.0, 0.008236395030461594
753.0, 0.008984399540738245
754.0, 0.010696857044683816
755.0, 0.011142811195100794
756.0, 0.01006510430350038
757.0, 0.012555114410469236
758.0, 0.012247436510335245
759.0, 0.013793406474642802
760.0, 0.01589405709861788
761.0, 0.014916552337840302
762.0, 0.015721768201837325
763.0, 0.018414929999739774
764.0, 0.01992755027680885
765.0, 0.01936115513011328
766.0, 0.023015876934483075
767.0, 0.026342158046954865
768.0, 0.02813904446490603
769.0, 0.030211586637246882
770.0, 0.036136612779362615
771.0, 0.035008359858711854
772.0, 0.03948575157166562
773.0, 0.04618345907142273
774.0, 0.05187364674171721
775.0, 0.0528699692290711
776.0, 0.06233553102017718
777.0, 0.06765883065845096
778.0, 0.07022646746404372
779.0, 0.07752064994468834
780.0, 0.08272591646067201
781.0, 0.08472725470598537
782.0, 0.08835931376402667
783.0, 0.09459792209461904
784.0, 0.09111826781344122
785.0, 0.0931381521463192
786.0, 0.09605573543888729
787.0, 0.09738427563655759
788.0, 0.09483766996797881
789.0, 0.09777930416545177
790.0, 0.09787574803646128
791.0, 0.09699282856505448
792.0, 0.09739416889283667
793.0, 0.10395957382186002
794.0, 0.10138310854323526
795.0, 0.1052248544889268
796.0, 0.11189016684751578
797.0, 0.11255411052496789
798.0, 0.11511078725338443
799.0, 0.12195023788662832
800.0, 0.12495741413775037
801.0, 0.12381038744998869
802.0, 0.13226170674445606
803.0, 0.13705412238549694
804.0, 0.14092764532276766
805.0, 0.14991567599140138
806.0, 0.16896181275941238
807.0, 0.17781681785310266
808.0, 0.20614622540872604
809.0, 0.24561331362013528
810.0, 0.2925767458034982
811.0, 0.3463640745449673
812.0, 0.45563501834753134
813.0, 0.5603385256427773
814.0, 0.6830718725966523
815.0, 0.8389994037697046
816.0, 0.9641928242854443
817.0, 0.9952091690742534
818.0, 0.9988313049160442
819.0, 0.9533111987335559
820.0, 0.7868868860256842
821.0, 0.6727371876857606
822.0, 0.5767639545700717
823.0, 0.48427749192812275
824.0, 0.3976278546573502
825.0, 0.37035838929733134
826.0, 0.32219563645765137
827.0, 0.28491241273573087
828.0, 0.26051216940649863
829.0, 0.24288035479367628
830.0, 0.20755023813591686
831.0, 0.1953277870020657
832.0, 0.18312400084766392
833.0, 0.1670792501209027
834.0, 0.16286346871545046
835.0, 0.15731791945806958
836.0, 0.14578041464984437
837.0, 0.13838055404459815
838.0, 0.14078633919050856
839.0, 0.13318205779990167
840.0, 0.1267758355603696
841.0, 0.12539716170398832
842.0, 0.12544203961781178
843.0, 0.12027484757994981
844.0, 0.13374543550313958
845.0, 0.1419319788088228
846.0, 0.1480856718063564
847.0, 0.15743345211544463
848.0, 0.1808847042601605
849.0, 0.17531761431678597
850.0, 0.17762548515074522
851.0, 0.18118287625214013
852.0, 0.17535925749011877
853.0, 0.15121947414332518
854.0, 0.1400950717932855
855.0, 0.12077348018560405
856.0, 0.09614266909822548
857.0, 0.07997605190845991
858.0, 0.06966104734212669
859.0, 0.05494197027357206
860.0, 0.04516152965153381
861.0, 0.041869220307645505
862.0, 0.03512761974873925
863.0, 0.02904254084137144
864.0, 0.027621911397033665
865.0, 0.02642812686571667
866.0, 0.022404070267671133
867.0, 0.02384129979810672
868.0, 0.022372112780815478
869.0, 0.02090067545197146
870.0, 0.02038523892263149
871.0, 0.021039404809447455
872.0, 0.018602418081789335
873.0, 0.020959883220321565
874.0, 0.022062373135707566
875.0, 0.021254506063102807
876.0, 0.023519386802779138
877.0, 0.02361549918233125
878.0, 0.020236062051940555
879.0, 0.01809452968138683
880.0, 0.019538990329816434
881.0, 0.01950377741705739
882.0, 0.016524499339771303
883.0, 0.016073808677793962
884.0, 0.015801809390175323
885.0, 0.012693129564574778
886.0, 0.012900844878744044
887.0, 0.014134437707335518
888.0, 0.01283016464299666
889.0, 0.010356348831008003
890.0, 0.01086331316909513
891.0, 0.011417673578897104
892.0, 0.009603091292746994
893.0, 0.0101312305331499
894.0, 0.01266579733219076
895.0, 0.009857476243284246
896.0, 0.013469688462919321
897.0, 0.015153509141846436
898.0, 0.015035316486023824
899.0, 0.015405911818515923
900.0, 0.024353707968394814
901.0, 0.02504799713849961
902.0, 0.028406786888695936
903.0, 0.03417289743799821
904.0, 0.03992425941153572
905.0, 0.043406538611687265
906.0, 0.05712210360984145
907.0, 0.06673737990620747
908.0, 0.07576674832215571
909.0, 0.09508305725911147
910.0, 0.12073316105235142
911.0, 0.14342270067547505
912.0, 0.18261965941158062
913.0, 0.2371831496936046
914.0, 0.2872085948697023
915.0, 0.36636405876067907
916.0, 0.4564981983657217
917.0, 0.5230194247025058
918.0, 0.5595464727553962
919.0, 0.6079978913042859
920.0, 0.569434619320819
921.0, 0.512322430461053
922.0, 0.4593531572190446
923.0, 0.4159126399973481
924.0, 0.3430451188802853
925.0, 0.3030490053031001
926.0, 0.27260611635563636
927.0, 0.241554257102971
928.0, 0.20844135165944294
929.0, 0.21432732266893784
930.0, 0.20339399524694557
931.0, 0.20248340247704097
932.0, 0.21355577154554492
933.0, 0.2295798134983748
934.0, 0.23780087449696166
935.0, 0.2686189835742158
936.0, 0.29641651870174834
937.0, 0.3215348781012993
938.0, 0.35797465386092925
939.0, 0.40799771333610674
940.0, 0.4312328111146653
941.0, 0.46430683126975747
942.0, 0.5039177271247386
943.0, 0.5119241886573742
944.0, 0.5083936429521463
945.0, 0.5191477464752972
946.0, 0.5035349545349574
947.0, 0.45942647113244084
948.0, 0.4363108134133903
949.0, 0.40357569331395143
950.0, 0.35390433336986743
951.0, 0.31506985281731503
952.0, 0.2932207225093093
953.0, 0.2512581124803734
954.0, 0.22475012107911801
955.0, 0.20610747416916675
956.0, 0.18327617344623637
957.0, 0.15466258894545537
958.0, 0.14735346087181708
959.0, 0.13241126698102346
960.0, 0.11721391176203101
961.0, 0.10804043063015009
962.0, 0.10537724486459997
963.0, 0.09036673178234547
964.0, 0.08738999947916157
965.0, 0.08355243357376838
966.0, 0.07791056098119707
967.0, 0.07294294738523775
968.0, 0.07773857326041393
969.0, 0.07184197550569783
970.0, 0.06988251397380538
971.0, 0.07123893922946227
972.0, 0.07151612682164955
973.0, 0.06393063061881081
974.0, 0.06785934562909847
975.0, 0.0679724168255254
976.0, 0.06493595638249297
977.0, 0.0634611170210166
978.0, 0.06680203195464261
979.0, 0.06046415550591148
980.0, 0.05955299769350818
981.0, 0.06144060525336012
982.0, 0.059018033182388574
983.0, 0.05274700022600718
984.0, 0.057533903866040376
985.0, 0.05656124385154171
986.0, 0.051533278720043374
987.0, 0.04968997597259514
988.0, 0.0517217193138002
989.0, 0.04637191492232565
990.0, 0.0459458573653791
991.0, 0.04743484606318417
992.0, 0.044044172819519875
993.0, 0.04425139525989472
994.0, 0.04742169625843321
995.0, 0.04685563785260993
996.0, 0.04544815179294939
997.0, 0.04840846244539707
998.0, 0.050516532647716654
999.0, 0.04877540247202727
1000.0, 0.05238825042066394
1001.0, 0.056585224858621025
1002.0, 0.05419929190286438
1003.0, 0.05889081054254978
1004.0, 0.06344589848252069
1005.0, 0.06256428735292445
1006.0, 0.06245858455224135
1007.0, 0.06971006709207013
1008.0, 0.06610125340449788
1009.0, 0.06927214784645037
1010.0, 0.07285890723009723
1011.0, 0.0732137384243748
1012.0, 0.0697196363611244
1013.0, 0.07537111535583313
1014.0, 0.0773784779802683
1015.0, 0.07551391861784358
1016.0, 0.07442696343810336
1017.0, 0.07736708609409959
1018.0, 0.07395361678366165
1019.0, 0.07482577990946314
1020.0, 0.07570038856002156
1021.0, 0.07239690401908094
1022.0, 0.0646895374580208
1023.0, 0.0677353600780068
1024.0, 0.06318944420084535
1025.0, 0.05905363267613213
1026.0, 0.05652004679625259
1027.0, 0.05505001925678184
1028.0, 0.05225863897953885
1029.0, 0.05038894121659977
1030.0, 0.050325325421550146
1031.0, 0.047760945195733207
1032.0, 0.042290142148566134
1033.0, 0.04402947238540797
1034.0, 0.03919843322367915
1035.0, 0.037011666913181536
1036.0, 0.03669570597529754
1037.0, 0.03636047229370407
1038.0, 0.033567269271326305
1039.0, 0.03531014012781009
1040.0, 0.034209019070997986
1041.0, 0.03266572221788071
1042.0, 0.03334407025526239
1043.0, 0.03868747566617574
1044.0, 0.03140613007317671
1045.0, 0.03042179593431743
1046.0, 0.03128864553543271
1047.0, 0.030876308054363207
1048.0, 0.027697526096137425
1049.0, 0.02818080191760249
1050.0, 0.026634426746299303
1051.0, 0.02520483025665902
1052.0, 0.023851295654599265
1053.0, 0.02145510231412029
1054.0, 0.01918040210515559
1055.0, 0.020479348135366438
1056.0, 0.020727826458978763
1057.0, 0.018199695506680408
1058.0, 0.013898813568584596
1059.0, 0.018542544650139697
1060.0, 0.015350706122265833
1061.0, 0.014402329039610284
1062.0, 0.015221562169397284
1063.0, 0.014914145993186065
1064.0, 0.010545125784851487
1065.0, 0.01369293919322468
1066.0, 0.012963928009772654
1067.0, 0.01125386574462724
1068.0, 0.011440826823976836
1069.0, 0.012769416915714194
1070.0, 0.01108425651825175
1071.0, 0.012195312110166886
1072.0, 0.013748566168621001
1073.0, 0.013957264033992181
1074.0, 0.012342236935068513
1075.0, 0.01586872617206392
1076.0, 0.013611372227459067
1077.0, 0.011848433524839986
1078.0, 0.012641518313197386
1079.0, 0.014529414211342049
1080.0, 0.009985318848862907
1081.0, 0.010970384994178942
1082.0, 0.011111044491806095
1083.0, 0.009634354141352825
1084.0, 0.008209990322945055
1085.0, 0.010329920546916274
1086.0, 0.009834228204609517
1087.0, 0.009554273874830429
1088.0, 0.009808097935635142
1089.0, 0.009918954571679154
1090.0, 0.007872001834542414
1091.0, 0.009279017318710468
1092.0, 0.008629937403067181
1093.0, 0.0076236269225848875
1094.0, 0.007458088995356562
1095.0, 0.007999919541008848
1096.0, 0.006316266773983478
1097.0, 0.0076144895515816045
1098.0, 0.00667057679634302
1099.0, 0.0038430177605865007
1100.0, 0.0029477008116345384
1101.0, 0.0057958191688256225
1102.0, 0.0029779597705459028
1103.0, 0.0020867344582292937
1104.0, 0.0029030544063914387
1105.0, 0.0029780336863911563
1106.0, 0.00044237409887610255
1107.0, 0.0027048772252322496
1108.0, 0.003578596796356616
1109.0, 0.0025839298951594826
1110.0, 0.0006986096112930686
1111.0, 3.65277666569544e-05
1112.0, 0.0005894657537333769
1113.0, 0.0011269809777025921
1114.0, 0.0010999155767709933
1115.0, 0.0013155451339668602
1116.0, 0.0030612907668787935
1117.0, 0.0017383775042030905
1118.0, 0.0016007692605040091
1119.0, 0.0009062316769054766
1120.0, 0.0023298985303513127
1121.0, 0.0074470340949511545
1122.0, 0.008793884777658023
1123.0, 0.004541728884748005
1124.0, 0.0033451946373979653
1125.0, 0.002490007190942352
1126.0, 0.0009547882261249398
1127.0, 0.0020855127791589274
1128.0, 0.0003914457204722767
1129.0, 0.001279277777034582
1130.0, 0.0020897290746364114
1131.0, 0.0016505637182852003
1132.0, 0.0002213148701067564
1133.0, 0.0008903654415011715
1134.0, 0.0011400058610213956
1135.0, 0.0014645351476001939
1136.0, 0.0026888342732405575
1137.0, 0.004180166774611997
1138.0, 0.0015083767635690507
1139.0, 0.0025850845494700195
1140.0, 0.0052070986424125444
1141.0, 0.004794780044521918
1142.0, 0.0026112810509735787
1143.0, 0.0050307648436125115
1144.0, 0.00665977379400488
1145.0, 0.005951454559903635
1146.0, 0.0063110377390061395
1147.0, 0.00642084852679706
1148.0, 0.004875013873969476
1149.0, 0.006580406097745244
1150.0, 0.005835598514753149
1151.0, 0.004656560627597233
1152.0, 0.004053599824332444
1153.0, 0.004210942766080861
1154.0, 0.0043241925784699665
1155.0, 0.001735452547334449
1156.0, 0.002048181372141256
1157.0, 0.0021138191223545435
1158.0, 0.0014026059295497
1159.0, 0.0009619703743245639
1160.0, 0.0030539458632983523
1161.0, 0.002903105608757663
1162.0, 0.0016202594125021494
1163.0, 0.0014446799646306832
1164.0, 0.0024145628316927462
1165.0, 0.0012538771397674537
1166.0, 0.0006431800717906768
1167.0, 0.0002947903245002696
1168.0, 0.00012250255273322556
1169.0, 6.180203181567438e-05
1170.0, 0.00020775437683239243
1171.0, 0.001395951180779851
1172.0, 0.0009540032886728346
1173.0, 0.001241043102330072
1174.0, 0.002038375793130358
1175.0, 0.002494773068000763
1176.0, 0.0015451085094408184
1177.0, 0.0007039708070694598
1178.0, 0.002293846361724364
1179.0, 0.001978069369512141
1180.0, 0.0010738550252305903
1181.0, 0.0020143563453816874
1182.0, 0.00045133239909407293
1183.0, 0.0018132688895033115
1184.0, 0.00246149668945159
1185.0, 0.0019428287478852192
1186.0, 0.000765372998977552
1187.0, 9.187914198072026e-05
1188.0, 0.0011140174089392055
1189.0, 0.0010379825601277179
1190.0, 0.0020381643042044367
1191.0, 0.0022869409562327825
1192.0, 0.0003696008310607247
1193.0, 0.0005428945845228133
1194.0, 0.00314172554787987
1195.0, 0.0017294418780596978
1196.0, 0.0004148085602432581
1197.0, 0.0005612141515901665
1198.0, 0.0006072056646092554
1199.0, 0.0017085863981444172
1200.0, 0.0018486815522824485
1201.0, 0.0016958675793265314
1202.0, 0.0011982658581512662
1203.0, 0.0005958587360388545
1204.0, 0.0009496425590608688
1205.0, 0.0016987106905726628
1206.0, 0.001019203654796377
1207.0, 0.0008300775444468315
1208.0, 0.0008670548562848155
1209.0, 0.00011995158286329007
1210.0, 9.254841851137467e-05
1211.0, 0.0028467214320228367
1212.0, 0.002287685797788489
1213.0, 0.0007579951071180879
1214.0, 0.000754953187609964
1215.0, 0.003102019736667425
1216.0, 0.0022788867624588902
1217.0, 0.001134646908524556
1218.0, 0.0007003383267060687
1219.0, 0.0012827068666582072
1220.0, 0.0021898203344035984
1221.0, 0.0012227262987406168
1222.0, 0.0035325186862797016
1223.0, 0.0021710177215604697
1224.0, 0.002733132748405586
1225.0, 0.0048267222210360726
1226.0, 0.005136185917166466
1227.0, 0.004149201151663098
1228.0, 0.0048156123407551675
1229.0, 0.003174930921691355
1230.0, 0.0023999899897626893
1231.0, 0.003912684128114458
1232.0, 0.005859211376484495
1233.0, 0.000996279046909838
1234.0, 0.002509580194675153
1235.0, 0.002224866726343854
1236.0, 0.0021764302446741646
1237.0, 0.0036838812407097125
1238.0, 0.0027920227748246492
1239.0, 0.0028952687728453757
1240.0, 0.00401227627619481
1241.0, 0.00522725822383663
1242.0, 0.004214418524624003
1243.0, 0.0011182963526646912
1244.0, 0.004329605122140128
1245.0, 0.0038403772299627974
1246.0, 0.003398571150798872
1247.0, 0.004485846002995008
1248.0, 0.005678683589751634
1249.0, 0.0046626518805838145
1250.0, 0.0038210164932728063
1251.0, 0.004411958315379659
1252.0, 0.0033528686944026536
1253.0, 0.0033204774869883503
1254.0, 0.0048934043613811104
1255.0, 0.005758746180131289
1256.0, 0.0031790436646172704
1257.0, 0.004330513949456201
1258.0, 0.0040118492211179925
1259.0, 0.0038521909059837833
1260.0, 0.005044623113861607
1261.0, 0.006043097524920162
1262.0, 0.0037343955660754024
1263.0, 0.00431967147532156
1264.0, 0.004581378475400324
1265.0, 0.003133524473337862
1266.0, 0.0012634277143690484
1267.0, 0.003664779325035603
1268.0, 0.003280693731988354
1269.0, 0.004772542597423738
1270.0, 0.005469223055419877
1271.0, 0.004621751271676487
1272.0, 0.002973359058038343
1273.0, 0.002594529311756822
1274.0, 0.0021114032524146564
1275.0, 0.0024253873319200446
1276.0, 0.002436461860881777
1277.0, 0.0026954083284375535
1278.0, 0.003819609829742927
1279.0, 0.0036549500656966848
1280.0, 0.0050334538112213395
1281.0, 0.0034861380520261618
1282.0, 0.002506783595371916
1283.0, 0.003066050969104551
1284.0, 0.004058174854013805
1285.0, 0.004526709079579747
1286.0, 0.00497617734408103
1287.0, 0.005541256179814253
1288.0, 0.004230507806732253
1289.0, 0.003436504233727081
1290.0, 0.006294681549955694
1291.0, 0.0033591261108898707
1292.0, 0.002991258530956263
1293.0, 0.0041743656206307
1294.0, 0.004626710739291455
1295.0, 0.004421637646998224
1296.0, 0.005023136030618322
1297.0, 0.0037085742714979084
1298.0, 0.0035223738328092687
1299.0, 0.004484733481607059
1300.0, 0.004979893777585545
1301.0, 0.004402743327650833
1302.0, 0.003512204112496486
1303.0, 0.004156657330623004
1304.0, 0.0034735221287321223
1305.0, 0.0045887084428376575
1306.0, 0.006193526284746558
1307.0, 0.005741370538472745
1308.0, 0.0025088604445120846
1309.0, 0.008806697141185468
1310.0, 0.005729890894639399
1311.0, 0.004378878831152348
1312.0, 0.004853670506457482
1313.0, 0.004864569047208042
1314.0, 0.002637713200712601
1315.0, 0.003264618372446985
1316.0, 0.006350371014837491
1317.0, 0.005679932093787825
1318.0, 0.004558928691569432
1319.0, 0.004951426132996087
1320.0, 0.0056930813779593305
1321.0, 0.0019999602169366404
1322.0, 0.004375593729814264
1323.0, 0.002654845610432437
1324.0, 0.0021842837424375194
1325.0, 0.004498404203515625
1326.0, 0.006375242830890401
1327.0, 0.004036005377071526
1328.0, 0.004807212826622016
1329.0, 0.003569921285906749
1330.0, 0.0025384957218643105
1331.0, 0.0026862807623001346
1332.0, 0.003312662249944881
1333.0, 0.002889468227152741
1334.0, 0.004767762614048233
1335.0, 0.003821272357488487
1336.0, 0.003615854129348907
1337.0, 0.004114395633744455
1338.0, 0.0038373819393796374
1339.0, 0.00462748378116205
1340.0, 0.003301775302907025
1341.0, 0.0032870763976209577
1342.0, 0.003932009886152128
1343.0, 0.004100813863243034
1344.0, 0.0036791168087919384
1345.0, 0.00501771738087997
1346.0, 0.005494650938814731
1347.0, 0.0035263603079285937
1348.0, 0.00402404488896421
1349.0, 0.004788899068990294
1350.0, 0.0038124490665419567
1351.0, 0.004149818742981176
1352.0, 0.0035790765787337723
1353.0, 0.0024490462421993863
1354.0, 0.0031222002281848047
1355.0, 0.003848619525733045
1356.0, 0.0032189968811153174
1357.0, 0.002216883555239191
1358.0, 0.004581834837865097
1359.0, 0.0028366729401000483
1360.0, 0.004259995557840236
1361.0, 0.005642837513720208
1362.0, 0.00490921508757656
1363.0, 0.0036063004715881815
1364.0, 0.005489732164128796
1365.0, 0.005009202909371564
1366.0, 0.0038346952536866814
1367.0, 0.0037356490819605162
1368.0, 0.0038502058752705147
1369.0, 0.0027560941815733438
1370.0, 0.0031141990605624103
1371.0, 0.005267907135897366
1372.0, 0.003860108232321727
1373.0, 0.0029213390602658876
1374.0, 0.0032350932159259053
1375.0, 0.0034167948232287004
1376.0, 0.0018141958913113422
1377.0, 0.003931864542695788
1378.0, 0.0032058197079567457
1379.0, 0.0014941168773238667
1380.0, 0.002046039598506184
1381.0, 0.00462291193265622
1382.0, 0.004712588313234426
1383.0, 0.003291057357204948
1384.0, 0.004652480039791007
1385.0, 0.003482302918539478
1386.0, 0.003729124543067198
1387.0, 0.005481399372291874
1388.0, 0.005312744505209681
1389.0, 0.0038863990474440864
1390.0, 0.004963185789373421
1391.0, 0.006528645246000952
1392.0, 0.005318042307042128
1393.0, 0.004549210927633609
1394.0, 0.006634973176185137
1395.0, 0.0055888543964365866
1396.0, 0.005084816881965523
1397.0, 0.005878942810647446
1398.0, 0.005525884872535713
1399.0, 0.004699573858952555
1400.0, 0.004107566060658626
1401.0, 0.003487444957149243
1402.0, 0.003843610328812769
1403.0, 0.003883761929934082
1404.0, 0.004895193702780891
1405.0, 0.004930777473222647
1406.0, 0.004634939640946457
1407.0, 0.0052341986252742905
1408.0, 0.0034585278431829595
1409.0, 0.0030517274761392025
1410.0, 0.004075393272229392
1411.0, 0.0035670102153800847
1412.0, 0.0028420777361124697
1413.0, 0.0030369944599571296
1414.0, 0.002562173465972665
1415.0, 0.001892237601576313
1416.0, 0.0028776782997756156
1417.0, 0.0025112166421035766
1418.0, 0.002112922105664437
1419.0, 0.002928931084403202
1420.0, 0.004351500227197516
1421.0, 0.0022882764121815767
1422.0, 0.003320842038720022
1423.0, 0.0041263814099887644
1424.0, 0.0030891167816917585
1425.0, 0.002288648140076476
1426.0, 0.003146958392999259
1427.0, 0.003600716919461587
1428.0, 0.0021817403657463123
1429.0, 0.0029690617780159497
1430.0, 0.002860370205457285
1431.0, 0.0022654841435214685
1432.0, 0.0022455930509688894
1433.0, 0.0027839463347295893
1434.0, 0.0007122258583064128
1435.0, 0.0038663664629354976
1436.0, 0.0022435181380733894
1437.0, 0.0013794156622587972
1438.0, 0.00185731793057577
1439.0, 0.002800406928518641
1440.0, 0.0039540371548227385
1441.0, 0.002167516535190067
1442.0, 0.002930915035467898
1443.0, 0.003090480034874389
1444.0, 0.0031652946800048566
1445.0, 0.003195345333110363
1446.0, 0.0030742625209443032
1447.0, 0.0038092254657881145
1448.0, 0.0039248098385977525
1449.0, 0.004607400672483909
1450.0, 0.0047162023535594925
1451.0, 0.003813174383268035
1452.0, 0.0030747971451419174
1453.0, 0.004076239611694959
1454.0, 0.0038828149710387295
1455.0, 0.002872970604597683
1456.0, 0.0036526006249435433
1457.0, 0.003122388490132983
1458.0, 0.003945512458178887
1459.0, 0.006681457039146637
1460.0, 0.004960119061569148
1461.0, 0.0037950604873277405
1462.0, 0.005201185812642246
1463.0, 0.0047612421809429956
1464.0, 0.003900737741577718
1465.0, 0.003971759496671746
1466.0, 0.004778622462712447
1467.0, 0.004458563362095793
1468.0, 0.005920306453754937
1469.0, 0.004941900057930157
1470.0, 0.003388864056474233
1471.0, 0.003780881273506208
1472.0, 0.004841259883440794
1473.0, 0.0034563145517729804
1474.0, 0.003939482364261559
1475.0, 0.003996500303536845
1476.0, 0.004376756050956501
1477.0, 0.0028355320108085255
1478.0, 0.0025981771309570014
1479.0, 0.004187857818391014
1480.0, 0.0031416729562001905
1481.0, 0.0031068398788322736
1482.0, 0.004018051800527508
1483.0, 0.0024085850439049435
1484.0, 0.002713828032349504
1485.0, 0.004045642528205464
1486.0, 0.003677665067848493
1487.0, 0.0019130685271223544
1488.0, 0.004531840336092219
1489.0, 0.0042497968097327836
1490.0, 0.0034716419128424277
1491.0, 0.004129486953188987
1492.0, 0.0036183224715790885
1493.0, 0.0015597934390616335
1494.0, 0.006313580679955719
1495.0, 0.0059614611124320415
1496.0, 0.00228512988320033
1497.0, 0.003582418241270315
1498.0, 0.0028340007864857087
1499.0, 0.0010052673664958105
1500.0, 0.0032991791706213237
1501.0, 0.0049465779194007055
1502.0, 0.0017115819943131026
1503.0, 0.0020783903183736164
1504.0, 0.003642023465152341
1505.0, 0.0025574732428688754
1506.0, 0.0012745222874809442
1507.0, 0.003656601816888391
1508.0, 0.0027469177058481327
1509.0, 0.0027979281924819586
1510.0, 0.0035755446036935205
1511.0, 0.0023275103317054566
1512.0, 0.0007341961595780479
1513.0, 0.0012710570763716867
1514.0, 0.003431792475497743
1515.0, 9.39616465242799e-05
1516.0, 0.0038741996200467397
1517.0, 0.00464475373938991
1518.0, 0.0020368059296872482
1519.0, 5.908632405483862e-05
1520, 0.0
1521, 0.0
1522, 0.0
1523, 0.0
1524, 0.0
1525, 0.0
1526, 0.0
1527, 0.0
1528, 0.0
1529, 0.0
1530, 0.0
1531, 0.0
1532, 0.0
1533, 0.0
1534, 0.0
1535, 0.0
1536, 0.0
1537, 0.0
1538, 0.0
1539, 0.0
1540, 0.0
1541, 0.0
1542, 0.0
1543, 0.0
1544, 0.0
1545, 0.0
1546, 0.0
1547, 0.0
1548, 0.0
1549, 0.0
1550, 0.0
1551, 0.0
1552, 0.0
1553, 0.0
1554, 0.0
1555, 0.0
1556, 0.0
1557, 0.0
1558, 0.0
1559, 0.0
1560, 0.0
1561, 0.0
1562, 0.0
1563, 0.0
1564, 0.0
1565, 0.0
1566, 0.0
1567, 0.0
1568, 0.0
1569, 0.0
1570, 0.0
1571, 0.0
1572, 0.0
1573, 0.0
1574, 0.0
1575, 0.0
1576, 0.0
1577, 0.0
1578, 0.0
1579, 0.0
1580, 0.0
1581, 0.0
1582, 0.0
1583, 0.0
1584, 0.0
1585, 0.0
1586, 0.0
1587, 0.0
1588, 0.0
1589, 0.0
1590, 0.0
1591, 0.0
1592, 0.0
1593, 0.0
1594, 0.0
1595, 0.0
1596, 0.0
1597, 0.0
1598, 0.0
1599, 0.0
