30, 0.0
31, 0.0
32, 0.0
33, 0.0
34, 0.0
35, 0.0
36, 0.0
37, 0.0
38, 0.0
39, 0.0
40, 0.0
41, 0.0
42, 0.0
43, 0.0
44, 0.0
45, 0.0
46, 0.0
47, 0.0
48, 0.0
49, 0.0
50, 0.0
51, 0.0
52, 0.0
53, 0.0
54, 0.0
55, 0.0
56, 0.0
57, 0.0
58, 0.0
59, 0.0
60, 0.0
61, 0.0
62, 0.0
63, 0.0
64, 0.0
65, 0.0
66, 0.0
67, 0.0
68, 0.0
69, 0.0
70, 0.0
71, 0.0
72, 0.0
73, 0.0
74, 0.0
75, 0.0
76, 0.0
77, 0.0
78, 0.0
79, 0.0
80, 0.0
81, 0.0
82, 0.0
83, 0.0
84, 0.0
85, 0.0
86, 0.0
87, 0.0
88, 0.0
89, 0.0
90, 0.0
91, 0.0
92, 0.0
93, 0.0
94, 0.0
95, 0.0
96, 0.0
97, 0.0
98, 0.0
99, 0.0
100, 0.0
101, 0.0
102, 0.0
103, 0.0
104, 0.0
105, 0.0
106, 0.0
107, 0.0
108, 0.0
109, 0.0
110, 0.0
111, 0.0
112, 0.0
113, 0.0
114, 0.0
115, 0.0
116, 0.0
117, 0.0
118, 0.0
119, 0.0
120, 0.0
121, 0.0
122, 0.0
123, 0.0
124, 0.0
125, 0.0
126, 0.0
127, 0.0
128, 0.0
129, 0.0
130, 0.0
131, 0.0
132, 0.0
133, 0.0
134, 0.0
135, 0.0
136, 0.0
137, 0.0
138, 0.0
139, 0.0
140, 0.0
141, 0.0
142, 0.0
143, 0.0
144, 0.0
145, 0.0
146, 0.0
147, 0.0
148, 0.0
149, 0.0
150, 0.0
151, 0.0
152, 0.0
153, 0.0
154, 0.0
155, 0.0
156, 0.0
157, 0.0
158, 0.0
159, 0.0
160, 0.0
161, 0.0
162, 0.0
163, 0.0
164, 0.0
165, 0.0
166, 0.0
167, 0.0
168, 0.0
169, 0.0
170, 0.0
171, 0.0
172, 0.0
173, 0.0
174, 0.0
175, 0.0
176, 0.0
177, 0.0
178.0, 0.0011511576346659583
179.0, 0.011054810011720104
180.0, 0.026341585907818505
181.0, 0.04087269629618267
182.0, 0.07457118638925936
183.0, 0.10058878099440534
184.0, 0.11991202929310896
185.0, 0.13190884738136735
186.0, 0.1328852176906754
187.0, 0.12937299041672992
188.0, 0.12192332162197475
189.0, 0.1154707073095599
190.0, 0.11427208869525918
191.0, 0.11711920224038534
192.0, 0.12336314897631644
193.0, 0.13493655351024478
194.0, 0.1478739904005368
195.0, 0.15234372381710345
196.0, 0.1471918830880269
197.0, 0.1457721903362186
198.0, 0.15097909157363998
199.0, 0.15745391708368597
200.0, 0.15969191860813386
201.0, 0.1584042814463695
202.0, 0.16095852471309569
203.0, 0.16829871855219752
204.0, 0.17150585252774056
205.0, 0.1849680854087036
206.0, 0.19122543569027392
207.0, 0.18995046439590713
208.0, 0.1939412179573207
209.0, 0.2008006050364036
210.0, 0.18735443387120831
211.0, 0.1737990577838799
212.0, 0.17492931016895885
213.0, 0.16248690115536993
214.0, 0.14879036270818652
215.0, 0.14053766774131451
216.0, 0.135791631771302
217.0, 0.12886301493272556
218.0, 0.12846903157729966
219.0, 0.12120932068659115
220.0, 0.11253102505914193
221.0, 0.1082815981294234
222.0, 0.0991043198734285
223.0, 0.09097893475994066
224.0, 0.07895846940284525
225.0, 0.06490175032934443
226.0, 0.06314158771034363
227.0, 0.0584401592979045
228.0, 0.05118167331894006
229.0, 0.045185988061261395
230.0, 0.04400845456401179
231.0, 0.04190216579621366
232.0, 0.04199786675366597
233.0, 0.04281342540877088
234.0, 0.04260254590595707
235.0, 0.03981306296099904
236.0, 0.037520385816042424
237.0, 0.042718612150637124
238.0, 0.04469059907570468
239.0, 0.03634419865336826
240.0, 0.045396742069534125
241.0, 0.051890410814071225
242.0, 0.05152311457602077
243.0, 0.048947714402071026
244.0, 0.05250917635161072
245.0, 0.0654726487514518
246.0, 0.07134014887279987
247.0, 0.07314547668387902
248.0, 0.07824308627920741
249.0, 0.08088373890864625
250.0, 0.07910474986781979
251.0, 0.07503129086214554
252.0, 0.07018718487433148
253.0, 0.06446960009338806
254.0, 0.05675174337658454
255.0, 0.04588490860112459
256.0, 0.031824372821557735
257.0, 0.01972766390365404
258.0, 0.02156428155708094
259.0, 0.01608778195249429
260.0, 0.008005429098701377
261.0, 0.0008080083882497477
262.0, 0.006516737144741836
263.0, 0.0035627439951671936
264.0, 0.0037746009878164956
265.0, 0.005575177461318697
266.0, 0.005302323015777631
267.0, 0.00473906897112725
268.0, 0.002891145054127462
269.0, 0.004889663238576532
270.0, 0.0062216280702422615
271.0, 0.0011995511300655274
272.0, 0.0011911495615702515
273.0, 0.00163356646062027
274.0, 0.0025552445708408385
275.0, 0.004642978048288429
276.0, 0.006819818397350167
277.0, 0.001557019670484125
278.0, 0.0038726431809310304
279.0, 0.006583836973918488
280.0, 0.001030059292983237
281.0, 0.00045201452394275847
282.0, 0.004699923482731156
283.0, 0.0020709237705708455
284.0, 0.006008996616043721
285.0, 0.0034830318168905805
286.0, 0.006801025639756294
287.0, 0.007973276392931977
288.0, 0.006758917414631394
289.0, 0.0058909482343590495
290.0, 0.006783742676434706
291.0, 0.003062730332850625
292.0, 0.0030474942361028395
293.0, 0.005702317423181034
294.0, 0.004846036171418948
295.0, 0.0008929380032495281
296.0, 0.00025773616631203673
297.0, 0.004491542497605157
298.0, 0.008254594015184332
299.0, 0.003469046051058359
300.0, 0.0026420354208471697
301.0, 0.009524202400588154
302.0, 0.012348793317499428
303.0, 0.007809914063963008
304.0, 0.0077369834585234555
305.0, 0.00921583010006275
306.0, 0.010583628406632354
307.0, 0.012384864164545414
308.0, 0.01360070465233951
309.0, 0.010003094239185346
310.0, 0.016593243234862717
311.0, 0.020930419010443162
312.0, 0.022409048701723805
313.0, 0.028390562296910962
314.0, 0.027904638261379264
315.0, 0.027518073898016217
316.0, 0.029354427317228836
317.0, 0.031258471225014996
318.0, 0.028973824816269
319.0, 0.02125848074529282
320.0, 0.021122720368279408
321.0, 0.022921362860963197
322.0, 0.018849143963145742
323.0, 0.013601278631628185
324.0, 0.010260259916628135
325.0, 0.010072362959906616
326.0, 0.009732468162781607
327.0, 0.006149100836010191
328.0, 0.004822151212818794
329.0, 0.0067836142012777795
330.0, 0.010327278932898224
331.0, 0.011858302649306278
332.0, 0.007993107308496278
333.0, 0.009130766772090505
334.0, 0.007739784888163984
335.0, 0.009735399882097723
336.0, 0.01351154306187408
337.0, 0.008787266627753051
338.0, 0.013204006858661336
339.0, 0.01028898117210163
340.0, 0.005583812250972684
341.0, 0.007766831750105019
342.0, 0.009707010351509332
343.0, 0.0073790275063469754
344.0, 0.009330836236206338
345.0, 0.012313738630875004
346.0, 0.01242130057144363
347.0, 0.01852389475079729
348.0, 0.016431861155738543
349.0, 0.01468390345643382
350.0, 0.016731537422246753
351.0, 0.01803826667514559
352.0, 0.015132748874708482
353.0, 0.013330396061900254
354.0, 0.01291490315357777
355.0, 0.013558575339509715
356.0, 0.015027568042686183
357.0, 0.01744786923929802
358.0, 0.016164307944639727
359.0, 0.01587936903494191
360.0, 0.017895266475254922
361.0, 0.01925678626923606
362.0, 0.022298000927135235
363.0, 0.016791800598044845
364.0, 0.014903696885514742
365.0, 0.019048733423495993
366.0, 0.014936344880923802
367.0, 0.023368290587860236
368.0, 0.025727318137046828
369.0, 0.024039777008086887
370.0, 0.023589523618468354
371.0, 0.02182340942692495
372.0, 0.021534031588641707
373.0, 0.024161610287670197
374.0, 0.02533029647222565
375.0, 0.024315387117440006
376.0, 0.030235234940802755
377.0, 0.027751446007480023
378.0, 0.029863360304152372
379.0, 0.03176431306932481
380.0, 0.02679230037024176
381.0, 0.029546268891550723
382.0, 0.0337448770622885
383.0, 0.03595218926388464
384.0, 0.03535968119447156
385.0, 0.03350055072967005
386.0, 0.034996739788707404
387.0, 0.037398651442458554
388.0, 0.040445372849368146
389.0, 0.04274364501757344
390.0, 0.04417155119788161
391.0, 0.0493449422162249
392.0, 0.053703645146275035
393.0, 0.05755983278151783
394.0, 0.05798652168730973
395.0, 0.053922612932646885
396.0, 0.05703941607603252
397.0, 0.058111139674012435
398.0, 0.052638136918762415
399.0, 0.046302367378585126
400.0, 0.04635778412501571
401.0, 0.042462733444103985
402.0, 0.03338055714866163
403.0, 0.026795589053451398
404.0, 0.026599537333727146
405.0, 0.02883764630145859
406.0, 0.022682834050487998
407.0, 0.01612266873359266
408.0, 0.01288254329284833
409.0, 0.011643722676076235
410.0, 0.01004352994331966
411.0, 0.00855014087374739
412.0, 0.00825304230104487
413.0, 0.007666292888221737
414.0, 0.006757598430176479
415.0, 0.006507840090457029
416.0, 0.0060070526556230104
417.0, 0.001680399591992089
418.0, 0.004004056286628531
419.0, 0.008224538573257823
420.0, 0.004720008288224921
421.0, 0.0017792593596453483
422.0, 0.0023297895907890697
423.0, 0.001449388146486068
424.0, 0.004546164358734413
425.0, 0.0036483401152595965
426.0, 0.00459861229522669
427.0, 0.004909301035612888
428.0, 0.003592582643585125
429.0, 0.0017725387051868986
430.0, 0.0021264355192005258
431.0, 0.006655034988044688
432.0, 0.0015308698235149587
433.0, 0.0010632331261433803
434.0, 0.0012890225121092787
435.0, 0.0015356094289137837
436.0, 0.0018810379402696197
437.0, 0.003714419225488952
438.0, 0.003332124064704326
439.0, 0.0031511688652438212
440.0, 0.0052863166864058325
441.0, 0.006526638436354661
442.0, 0.005453049633433471
443.0, 0.005561459585641987
444.0, 0.0031898685318900856
445.0, 0.00030600191638759577
446.0, 0.0048647951293382405
447.0, 0.004138838132511794
448.0, 0.006971823648775683
449.0, 0.007461802205222598
450.0, 0.0037860222505146294
451.0, 0.0031985307781577316
452.0, 0.0048973575306703356
453.0, 0.005242942553822495
454.0, 0.00381364943513541
455.0, 0.0024131253150968474
456.0, 0.00334544403763863
457.0, 0.005486927299946986
458.0, 0.005014938317811706
459.0, 0.00360857846596154
460.0, 0.003772514820745285
461.0, 0.005395595093368731
462.0, 0.005057532821524937
463.0, 0.004333228109862694
464.0, 0.0003966506805569334
465.0, 0.0024576584646303764
466.0, 0.002873309099966443
467.0, 0.0006227927844868841
468.0, 0.0009346807827490608
469.0, 0.0005393348445306227
470.0, 0.0005597407696961848
471.0, 0.0005306515701328555
472.0, 0.0002630517096434884
473.0, 0.003874912463433405
474.0, 0.004333676488435368
475.0, 0.0011055840956074705
476.0, 0.0012270742533347237
477.0, 0.0014573251084584525
478.0, 0.0037943799254345953
479.0, 0.0030106165676230066
480.0, 0.0033907010481369314
481.0, 0.003993797779881507
482.0, 0.0011247625981517296
483.0, 0.0015447312622523127
484.0, 0.0006381412631110876
485.0, 0.0010523946196278025
486.0, 0.002568050959524589
487.0, 0.0020594113404594386
488.0, 0.0025721766662245562
489.0, 0.002806524147156026
490.0, 0.0022985433720544308
491.0, 0.0015294927673318544
492.0, 0.0006965051643133973
493.0, 0.0005041289945456466
494.0, 0.006192677118003708
495.0, 0.004158618172281942
496.0, 0.0007762522173547008
497.0, 0.0007306432655991082
498.0, 0.0021569751313407
499.0, 0.0009147599963987626
500.0, 0.0023024510301374317
501.0, 0.001165769070304961
502.0, 0.001978154232118918
503.0, 0.006312285101918629
504.0, 0.0014227811119739398
505.0, 0.001047225123229147
506.0, 0.0008917617897769738
507.0, 0.00019605474949364573
508.0, 0.0003353535472632716
509.0, 0.0005342849139022059
510.0, 0.003474443726019099
511.0, 0.003940768418887684
512.0, 0.004371856814045103
513.0, 0.005254211325614939
514.0, 0.0043421566592282985
515.0, 0.006690278044449992
516.0, 0.005565434888908059
517.0, 0.0031791338890426535
518.0, 0.003972354338306648
519.0, 0.0076354479365480996
520.0, 0.005565061505668842
521.0, 0.007522454960757622
522.0, 0.009955186597435557
523.0, 0.01148541689431311
524.0, 0.01259632725691261
525.0, 0.013078836527588166
526.0, 0.01303898644398831
527.0, 0.01196891721506537
528.0, 0.010008189277251098
529.0, 0.008166759796774862
530.0, 0.007545522804910579
531.0, 0.009156906011104476
532.0, 0.007082847664237145
533.0, 0.008358220307380855
534.0, 0.010034795214594707
535.0, 0.008511637493352929
536.0, 0.00591655524126437
537.0, 0.013091849873754174
538.0, 0.013139112458780473
539.0, 0.008323809359240052
540.0, 0.004941899200021878
541.0, 0.004904026281624445
542.0, 0.0054155793000879825
543.0, 0.005806938417787008
544.0, 0.006164915697536405
545.0, 0.0027372606348984516
546.0, 0.0021287987318791683
547.0, 0.0010047755504443037
548.0, 0.006330318266093753
549.0, 0.0039831947632494955
550.0, 0.001328615463903525
551.0, 0.002011479886641904
552.0, 0.00330129752711289
553.0, 0.0035031388742760815
554.0, 0.0016326221468656954
555.0, 0.0004499784496863568
556.0, 0.0005147133417787847
557.0, 0.0023765809655347837
558.0, 0.0052232566922223505
559.0, 0.004295806696432371
560.0, 0.002116887573816795
561.0, 0.0004920260645294367
562.0, 0.002713448235725587
563.0, 0.006836716052032734
564.0, 0.0020011519867052492
565.0, 0.006547607764370692
566.0, 0.00798049783282264
567.0, 0.004806602025675806
568.0, 0.002388370394581899
569.0, 0.004124440647747827
570.0, 0.007684078149603414
571.0, 0.015474719191660593
572.0, 0.01508699393868915
573.0, 0.010583416036611571
574.0, 0.008457666369269687
575.0, 0.008404924414849925
576.0, 0.014266319760479568
577.0, 0.015071564695774984
578.0, 0.015005440942625315
579.0, 0.015183855543836533
580.0, 0.013951498074963197
581.0, 0.013732483782776897
582.0, 0.01530606821186865
583.0, 0.01931104343380511
584.0, 0.023204947962386504
585.0, 0.025780051425463916
586.0, 0.027445466114279206
587.0, 0.026528916749059793
588.0, 0.02598840106335876
589.0, 0.029919243566444362
590.0, 0.03228713869540073
591.0, 0.031647266894171924
592.0, 0.035400782345420906
593.0, 0.039044857373882566
594.0, 0.04443321859868338
595.0, 0.0452109127641239
596.0, 0.04340724329910205
597.0, 0.04453311612935221
598.0, 0.04753385384956219
599.0, 0.04528366421065212
600.0, 0.04964120523566251
601.0, 0.04977800415939799
602.0, 0.046063566380326555
603.0, 0.04628376545665644
604.0, 0.04851130290955675
605.0, 0.04699490401590323
606.0, 0.04429696330679998
607.0, 0.041932092926116944
608.0, 0.04103741522855829
609.0, 0.04139853919897172
610.0, 0.03927007857461232
611.0, 0.03319167969341113
612.0, 0.03248476256573291
613.0, 0.030867670962513985
614.0, 0.025507784247741094
615.0, 0.02296971609087946
616.0, 0.026779182110779152
617.0, 0.018368128567572126
618.0, 0.015136653354190508
619.0, 0.016069937410645458
620.0, 0.01514876042084514
621.0, 0.016768947933188692
622.0, 0.015022756068494224
623.0, 0.013952714956299224
624.0, 0.014093364107761751
625.0, 0.01302915512614711
626.0, 0.0093544099691899
627.0, 0.004900341166931803
628.0, 0.0048127404481459295
629.0, 0.0064121364655072375
630.0, 0.005005990720652912
631.0, 0.0031364236936878716
632.0, 0.003449811630322537
633.0, 0.0025907898030156627
634.0, 0.0035953237577990055
635.0, 0.0028663844171033376
636.0, 0.0016184751308103067
637.0, 0.003229584076905998
638.0, 0.007055330610041717
639.0, 0.005645816683315416
640.0, 0.0010278159615909356
641.0, 0.0018012757212253591
642.0, 0.0017605677674107224
643.0, 0.0008512771362136119
644.0, 0.0014945749680749197
645.0, 0.004765116832843603
646.0, 0.0009439959253913988
647.0, 0.0017369461647451516
648.0, 0.002512594019696854
649.0, 0.0023734125233932407
650.0, 0.00321404548610354
651.0, 0.0012061817709586513
652.0, 0.0037397949739926446
653.0, 0.0014411684140191615
654.0, 0.003588852405794632
655.0, 0.005265871887651518
656.0, 0.0017021826556248947
657.0, 0.0006066645769387899
658.0, 0.0004405786831144199
659.0, 0.0011057274642921166
660.0, 0.0018618673821923992
661.0, 0.004562372678302991
662.0, 0.0032142564947014013
663.0, 0.0036901848154128106
664.0, 0.004255235802838604
665.0, 0.0018043745773916728
666.0, 0.0029078759085379635
667.0, 0.0036017846525510334
668.0, 0.0004469584056369318
669.0, 0.00021361740159231635
670.0, 0.0020887648972045163
671.0, 0.000995040190789718
672.0, 0.0011830710276562074
673.0, 0.0019431045702531392
674.0, 0.001807935593484085
675.0, 0.0033506173098902946
676.0, 0.006165355484178697
677.0, 0.005716552596926609
678.0, 0.004275014440621774
679.0, 0.004599326818547601
680.0, 0.005724983537043011
681.0, 0.004741513882491278
682.0, 0.005605910386381407
683.0, 0.006406336238293927
684.0, 0.004930838484762093
685.0, 0.007371621219219751
686.0, 0.009822583490091606
687.0, 0.0057243105336305675
688.0, 0.01007709678779504
689.0, 0.011223607736959443
690.0, 0.015852992189106508
691.0, 0.01973935057097909
692.0, 0.018667875554815576
693.0, 0.015872134922936213
694.0, 0.018788414595635468
695.0, 0.022549095589009315
696.0, 0.024406716426719995
697.0, 0.027135961323321158
698.0, 0.029168807522605943
699.0, 0.03055802793523673
700.0, 0.03609786286594355
701.0, 0.04187045229287141
702.0, 0.04422427533241799
703.0, 0.04240552576260685
704.0, 0.03964571598114961
705.0, 0.038022288157906134
706.0, 0.03660015337676301
707.0, 0.0365893065575809
708.0, 0.039132757092254895
709.0, 0.03922748775990353
710.0, 0.036315859974794015
711.0, 0.035006213950903885
712.0, 0.03759301459414133
713.0, 0.038830669568275314
714.0, 0.03607023233247604
715.0, 0.03285745523084685
716.0, 0.03135751565276668
717.0, 0.028578307370528463
718.0, 0.02267818813835355
719.0, 0.01709712089117828
720.0, 0.01748045009392288
721.0, 0.01677373657181506
722.0, 0.018540713114689553
723.0, 0.01982336362971525
724.0, 0.017508814925345565
725.0, 0.014910692944031616
726.0, 0.017793825394063646
727.0, 0.01551683945567747
728.0, 0.01726927578127104
729.0, 0.019146870004665077
730.0, 0.018443775513618317
731.0, 0.01664977950717601
732.0, 0.012866177462722688
733.0, 0.0155567147527754
734.0, 0.01604554442094541
735.0, 0.014506987572735037
736.0, 0.013597657751929362
737.0, 0.013539914146407251
738.0, 0.012771924216123458
739.0, 0.013953996629908507
740.0, 0.016127193132944972
741.0, 0.014804191278957692
742.0, 0.011072787240890506
743.0, 0.007662423189952686
744.0, 0.006234175604142847
745.0, 0.007091296070258615
746.0, 0.009445410379403562
747.0, 0.008404778667901
748.0, 0.008885074163441288
749.0, 0.007475548939500011
750.0, 0.0035384511367324324
751.0, 0.003348103172670962
752.0, 0.007807082217613737
753.0, 0.0028406296533937865
754.0, 0.0042325152289445275
755.0, 0.0033352456074840645
756.0, 5.9811454439543505e-05
757.0, 0.0002001680931572804
758.0, 0.00048106390258530017
759.0, 0.0008470977366116267
760.0, 0.0022745297563284026
761.0, 0.003059939648675818
762.0, 0.002573637363034317
763.0, 0.0015363088157373695
764.0, 0.0002906571418302916
765.0, 0.0015399384020239367
766.0, 0.0033666441734593717
767.0, 0.0021232972383909404
768.0, 0.004915949954033207
769.0, 0.006203793237877752
770.0, 0.005861905336258577
771.0, 0.011722716302723623
772.0, 0.015070196492889671
773.0, 0.014053229093486923
774.0, 0.014143322746143376
775.0, 0.010780902069734229
776.0, 0.009186651827688339
777.0, 0.013573446610076171
778.0, 0.015366052448075075
779.0, 0.012721234378630703
780.0, 0.01818987791808192
781.0, 0.01908935908246743
782.0, 0.01684897730038429
783.0, 0.01752958085918941
784.0, 0.02041130272779467
785.0, 0.020389109642916372
786.0, 0.01984579394003356
787.0, 0.022993856251839997
788.0, 0.021231189671558993
789.0, 0.020483725870787024
790.0, 0.02466652797230605
791.0, 0.028503065688690963
792.0, 0.02461538696276648
793.0, 0.026589293234568216
794.0, 0.025681254214762295
795.0, 0.022145746940663263
796.0, 0.02260382425653126
797.0, 0.022782026664962263
798.0, 0.017842931352194214
799.0, 0.019524217080647707
800.0, 0.012427447662247102
801.0, 0.008656704677079057
802.0, 0.009953621464997387
803.0, 0.007288071286189003
804.0, 0.0016140770726169654
805.0, 0.0020134117183052665
806.0, 0.0035412227698113524
807.0, 0.0020374180449393917
808.0, 0.0025827431541919294
809.0, 0.0026790358747049324
810.0, 0.0007585829929353566
811.0, 0.0028516151204105744
812.0, 0.003973385429960677
813.0, 0.0023859358171859
814.0, 0.0008438369500143911
815.0, 0.004105926984832672
816.0, 0.007898795582701007
817.0, 0.007128719058339793
818.0, 0.0052985677000450294
819.0, 0.009285431919879862
820.0, 0.014936115386189372
821.0, 0.010806156993008716
822.0, 0.012125559596772913
823.0, 0.012265786412967545
824.0, 0.01203308942542771
825.0, 0.014315595635098257
826.0, 0.016476954989832315
827.0, 0.01673224564386339
828.0, 0.015459545938660661
829.0, 0.021547536305598677
830.0, 0.023712522065089527
831.0, 0.021180989758234254
832.0, 0.018148649560476796
833.0, 0.016396728489270825
834.0, 0.016308136028004523
835.0, 0.019347377375714365
836.0, 0.021161922241162073
837.0, 0.019862203693784677
838.0, 0.016297774233273193
839.0, 0.015852866750553935
840.0, 0.01919136531849343
841.0, 0.01964389408553593
842.0, 0.02050367412005365
843.0, 0.016322962705438527
844.0, 0.0160149505572828
845.0, 0.01899328526676569
846.0, 0.020835136425426583
847.0, 0.021458922653058772
848.0, 0.023710741315107444
849.0, 0.023859611913874375
850.0, 0.01818159603802267
851.0, 0.016334387291573813
852.0, 0.019798890232587837
853.0, 0.02300984665133876
854.0, 0.022264914182645916
855.0, 0.02005433335163165
856.0, 0.0220802351988778
857.0, 0.016712024154971354
858.0, 0.017541897359448673
859.0, 0.021494321630895773
860.0, 0.020215765442198226
861.0, 0.01672492264986198
862.0, 0.015349823018055365
863.0, 0.01103747768418645
864.0, 0.010947667863916035
865.0, 0.013656318006775704
866.0, 0.01363396938508172
867.0, 0.008831125712413294
868.0, 0.005944836502472339
869.0, 0.007150037965089087
870.0, 0.008199551528122418
871.0, 0.012653526744643075
872.0, 0.006586666547501811
873.0, 0.0009334010931431388
874.0, 0.0021907525736424007
875.0, 0.0028329581077093263
876.0, 0.0020217776076700182
877.0, 0.004202141655774932
878.0, 0.005814674595107512
879.0, 0.0003992364259494906
880.0, 0.0003392119627715198
881.0, 0.0007192808120323937
882.0, 0.0029753597973856648
883.0, 0.002677902190894461
884.0, 3.119074103930057e-05
885.0, 5.142302433861103e-05
886.0, 0.0001871521831950286
887.0, 0.00028400844609109054
888.0, 0.002547845852995978
889.0, 0.002569745825392841
890.0, 0.0015547458387613065
891.0, 0.0035288653986991704
892.0, 0.00646803128745433
893.0, 0.005250729132005379
894.0, 0.0026137085723140097
895.0, 0.005873344948640594
896.0, 0.008138449616672443
897.0, 0.006308455108264005
898.0, 0.004179388584290092
899.0, 0.0038789691036607275
900.0, 0.003860772347718579
901.0, 0.00444524758403686
902.0, 0.004822326373317486
903.0, 0.005967384731555736
904.0, 0.010107672187402484
905.0, 0.008650230525236334
906.0, 0.00628704741425706
907.0, 0.006619589703975858
908.0, 0.0050460706530629775
909.0, 0.00512737587409945
910.0, 0.002760276376395576
911.0, 0.0024538918075963896
912.0, 0.0043394952866466835
913.0, 0.00462557203475534
914.0, 0.0034614376947928304
915.0, 0.00308586948500142
916.0, 0.0032958100566520426
917.0, 0.003105748648151042
918.0, 0.0034929208793715518
919.0, 0.006414958105059784
920.0, 0.006932156448744171
921.0, 0.007094506176022861
922.0, 0.007099650057208248
923.0, 0.006450915928789798
924.0, 0.00578394288536619
925.0, 0.002638093346535201
926.0, 0.007515855819080894
927.0, 0.0036812479623460482
928.0, 0.0067745849373394215
929.0, 0.007924758859933139
930.0, 0.004591431345322305
931.0, 0.005046766761346181
932.0, 0.006126775484517694
933.0, 0.00232212578007216
934.0, 0.004755760415847624
935.0, 0.006646845950661509
936.0, 0.004384650845391799
937.0, 0.0012601567646545028
938.0, 0.0034589723543272614
939.0, 0.006929261925509319
940.0, 0.002515036807401989
941.0, 0.006556718743682371
942.0, 0.008199444908868161
943.0, 0.0015245841697432007
944.0, 0.0029485804995871565
945.0, 0.005389900036896448
946.0, 0.0019273601290402543
947.0, 0.000240377432047134
948.0, 0.004456390310846083
949.0, 0.002762984402267504
950.0, 0.0031508529067714505
951.0, 0.00396289160292496
952.0, 0.006460781260882298
953.0, 0.004180620135749276
954.0, 0.0011800858074388072
955.0, 0.0009947302604932818
956.0, 0.0003953271964040226
957.0, 0.0004885942532455744
958.0, 0.0038982360223736253
959.0, 0.004975199423447162
960.0, 0.0029591494813295764
961.0, 0.0012991907385413487
962.0, 0.0007052231519733113
963.0, 0.001998871999059985
964.0, 0.00428903192899578
965.0, 0.004543819609833216
966.0, 0.005412854177418152
967.0, 0.0021735311550709923
968.0, 0.0037592300670491125
969.0, 0.003878209422088694
970.0, 0.004052966545563741
971.0, 0.0054182454938094034
972.0, 0.006110101355785372
973.0, 0.0057706553134168805
974.0, 0.00545059756296478
975.0, 0.005337574476503976
976.0, 0.00391569227376025
977.0, 0.003024455666585676
978.0, 0.0016457329693865838
979.0, 0.0007482524258308219
980.0, 0.0013686528073381652
981.0, 0.004354631303243069
982.0, 0.008528018199360178
983.0, 0.0070110498157409315
984.0, 0.003859065207226272
985.0, 0.0066508520818793805
986.0, 0.0029783618155997523
987.0, 0.00041968223650830155
988.0, 0.0026379212252384127
989.0, 0.005413921825710707
990.0, 0.0020255337139827405
991.0, 0.00020631141753999367
992.0, 0.001914593250336805
993.0, 0.005136621744003193
994.0, 0.0027998303258612166
995.0, 0.0007512398854000913
996.0, 0.00325645470237419
997.0, 0.0032386332095649772
998.0, 0.0005970408910346371
999.0, 0.0024343760444531983
1000.0, 0.0020467770751634528
1001.0, 0.00395221740056476
1002.0, 0.0018546426514161882
1003.0, 0.001664003589914349
1004.0, 0.002849010593651268
1005.0, 0.0020176159095420753
1006.0, 0.000931324295725993
1007.0, 0.0009786144964678632
1008.0, 0.00044787958126574814
1009.0, 0.0010205741910292926
1010.0, 0.0067781759081223854
1011.0, 0.0037319259716389556
1012.0, 0.004189721284233385
1013.0, 0.0009335235181034261
1014.0, 0.0021475413641996325
1015.0, 0.003411604246891622
1016.0, 0.0017228189418045997
1017.0, 0.007929538099166923
1018.0, 0.0016682267114078511
1019.0, 0.002375851227164826
1020.0, 0.002010133515885938
1021.0, 0.003760971490697076
1022.0, 0.003559052167261816
1023.0, 0.0027142874457118872
1024.0, 0.0025758478062685216
1025.0, 0.001510738904910337
1026.0, 0.00013513634422675997
1027.0, 0.00024203184337909646
1028.0, 0.0026929614666025723
1029.0, 0.0008680052133301531
1030.0, 0.00030319797752640466
1031.0, 0.0005580018962602519
1032.0, 0.000696668340713402
1033.0, 0.0005872706011607197
1034.0, 0.0004400049901859403
1035.0, 0.0006699095832664172
1036.0, 0.001579521598616606
1037.0, 0.001223324472519046
1038.0, 0.0052432154464350155
1039.0, 0.0020329423009967052
1040.0, 0.004409198634073661
1041.0, 0.0062482045568569965
1042.0, 0.0039004751240239535
1043.0, 0.004178644932930797
1044.0, 0.0037092839505651724
1045.0, 0.0036945376021654463
1046.0, 0.006164721533458392
1047.0, 0.0038804210520189232
1048.0, 0.003263795901799365
1049.0, 0.0035523764246719763
1050.0, 0.00488308873924908
1051.0, 0.00495408371251711
1052.0, 0.0026481727201843118
1053.0, 0.0018394432112808583
1054.0, 0.0037260541810405314
1055.0, 0.002152357919980847
1056.0, 0.007098675603345341
1057.0, 0.001671150191783277
1058.0, 0.0020983502924164146
1059.0, 0.004870764308891526
1060.0, 0.002614901546232937
1061.0, 0.0018012302589569427
1062.0, 0.005472802850769118
1063.0, 0.009887578748349089
1064.0, 0.014852197295809678
1065.0, 0.006803923552936659
1066.0, 0.0018258625012313055
1067.0, 0.0009355391040916616
1068.0, 0.00235023598348272
1069.0, 0.0013996100653935397
1070.0, 0.003045951716716707
1071.0, 0.005169554893823803
1072.0, 0.004439042399713688
1073.0, 0.004885910647760972
1074.0, 0.006533926335569146
1075.0, 0.012370265548831975
1076.0, 0.011087981873268593
1077.0, 0.008192731848763748
1078.0, 0.008493267856054799
1079.0, 0.00960040594291178
1080.0, 0.011087421935208768
1081.0, 0.014201095402426974
1082.0, 0.017142870341288453
1083.0, 0.017319142404880132
1084.0, 0.018152617496514672
1085.0, 0.026711940915619715
1086.0, 0.03098529831559939
1087.0, 0.02590851972150897
1088.0, 0.022517603138058076
1089.0, 0.02555627891448492
1090.0, 0.027210717924516174
1091.0, 0.027317618451429153
1092.0, 0.026740924624831696
1093.0, 0.0250140866563376
1094.0, 0.03298158420258989
1095.0, 0.03810101820888895
1096.0, 0.0392186202259521
1097.0, 0.04202133317664178
1098.0, 0.046770121581631866
1099.0, 0.05517756664739485
1100.0, 0.06938156710224698
1101.0, 0.08538817762236532
1102.0, 0.10342140920988825
1103.0, 0.13088370727204543
1104.0, 0.16578030220205997
1105.0, 0.20797383326260954
1106.0, 0.2626932069066053
1107.0, 0.3210263797432366
1108.0, 0.3924668496742708
1109.0, 0.47292880924556874
1110.0, 0.5780128323734844
1111.0, 0.6982875611619533
1112.0, 0.8145660377967221
1113.0, 0.9179632877022191
1114.0, 0.9878977024607013
1115.0, 0.9847062813074612
1116.0, 0.8826953940878719
1117.0, 0.7291725100083861
1118.0, 0.554074221287991
1119.0, 0.3987953476100146
1120.0, 0.28465773250170834
1121.0, 0.20672308074170817
1122.0, 0.15341527992869927
1123.0, 0.11541208521994462
1124.0, 0.08735855348786281
1125.0, 0.06999431870616915
1126.0, 0.060373745535203
1127.0, 0.050572480870798124
1128.0, 0.03660244353752732
1129.0, 0.0333972322736042
1130.0, 0.03125821551820299
1131.0, 0.026902700754181025
1132.0, 0.0240657213121136
1133.0, 0.02198013962882494
1134.0, 0.01791394464044948
1135.0, 0.014302193859669196
1136.0, 0.01418516307437394
1137.0, 0.015458075302820685
1138.0, 0.009811216536860031
1139.0, 0.00870734335717981
1140.0, 0.011537884792403509
1141.0, 0.011377947860163011
1142.0, 0.005859798743749019
1143.0, 0.004617151364650017
1144.0, 0.0065733647815872905
1145.0, 0.00471865149799046
1146.0, 0.004649640241256189
1147.0, 0.005890400294916819
1148.0, 0.0012376788685111821
1149.0, 0.0013887360102611056
1150.0, 0.0047782477821774055
1151.0, 0.002389022339693573
1152.0, 0.00278786271376531
1153.0, 0.003563491421347698
1154.0, 0.0016623039173895085
1155.0, 0.0001133660422352565
1156.0, 0.0015911774960782575
1157.0, 0.0038908121882025508
1158.0, 0.00415848900789907
1159.0, 0.0017423877405170738
1160.0, 0.0007774940459754628
1161.0, 0.0006339602301572761
1162.0, 0.0001950221615960607
1163.0, 0.007037070796777945
1164.0, 0.0012351337340869894
1165.0, 0.001779018599582495
1166.0, 0.0010075950929539046
1167.0, 0.00116390559521374
1168.0, 0.004367258045321623
1169.0, 0.006925131037494033
1170.0, 0.00036595314903641794
1171.0, 0.0017565530019067947
1172.0, 0.0014898799588051218
1173.0, 0.002543327595575828
1174.0, 0.004248078537987225
1175.0, 0.006392114548649909
1176.0, 0.0018872536184256468
1177.0, 0.0014960210982742643
1178.0, 0.003262209642120882
1179.0, 0.0036419660168082535
1180.0, 0.00460697380524188
1181.0, 0.0026264764507692
1182.0, 0.004030196317667749
1183.0, 0.0022250430207697196
1184.0, 0.0034844943636080064
1185.0, 0.001846785118613017
1186.0, 0.00123486421958004
1187.0, 0.001940388503786335
1188.0, 0.004596642822564558
1189.0, 0.0014292236621281755
1190.0, 0.0025642191374037684
1191.0, 0.0008457146614279168
1192.0, 0.0013473711694392252
1193.0, 0.00462862827519246
1194.0, 0.00013699159213390028
1195.0, 0.0010481436342931643
1196.0, 0.005098449629107098
1197.0, 0.007217145900316249
1198.0, 0.009105133077622334
1199.0, 0.006660188577010846
1200.0, 0.004314989304424985
1201.0, 0.0036607742141856183
1202.0, 0.004082375358278913
1203.0, 0.003633751636145879
1204.0, 0.004070180183612049
1205.0, 0.009745779050389798
1206.0, 0.008815327443683157
1207.0, 0.006013285797353048
1208.0, 0.01096985543011011
1209.0, 0.011535464280775565
1210.0, 0.010422420876882029
1211.0, 0.012193815873711426
1212.0, 0.00962440150344062
1213.0, 0.004846610774929573
1214.0, 0.007513385859602821
1215.0, 0.008999457785871195
1216.0, 0.005031822380942961
1217.0, 0.006794655819571591
1218.0, 0.0102360264142834
1219.0, 0.007081758852375748
1220.0, 0.008054934423652087
1221.0, 0.009807574067058037
1222.0, 0.009499815180597506
1223.0, 0.00860642840599757
1224.0, 0.007302670354947075
1225.0, 0.008952698886999491
1226.0, 0.014285272801587095
1227.0, 0.01410494833060844
1228.0, 0.009323956602849117
1229.0, 0.009416821372254146
1230.0, 0.010515199968760965
1231.0, 0.00647381421786531
1232.0, 0.01089920765506434
1233.0, 0.006699465036407583
1234.0, 0.004680145380646514
1235.0, 0.008211079290295476
1236.0, 0.0008187133243826193
1237.0, 0.005193985191531904
1238.0, 0.00614123509495424
1239.0, 0.004798835952138953
1240.0, 0.0014754264826844132
1241.0, 0.0013358790675521454
1242.0, 0.004669423166566016
1243.0, 0.0036369093881514158
1244.0, 0.00483522284078281
1245.0, 0.010625230450482494
1246.0, 0.004001775205252656
1247.0, 0.005968838778618296
1248.0, 0.0002075327477810115
1249.0, 0.002218522407759769
1250.0, 0.0025950170902104383
1251.0, 0.0034296297022485367
1252.0, 0.005664225772370757
1253.0, 0.0037845966058009718
1254.0, 0.0012438936955756876
1255.0, 0.0004574931825713763
1256.0, 0.0005904357572431682
1257.0, 0.001941430615516022
1258.0, 0.005153244260970971
1259.0, 0.007804858177375511
1260.0, 0.007219604953904513
1261.0, 0.009279034174671193
1262.0, 0.01007873329679677
1263.0, 0.0058517549632263735
1264.0, 0.0044876577412711356
1265.0, 0.008641269324599996
1266.0, 0.006637904519434749
1267.0, 0.00436665829229601
1268.0, 0.00659134122960596
1269.0, 0.006642719803237837
1270.0, 0.004533250263878529
1271.0, 0.005099754866100883
1272.0, 0.005168299224267353
1273.0, 0.0057396447670152095
1274.0, 0.00636055055113995
1275.0, 0.0068616500091351
1276.0, 0.0007909986663467547
1277.0, 0.005459525822823624
1278.0, 0.005310068642951924
1279.0, 0.006558834121318361
1280.0, 0.004854787440934449
1281.0, 0.00295410880046872
1282.0, 0.005757704121096532
1283.0, 0.0040265671690652835
1284.0, 0.0020154966704999176
1285.0, 0.005205391450431549
1286.0, 0.0036896058238128147
1287.0, 0.0002319467947127633
1288.0, 0.00046274890470306737
1289.0, 0.0022991759528284183
1290.0, 0.00448320327515879
1291.0, 0.0013385911739955255
1292.0, 0.0005394553023085988
1293.0, 0.0019244246968690318
1294.0, 0.007325211920801483
1295.0, 0.008089506272422225
1296.0, 0.004952487432135522
1297.0, 0.003576081209016729
1298.0, 0.004981763003366534
1299.0, 0.0043488924290176765
1300.0, 0.0010913388614523355
1301.0, 0.0005302315484113546
1302, 0.0
1303, 0.0
1304, 0.0
1305, 0.0
1306, 0.0
1307, 0.0
1308, 0.0
1309, 0.0
1310, 0.0
1311, 0.0
1312, 0.0
1313, 0.0
1314, 0.0
1315, 0.0
1316, 0.0
1317, 0.0
1318, 0.0
1319, 0.0
1320, 0.0
1321, 0.0
1322, 0.0
1323, 0.0
1324, 0.0
1325, 0.0
1326, 0.0
1327, 0.0
1328, 0.0
1329, 0.0
1330, 0.0
1331, 0.0
1332, 0.0
1333, 0.0
1334, 0.0
1335, 0.0
1336, 0.0
1337, 0.0
1338, 0.0
1339, 0.0
1340, 0.0
1341, 0.0
1342, 0.0
1343, 0.0
1344, 0.0
1345, 0.0
1346, 0.0
1347, 0.0
1348, 0.0
1349, 0.0
1350, 0.0
1351, 0.0
1352, 0.0
1353, 0.0
1354, 0.0
1355, 0.0
1356, 0.0
1357, 0.0
1358, 0.0
1359, 0.0
1360, 0.0
1361, 0.0
1362, 0.0
1363, 0.0
1364, 0.0
1365, 0.0
1366, 0.0
1367, 0.0
1368, 0.0
1369, 0.0
1370, 0.0
1371, 0.0
1372, 0.0
1373, 0.0
1374, 0.0
1375, 0.0
1376, 0.0
1377, 0.0
1378, 0.0
1379, 0.0
1380, 0.0
1381, 0.0
1382, 0.0
1383, 0.0
1384, 0.0
1385, 0.0
1386, 0.0
1387, 0.0
1388, 0.0
1389, 0.0
1390, 0.0
1391, 0.0
1392, 0.0
1393, 0.0
1394, 0.0
1395, 0.0
1396, 0.0
1397, 0.0
1398, 0.0
1399, 0.0
1400, 0.0
1401, 0.0
1402, 0.0
1403, 0.0
1404, 0.0
1405, 0.0
1406, 0.0
1407, 0.0
1408, 0.0
1409, 0.0
1410, 0.0
1411, 0.0
1412, 0.0
1413, 0.0
1414, 0.0
1415, 0.0
1416, 0.0
1417, 0.0
1418, 0.0
1419, 0.0
1420, 0.0
1421, 0.0
1422, 0.0
1423, 0.0
1424, 0.0
1425, 0.0
1426, 0.0
1427, 0.0
1428, 0.0
1429, 0.0
1430, 0.0
1431, 0.0
1432, 0.0
1433, 0.0
1434, 0.0
1435, 0.0
1436, 0.0
1437, 0.0
1438, 0.0
1439, 0.0
1440, 0.0
1441, 0.0
1442, 0.0
1443, 0.0
1444, 0.0
1445, 0.0
1446, 0.0
1447, 0.0
1448, 0.0
1449, 0.0
1450, 0.0
1451, 0.0
1452, 0.0
1453, 0.0
1454, 0.0
1455, 0.0
1456, 0.0
1457, 0.0
1458, 0.0
1459, 0.0
1460, 0.0
1461, 0.0
1462, 0.0
1463, 0.0
1464, 0.0
1465, 0.0
1466, 0.0
1467, 0.0
1468, 0.0
1469, 0.0
1470, 0.0
1471, 0.0
1472, 0.0
1473, 0.0
1474, 0.0
1475, 0.0
1476, 0.0
1477, 0.0
1478, 0.0
1479, 0.0
1480, 0.0
1481, 0.0
1482, 0.0
1483, 0.0
1484, 0.0
1485, 0.0
1486, 0.0
1487, 0.0
1488, 0.0
1489, 0.0
1490, 0.0
1491, 0.0
1492, 0.0
1493, 0.0
1494, 0.0
1495, 0.0
1496, 0.0
1497, 0.0
1498, 0.0
1499, 0.0
1500, 0.0
1501, 0.0
1502, 0.0
1503, 0.0
1504, 0.0
1505, 0.0
1506, 0.0
1507, 0.0
1508, 0.0
1509, 0.0
1510, 0.0
1511, 0.0
1512, 0.0
1513, 0.0
1514, 0.0
1515, 0.0
1516, 0.0
1517, 0.0
1518, 0.0
1519, 0.0
1520, 0.0
1521, 0.0
1522, 0.0
1523, 0.0
1524, 0.0
1525, 0.0
1526, 0.0
1527, 0.0
1528, 0.0
1529, 0.0
1530, 0.0
1531, 0.0
1532, 0.0
1533, 0.0
1534, 0.0
1535, 0.0
1536, 0.0
1537, 0.0
1538, 0.0
1539, 0.0
1540, 0.0
1541, 0.0
1542, 0.0
1543, 0.0
1544, 0.0
1545, 0.0
1546, 0.0
1547, 0.0
1548, 0.0
1549, 0.0
1550, 0.0
1551, 0.0
1552, 0.0
1553, 0.0
1554, 0.0
1555, 0.0
1556, 0.0
1557, 0.0
1558, 0.0
1559, 0.0
1560, 0.0
1561, 0.0
1562, 0.0
1563, 0.0
1564, 0.0
1565, 0.0
1566, 0.0
1567, 0.0
1568, 0.0
1569, 0.0
1570, 0.0
1571, 0.0
1572, 0.0
1573, 0.0
1574, 0.0
1575, 0.0
1576, 0.0
1577, 0.0
1578, 0.0
1579, 0.0
1580, 0.0
1581, 0.0
1582, 0.0
1583, 0.0
1584, 0.0
1585, 0.0
1586, 0.0
1587, 0.0
1588, 0.0
1589, 0.0
1590, 0.0
1591, 0.0
1592, 0.0
1593, 0.0
1594, 0.0
1595, 0.0
1596, 0.0
1597, 0.0
1598, 0.0
1599, 0.0
