30, 0.0
31, 0.0
32, 0.0
33, 0.0
34, 0.0
35, 0.0
36, 0.0
37, 0.0
38, 0.0
39, 0.0
40, 0.0
41, 0.0
42, 0.0
43, 0.0
44, 0.0
45, 0.0
46, 0.0
47, 0.0
48, 0.0
49, 0.0
50, 0.0
51, 0.0
52, 0.0
53, 0.0
54, 0.0
55, 0.0
56, 0.0
57, 0.0
58, 0.0
59, 0.0
60, 0.0
61, 0.0
62, 0.0
63, 0.0
64, 0.0
65, 0.0
66, 0.0
67, 0.0
68, 0.0
69, 0.0
70, 0.0
71, 0.0
72, 0.0
73, 0.0
74, 0.0
75, 0.0
76, 0.0
77, 0.0
78, 0.0
79.0, 0.003713127937520188
80.0, 0.009069891680464614
81.0, 0.01135873389738504
82.0, 0.00314213825112914
83.0, 0.00392964550110961
84.0, 0.0018308646676626894
85.0, 0.0004174089367457567
86.0, 0.002292014910672505
87.0, 0.00894266053885925
88.0, 0.019744804552705417
89.0, 0.03731796985373165
90.0, 0.055467078602638525
91.0, 0.07503280104325533
92.0, 0.0990894294771448
93.0, 0.1195250077400127
94.0, 0.14991766878470358
95.0, 0.1779822304794281
96.0, 0.2045427632290428
97.0, 0.23303596298205645
98.0, 0.260898222340546
99.0, 0.2915077629281912
100.0, 0.31613583657259864
101.0, 0.340690453580862
102.0, 0.36968240434032307
103.0, 0.3984616078397659
104.0, 0.4188820637042521
105.0, 0.4526439694453185
106.0, 0.4891544218093769
107.0, 0.5219380713729461
108.0, 0.5535004113015138
109.0, 0.5564139077848652
110.0, 0.5610562512075917
111.0, 0.5634622894070002
112.0, 0.5695358834440502
113.0, 0.5911679474383786
114.0, 0.6182133759566298
115.0, 0.6306898803176079
116.0, 0.6390573787435182
117.0, 0.6473712421902469
118.0, 0.656236620621931
119.0, 0.6610169099847586
120.0, 0.6685484332834237
121.0, 0.6726203000293943
122.0, 0.6769017578550405
123.0, 0.684478774601083
124.0, 0.6914820731500944
125.0, 0.6988274613684503
126.0, 0.7083407007740709
127.0, 0.7179812823233158
128.0, 0.7284557056507244
129.0, 0.7443910546381325
130.0, 0.7571779466892933
131.0, 0.7752028355222464
132.0, 0.7946704584200452
133.0, 0.813684246843752
134.0, 0.8320595484159694
135.0, 0.8525979496773187
136.0, 0.8850061052361629
137.0, 0.9222294291747242
138.0, 0.9589326973056496
139.0, 0.9888046336563917
140.0, 0.9990568006377177
141.0, 0.9934259255371808
142.0, 0.9841995349103733
143.0, 0.9587676355722294
144.0, 0.9174526616066431
145.0, 0.8880996639639573
146.0, 0.8454280784225462
147.0, 0.7949674870016442
148.0, 0.7475791791353859
149.0, 0.7102354217201339
150.0, 0.6845463380063488
151.0, 0.6527374689618224
152.0, 0.6268960465346495
153.0, 0.6008012539987131
154.0, 0.5768198454384977
155.0, 0.5578150119804131
156.0, 0.5354313185735176
157.0, 0.5163468035795675
158.0, 0.49862127565487047
159.0, 0.48019584356751605
160.0, 0.46393128694155644
161.0, 0.4609870813469929
162.0, 0.4378629152650359
163.0, 0.42547358016653825
164.0, 0.4154384269994086
165.0, 0.4025161735340778
166.0, 0.3861525293099019
167.0, 0.38061146833173665
168.0, 0.3672263904870524
169.0, 0.35346407165901667
170.0, 0.3414766014434405
171.0, 0.33055712895466677
172.0, 0.3160962071908075
173.0, 0.30446939306844223
174.0, 0.29581234781903765
175.0, 0.28520749719350036
176.0, 0.27109786133024466
177.0, 0.25706183042505254
178.0, 0.24830887092487633
179.0, 0.2432661587184562
180.0, 0.23298560772065877
181.0, 0.22213378118145818
182.0, 0.218387996791986
183.0, 0.20432912617089974
184.0, 0.19810928800080377
185.0, 0.19131143958275812
186.0, 0.18369559556043555
187.0, 0.17681705242611714
188.0, 0.17266449427704658
189.0, 0.17075536841460878
190.0, 0.16535607010918815
191.0, 0.1626867290936822
192.0, 0.16291354725585216
193.0, 0.1618211555329131
194.0, 0.16095785436801577
195.0, 0.15680597727686593
196.0, 0.15640613152603297
197.0, 0.15161947871124284
198.0, 0.14036175070597515
199.0, 0.14682547244982186
200.0, 0.14456492849424832
201.0, 0.14676322013580517
202.0, 0.13934285251088682
203.0, 0.12276813864523578
204.0, 0.11114433220913146
205.0, 0.09730227681476208
206.0, 0.09033899680780139
207.0, 0.08761804544898176
208.0, 0.0856639172825544
209.0, 0.08271832006867777
210.0, 0.08323568160566751
211.0, 0.08100696234499932
212.0, 0.07960543665289972
213.0, 0.07786599388406786
214.0, 0.07607067109979697
215.0, 0.07597337465978572
216.0, 0.07383382396187735
217.0, 0.07119254893532942
218.0, 0.07153670285754976
219.0, 0.07122517780685234
220.0, 0.06744325465883728
221.0, 0.06743208480165501
222.0, 0.07123563648332586
223.0, 0.07300845728218745
224.0, 0.07372500879166013
225.0, 0.0735628241473798
226.0, 0.07170550911070331
227.0, 0.07156107665186037
228.0, 0.07335659102794789
229.0, 0.07300162195013954
230.0, 0.07219701904584971
231.0, 0.07289953455352119
232.0, 0.07276026268568496
233.0, 0.07580562171644963
234.0, 0.0775329248089699
235.0, 0.08139544232062064
236.0, 0.08708134524579558
237.0, 0.09113622838036094
238.0, 0.09398937055029244
239.0, 0.09602995743026728
240.0, 0.10095021780689353
241.0, 0.10569244352099848
242.0, 0.10814398483612458
243.0, 0.11163056565388914
244.0, 0.11210066868892529
245.0, 0.11494597296343793
246.0, 0.1177237047421468
247.0, 0.1183399286252319
248.0, 0.11629411246601903
249.0, 0.11721939877103232
250.0, 0.11663857483958152
251.0, 0.1149949550616234
252.0, 0.1134571091762859
253.0, 0.11264823077926896
254.0, 0.11214928289667385
255.0, 0.1103534819457188
256.0, 0.10754158788477126
257.0, 0.10147346383747904
258.0, 0.09581209508312909
259.0, 0.0938740323056814
260.0, 0.08972744578029544
261.0, 0.08549689117524022
262.0, 0.08395288133289795
263.0, 0.07996770453485383
264.0, 0.07465460333155031
265.0, 0.07370385129188976
266.0, 0.06806759358075798
267.0, 0.06340171960761294
268.0, 0.059604129571493365
269.0, 0.055122446356709216
270.0, 0.0509846493383038
271.0, 0.053101952157252295
272.0, 0.05083364645933917
273.0, 0.03942483951137179
274.0, 0.034760166469288256
275.0, 0.033878493888645986
276.0, 0.027673226192108883
277.0, 0.02161370382812962
278.0, 0.023470667599882002
279.0, 0.02243589740295748
280.0, 0.016873838358973416
281.0, 0.011535695855182609
282.0, 0.014067115807241794
283.0, 0.013644895423173925
284.0, 0.01241778753383055
285.0, 0.00696595797674707
286.0, 0.0021233856115993083
287.0, 0.0029668624319110206
288.0, 0.010776971126594499
289.0, 0.002814425630996325
290.0, 0.004411461150831657
291.0, 0.004254391388137587
292.0, 0.003308656407103932
293.0, 0.005840182080166737
294.0, 0.008725827617097654
295.0, 0.012251733320183648
296.0, 0.014445253085011843
297.0, 0.014031894053662636
298.0, 0.011963450142526089
299.0, 0.010560982177505026
300.0, 0.010591123920278299
301.0, 0.010473023602043054
302.0, 0.010045088710272137
303.0, 0.009430442068952558
304.0, 0.009172165877561292
305.0, 0.010126925758055454
306.0, 0.012305849402264023
307.0, 0.013860788079042006
308.0, 0.011573417446722384
309.0, 0.010143405084291212
310.0, 0.011954679177466173
311.0, 0.011016429212330415
312.0, 0.009448486879793883
313.0, 0.013715979442960581
314.0, 0.015780397782736894
315.0, 0.014634329072000081
316.0, 0.01239768096908117
317.0, 0.01006834197517233
318.0, 0.009843780862117877
319.0, 0.0053533875627933625
320.0, 0.0015922792020437724
321.0, 0.0005973277059507628
322.0, 0.0017039975626803238
323.0, 0.0038941322399136296
324.0, 0.004515249294157821
325.0, 0.004867803181709338
326.0, 0.005727674515212692
327.0, 0.006457384719163487
328.0, 0.0058178079967254725
329.0, 0.007081011084943033
330.0, 0.007514709527984101
331.0, 0.008167677902359269
332.0, 0.010388311718830203
333.0, 0.012396986919793502
334.0, 0.0098256529578759
335.0, 0.012322355368305551
336.0, 0.017509223068701625
337.0, 0.018806358721226473
338.0, 0.018358108872469952
339.0, 0.017578867025129133
340.0, 0.013568258121929015
341.0, 0.0181303479483432
342.0, 0.016725965264681043
343.0, 0.018524827853506478
344.0, 0.02200137679781936
345.0, 0.023449209805840303
346.0, 0.02281454443299482
347.0, 0.02520524598571477
348.0, 0.030631362775357718
349.0, 0.03423937668496048
350.0, 0.0364546972127236
351.0, 0.03757968764826796
352.0, 0.03187109001088551
353.0, 0.04064732165538491
354.0, 0.04130823446341535
355.0, 0.04615196013423293
356.0, 0.054213567273660127
357.0, 0.05892877924709402
358.0, 0.05965107654781424
359.0, 0.06826258897952522
360.0, 0.07021594832397023
361.0, 0.07497571601592753
362.0, 0.08060239649144182
363.0, 0.08171218174781335
364.0, 0.08640529177062171
365.0, 0.10085664470522439
366.0, 0.11107102516420986
367.0, 0.11541401012153522
368.0, 0.11880229556630567
369.0, 0.12836840702393057
370.0, 0.14613239944341833
371.0, 0.14735979995219642
372.0, 0.1570741991010734
373.0, 0.16457940974565635
374.0, 0.17050776664403555
375.0, 0.18231920412384683
376.0, 0.19630966187723276
377.0, 0.20515328010806475
378.0, 0.21735416656143214
379.0, 0.23030227183469268
380.0, 0.2441443712047166
381.0, 0.26075520684689507
382.0, 0.27867617444897064
383.0, 0.29178617402283186
384.0, 0.31138641868359174
385.0, 0.3289023811053441
386.0, 0.34720544647999957
387.0, 0.3739453415881278
388.0, 0.4001719641471339
389.0, 0.42725036819044504
390.0, 0.4563630657695288
391.0, 0.4875304278188793
392.0, 0.5142567150388113
393.0, 0.5318881849498507
394.0, 0.5562793187716254
395.0, 0.5983526693023128
396.0, 0.6188659529524938
397.0, 0.6387673358750999
398.0, 0.6601377457912899
399.0, 0.6757752370223586
400.0, 0.6957473109885064
401.0, 0.7125925570959382
402.0, 0.7151798064046221
403.0, 0.7059405350252843
404.0, 0.6966797458480837
405.0, 0.6953402941646938
406.0, 0.6871599575489267
407.0, 0.6669313385590309
408.0, 0.6465507578031017
409.0, 0.6253803911648304
410.0, 0.5998873579049763
411.0, 0.570324960433153
412.0, 0.547684181402328
413.0, 0.5125431738017595
414.0, 0.4809572502141062
415.0, 0.4549410750190065
416.0, 0.4301392486955946
417.0, 0.40186668222059485
418.0, 0.3705685186662815
419.0, 0.35233734953582185
420.0, 0.3290714777155157
421.0, 0.3029102152979269
422.0, 0.27898123442769507
423.0, 0.2596549038846566
424.0, 0.24150426429158042
425.0, 0.2202460422962787
426.0, 0.20720113396545742
427.0, 0.1891684473724761
428.0, 0.1709946014461717
429.0, 0.1576387650493951
430.0, 0.14710290606663745
431.0, 0.12667352219641256
432.0, 0.11935162125776927
433.0, 0.11114589921936964
434.0, 0.10199028089721678
435.0, 0.09332229895699824
436.0, 0.08545539620641068
437.0, 0.0771191790230798
438.0, 0.06996278455213219
439.0, 0.06474880929525986
440.0, 0.06052922379044365
441.0, 0.05744203141109928
442.0, 0.05562291854919952
443.0, 0.05238205156625521
444.0, 0.0508824747646898
445.0, 0.04891432494169092
446.0, 0.047867908413599294
447.0, 0.047550147425789085
448.0, 0.047130184768424975
449.0, 0.04645146167332496
450.0, 0.04883371705396462
451.0, 0.052892076888036474
452.0, 0.057758203799526286
453.0, 0.06638466318054903
454.0, 0.07720725484119006
455.0, 0.08224849989851862
456.0, 0.09268003669123194
457.0, 0.10244709036503845
458.0, 0.11194937858581018
459.0, 0.12609371528255284
460.0, 0.14439664585107437
461.0, 0.16044775215080895
462.0, 0.1694998885874548
463.0, 0.18686563954617622
464.0, 0.20009752405554687
465.0, 0.21491524905969825
466.0, 0.23211642764906362
467.0, 0.2475956236873267
468.0, 0.2568288379308835
469.0, 0.2762715383520949
470.0, 0.28933968312559427
471.0, 0.3045061856064788
472.0, 0.3255639742449952
473.0, 0.3526532585369638
474.0, 0.3837673529822907
475.0, 0.4163700400551754
476.0, 0.44913590263011727
477.0, 0.4746858041683118
478.0, 0.49710080291229586
479.0, 0.516799761679876
480.0, 0.5296374101430354
481.0, 0.5425232280016781
482.0, 0.5448301283139119
483.0, 0.5426399244043945
484.0, 0.5358993077766757
485.0, 0.5194126216989432
486.0, 0.4911531700902871
487.0, 0.46364162810473636
488.0, 0.42400811794648147
489.0, 0.38983044654492166
490.0, 0.35260261264898585
491.0, 0.31497585738624423
492.0, 0.2797402908684796
493.0, 0.24446959141304153
494.0, 0.2131000026886763
495.0, 0.18982131979233924
496.0, 0.15680002292221476
497.0, 0.1321362324333983
498.0, 0.11671035120303358
499.0, 0.09857598221192775
500.0, 0.08798172658061189
501.0, 0.07790033195323762
502.0, 0.06344059740430563
503.0, 0.05097991207494038
504.0, 0.04667782631309536
505.0, 0.04763898230625793
506.0, 0.03922637925198745
507.0, 0.030807482977507593
508.0, 0.026847093780374757
509.0, 0.024024207478082704
510.0, 0.020688910131806182
511.0, 0.01813668557653254
512.0, 0.01877755879308122
513.0, 0.020509697856973153
514.0, 0.021881405416245364
515.0, 0.0196291128503135
516.0, 0.014680377187416034
517.0, 0.013855158247529257
518.0, 0.01702979427859375
519.0, 0.010868783182039226
520.0, 0.013215522203131208
521.0, 0.01054699711277011
522.0, 0.00571550303527083
523.0, 0.005342289676869027
524.0, 0.007730032316008769
525.0, 0.006160482176145128
526.0, 0.0038806221910139284
527.0, 0.002227797441265565
528.0, 0.0033040489361559344
529.0, 0.0041911825054058065
530.0, 0.005185402560994859
531.0, 0.006574145197980904
532.0, 0.00673964204436273
533.0, 0.0068567442490783835
534.0, 0.006993608492474241
535.0, 0.005149453685279074
536.0, 0.0034767931641939438
537.0, 0.003084557181306297
538.0, 0.0038068080296676373
539.0, 0.005545926369005135
540.0, 0.0009515640973784103
541.0, 0.0028104376886417615
542.0, 0.002657035369124665
543.0, 0.0030383161411406978
544.0, 0.0052578670306725065
545.0, 0.005822747439454946
546.0, 0.006117456886319763
547.0, 0.008550971824524882
548.0, 0.006009551876691508
549.0, 0.0035053372040958655
550.0, 0.0034328597621446884
551.0, 0.004600989611539375
552.0, 0.0036590268886176193
553.0, 0.0023494153263781538
554.0, 0.0016405063773244559
555.0, 0.0012774808517389362
556.0, 0.001397933852217769
557.0, 0.001956515675798899
558.0, 0.0031435525890342324
559.0, 0.006245547918245085
560.0, 0.0032327193896876036
561.0, 0.0026803797680580717
562.0, 0.0022702235804851014
563.0, 0.0034126906587790802
564.0, 0.0055113375364716196
565.0, 0.005352817535086247
566.0, 0.004313110189907388
567.0, 0.010932755967414675
568.0, 0.008078475908386092
569.0, 0.008762128262127479
570.0, 0.011797444336420847
571.0, 0.012817707929923056
572.0, 0.01445487661750335
573.0, 0.016706918953048825
574.0, 0.017767062435070972
575.0, 0.018312813788791328
576.0, 0.018932484716021564
577.0, 0.018362395957307542
578.0, 0.01752502047131969
579.0, 0.022641038720277493
580.0, 0.018953647582529806
581.0, 0.024407491702942697
582.0, 0.028194356710422207
583.0, 0.02994029515295711
584.0, 0.03144448605525169
585.0, 0.03373160987727052
586.0, 0.0358330277868389
587.0, 0.03732983459467236
588.0, 0.04006622771395973
589.0, 0.04264117762557458
590.0, 0.04567705347550556
591.0, 0.04990234448580206
592.0, 0.05494069294575751
593.0, 0.05847618506510453
594.0, 0.0599432141070314
595.0, 0.06780736587016742
596.0, 0.07614970888914195
597.0, 0.08335915292309028
598.0, 0.08824912362570442
599.0, 0.09041134975928936
600.0, 0.0984712897093344
601.0, 0.10384988206284808
602.0, 0.10907367936365227
603.0, 0.11669150466333168
604.0, 0.12245687072355438
605.0, 0.12644982247778525
606.0, 0.1350655501357858
607.0, 0.1412135874729793
608.0, 0.14858132477656014
609.0, 0.1483350270566036
610.0, 0.15353101969962757
611.0, 0.159999644660459
612.0, 0.16039348917498197
613.0, 0.15590856471610712
614.0, 0.15127734423504266
615.0, 0.15001399792440054
616.0, 0.15024898040278103
617.0, 0.14204193620747688
618.0, 0.13538924816049
619.0, 0.13634160305582654
620.0, 0.13230444458060137
621.0, 0.11823748199723867
622.0, 0.11976579813641768
623.0, 0.11683468818169994
624.0, 0.11240120323816108
625.0, 0.10894186726141426
626.0, 0.10622942254208964
627.0, 0.10273609405992766
628.0, 0.10193248489042556
629.0, 0.0973625852783178
630.0, 0.09472825984092097
631.0, 0.09266528292197002
632.0, 0.09147834902527474
633.0, 0.0902983847801575
634.0, 0.08653309278868689
635.0, 0.08408756867827016
636.0, 0.08008766314423045
637.0, 0.07731487972700839
638.0, 0.07495261733735173
639.0, 0.07275247882440324
640.0, 0.0710018363339409
641.0, 0.06943908294382865
642.0, 0.06439314127826874
643.0, 0.058397774763484823
644.0, 0.05957631018411964
645.0, 0.05671185805293669
646.0, 0.05589530225098384
647.0, 0.05775589611467987
648.0, 0.05360318923409547
649.0, 0.05303821019709724
650.0, 0.05069650728532183
651.0, 0.05062411033801124
652.0, 0.04535929433240262
653.0, 0.043916049026167664
654.0, 0.04442260822548775
655.0, 0.03691693811271741
656.0, 0.034374069891232456
657.0, 0.03503643290814644
658.0, 0.03560230575522428
659.0, 0.03170061229269741
660.0, 0.02759241815966064
661.0, 0.027160833327726217
662.0, 0.028972933728632144
663.0, 0.02579722327494824
664.0, 0.026608562498200292
665.0, 0.025258967308750054
666.0, 0.02199983914901464
667.0, 0.020922857541732336
668.0, 0.02490459547090314
669.0, 0.029158704304298844
670.0, 0.022245415667990907
671.0, 0.02566828501050624
672.0, 0.017511452806002678
673.0, 0.0177979227835146
674.0, 0.016395489106859604
675.0, 0.01486149505493528
676.0, 0.01643411379462306
677.0, 0.01660057307062688
678.0, 0.01237930265575283
679.0, 0.016200990483574422
680.0, 0.016072379332303047
681.0, 0.013038592472032373
682.0, 0.011761351286052593
683.0, 0.012133215505769571
684.0, 0.011630716559631042
685.0, 0.017095415281997324
686.0, 0.006384094125497275
687.0, 0.007815798651444113
688.0, 0.010328349482554025
689.0, 0.009425730568750979
690.0, 0.007682222460237203
691.0, 0.007634892522171291
692.0, 0.005235213009131378
693.0, 0.008301562353113108
694.0, 0.008930841553034542
695.0, 0.013177766410603212
696.0, 0.012357431918201284
697.0, 0.008030387653152343
698.0, 0.007518194105109739
699.0, 0.013428501914789288
700.0, 0.011934000387880703
701.0, 0.012479826769415364
702.0, 0.010297437380012778
703.0, 0.008860509307155368
704.0, 0.008033433700291887
705.0, 0.007362504696056928
706.0, 0.007437822664798389
707.0, 0.00909943672371192
708.0, 0.008767674367980094
709.0, 0.010597993709347506
710.0, 0.010885073232533531
711.0, 0.010361228433816344
712.0, 0.010668011576414492
713.0, 0.010277483968921721
714.0, 0.006864686305826829
715.0, 0.015315108214309562
716.0, 0.009246391444301448
717.0, 0.00921464680911125
718.0, 0.01198187393435245
719.0, 0.015533766942109135
720.0, 0.017934233257522775
721.0, 0.017678387333908224
722.0, 0.01595952041182661
723.0, 0.02276694436652825
724.0, 0.016773115788163824
725.0, 0.014308690782817605
726.0, 0.014580711804064728
727.0, 0.015108437324746786
728.0, 0.015947809893077532
729.0, 0.01859575581879151
730.0, 0.019145453116253056
731.0, 0.011916950793331684
732.0, 0.01777571658952235
733.0, 0.01442122374567438
734.0, 0.01343115668419181
735.0, 0.014950797415294736
736.0, 0.011706706236315605
737.0, 0.01145259704371862
738.0, 0.013658766759606068
739.0, 0.017746873782138947
740.0, 0.013948128602384004
741.0, 0.012434043708532348
742.0, 0.015456369246054974
743.0, 0.01743148209159123
744.0, 0.01498161576318957
745.0, 0.019419064915538495
746.0, 0.0189759258643666
747.0, 0.01860848549757883
748.0, 0.016394466059086406
749.0, 0.019199852967738025
750.0, 0.020860699947930526
751.0, 0.019645588529023438
752.0, 0.024804988609952564
753.0, 0.02509546724999606
754.0, 0.024871645231406808
755.0, 0.02541923490263794
756.0, 0.026942927518580195
757.0, 0.028428180200520247
758.0, 0.028718777749741638
759.0, 0.02907226767472111
760.0, 0.03303842114821792
761.0, 0.03684271286185179
762.0, 0.03667110073202553
763.0, 0.035909774108000725
764.0, 0.039869490861216834
765.0, 0.04219076502676532
766.0, 0.04519790453866169
767.0, 0.05141887066679287
768.0, 0.04854877773052859
769.0, 0.05793917476876673
770.0, 0.059014082481677124
771.0, 0.05547580430401794
772.0, 0.05669259732899433
773.0, 0.06317953452307985
774.0, 0.07059345196649386
775.0, 0.07418902736920287
776.0, 0.07215475974768366
777.0, 0.07392683577564028
778.0, 0.07844802781549191
779.0, 0.08096973950366586
780.0, 0.08365796376775286
781.0, 0.08548559510252665
782.0, 0.08566537682390801
783.0, 0.08633077603407141
784.0, 0.0911343861948483
785.0, 0.09377756834061554
786.0, 0.09301204510831401
787.0, 0.09514956484651789
788.0, 0.09172339476473548
789.0, 0.08884746448841588
790.0, 0.09258008402966117
791.0, 0.09698126452746142
792.0, 0.08901294664977132
793.0, 0.09688292326196153
794.0, 0.09541160210450961
795.0, 0.0905769312376678
796.0, 0.08859824276566246
797.0, 0.0872812530101039
798.0, 0.08489355962926265
799.0, 0.08306695849728454
800.0, 0.08140348683223582
801.0, 0.07893939393067402
802.0, 0.07548874724894876
803.0, 0.07521226061927917
804.0, 0.07199560221395705
805.0, 0.06800349391639211
806.0, 0.06369401380442226
807.0, 0.058689573820962314
808.0, 0.059992832475882336
809.0, 0.05989917374053205
810.0, 0.05938977681173216
811.0, 0.0610617056758899
812.0, 0.05653520899379088
813.0, 0.0573593445491194
814.0, 0.0596258597606926
815.0, 0.055706125843294034
816.0, 0.06172866014222611
817.0, 0.060496850653951315
818.0, 0.053587806498223346
819.0, 0.0577875758193939
820.0, 0.05835938996991295
821.0, 0.05482680264777873
822.0, 0.049129917520819355
823.0, 0.04226911607949404
824.0, 0.0368282347518098
825.0, 0.03752143648543542
826.0, 0.037829605369076716
827.0, 0.033801103657847685
828.0, 0.026138496611382425
829.0, 0.023080615753948073
830.0, 0.020454696203204746
831.0, 0.01662723031100573
832.0, 0.017303234561720976
833.0, 0.010060947425265341
834.0, 0.01917253134278696
835.0, 0.011965498838726173
836.0, 0.012685786999612017
837.0, 0.016475776665099983
838.0, 0.018318882161802965
839.0, 0.016140461277112272
840.0, 0.01131271274198602
841.0, 0.009458339246401487
842.0, 0.01289550867204693
843.0, 0.014731445771072087
844.0, 0.014154602162447833
845.0, 0.015712436909486194
846.0, 0.014855133591467336
847.0, 0.0138440672959011
848.0, 0.015539967692200635
849.0, 0.014106748873523839
850.0, 0.012024180183224126
851.0, 0.016609265537919037
852.0, 0.01295805616060409
853.0, 0.017899113692202467
854.0, 0.01799908968898558
855.0, 0.01726826448883435
856.0, 0.02088657691846887
857.0, 0.022994635370453466
858.0, 0.022329257861938474
859.0, 0.026684646801387164
860.0, 0.01843991811947091
861.0, 0.016095912826376513
862.0, 0.016020436248296015
863.0, 0.018962591910681142
864.0, 0.019453450041540157
865.0, 0.015778333050709827
866.0, 0.016891914096838618
867.0, 0.011760607884229713
868.0, 0.008994665037496248
869.0, 0.0029871407346318823
870.0, 0.009440262786368458
871.0, 0.013985347877042939
872.0, 0.011772761427487191
873.0, 0.006592541033589517
874.0, 0.0024864696708121114
875.0, 0.0007605011705976331
876.0, 0.002093760246870788
877.0, 0.002454021492833031
878.0, 0.0028554012315636585
879.0, 0.0019048540987815568
880.0, 0.001346903257218554
881.0, 0.0015353032860428587
882.0, 0.001425169629501222
883.0, 0.0015758499732545302
884.0, 0.0056060841438543355
885.0, 0.001615987687002698
886.0, 0.0031486717069299968
887.0, 0.0010952985874783598
888.0, 0.002269775126689788
889.0, 0.002047587989549542
890.0, 0.0014063616295919824
891.0, 0.002620428480855126
892.0, 0.0007963410816759543
893.0, 0.0012150448286353077
894.0, 0.00023073977125698936
895.0, 0.0013808946593902155
896.0, 0.0028812451546214478
897.0, 0.002740960415895718
898.0, 0.002029363697938496
899.0, 0.001468218030396007
900.0, 0.001074980017334579
901.0, 0.0018357173097458266
902.0, 0.0033159293797263155
903.0, 0.004737359895619802
904.0, 0.005659771470101103
905.0, 0.006162839311334512
906.0, 0.006330614899147356
907.0, 0.004981990824269502
908.0, 0.002460802199242266
909.0, 0.0015785926606910004
910.0, 0.004223191864444452
911.0, 0.004044851309838812
912.0, 0.011797830281179787
913.0, 0.003431676285102931
914.0, 0.003514360488052563
915.0, 0.0031421543282163914
916.0, 0.003863534743812805
917.0, 0.004851459330576661
918.0, 0.0019321745613614435
919.0, 0.001967084189661358
920.0, 0.00766807194242039
921.0, 0.0014985022661585042
922.0, 0.003511731869717853
923.0, 0.005394280863303207
924.0, 0.005334482084940009
925.0, 0.005150003932026583
926.0, 0.0036943131917104377
927.0, 0.00088275736686733
928.0, 0.002265556228036107
929.0, 0.0017473509172977048
930.0, 0.006753960249521673
931.0, 0.005666325718031273
932.0, 0.003441952784109172
933.0, 0.002117698666514375
934.0, 0.0015425766803306923
935.0, 0.0018023849620980809
936.0, 0.0023004865670105093
937.0, 0.0013334814005738194
938.0, 0.0016139390758983319
939.0, 0.007697542423022159
940.0, 0.0015502424413285079
941.0, 0.004283584050846572
942.0, 0.0025460217448392943
943.0, 0.002511686772388132
944.0, 0.0030701211368253595
945.0, 0.0037621948431526193
946.0, 0.01029313028781161
947.0, 0.0065865179470057785
948.0, 0.0017917790708673253
949.0, 0.0005251410709273797
950.0, 0.003344253265142125
951.0, 0.003342886068072132
952.0, 0.005054674176176034
953.0, 0.007928812545998637
954.0, 0.00800277682054798
955.0, 0.006152400821563752
956.0, 0.008199026678628
957.0, 0.008375757949566857
958.0, 0.00306870415156331
959.0, 0.007017785684658823
960.0, 0.008615523373612632
961.0, 0.005564850542932879
962.0, 0.0017963286210235883
963.0, 0.0014958558220098614
964.0, 0.004471130508372251
965.0, 0.0056358967188140634
966.0, 0.0005076726358815777
967.0, 0.0045546842362301325
968.0, 0.0023583864723678684
969.0, 0.0055146146003806
970.0, 0.0035599067126776225
971.0, 0.002352432604618097
972.0, 0.003735286573642237
973.0, 0.004587785579594552
974.0, 0.003412586667767564
975.0, 0.0013752064746255055
976.0, 0.00040505040676480934
977.0, 0.0017180784923274569
978.0, 0.003135250218731627
979.0, 0.005789919316125744
980.0, 0.005012107507796472
981.0, 0.002838843855240783
982.0, 0.002679340768520407
983.0, 0.004925673009011533
984.0, 0.0062282450742903025
985.0, 0.003253315656395591
986.0, 0.016637900316305243
987.0, 0.014566896087011592
988.0, 0.012538413091278294
989.0, 0.011330043394973465
990.0, 0.009852669717757891
991.0, 0.010782050404278001
992.0, 0.010837945419745408
993.0, 0.009432232678955255
994.0, 0.015068946444467463
995.0, 0.01737909127843345
996.0, 0.017897282008806994
997.0, 0.020371826512500607
998.0, 0.02350977057905517
999.0, 0.031242428619211147
1000.0, 0.03202541740149887
1001.0, 0.03348875622301768
1002.0, 0.037828786927396114
1003.0, 0.03562153642486411
1004.0, 0.028793426256971354
1005.0, 0.026153252937968344
1006.0, 0.02741038979725426
1007.0, 0.025217821738855867
1008.0, 0.021672097861701496
1009.0, 0.02068985394388568
1010.0, 0.02168458922173787
1011.0, 0.024165592068488
1012.0, 0.02564811704107665
1013.0, 0.02595297873572988
1014.0, 0.029347732392607136
1015.0, 0.026888605775758117
1016.0, 0.029762168405698557
1017.0, 0.027291546019539682
1018.0, 0.03093943825373358
1019.0, 0.03575408208739633
1020.0, 0.03907279391520865
1021.0, 0.03876467702631026
1022.0, 0.03891167426009079
1023.0, 0.04114431237192198
1024.0, 0.038778871492974515
1025.0, 0.04036388920378212
1026.0, 0.0352374667561826
1027.0, 0.04053726336557528
1028.0, 0.03377868356421179
1029.0, 0.03403862321403725
1030.0, 0.03682630001249961
1031.0, 0.03540463489085794
1032.0, 0.035192638813197084
1033.0, 0.038636943337389984
1034.0, 0.036767133625775696
1035.0, 0.0355450572785807
1036.0, 0.040447149954159836
1037.0, 0.036002471016372946
1038.0, 0.033293278400290394
1039.0, 0.03662040416234893
1040.0, 0.035994322642175745
1041.0, 0.034150890550422724
1042.0, 0.03465017820092519
1043.0, 0.03546599834410079
1044.0, 0.0348250234934861
1045.0, 0.035951079269701106
1046.0, 0.03700778510798054
1047.0, 0.03676649613034235
1048.0, 0.03900914977774971
1049.0, 0.038507290970416316
1050.0, 0.03784397806263946
1051.0, 0.03587526443379469
1052.0, 0.034650971719688436
1053.0, 0.03506611169420884
1054.0, 0.03618963122579853
1055.0, 0.03763279893589779
1056.0, 0.036048398085148564
1057.0, 0.03863454819922872
1058.0, 0.03808796803608088
1059.0, 0.030035222936523567
1060.0, 0.029203809654388072
1061.0, 0.029061019090358083
1062.0, 0.031112878635684214
1063.0, 0.033764406282378756
1064.0, 0.03373588347800103
1065.0, 0.03313282286310674
1066.0, 0.03597317662439282
1067.0, 0.039026559312116973
1068.0, 0.031871770291987685
1069.0, 0.03860058823384918
1070.0, 0.041537423738786765
1071.0, 0.04491765477157702
1072.0, 0.03970763453152611
1073.0, 0.04023503808320497
1074.0, 0.044291888186507956
1075.0, 0.0423542590535552
1076.0, 0.043416753574333715
1077.0, 0.05373282721222879
1078.0, 0.05587091611239473
1079.0, 0.05915913113996408
1080.0, 0.06261412685223278
1081.0, 0.0719225087082064
1082.0, 0.07319472494868967
1083.0, 0.07597832442207267
1084.0, 0.07927671547023424
1085.0, 0.0793209933596626
1086.0, 0.0784354211039875
1087.0, 0.07819883805002159
1088.0, 0.07482115818953468
1089.0, 0.07733462262356407
1090.0, 0.07590456286651967
1091.0, 0.07693813658816219
1092.0, 0.07689980568951738
1093.0, 0.07599168930461628
1094.0, 0.0786829521053046
1095.0, 0.07551882862264649
1096.0, 0.07468320230357295
1097.0, 0.08267633435514594
1098.0, 0.085641308670168
1099.0, 0.08133816851169379
1100.0, 0.07957813103775946
1101.0, 0.08296585804312534
1102.0, 0.08192232535298566
1103.0, 0.08852054522031755
1104.0, 0.08662635238530524
1105.0, 0.08959741648155871
1106.0, 0.08759705529515951
1107.0, 0.08569972420939065
1108.0, 0.08941187105827905
1109.0, 0.0902216851338374
1110.0, 0.08921364168815435
1111.0, 0.09235325064191047
1112.0, 0.09452335895101413
1113.0, 0.09109688027322987
1114.0, 0.08604478310089958
1115.0, 0.08603103891584758
1116.0, 0.0887034357512726
1117.0, 0.08974023256013222
1118.0, 0.08918287367869102
1119.0, 0.0871606469658169
1120.0, 0.08581965996525066
1121.0, 0.08791199470160944
1122.0, 0.08730287781334115
1123.0, 0.0907560848250583
1124.0, 0.08914155236237778
1125.0, 0.08883257145762308
1126.0, 0.09157982641665055
1127.0, 0.09011388044181984
1128.0, 0.09189141483838557
1129.0, 0.08932415659569107
1130.0, 0.08640551346573423
1131.0, 0.08640987910397699
1132.0, 0.0848127526869392
1133.0, 0.08543438041644688
1134.0, 0.08812309205742158
1135.0, 0.0842213516276729
1136.0, 0.08587704804956592
1137.0, 0.08737212651091238
1138.0, 0.08485482764188437
1139.0, 0.08468609898134724
1140.0, 0.08492442623564747
1141.0, 0.0849812455045225
1142.0, 0.08474822980017566
1143.0, 0.08395296958748663
1144.0, 0.08259285336031699
1145.0, 0.08070461686174944
1146.0, 0.07958581274584747
1147.0, 0.07528459316811031
1148.0, 0.07330604888727053
1149.0, 0.07726521806638405
1150.0, 0.0804874557461751
1151.0, 0.07974427903944263
1152.0, 0.07765161170222551
1153.0, 0.07381116670403781
1154.0, 0.07457336029712283
1155.0, 0.07751646715207844
1156.0, 0.07654000292578693
1157.0, 0.07998907463764034
1158.0, 0.07810679062063294
1159.0, 0.06964618745348367
1160.0, 0.07196233287152846
1161.0, 0.07515880534778994
1162.0, 0.07003230759778263
1163.0, 0.06876748150664008
1164.0, 0.06929634173947412
1165.0, 0.06727749525813172
1166.0, 0.0660092003156257
1167.0, 0.06844795243728415
1168.0, 0.06702504941875563
1169.0, 0.059662294697075374
1170.0, 0.0675196792315707
1171.0, 0.06968258639363573
1172.0, 0.06579556929052575
1173.0, 0.05893356334788526
1174.0, 0.05562156302607869
1175.0, 0.056065804791413605
1176.0, 0.05893375650735969
1177.0, 0.05617015584381037
1178.0, 0.05362164250846883
1179.0, 0.04995988399426033
1180.0, 0.04567382500107715
1181.0, 0.04552237332362347
1182.0, 0.03942503965179081
1183.0, 0.035482855484554675
1184.0, 0.031210875661465947
1185.0, 0.028987845108701428
1186.0, 0.031749029160164526
1187.0, 0.0278052174649627
1188.0, 0.030208280547147658
1189.0, 0.03195753790622602
1190.0, 0.027468092937800538
1191.0, 0.02394000055717607
1192.0, 0.020506238514039248
1193.0, 0.017207812240779927
1194.0, 0.020942753654517275
1195.0, 0.021202970508890175
1196.0, 0.016270023751381292
1197.0, 0.004428968414045219
1198.0, 0.004973383097502625
1199.0, 0.005628814690352914
1200.0, 0.016566777249913154
1201.0, 0.015185781095132167
1202.0, 0.011569663021499576
1203.0, 0.010438393468329856
1204.0, 0.007187055489619559
1205.0, 0.00550363021911809
1206.0, 0.006944901710929461
1207.0, 0.007368899215380203
1208.0, 0.0124238215960973
1209.0, 0.00968569119548586
1210.0, 0.0013367239939165703
1211.0, 0.00901643636829665
1212.0, 0.004365512847120174
1213.0, 0.0014205857827598763
1214.0, 0.00026161808689793815
1215.0, 0.0017506648588196385
1216.0, 0.00391632143133088
1217.0, 0.0036005031613858046
1218.0, 0.0015885496115816233
1219.0, 0.001966525500556755
1220.0, 0.003746376299097139
1221.0, 0.0022043400495733237
1222.0, 0.002766588376265749
1223.0, 0.002652901860086684
1224.0, 0.001459675270750343
1225.0, 0.004475456900004793
1226.0, 0.007441076339900255
1227.0, 0.007820134424826621
1228.0, 0.006755173166084973
1229.0, 0.004948798136457464
1230.0, 0.0018680666594649944
1231.0, 0.003069277624213499
1232.0, 0.005835892291892746
1233.0, 0.003783149025843923
1234.0, 0.0016105632304223494
1235.0, 0.005243920794447927
1236.0, 0.00904349837105272
1237.0, 0.0062781202574620195
1238.0, 0.01034315560288692
1239.0, 0.00871490695331341
1240.0, 0.004674077622516627
1241.0, 0.008128589441792178
1242.0, 0.0060688524758051275
1243.0, 0.007919007728977813
1244.0, 0.009863311612815938
1245.0, 0.007781079549101819
1246.0, 0.006589143632407845
1247.0, 0.00810421707180594
1248.0, 0.007948236855585038
1249.0, 0.006167676719863706
1250.0, 0.0031754009949685512
1251.0, 0.0038331331582573897
1252.0, 0.01482186047568762
1253.0, 0.002408293220571501
1254.0, 0.008460908715375321
1255.0, 0.006535946045081124
1256.0, 0.0017977473492100755
1257.0, 0.004706037201398069
1258.0, 0.009159653378750163
1259.0, 0.012372244299682885
1260.0, 0.009428459637130874
1261.0, 0.005073338846305978
1262.0, 0.008713008938303866
1263.0, 0.010253192442490459
1264.0, 0.00449573185559328
1265.0, 0.013735063874095475
1266.0, 0.011621828450143758
1267.0, 0.02060351061040478
1268.0, 0.02006921237808233
1269.0, 0.022662972931381132
1270.0, 0.020997755719635112
1271.0, 0.016913315897793206
1272.0, 0.016683544222514265
1273.0, 0.019123010933013485
1274.0, 0.0167119721321696
1275.0, 0.01817093343697741
1276.0, 0.024856680934724446
1277.0, 0.02056092325962705
1278.0, 0.009195087099614195
1279.0, 0.007703564167624831
1280.0, 0.012306129123855846
1281.0, 0.00929265144455239
1282.0, 0.011343308619072073
1283.0, 0.009305199146186471
1284.0, 0.009893580186720449
1285.0, 0.011998548318123727
1286.0, 0.011872569627138964
1287.0, 0.011995792792171608
1288.0, 0.013493175819448195
1289.0, 0.015548423871885446
1290.0, 0.019105932501509278
1291.0, 0.022371555324918795
1292.0, 0.023775290271358968
1293.0, 0.025842318068669205
1294.0, 0.025929346569808297
1295.0, 0.025089212481691662
1296.0, 0.025749982982748148
1297.0, 0.02382139106655004
1298.0, 0.02224719476538923
1299.0, 0.021199683482373537
1300.0, 0.01775772543978018
1301.0, 0.017588109821925036
1302.0, 0.020302159669226702
1303.0, 0.017642698134758144
1304.0, 0.017742052425440823
1305.0, 0.024287676606991816
1306.0, 0.029450424956221702
1307.0, 0.02812922048627289
1308.0, 0.02642762878381528
1309.0, 0.027560841474226088
1310.0, 0.02374529327390921
1311.0, 0.03202860237439546
1312.0, 0.033311067537887394
1313.0, 0.029246594196646103
1314.0, 0.028649073301770623
1315.0, 0.02799550139856403
1316.0, 0.027320999258994682
1317.0, 0.030967079459946843
1318.0, 0.029694497317633947
1319.0, 0.029792013457974477
1320.0, 0.031522702130431964
1321.0, 0.02863077530604561
1322.0, 0.02448227467170485
1323.0, 0.025540717724937063
1324.0, 0.029033794715237617
1325.0, 0.026743614237125592
1326.0, 0.018677728855156804
1327.0, 0.019054649191665433
1328.0, 0.008856348295265737
1329.0, 0.016851709887417937
1330.0, 0.011624109662679766
1331.0, 0.01129131650499715
1332.0, 0.011435904947049434
1333.0, 0.0063217782628122035
1334.0, 0.008717019838752687
1335.0, 0.009600718982075858
1336.0, 0.008052589142675547
1337.0, 0.004602116883143133
1338.0, 0.0024349315356181956
1339.0, 0.008037240140083859
1340.0, 0.014872168112205115
1341.0, 0.013967294788175495
1342.0, 0.012033193191006587
1343.0, 0.010220656064966183
1344.0, 0.008123116572117114
1345.0, 0.011893328764761915
1346.0, 0.014156955031369078
1347.0, 0.004331759758564207
1348.0, 0.0069266053980882435
1349.0, 0.016315991952869754
1350.0, 0.006620739467901207
1351.0, 0.010069223344835624
1352.0, 0.011101981865699198
1353.0, 0.010710359702989782
1354.0, 0.007124234546953996
1355.0, 0.008519621972201767
1356.0, 0.007778446076890878
1357.0, 0.002889245413155681
1358.0, 0.0025650817175322045
1359.0, 0.003317451753614889
1360.0, 0.0018766208193102013
1361.0, 0.002705541813053051
1362.0, 0.007652602145584084
1363.0, 0.008549442292220101
1364.0, 0.0062177094691251225
1365.0, 0.007959888466798926
1366.0, 0.007329024421007603
1367.0, 0.007155168782887537
1368.0, 0.007232478198225368
1369.0, 0.007262222091858957
1370.0, 0.006871845241403571
1371.0, 0.006398251930815133
1372.0, 0.006955193254420464
1373.0, 0.008275375956276957
1374.0, 0.007072751757574687
1375.0, 0.005851139345959057
1376.0, 0.008821339459303341
1377.0, 0.009002544579412818
1378.0, 0.00426892825342901
1379.0, 0.007961552502119423
1380.0, 0.010543897786916086
1381.0, 0.00841338324845719
1382.0, 0.012043092649964043
1383.0, 0.010183866436321153
1384.0, 0.014957005658042479
1385.0, 0.01672241475586796
1386.0, 0.01223846370753106
1387.0, 0.00998139983403809
1388.0, 0.007596977389252893
1389.0, 0.006787797737790923
1390.0, 0.00742481712206881
1391.0, 0.009806225734040774
1392.0, 0.005942732268123946
1393.0, 0.005735398028416769
1394.0, 0.004844360618512586
1395.0, 0.0011630634077965988
1396.0, 0.0036351925987331297
1397.0, 0.005399982181232641
1398.0, 0.004605530027276588
1399.0, 0.004606417963259197
1400.0, 0.0028183250873793125
1401.0, 0.003169348007384104
1402.0, 0.005174791520144407
1403.0, 0.007789756527002878
1404.0, 0.008539010389324402
1405.0, 0.006063104324517159
1406.0, 0.007232499582087755
1407.0, 0.006878638303786097
1408.0, 0.006053814385472806
1409.0, 0.006152588715109306
1410.0, 0.005110342136170188
1411.0, 0.005447416925152693
1412.0, 0.00565325755376713
1413.0, 0.007109306717294656
1414.0, 0.007500440722228763
1415.0, 0.006623971625761664
1416.0, 0.006048340030459083
1417.0, 0.004306033871569038
1418.0, 0.003950399525948248
1419.0, 0.004332008039124855
1420.0, 0.0004843401707073326
1421.0, 0.0005921093952937174
1422.0, 0.0033364987439787595
1423.0, 0.002772315486234563
1424.0, 0.007522591081657251
1425.0, 0.013730702284752368
1426.0, 0.011635212871757233
1427.0, 0.015291391050995574
1428.0, 0.009722335187343693
1429.0, 0.015671643472076134
1430.0, 0.01289539079181328
1431.0, 0.017248584652552093
1432.0, 0.020037581254297568
1433.0, 0.0286467524175302
1434.0, 0.03587168485617535
1435.0, 0.03408149979133926
1436.0, 0.03766181881913466
1437.0, 0.04488679793920367
1438.0, 0.05034447422089537
1439.0, 0.05917093980043952
1440.0, 0.0632123419338461
1441.0, 0.07021351168631869
1442.0, 0.07395528711330333
1443.0, 0.07806646784285595
1444.0, 0.07778609758311922
1445.0, 0.08866886600196583
1446.0, 0.08383924890989225
1447.0, 0.08628046855465839
1448.0, 0.0895678342753423
1449.0, 0.09574056899082041
1450.0, 0.10023883473447187
1451.0, 0.10277759948386576
1452.0, 0.10420885934034757
1453.0, 0.10303808235303379
1454.0, 0.10291414947174536
1455.0, 0.10215643341381381
1456.0, 0.1016351118134101
1457.0, 0.09929836209242
1458.0, 0.0975277154648754
1459.0, 0.09532064689717908
1460.0, 0.08809233045396225
1461.0, 0.0779465241345759
1462.0, 0.0721272813087698
1463.0, 0.06732061066905587
1464.0, 0.05877999313290709
1465.0, 0.05979670513154104
1466.0, 0.05499534358395101
1467.0, 0.055063324882915654
1468.0, 0.05027994969321006
1469.0, 0.04386477053275637
1470.0, 0.043621213296475725
1471.0, 0.034679613060612235
1472.0, 0.040500726517388314
1473.0, 0.03627218247235823
1474.0, 0.03239438344835004
1475.0, 0.0317477381629218
1476.0, 0.029241037470721574
1477.0, 0.03674671147342728
1478.0, 0.03141368177815045
1479.0, 0.03227977101969144
1480.0, 0.03254067177938137
1481.0, 0.03012395575974389
1482.0, 0.026069068753784837
1483.0, 0.02530804720958869
1484.0, 0.020383890834212926
1485.0, 0.016350399382012076
1486.0, 0.017322214071768607
1487.0, 0.01451037833387328
1488.0, 0.011228721303473025
1489.0, 0.008242948292265755
1490.0, 0.005677140184011354
1491.0, 0.004914364175816338
1492.0, 0.008365211434622486
1493.0, 0.00990572793302399
1494.0, 0.010836716461798953
1495.0, 0.0011970111949678522
1496.0, 0.0020376895685662697
1497.0, 0.0018691957154756559
1498.0, 0.0002874788988524085
1499.0, 0.0002814044175274384
1500.0, 0.0003105901373580906
1501.0, 0.00039071999536629973
1502.0, 6.905975803887969e-05
1503.0, 0.0017588628096366634
1504.0, 0.004135560413485104
1505.0, 0.0019601792953648834
1506.0, 0.0006896238959845183
1507.0, 0.0047238966691680664
1508.0, 0.0035021716050150876
1509.0, 0.0022442939804126045
1510.0, 0.003992655667833885
1511.0, 0.0030634314776828726
1512.0, 0.004315178088493448
1513.0, 0.003991737041070612
1514.0, 0.0007203966214553564
1515.0, 0.0023450698445552625
1516.0, 0.0054195285342736495
1517.0, 0.006271094832296315
1518.0, 0.007162544321793047
1519.0, 0.009555983667281337
1520.0, 0.003673501067351474
1521.0, 0.007554577733803948
1522.0, 0.0012719301096007552
1523.0, 0.007185133626534329
1524.0, 0.00989769170313127
1525.0, 0.017427119309471963
1526.0, 0.016335181987680716
1527.0, 0.014319823410724852
1528.0, 0.016693113004474496
1529.0, 0.010824203741918456
1530.0, 0.013269104102337543
1531.0, 0.005193093977826267
1532.0, 0.012075535172915625
1533.0, 0.01427546753278321
1534.0, 0.019198368154021133
1535.0, 0.016553886644991966
1536.0, 0.014309916325966173
1537.0, 0.01620644931885718
1538.0, 0.01387859535847585
1539.0, 0.009778041351802073
1540.0, 0.008555394374355573
1541.0, 0.0075420340649458364
1542.0, 0.006939860431544645
1543.0, 0.00708765354811739
1544.0, 0.008679916773419404
1545.0, 0.011146192467657178
1546.0, 0.006866597154333388
1547.0, 0.002545405179574425
1548.0, 0.010832607796751659
1549.0, 0.01479459395852141
1550.0, 0.00969328225490768
1551.0, 0.013846757908758571
1552.0, 0.014150155263951754
1553.0, 0.01822500758597624
1554.0, 0.020936631769028387
1555.0, 0.013973092638482582
1556.0, 0.009800996907889884
1557.0, 0.0006027492961604292
1558.0, 0.0027789553599338384
1559.0, 0.00753179582419607
1560.0, 0.00821931323051989
1561.0, 0.005685075423293962
1562.0, 1.8915118071538357e-05
1563.0, 2.4274090318707406e-07
1564, 0.0
1565, 0.0
1566, 0.0
1567, 0.0
1568, 0.0
1569, 0.0
1570, 0.0
1571, 0.0
1572, 0.0
1573, 0.0
1574, 0.0
1575, 0.0
1576, 0.0
1577, 0.0
1578, 0.0
1579, 0.0
1580, 0.0
1581, 0.0
1582, 0.0
1583, 0.0
1584, 0.0
1585, 0.0
1586, 0.0
1587, 0.0
1588, 0.0
1589, 0.0
1590, 0.0
1591, 0.0
1592, 0.0
1593, 0.0
1594, 0.0
1595, 0.0
1596, 0.0
1597, 0.0
1598, 0.0
1599, 0.0
