30, 0.0
31, 0.0
32, 0.0
33, 0.0
34, 0.0
35, 0.0
36, 0.0
37, 0.0
38, 0.0
39, 0.0
40, 0.0
41, 0.0
42, 0.0
43, 0.0
44, 0.0
45, 0.0
46, 0.0
47, 0.0
48, 0.0
49, 0.0
50, 0.0
51, 0.0
52, 0.0
53, 0.0
54, 0.0
55, 0.0
56, 0.0
57, 0.0
58, 0.0
59, 0.0
60, 0.0
61, 0.0
62, 0.0
63, 0.0
64, 0.0
65, 0.0
66, 0.0
67, 0.0
68, 0.0
69, 0.0
70, 0.0
71, 0.0
72, 0.0
73, 0.0
74, 0.0
75, 0.0
76, 0.0
77, 0.0
78, 0.0
79, 0.0
80, 0.0
81, 0.0
82, 0.0
83, 0.0
84, 0.0
85, 0.0
86, 0.0
87, 0.0
88, 0.0
89, 0.0
90, 0.0
91, 0.0
92, 0.0
93, 0.0
94, 0.0
95, 0.0
96, 0.0
97, 0.0
98, 0.0
99, 0.0
100, 0.0
101, 0.0
102, 0.0
103, 0.0
104, 0.0
105, 0.0
106, 0.0
107, 0.0
108, 0.0
109, 0.0
110, 0.0
111, 0.0
112, 0.0
113, 0.0
114, 0.0
115, 0.0
116, 0.0
117, 0.0
118, 0.0
119, 0.0
120, 0.0
121, 0.0
122, 0.0
123, 0.0
124, 0.0
125, 0.0
126, 0.0
127, 0.0
128, 0.0
129, 0.0
130, 0.0
131, 0.0
132, 0.0
133, 0.0
134, 0.0
135, 0.0
136, 0.0
137, 0.0
138, 0.0
139, 0.0
140, 0.0
141.0, 0.0005453158909452798
142.0, 0.00015400550378158112
143.0, 0.00011318615534532761
144.0, 0.0011092571121375852
145.0, 0.0019433781669643572
146.0, 0.0018497867488621086
147.0, 0.0032502642876179703
148.0, 0.004671438666640345
149.0, 0.007188449564129424
150.0, 0.010990863323042757
151.0, 0.013422539560217776
152.0, 0.01432611931856352
153.0, 0.016786090843139798
154.0, 0.020190431300573176
155.0, 0.022178641799577486
156.0, 0.023076658730697943
157.0, 0.02392455134182082
158.0, 0.023843911512820313
159.0, 0.021828180308429455
160.0, 0.019122471544650903
161.0, 0.01610032258667327
162.0, 0.014553011169580644
163.0, 0.014353020232725075
164.0, 0.011923124853247069
165.0, 0.01223813014327243
166.0, 0.01264367721849507
167.0, 0.012809160095383557
168.0, 0.014883154359190921
169.0, 0.01604722116384786
170.0, 0.017731981168066256
171.0, 0.02072525556676386
172.0, 0.02479324153438985
173.0, 0.0288459413992465
174.0, 0.03540942966247935
175.0, 0.03829197009231477
176.0, 0.03399870410320104
177.0, 0.027078828800795696
178.0, 0.020269562574538373
179.0, 0.014337206811685682
180.0, 0.010512209862089589
181.0, 0.010005015956147592
182.0, 0.008799529052206257
183.0, 0.0075956639391190316
184.0, 0.006823027398119927
185.0, 0.006217912375143116
186.0, 0.005275935851834044
187.0, 0.00484895674906405
188.0, 0.004474520806130146
189.0, 0.0037483072628311247
190.0, 0.0029080677701027254
191.0, 0.0019905656967453165
192.0, 0.0016068345165979778
193.0, 0.001351191145510604
194.0, 0.000677733982801619
195.0, 0.001572101101521174
196.0, 0.000896238782732857
197.0, 0.00017418852625193128
198.0, 7.755766062290618e-05
199.0, 0.0003850338845572802
200.0, 0.0005815498925195162
201.0, 0.000271229825790188
202.0, 0.00016233276206925715
203.0, 3.428072533274778e-05
204.0, 0.00031122078274884086
205.0, 0.00021164128428687075
206.0, 0.0007793697670188146
207.0, 0.000593939454676315
208.0, 0.0014595708712665575
209.0, 0.002214735111832772
210.0, 0.0024431432757496103
211.0, 0.002382859308384476
212.0, 0.002824439501201872
213.0, 0.003936960625070029
214.0, 0.0046603435075873185
215.0, 0.005730031636995846
216.0, 0.007557330943156844
217.0, 0.006995506045031223
218.0, 0.007586317325028507
219.0, 0.008354485168607859
220.0, 0.009071930759796475
221.0, 0.01175799540364153
222.0, 0.010743501126381194
223.0, 0.01046860439910007
224.0, 0.011296850965120954
225.0, 0.011321895711196796
226.0, 0.011736606396239472
227.0, 0.013054112838505244
228.0, 0.01471481933062127
229.0, 0.01621114702417249
230.0, 0.017514662113991376
231.0, 0.01967176288547887
232.0, 0.02242032177096731
233.0, 0.02456379925896464
234.0, 0.024859520410634633
235.0, 0.022574433883984304
236.0, 0.01987446913499413
237.0, 0.01679781623831108
238.0, 0.013265431455370558
239.0, 0.010207587877650099
240.0, 0.009202518629467108
241.0, 0.008622845543850047
242.0, 0.007755524959468562
243.0, 0.006859788066209279
244.0, 0.00658988759322624
245.0, 0.006533963271700365
246.0, 0.006912683414328586
247.0, 0.007416207560718185
248.0, 0.0069666414800518784
249.0, 0.00708266678373542
250.0, 0.006075021477726172
251.0, 0.005336545605228961
252.0, 0.006370153138700274
253.0, 0.006054090832363739
254.0, 0.005535285417551247
255.0, 0.0051580003773010604
256.0, 0.004864933427604832
257.0, 0.004490566742016896
258.0, 0.003958562810864629
259.0, 0.00303728276502036
260.0, 0.002091918040457123
261.0, 0.0015912185052060102
262.0, 0.0016947800335315242
263.0, 0.0006040935615281077
264.0, 0.0002984841731278172
265.0, 0.0006127793887290076
266.0, 0.0012069595161216422
267.0, 0.0019472637395676893
268.0, 0.00257217718883674
269.0, 0.0029503809675558586
270.0, 0.003079223723678367
271.0, 0.003067893374220643
272.0, 0.0036922163573407637
273.0, 0.003534969881871233
274.0, 0.002903586495781976
275.0, 0.00273589136056473
276.0, 0.002209716151363222
277.0, 0.0014659264567861057
278.0, 0.0007444050345109757
279.0, 0.00021818674785336684
280.0, 0.001005372060531215
281.0, 0.0020805216135873117
282.0, 0.0031200880894520808
283.0, 0.004364295965264942
284.0, 0.006170537994490416
285.0, 0.008793088492868556
286.0, 0.010959984520725531
287.0, 0.013373239656822676
288.0, 0.01647800746789509
289.0, 0.02019656490398465
290.0, 0.0239835362517546
291.0, 0.0272637402097061
292.0, 0.03125872860569042
293.0, 0.0371921039022079
294.0, 0.04475880988355283
295.0, 0.04973652533148773
296.0, 0.05549237179445225
297.0, 0.06330973926972847
298.0, 0.07256273575258178
299.0, 0.08248687694373387
300.0, 0.09221950792462014
301.0, 0.10232240467174757
302.0, 0.11274794212993161
303.0, 0.12302838304528137
304.0, 0.13312822696475596
305.0, 0.14381123158969272
306.0, 0.1553555034746835
307.0, 0.1676591815728067
308.0, 0.18041051133811384
309.0, 0.1932483371317643
310.0, 0.20797366530974368
311.0, 0.2238992497534199
312.0, 0.23932214760971587
313.0, 0.25286443163384204
314.0, 0.2633141441721648
315.0, 0.2695841097685078
316.0, 0.2704766355626092
317.0, 0.26461988696365946
318.0, 0.250751366768601
319.0, 0.23299419611374464
320.0, 0.21264356619057428
321.0, 0.19093253974473426
322.0, 0.17020261258516187
323.0, 0.15361509862760953
324.0, 0.14007660780895612
325.0, 0.12820836088462143
326.0, 0.11808352670601871
327.0, 0.11118851655315118
328.0, 0.10494085962543903
329.0, 0.10143691915425519
330.0, 0.10025720209541339
331.0, 0.10039983906535455
332.0, 0.10098654600235313
333.0, 0.10351379243394047
334.0, 0.10572794800959015
335.0, 0.10800946037459287
336.0, 0.11150378022493354
337.0, 0.11466083613709084
338.0, 0.11799194133619323
339.0, 0.12278705849831274
340.0, 0.12874505097631447
341.0, 0.13452686956712198
342.0, 0.13938008351377912
343.0, 0.1460236442084375
344.0, 0.15350722976067532
345.0, 0.16071742976093822
346.0, 0.16730221520152605
347.0, 0.17258549569413292
348.0, 0.17467482570552342
349.0, 0.17344844851684194
350.0, 0.16876050070299622
351.0, 0.15990731237636832
352.0, 0.14737515702271736
353.0, 0.13334082453934293
354.0, 0.11903435892181438
355.0, 0.1060831603140584
356.0, 0.09698578006890793
357.0, 0.0891296188942664
358.0, 0.08380541635732132
359.0, 0.08029698294082434
360.0, 0.07787114233713137
361.0, 0.07792624342194367
362.0, 0.080617940478046
363.0, 0.08552589060774145
364.0, 0.09311105236692163
365.0, 0.1033910450486499
366.0, 0.1144226037822056
367.0, 0.12821555724268374
368.0, 0.1423053609386764
369.0, 0.15635110111518707
370.0, 0.17100470735402495
371.0, 0.18562277847156183
372.0, 0.2027637502780576
373.0, 0.22005862879224194
374.0, 0.23819662910152783
375.0, 0.2603923507367879
376.0, 0.28398119556010104
377.0, 0.3107469394634765
378.0, 0.3397099823801785
379.0, 0.36986376239047275
380.0, 0.40010060816206044
381.0, 0.42437979912353824
382.0, 0.4413440508116574
383.0, 0.44363505768451467
384.0, 0.42735054749702933
385.0, 0.3940665417650477
386.0, 0.3463558383928175
387.0, 0.2902072455015459
388.0, 0.23611707380370822
389.0, 0.1896071957422899
390.0, 0.15042932071282708
391.0, 0.11991719966499535
392.0, 0.09702071828272466
393.0, 0.07795453110158375
394.0, 0.06161185695112745
395.0, 0.04975992820701558
396.0, 0.04108090251972765
397.0, 0.03372830305543472
398.0, 0.027208176321855924
399.0, 0.02164102421101972
400.0, 0.017363951838595872
401.0, 0.01451678648310696
402.0, 0.012245699786568755
403.0, 0.010125701022574238
404.0, 0.008250083353127912
405.0, 0.006968201846858112
406.0, 0.005711357438961271
407.0, 0.004694076915864368
408.0, 0.003483949809854883
409.0, 0.002385260602935834
410.0, 0.002462437814234504
411.0, 0.0024444785042529544
412.0, 0.0015685314694180706
413.0, 0.000763174896309215
414.0, 0.0005505492734898964
415.0, 0.0003008229798767054
416.0, 0.00043911619821049557
417.0, 0.0011194324354527174
418.0, 0.0015049388629859942
419.0, 0.00140221011814095
420.0, 0.0008645718102210307
421.0, 0.0014652350472530566
422.0, 0.0021465735040312158
423.0, 0.0022272018693003733
424.0, 0.001975214119990678
425.0, 0.0021542636368196014
426.0, 0.002579982703296867
427.0, 0.0030044640783023773
428.0, 0.002643019086405866
429.0, 0.0019509643703025526
430.0, 0.0019523677501347711
431.0, 0.0013953372556868603
432.0, 0.0013276479514940328
433.0, 0.0010947025337513317
434.0, 0.00042687738531338063
435.0, 0.0003628694459402172
436.0, 0.001263513083450066
437.0, 0.00215292750623798
438.0, 0.0024698496472963585
439.0, 0.0030670237759971193
440.0, 0.004619831597527773
441.0, 0.005544474628591026
442.0, 0.007660490215257364
443.0, 0.008541312002937635
444.0, 0.008328303247201302
445.0, 0.008604439040775102
446.0, 0.01003894579178509
447.0, 0.01092280556597322
448.0, 0.011741426466885013
449.0, 0.012624782865708353
450.0, 0.013444410368929875
451.0, 0.014007357903085564
452.0, 0.014267228360727474
453.0, 0.014020666821462286
454.0, 0.013586656035451417
455.0, 0.012923650394759302
456.0, 0.01149841645791134
457.0, 0.010207956623718114
458.0, 0.009166300022030937
459.0, 0.007992612426344841
460.0, 0.006801629152970859
461.0, 0.005963864542562297
462.0, 0.004646660800963917
463.0, 0.003400120743738435
464.0, 0.0032474661088470716
465.0, 0.0035005470414037287
466.0, 0.0028631204131636953
467.0, 0.002499750785775174
468.0, 0.0028672463267597243
469.0, 0.0030328159960139
470.0, 0.002538422773610122
471.0, 0.001854973734622991
472.0, 0.0021023839166709533
473.0, 0.001971300212490681
474.0, 0.0022744454648536685
475.0, 0.002341325392577254
476.0, 0.0017886598738915108
477.0, 0.001954651365376452
478.0, 0.002258545875316499
479.0, 0.0021767700123736596
480.0, 0.0017789569381704477
481.0, 0.0014361977008373983
482.0, 0.0013230955119648336
483.0, 0.001016088073655208
484.0, 0.0007444449780901554
485.0, 0.0006337830340909023
486.0, 0.0006601412329038391
487.0, 0.0007953127312435394
488.0, 0.0013127792106872426
489.0, 0.001070696872124034
490.0, 0.0013023233480482033
491.0, 0.0017159867504561927
492.0, 0.0016378816412146297
493.0, 0.0016528370523910432
494.0, 0.002809742060956343
495.0, 0.0041461820526031146
496.0, 0.004789831174489757
497.0, 0.005052753833020437
498.0, 0.00581621130103388
499.0, 0.006528359324479044
500.0, 0.007503885697052709
501.0, 0.008322794346233156
502.0, 0.009074185183922522
503.0, 0.010053290298157888
504.0, 0.010201919991920714
505.0, 0.009837577966712696
506.0, 0.010539532681272851
507.0, 0.01146505526068273
508.0, 0.011453193746290696
509.0, 0.011441913487893331
510.0, 0.011910121330442645
511.0, 0.013051234861776687
512.0, 0.014480731625534067
513.0, 0.015788519449576387
514.0, 0.01689614183485763
515.0, 0.017940875044934617
516.0, 0.019755520418144778
517.0, 0.021440182546109732
518.0, 0.023035573562101435
519.0, 0.02522230756657036
520.0, 0.02837994222954885
521.0, 0.030658309661956235
522.0, 0.03283706848312854
523.0, 0.035462695520359
524.0, 0.038087841466186774
525.0, 0.03964416610318696
526.0, 0.03977318591230934
527.0, 0.03836542774711874
528.0, 0.03563635893959259
529.0, 0.031804743850428224
530.0, 0.027536481978858413
531.0, 0.024466976881595635
532.0, 0.021241820308748546
533.0, 0.01946807659340017
534.0, 0.018625966588046453
535.0, 0.01810928514418341
536.0, 0.018872727021539595
537.0, 0.02006146739836215
538.0, 0.022512649648618557
539.0, 0.026736433844998454
540.0, 0.031123254259394096
541.0, 0.03413200059327818
542.0, 0.038042569563869824
543.0, 0.04309100233966824
544.0, 0.046637879561199955
545.0, 0.049632444561990355
546.0, 0.05347730870973333
547.0, 0.057794554523815135
548.0, 0.0628196960079364
549.0, 0.06906129006876825
550.0, 0.07597457469870345
551.0, 0.08356070227648248
552.0, 0.09147691980178496
553.0, 0.09769683727368357
554.0, 0.10316840447384826
555.0, 0.10579312573530901
556.0, 0.10231964051735518
557.0, 0.09228857787702861
558.0, 0.07879968021685552
559.0, 0.0637141410832302
560.0, 0.050417292950319076
561.0, 0.039320136541701134
562.0, 0.030416107496392685
563.0, 0.024386051772459224
564.0, 0.021715641540062634
565.0, 0.016946661483097526
566.0, 0.014152091591551699
567.0, 0.012140783350190656
568.0, 0.00985565990055651
569.0, 0.008254945843754115
570.0, 0.006896228671039902
571.0, 0.00646018859273166
572.0, 0.005679477630652415
573.0, 0.0048536694968958375
574.0, 0.004125023144035205
575.0, 0.002641000002735361
576.0, 0.001949310470426093
577.0, 0.0017022290526355263
578.0, 0.0012796041244679398
579.0, 0.0009787175419596196
580.0, 0.0010741675788294585
581.0, 0.0007321795581589197
582.0, 0.0001762174953764934
583.0, 7.934804805432498e-05
584.0, 4.7581671084823275e-05
585.0, 0.00041648775259084186
586.0, 0.0008545785208810816
587.0, 0.0002809464250058602
588.0, 0.00039348380066982355
589.0, 0.0006201700885495724
590.0, 0.000807978534724183
591.0, 0.001241495208629147
592.0, 0.0006390971243627565
593.0, 0.0005002754266479013
594.0, 0.0005994712521174788
595.0, 0.0003890005295877526
596.0, 4.798387119325486e-05
597.0, 0.0001145940315413182
598.0, 0.0007915200633489048
599.0, 0.0007299677259383386
600.0, 0.00018330336694064823
601.0, 0.0002816953105557135
602.0, 0.00037083073273217913
603.0, 0.00031281042403092675
604.0, 4.18055613194635e-05
605.0, 0.00020206090885419888
606.0, 0.0011935883994987815
607.0, 0.0018630232058606333
608.0, 0.0017103218335206651
609.0, 0.0014031683416197039
610.0, 0.001633439726046036
611.0, 0.002059511644325949
612.0, 0.0027073171772017115
613.0, 0.0031971145620691417
614.0, 0.0033615401956818137
615.0, 0.003535065992590472
616.0, 0.004204732205583642
617.0, 0.004639627297520344
618.0, 0.005444179994760487
619.0, 0.006326435414384064
620.0, 0.0070383204157831265
621.0, 0.008004879910841155
622.0, 0.009372712507021654
623.0, 0.009417678267132261
624.0, 0.010281965999494408
625.0, 0.011713330678496928
626.0, 0.012813925311182719
627.0, 0.013668804638892125
628.0, 0.014368190960773427
629.0, 0.015901192599068758
630.0, 0.016964633333181014
631.0, 0.01810778979660972
632.0, 0.019939211411928705
633.0, 0.02144726626668166
634.0, 0.02393879289869251
635.0, 0.02599757067771897
636.0, 0.028137957584658067
637.0, 0.03119016725205278
638.0, 0.03540255506004861
639.0, 0.04017043805757255
640.0, 0.04507758912478779
641.0, 0.05184991262438726
642.0, 0.06070627664730191
643.0, 0.07048063503518125
644.0, 0.08119076001242262
645.0, 0.09458542507747783
646.0, 0.10854550488173528
647.0, 0.12229898233181723
648.0, 0.13901576975069158
649.0, 0.15727025501491526
650.0, 0.17495372896949804
651.0, 0.19360498321193
652.0, 0.21374953305176156
653.0, 0.23575912585552486
654.0, 0.25962163584629816
655.0, 0.2835735831734738
656.0, 0.3063911445236386
657.0, 0.3287189845834521
658.0, 0.3499219567608178
659.0, 0.362787629059213
660.0, 0.36795566747200703
661.0, 0.36377971755055777
662.0, 0.34860454770199983
663.0, 0.3244121112393629
664.0, 0.29070298521487753
665.0, 0.2537268211275337
666.0, 0.21728177312554087
667.0, 0.18445931825698333
668.0, 0.1560317231860507
669.0, 0.1305888293606747
670.0, 0.11039597242992027
671.0, 0.09344442324548559
672.0, 0.0792678848122708
673.0, 0.06825491029870319
674.0, 0.059499528974335525
675.0, 0.051260983742695825
676.0, 0.044167309063820666
677.0, 0.03837667059349467
678.0, 0.03418713842359727
679.0, 0.030699191193506312
680.0, 0.027213522462743958
681.0, 0.023889441499342978
682.0, 0.0215227895891012
683.0, 0.019841879293804186
684.0, 0.018307167735241853
685.0, 0.01634681996436366
686.0, 0.014365567326591801
687.0, 0.0131214909122117
688.0, 0.012450271692536695
689.0, 0.011424742027244557
690.0, 0.011288048945528872
691.0, 0.010663501968968354
692.0, 0.009490322285095663
693.0, 0.008598777373199152
694.0, 0.0077501412282100085
695.0, 0.007439417457734257
696.0, 0.00726097963839068
697.0, 0.00645607748060201
698.0, 0.005685149397608799
699.0, 0.005405204071655387
700.0, 0.004947991655394884
701.0, 0.0046291935944984194
702.0, 0.00420117808614744
703.0, 0.0038093393872136137
704.0, 0.0033720506007849406
705.0, 0.0027056079888841933
706.0, 0.0019075294324746733
707.0, 0.002145127714291831
708.0, 0.0023511598576384605
709.0, 0.001213669531892695
710.0, 0.0004015361552848163
711.0, 0.0007601552124191945
712.0, 0.0012400292850641885
713.0, 0.001064271658068525
714.0, 0.001070703922397935
715.0, 0.00035245716378624913
716.0, 0.0006942909528138012
717.0, 0.001072617881760235
718.0, 0.00047534326914625246
719.0, 0.00012484163098331767
720.0, 0.00017085938594594592
721.0, 0.00038022308934793997
722.0, 0.00017507216235232263
723.0, 0.00018387436133160845
724.0, 0.0002739336574927025
725.0, 1.9631360726272206e-05
726.0, 0.0004215990634097129
727.0, 0.0006521446830510384
728.0, 0.00014008458295117803
729.0, 0.00014655990074145526
730.0, 0.00048000655226050935
731.0, 0.0003711466708988297
732.0, 9.295581945281361e-05
733.0, 0.00014434949555257114
734.0, 0.00016857844456778827
735.0, 0.00020880663608905767
736.0, 0.00036612565170679646
737.0, 0.0006634273563421081
738.0, 0.00042109049269422515
739.0, 0.00011134046057018807
740.0, 0.00031094554672047615
741.0, 8.272672323908304e-05
742.0, 0.0002038926581259017
743.0, 0.0005909900605417194
744.0, 0.0008331840050324899
745.0, 0.0011912789792910606
746.0, 0.001134402432385701
747.0, 0.00047325366439304875
748.0, 0.0007042486032976576
749.0, 0.001376283874380564
750.0, 0.00152211850402429
751.0, 0.0011402900672987405
752.0, 0.0011209157475831747
753.0, 0.001469705154157378
754.0, 0.0013278463623627031
755.0, 0.0014833568655085525
756.0, 0.0018771709843601193
757.0, 0.002257089559172739
758.0, 0.0025866192798988464
759.0, 0.001637062009242406
760.0, 0.0014654872980790245
761.0, 0.0019923252793337056
762.0, 0.0024792141716479593
763.0, 0.002410969411330232
764.0, 0.002149438131224471
765.0, 0.0023384072334418234
766.0, 0.0019937706881716383
767.0, 0.0013304312805030032
768.0, 0.0012678970888192085
769.0, 0.0014072560065485848
770.0, 0.0011877914311410036
771.0, 0.0010371590461385027
772.0, 0.0018965443622273419
773.0, 0.0016262257262111553
774.0, 0.0016106499540556034
775.0, 0.0013864208092129278
776.0, 0.0010119264888444274
777.0, 0.0009196340920255608
778.0, 0.0011766404198592663
779.0, 0.0013025607658373915
780.0, 0.0011658218844073451
781.0, 0.0007587451926871595
782.0, 0.0007113832041218667
783.0, 0.0013653943645959331
784.0, 0.0015330010640481743
785.0, 0.00037794232133577064
786.0, 0.0023029412623019477
787.0, 0.001416579509379762
788.0, 0.00037443746909794694
789.0, 0.0016108004389085956
790.0, 0.0022525863131217143
791.0, 0.00034515102747493056
792.0, 0.00016836330357955355
793.0, 4.675697164503066e-05
794.0, 0.00015786465590437662
795.0, 0.0007895218112838021
796.0, 0.0004951591804754921
797.0, 8.999077445574637e-05
798.0, 3.924657224568974e-05
799.0, 0.00027698434174326626
800.0, 0.000683398796501356
801.0, 0.0002460877204741362
802.0, 6.817365277953076e-05
803.0, 8.22477203138192e-05
804.0, 0.00012575527659287086
805.0, 0.00019597010620563474
806.0, 0.00019007596410706263
807.0, 7.989698046910454e-05
808.0, 0.0001846435826564224
809.0, 0.00016499710397091646
810.0, 0.0003511424446147015
811.0, 5.71882172707106e-05
812.0, 0.00048275176666477617
813.0, 0.00010676352631231926
814.0, 0.0006955850364057348
815.0, 0.00016877580745674073
816.0, 0.00029448243259156423
817.0, 0.0003125774318230805
818.0, 0.00016363416112879627
819.0, 0.0002839469433825528
820.0, 0.0010494860735545733
821.0, 0.00030086180377103723
822.0, 0.0008689071197297886
823.0, 0.00039351965576276836
824.0, 0.0004106977271561023
825.0, 0.0008264984536380664
826.0, 0.0005948817475307449
827.0, 0.0007629007706778624
828.0, 0.0011590249301673527
829.0, 0.001448346072697917
830.0, 0.0017922487762277067
831.0, 0.0021143156140640633
832.0, 0.0026160600430480906
833.0, 0.003255019593145116
834.0, 0.003938432384533144
835.0, 0.005800589869619102
836.0, 0.006680566187151461
837.0, 0.007743991552947619
838.0, 0.009053497320441816
839.0, 0.011139050469729975
840.0, 0.013408414434187988
841.0, 0.014522202473914019
842.0, 0.015847941221918856
843.0, 0.01767110496542124
844.0, 0.019861183626411354
845.0, 0.021884287776638707
846.0, 0.024443892004838493
847.0, 0.026438090398956126
848.0, 0.026435350071888138
849.0, 0.02605834759416368
850.0, 0.02449817921816395
851.0, 0.022404794264301645
852.0, 0.019231033565927317
853.0, 0.016262397985240623
854.0, 0.014321340076952554
855.0, 0.012802644669305849
856.0, 0.010937196146444703
857.0, 0.008898905942550049
858.0, 0.00833840827548593
859.0, 0.007707545717900614
860.0, 0.006832932883782575
861.0, 0.006013251160414446
862.0, 0.005588926020966855
863.0, 0.0056460941778439635
864.0, 0.005194704339159935
865.0, 0.004924091634576754
866.0, 0.005147817761287469
867.0, 0.0046036729098125175
868.0, 0.004917360391192208
869.0, 0.005468050779862567
870.0, 0.004647559032618829
871.0, 0.004947375677659994
872.0, 0.0052046314787411955
873.0, 0.005815414148002932
874.0, 0.005600759956510275
875.0, 0.005212825355335079
876.0, 0.005476792927607184
877.0, 0.006052018557907798
878.0, 0.006010208295929959
879.0, 0.005726279188195537
880.0, 0.0068299553811700655
881.0, 0.006318245036346784
882.0, 0.006723400666551301
883.0, 0.007430545271650623
884.0, 0.007298231987800992
885.0, 0.006871092143177319
886.0, 0.006984067256091726
887.0, 0.007510476802716916
888.0, 0.008110746217459155
889.0, 0.00829308464866585
890.0, 0.00858094281460076
891.0, 0.00817187465937715
892.0, 0.007599165585885736
893.0, 0.008118575365434451
894.0, 0.007973514256745265
895.0, 0.008220773671157035
896.0, 0.008008449699764853
897.0, 0.007843200211166879
898.0, 0.00812689722366155
899.0, 0.00838562120062591
900.0, 0.008228343689599947
901.0, 0.008308333033854505
902.0, 0.009058574207155912
903.0, 0.008914248699943093
904.0, 0.00832929046622929
905.0, 0.009079630712577065
906.0, 0.009182056016223909
907.0, 0.008580319343040141
908.0, 0.008760581249808152
909.0, 0.009027788310266772
910.0, 0.008955354875634692
911.0, 0.00883127403128787
912.0, 0.007856975063753284
913.0, 0.007362044436385686
914.0, 0.007021902440815683
915.0, 0.006272780513557262
916.0, 0.005675354493150625
917.0, 0.005521207566302216
918.0, 0.004858986059292311
919.0, 0.005142746336858674
920.0, 0.004365144597339694
921.0, 0.004026767621128948
922.0, 0.003624034975214171
923.0, 0.0031832919275500034
924.0, 0.002982921947072857
925.0, 0.0017655279011321
926.0, 0.001847538524463378
927.0, 0.0014504391003489386
928.0, 0.0011788250986060466
929.0, 0.0008203025137206686
930.0, 0.00021108934853311445
931.0, 0.0004253936458827073
932.0, 0.0007407796437147983
933.0, 0.0006374078222726859
934.0, 0.0012358799169754878
935.0, 0.00081918708293572
936.0, 0.0009790236727185105
937.0, 0.0010226828253441364
938.0, 0.0008009628744820069
939.0, 0.000972935999765134
940.0, 0.00158273128836606
941.0, 0.001293072585527264
942.0, 0.0005750610380659321
943.0, 0.0004309371660937071
944.0, 0.0004963264855648662
945.0, 0.00012770937077434208
946.0, 0.0003131504494124252
947.0, 0.0003269486655013904
948.0, 0.0008042500242680745
949.0, 0.0006949846704155738
950.0, 0.0015856981988319036
951.0, 0.0017664684344303678
952.0, 0.0022410660202606784
953.0, 0.0025493719593962876
954.0, 0.0024564117903730512
955.0, 0.002315746216209286
956.0, 0.0031399028141770283
957.0, 0.004712508602856512
958.0, 0.0043531711072916516
959.0, 0.004768850886781823
960.0, 0.005206304686976887
961.0, 0.005244045569274409
962.0, 0.006021879433324192
963.0, 0.006359475050089915
964.0, 0.0063163160658416566
965.0, 0.007233963920204004
966.0, 0.007326086875757862
967.0, 0.007237534026545587
968.0, 0.00809066271727597
969.0, 0.0078022605876080665
970.0, 0.00843059111021051
971.0, 0.009426054669801693
972.0, 0.010074980595381327
973.0, 0.010782031721182632
974.0, 0.011533360690978591
975.0, 0.012671387485324849
976.0, 0.01332835931836575
977.0, 0.013425156413149031
978.0, 0.014011202112451477
979.0, 0.015493798471459165
980.0, 0.017621643797031645
981.0, 0.019712849566496823
982.0, 0.02057565658190384
983.0, 0.020045855961204766
984.0, 0.021559782325711294
985.0, 0.024954448457600524
986.0, 0.02594022467636544
987.0, 0.027755450323642957
988.0, 0.030799646552574993
989.0, 0.03439823951839064
990.0, 0.038875773364628434
991.0, 0.044681041587607856
992.0, 0.05158020248560001
993.0, 0.059415686147077075
994.0, 0.06972449882993208
995.0, 0.08283501622811977
996.0, 0.09888563613185515
997.0, 0.11944955416805395
998.0, 0.14518530567609572
999.0, 0.1770746661772274
1000.0, 0.2174401749424675
1001.0, 0.2632700962081887
1002.0, 0.3098112707168358
1003.0, 0.36075265016180363
1004.0, 0.41342274347036834
1005.0, 0.4694006277507974
1006.0, 0.5306244038524873
1007.0, 0.5991844240209967
1008.0, 0.6759605545248379
1009.0, 0.7587234536374278
1010.0, 0.8467848308175006
1011.0, 0.9272116448071798
1012.0, 0.9860222431447702
1013.0, 0.9980328743351861
1014.0, 0.9498036223653749
1015.0, 0.8434814819198535
1016.0, 0.6994273379367768
1017.0, 0.5507602185065243
1018.0, 0.4217330942785683
1019.0, 0.3237561715511608
1020.0, 0.25171533605483043
1021.0, 0.20048888215107777
1022.0, 0.16561725836582358
1023.0, 0.1414411171628679
1024.0, 0.12443462387386367
1025.0, 0.11281775472691864
1026.0, 0.10481711461494105
1027.0, 0.09978247056651107
1028.0, 0.09664902656247049
1029.0, 0.09410722762440243
1030.0, 0.09529064944006467
1031.0, 0.09647281247316453
1032.0, 0.09806196861720898
1033.0, 0.10118205762489958
1034.0, 0.10481700111225424
1035.0, 0.10813174080755064
1036.0, 0.11188133094508797
1037.0, 0.11569058182052451
1038.0, 0.1206497062834691
1039.0, 0.12175404784351869
1040.0, 0.1230586980849775
1041.0, 0.12035970152427107
1042.0, 0.11217885224428946
1043.0, 0.10040264922897014
1044.0, 0.08694580827745114
1045.0, 0.07308395471706891
1046.0, 0.06031965903577161
1047.0, 0.04851164204785702
1048.0, 0.04044672446537632
1049.0, 0.0336095731187358
1050.0, 0.02749037133869767
1051.0, 0.023030120123256552
1052.0, 0.019834725195247014
1053.0, 0.017596848784094673
1054.0, 0.015980020865067612
1055.0, 0.013668657467499255
1056.0, 0.01156172920029094
1057.0, 0.010568575786643046
1058.0, 0.00843280520827317
1059.0, 0.00791317558606509
1060.0, 0.0064708029431839835
1061.0, 0.005575947374182779
1062.0, 0.005162344834543126
1063.0, 0.004272140065984084
1064.0, 0.0039426297494413
1065.0, 0.002634617722054005
1066.0, 0.0019340634512033017
1067.0, 0.0012231792865044237
1068.0, 0.000981749894115125
1069.0, 0.0010052583042324547
1070.0, 0.0007033576073187331
1071.0, 0.0003817452748616062
1072.0, 0.00015461770027205192
1073.0, 0.0001015661338060341
1074.0, 0.00016354200367461123
1075.0, 0.0001760340387162795
1076.0, 0.0006641425875784779
1077.0, 0.0008181772303250722
1078.0, 0.00048017573957256606
1079.0, 0.00017378491956904492
1080.0, 0.0007432130798442295
1081.0, 0.0006356534367624554
1082.0, 0.00032515790274232373
1083.0, 0.0005219128897283798
1084.0, 0.00044241418720370276
1085.0, 0.00033191412404762736
1086.0, 0.0001325944386417963
1087.0, 0.0007615122356795191
1088.0, 0.0006695730561387855
1089.0, 0.0003375879110681514
1090.0, 0.00027291340061638523
1091.0, 0.00034545405553372213
1092.0, 0.0003783606067756455
1093.0, 0.00047039427595341676
1094.0, 0.000575223414118342
1095.0, 0.00017925961280509955
1096.0, 0.0003997599891736998
1097.0, 8.95421992751904e-05
1098.0, 0.00020018490824754012
1099.0, 0.0003561520956139126
1100.0, 0.00017247438445739508
1101.0, 0.000520053653343568
1102.0, 0.0011332822685168676
1103.0, 0.0009035381107663189
1104.0, 0.001043708499343765
1105.0, 0.0013324722350104513
1106.0, 0.0012512205478067793
1107.0, 0.0011354348442597475
1108.0, 0.0032717694266504683
1109.0, 0.003586009000565192
1110.0, 0.0022560998268175685
1111.0, 0.002405089474833038
1112.0, 0.002827473121898345
1113.0, 0.0019392707574756517
1114.0, 0.0014508526983725654
1115.0, 0.0018057207854070027
1116.0, 0.0027137772672214885
1117.0, 0.003272325478287905
1118.0, 0.0028711460019047266
1119.0, 0.0034305850777460603
1120.0, 0.003897466148768231
1121.0, 0.0033674604671583247
1122.0, 0.003294082056290278
1123.0, 0.003552450596741742
1124.0, 0.0033927336317884377
1125.0, 0.0037755684786032833
1126.0, 0.003826499279644686
1127.0, 0.0038014347566953854
1128.0, 0.0040986180229530215
1129.0, 0.004023239737927157
1130.0, 0.003958801108002072
1131.0, 0.003444029663378361
1132.0, 0.003744124358075827
1133.0, 0.0038085049451376182
1134.0, 0.003223556494963666
1135.0, 0.003181023020035582
1136.0, 0.003493456165424448
1137.0, 0.004123371915492558
1138.0, 0.003907694543154197
1139.0, 0.0035749123591977405
1140.0, 0.0028409324790688605
1141.0, 0.0028995923382844793
1142.0, 0.0030198339319737165
1143.0, 0.0028666553283899117
1144.0, 0.0026233055011316373
1145.0, 0.0023637975717908035
1146.0, 0.0017010152195696938
1147.0, 0.0007371894267013752
1148.0, 0.001512877962595488
1149.0, 0.00207607167131602
1150.0, 0.0009202495843122125
1151.0, 0.00046176397780182493
1152.0, 0.0006104584720653491
1153.0, 0.001114120248595005
1154.0, 0.0019471636271344167
1155.0, 0.0014666816552569486
1156.0, 0.0003181228263830823
1157.0, 0.0001871903170948458
1158.0, 0.0005130474251636864
1159.0, 0.00011833044864785979
1160.0, 9.98948435568325e-06
1161.0, 0.00019586611345468694
1162.0, 5.387742623683333e-05
1163.0, 0.0002954290831440354
1164.0, 0.0005713016840596736
1165.0, 0.0003312611993963791
1166.0, 0.0004514183176930732
1167.0, 0.0004276174699737633
1168.0, 0.0002679878499241663
1169.0, 0.0004838416568816046
1170.0, 0.0005167284323941885
1171.0, 0.002391373100057877
1172.0, 0.000625933966115903
1173.0, 0.0005152550847854506
1174.0, 0.0006498970327375933
1175.0, 7.71674677080002e-05
1176.0, 8.728788263685298e-06
1177.0, 0.0004992356610402254
1178.0, 0.0008527376182330127
1179.0, 0.0006383177909002694
1180.0, 0.0006773743727628361
1181.0, 0.0011980564149002598
1182.0, 0.0005061194604438551
1183.0, 0.0006030197938251777
1184.0, 0.0012406485640614963
1185.0, 0.0014309401235017244
1186.0, 0.0004490116830059488
1187.0, 0.0011604685383552404
1188.0, 0.0014609141574688656
1189.0, 0.0015310852432513622
1190.0, 0.0014942923024780603
1191.0, 0.0013431634813903502
1192.0, 0.001395446336991316
1193.0, 0.0014576321850303276
1194.0, 0.0016997986811311215
1195.0, 0.0010864438903339126
1196.0, 0.0010468302135444212
1197.0, 0.0014118913220595032
1198.0, 0.0008990961462726352
1199.0, 0.0014675500083660541
1200.0, 0.0017008200074404454
1201.0, 0.0014360763161121771
1202.0, 0.0017064678075622895
1203.0, 0.00223142297769199
1204.0, 0.0018382716883036095
1205.0, 0.0011396146948958626
1206.0, 0.0018815300496652526
1207.0, 0.0016393028647034593
1208.0, 0.0014306276871221247
1209.0, 0.0013499228199722489
1210.0, 0.0017558338168140047
1211.0, 0.0013158532385445767
1212.0, 0.0013229554082333573
1213.0, 0.0019085006622548849
1214.0, 0.00173030921225571
1215.0, 0.0011862948240724109
1216.0, 0.00123729600080503
1217.0, 0.0013679072828036007
1218.0, 0.0009886252320824595
1219.0, 0.001520930118356824
1220.0, 0.0017551998728338209
1221.0, 0.0013874872426398069
1222.0, 0.0005273158999922877
1223.0, 0.0007020774139403804
1224.0, 0.0016016080488550214
1225.0, 0.0018081694736486317
1226.0, 0.0015787362700873373
1227.0, 0.0015234903072483528
1228.0, 0.0013125673985392742
1229.0, 0.0011401686617536835
1230.0, 0.0011010881112178223
1231.0, 0.0010007652563349524
1232.0, 0.0014085177034259282
1233.0, 0.0010866880704072067
1234.0, 0.0012416767652878506
1235.0, 0.0013512701490201956
1236.0, 0.0008412353171863964
1237.0, 0.0009042807654966468
1238.0, 0.0007481619705994469
1239.0, 0.0010497312972307202
1240.0, 0.0010886689836804215
1241.0, 0.0010832763703344827
1242.0, 0.000952109317009146
1243.0, 0.0006070754012913644
1244.0, 0.0007814478777359436
1245.0, 0.0007591173272049048
1246.0, 0.0005842227974624485
1247.0, 0.0015745164218959413
1248.0, 0.0023339050205205963
1249.0, 0.001288591666945685
1250.0, 0.0010789179751163852
1251.0, 0.001205007954361774
1252.0, 0.00126933332983172
1253.0, 0.0010342173831727824
1254.0, 0.0011943356781321224
1255.0, 0.0013189258300059235
1256.0, 0.0010662404427950049
1257.0, 0.0010446843670178126
1258.0, 0.001318366371488933
1259.0, 0.0014156807828151973
1260.0, 0.0006488437134208323
1261.0, 0.0005802464450055451
1262.0, 0.0012130256869709722
1263.0, 0.0010789376213341025
1264.0, 0.0009252391012328566
1265.0, 0.0007088719635378293
1266.0, 0.0009392173905254299
1267.0, 0.0006297838315262485
1268.0, 0.0006333857088569999
1269.0, 0.0005769456078219792
1270.0, 0.0003131729022931856
1271.0, 0.0005281002449247526
1272.0, 0.0008753689457874172
1273.0, 0.0010458553099130406
1274.0, 0.00037151328292620305
1275.0, 0.00012467081792697733
1276.0, 0.0001765746676035486
1277.0, 0.0008721052129247402
1278.0, 0.0008400617030101423
1279.0, 0.00014297119539804446
1280.0, 0.0007385941636452065
1281.0, 0.00036565351159151293
1282.0, 0.00013231872244974218
1283.0, 0.0001957762394736069
1284.0, 0.00029921092788748284
1285.0, 0.0005448289957019674
1286.0, 0.0006805623538248282
1287.0, 0.000668183038568694
1288.0, 0.00017842725525972782
1289.0, 0.00010519966632188988
1290.0, 0.0004507883745417012
1291.0, 0.0005607557933407724
1292.0, 0.0007598125806233309
1293.0, 0.0005122328913947542
1294.0, 0.00025792421572940383
1295.0, 0.0003317540906565843
1296.0, 3.8543425606036295e-05
1297.0, 0.0001499550666070304
1298.0, 0.0005824136240062045
1299.0, 0.00046197373292419336
1300.0, 5.519970758757406e-05
1301.0, 1.2477099744832852e-05
1302, 0.0
1303, 0.0
1304, 0.0
1305, 0.0
1306, 0.0
1307, 0.0
1308, 0.0
1309, 0.0
1310, 0.0
1311, 0.0
1312, 0.0
1313, 0.0
1314, 0.0
1315, 0.0
1316, 0.0
1317, 0.0
1318, 0.0
1319, 0.0
1320, 0.0
1321, 0.0
1322, 0.0
1323, 0.0
1324, 0.0
1325, 0.0
1326, 0.0
1327, 0.0
1328, 0.0
1329, 0.0
1330, 0.0
1331, 0.0
1332, 0.0
1333, 0.0
1334, 0.0
1335, 0.0
1336, 0.0
1337, 0.0
1338, 0.0
1339, 0.0
1340, 0.0
1341, 0.0
1342, 0.0
1343, 0.0
1344, 0.0
1345, 0.0
1346, 0.0
1347, 0.0
1348, 0.0
1349, 0.0
1350, 0.0
1351, 0.0
1352, 0.0
1353, 0.0
1354, 0.0
1355, 0.0
1356, 0.0
1357, 0.0
1358, 0.0
1359, 0.0
1360, 0.0
1361, 0.0
1362, 0.0
1363, 0.0
1364, 0.0
1365, 0.0
1366, 0.0
1367, 0.0
1368, 0.0
1369, 0.0
1370, 0.0
1371, 0.0
1372, 0.0
1373, 0.0
1374, 0.0
1375, 0.0
1376, 0.0
1377, 0.0
1378, 0.0
1379, 0.0
1380, 0.0
1381, 0.0
1382, 0.0
1383, 0.0
1384, 0.0
1385, 0.0
1386, 0.0
1387, 0.0
1388, 0.0
1389, 0.0
1390, 0.0
1391, 0.0
1392, 0.0
1393, 0.0
1394, 0.0
1395, 0.0
1396, 0.0
1397, 0.0
1398, 0.0
1399, 0.0
1400, 0.0
1401, 0.0
1402, 0.0
1403, 0.0
1404, 0.0
1405, 0.0
1406, 0.0
1407, 0.0
1408, 0.0
1409, 0.0
1410, 0.0
1411, 0.0
1412, 0.0
1413, 0.0
1414, 0.0
1415, 0.0
1416, 0.0
1417, 0.0
1418, 0.0
1419, 0.0
1420, 0.0
1421, 0.0
1422, 0.0
1423, 0.0
1424, 0.0
1425, 0.0
1426, 0.0
1427, 0.0
1428, 0.0
1429, 0.0
1430, 0.0
1431, 0.0
1432, 0.0
1433, 0.0
1434, 0.0
1435, 0.0
1436, 0.0
1437, 0.0
1438, 0.0
1439, 0.0
1440, 0.0
1441, 0.0
1442, 0.0
1443, 0.0
1444, 0.0
1445, 0.0
1446, 0.0
1447, 0.0
1448, 0.0
1449, 0.0
1450, 0.0
1451, 0.0
1452, 0.0
1453, 0.0
1454, 0.0
1455, 0.0
1456, 0.0
1457, 0.0
1458, 0.0
1459, 0.0
1460, 0.0
1461, 0.0
1462, 0.0
1463, 0.0
1464, 0.0
1465, 0.0
1466, 0.0
1467, 0.0
1468, 0.0
1469, 0.0
1470, 0.0
1471, 0.0
1472, 0.0
1473, 0.0
1474, 0.0
1475, 0.0
1476, 0.0
1477, 0.0
1478, 0.0
1479, 0.0
1480, 0.0
1481, 0.0
1482, 0.0
1483, 0.0
1484, 0.0
1485, 0.0
1486, 0.0
1487, 0.0
1488, 0.0
1489, 0.0
1490, 0.0
1491, 0.0
1492, 0.0
1493, 0.0
1494, 0.0
1495, 0.0
1496, 0.0
1497, 0.0
1498, 0.0
1499, 0.0
1500, 0.0
1501, 0.0
1502, 0.0
1503, 0.0
1504, 0.0
1505, 0.0
1506, 0.0
1507, 0.0
1508, 0.0
1509, 0.0
1510, 0.0
1511, 0.0
1512, 0.0
1513, 0.0
1514, 0.0
1515, 0.0
1516, 0.0
1517, 0.0
1518, 0.0
1519, 0.0
1520, 0.0
1521, 0.0
1522, 0.0
1523, 0.0
1524, 0.0
1525, 0.0
1526, 0.0
1527, 0.0
1528, 0.0
1529, 0.0
1530, 0.0
1531, 0.0
1532, 0.0
1533, 0.0
1534, 0.0
1535, 0.0
1536, 0.0
1537, 0.0
1538, 0.0
1539, 0.0
1540, 0.0
1541, 0.0
1542, 0.0
1543, 0.0
1544, 0.0
1545, 0.0
1546, 0.0
1547, 0.0
1548, 0.0
1549, 0.0
1550, 0.0
1551, 0.0
1552, 0.0
1553, 0.0
1554, 0.0
1555, 0.0
1556, 0.0
1557, 0.0
1558, 0.0
1559, 0.0
1560, 0.0
1561, 0.0
1562, 0.0
1563, 0.0
1564, 0.0
1565, 0.0
1566, 0.0
1567, 0.0
1568, 0.0
1569, 0.0
1570, 0.0
1571, 0.0
1572, 0.0
1573, 0.0
1574, 0.0
1575, 0.0
1576, 0.0
1577, 0.0
1578, 0.0
1579, 0.0
1580, 0.0
1581, 0.0
1582, 0.0
1583, 0.0
1584, 0.0
1585, 0.0
1586, 0.0
1587, 0.0
1588, 0.0
1589, 0.0
1590, 0.0
1591, 0.0
1592, 0.0
1593, 0.0
1594, 0.0
1595, 0.0
1596, 0.0
1597, 0.0
1598, 0.0
1599, 0.0
