30, 0.0
31, 0.0
32, 0.0
33, 0.0
34, 0.0
35, 0.0
36, 0.0
37, 0.0
38, 0.0
39, 0.0
40, 0.0
41, 0.0
42, 0.0
43, 0.0
44, 0.0
45, 0.0
46, 0.0
47, 0.0
48, 0.0
49, 0.0
50, 0.0
51, 0.0
52, 0.0
53, 0.0
54, 0.0
55, 0.0
56, 0.0
57, 0.0
58, 0.0
59, 0.0
60, 0.0
61, 0.0
62, 0.0
63, 0.0
64, 0.0
65, 0.0
66, 0.0
67, 0.0
68, 0.0
69, 0.0
70, 0.0
71, 0.0
72, 0.0
73, 0.0
74, 0.0
75, 0.0
76, 0.0
77, 0.0
78, 0.0
79, 0.0
80, 0.0
81, 0.0
82, 0.0
83, 0.0
84, 0.0
85, 0.0
86, 0.0
87, 0.0
88, 0.0
89, 0.0
90, 0.0
91, 0.0
92, 0.0
93, 0.0
94, 0.0
95, 0.0
96, 0.0
97, 0.0
98, 0.0
99, 0.0
100, 0.0
101, 0.0
102, 0.0
103, 0.0
104, 0.0
105, 0.0
106, 0.0
107, 0.0
108, 0.0
109, 0.0
110, 0.0
111, 0.0
112, 0.0
113, 0.0
114, 0.0
115, 0.0
116, 0.0
117, 0.0
118, 0.0
119, 0.0
120, 0.0
121, 0.0
122, 0.0
123, 0.0
124, 0.0
125, 0.0
126, 0.0
127, 0.0
128, 0.0
129, 0.0
130, 0.0
131, 0.0
132, 0.0
133, 0.0
134, 0.0
135, 0.0
136, 0.0
137, 0.0
138, 0.0
139, 0.0
140, 0.0
141, 0.0
142, 0.0
143, 0.0
144, 0.0
145, 0.0
146, 0.0
147, 0.0
148, 0.0
149, 0.0
150, 0.0
151, 0.0
152, 0.0
153, 0.0
154, 0.0
155, 0.0
156, 0.0
157, 0.0
158, 0.0
159, 0.0
160, 0.0
161, 0.0
162, 0.0
163, 0.0
164, 0.0
165, 0.0
166, 0.0
167, 0.0
168, 0.0
169, 0.0
170, 0.0
171, 0.0
172, 0.0
173, 0.0
174, 0.0
175, 0.0
176, 0.0
177, 0.0
178, 0.0
179, 0.0
180, 0.0
181, 0.0
182, 0.0
183, 0.0
184, 0.0
185, 0.0
186, 0.0
187, 0.0
188, 0.0
189, 0.0
190, 0.0
191, 0.0
192, 0.0
193, 0.0
194, 0.0
195, 0.0
196, 0.0
197, 0.0
198, 0.0
199, 0.0
200, 0.0
201, 0.0
202, 0.0
203, 0.0
204, 0.0
205, 0.0
206, 0.0
207, 0.0
208, 0.0
209, 0.0
210, 0.0
211, 0.0
212, 0.0
213.0, 5.5965746519778635e-05
214.0, 0.0003951520890639079
215.0, 0.0010964192559781178
216.0, 0.0036080496737653954
217.0, 0.005602907624328334
218.0, 0.006844702195228628
219.0, 0.009730926767564393
220.0, 0.01363850346017227
221.0, 0.012332369508197109
222.0, 0.016114072016242178
223.0, 0.020937418874289807
224.0, 0.019851027386941143
225.0, 0.02216816070907813
226.0, 0.022944291110845002
227.0, 0.02453066977012809
228.0, 0.02354062320693623
229.0, 0.019646192470950157
230.0, 0.01819253091497412
231.0, 0.014472716229850267
232.0, 0.013192444090686364
233.0, 0.011913401766584794
234.0, 0.009654807365517474
235.0, 0.006786952619505516
236.0, 0.006031297781631773
237.0, 0.003565273895268151
238.0, 0.0028353823446979846
239.0, 0.00309374257524841
240.0, 0.003867790650062262
241.0, 0.006530501982006049
242.0, 0.00676607858864483
243.0, 0.006085644511753589
244.0, 0.006489827609820238
245.0, 0.006996926759886374
246.0, 0.005650566875523844
247.0, 0.00600156252849152
248.0, 0.007237537984706772
249.0, 0.0096821643886557
250.0, 0.00984166536609323
251.0, 0.007927592773973072
252.0, 0.011344325072221243
253.0, 0.009861891287186708
254.0, 0.008904396224180745
255.0, 0.00892530760878645
256.0, 0.00901969248170946
257.0, 0.008448674822531123
258.0, 0.011408360316909661
259.0, 0.020862699443432185
260.0, 0.024137863176026415
261.0, 0.019756514482102083
262.0, 0.010327629306473001
263.0, 0.001458840495184565
264.0, 0.0005954159000507904
265.0, 0.001551898857031874
266.0, 0.0021402038206769186
267.0, 0.0020878234240431057
268.0, 0.002360591419827025
269.0, 0.005107265797493569
270.0, 0.0026133717074721162
271.0, 0.0033695321127413537
272.0, 0.004596936503290492
273.0, 0.0037689924886842117
274.0, 0.0004946606686107614
275.0, 0.0005733933625363433
276.0, 0.0021510871883199615
277.0, 0.0015134163158048173
278.0, 0.0015778168965269544
279.0, 0.004222791891287983
280.0, 0.004050916248031799
281.0, 0.007346304011640791
282.0, 0.01066078532025925
283.0, 0.013768270053734813
284.0, 0.016224299600656675
285.0, 0.017792859452193614
286.0, 0.020541973695169295
287.0, 0.023454396444833492
288.0, 0.028203709830346216
289.0, 0.03497057591584084
290.0, 0.04147437784676447
291.0, 0.04321137118121276
292.0, 0.04671685999778237
293.0, 0.05136325079608276
294.0, 0.05483994860936581
295.0, 0.05806158265954863
296.0, 0.06218928889815672
297.0, 0.06566230059810774
298.0, 0.07010374222833754
299.0, 0.07519694153385152
300.0, 0.08029249984324013
301.0, 0.08470952999192441
302.0, 0.08832913190460494
303.0, 0.09397804975228848
304.0, 0.09974270976335005
305.0, 0.10516055720338718
306.0, 0.11112320340418391
307.0, 0.11742685855545032
308.0, 0.1225866802998018
309.0, 0.1302981675486718
310.0, 0.13617697237951057
311.0, 0.14247350665233394
312.0, 0.1516972979367213
313.0, 0.1646788892396313
314.0, 0.1787294168739835
315.0, 0.18299554373429291
316.0, 0.18967417896794195
317.0, 0.20456451681905755
318.0, 0.22080303535720433
319.0, 0.22963677707415592
320.0, 0.24003822423416762
321.0, 0.2541218958230462
322.0, 0.269434907915061
323.0, 0.28414789840669846
324.0, 0.29707644544691725
325.0, 0.3077730039704417
326.0, 0.31625140672833013
327.0, 0.3312271722778421
328.0, 0.3432951091787083
329.0, 0.35177521178534177
330.0, 0.35707936967505016
331.0, 0.35983435226095944
332.0, 0.3705112833755675
333.0, 0.37447801736747066
334.0, 0.37453929549315634
335.0, 0.37404496696087314
336.0, 0.3742683839509603
337.0, 0.3725420971782021
338.0, 0.3660239660465883
339.0, 0.36325002067570333
340.0, 0.35946728982993115
341.0, 0.3549177336163454
342.0, 0.35110188018950383
343.0, 0.34739227225558345
344.0, 0.34454735377826007
345.0, 0.34255510990233345
346.0, 0.34028264817422765
347.0, 0.3374686768967433
348.0, 0.3353922503893407
349.0, 0.33857737579601843
350.0, 0.33703819818321706
351.0, 0.3387244024531192
352.0, 0.34035918409352556
353.0, 0.3407958615751687
354.0, 0.34098190287477914
355.0, 0.3418792530505132
356.0, 0.34301398210615586
357.0, 0.34326880991812814
358.0, 0.34304667772941216
359.0, 0.3424053497099129
360.0, 0.341131017820106
361.0, 0.339856200693799
362.0, 0.3363635652472865
363.0, 0.33301714857184045
364.0, 0.3287804186240449
365.0, 0.32251705150792775
366.0, 0.31471200178120073
367.0, 0.31417726868203427
368.0, 0.30853334651583214
369.0, 0.30519358763353915
370.0, 0.3011662981136493
371.0, 0.2956234491158929
372.0, 0.29156870702764304
373.0, 0.28865445293564834
374.0, 0.2840856170825856
375.0, 0.281545767816752
376.0, 0.2804403161963747
377.0, 0.27913631481772283
378.0, 0.27675597913685385
379.0, 0.28049510701517255
380.0, 0.27892702822150217
381.0, 0.27998330186728837
382.0, 0.2841376746142602
383.0, 0.29102924768275096
384.0, 0.3006970445970666
385.0, 0.30916438809501734
386.0, 0.31514334692938406
387.0, 0.32554942549183324
388.0, 0.3363639457806062
389.0, 0.34443714220555943
390.0, 0.3511862074554687
391.0, 0.36318770886962753
392.0, 0.3736137816785415
393.0, 0.376290527723455
394.0, 0.37890143130485976
395.0, 0.3823486530252278
396.0, 0.37772303051717715
397.0, 0.3653519462810107
398.0, 0.35438046556889474
399.0, 0.3418003298052511
400.0, 0.3270224234178003
401.0, 0.3109501998717533
402.0, 0.29428353601137563
403.0, 0.2689064319646119
404.0, 0.24557758855020517
405.0, 0.222309813243726
406.0, 0.2021650987217954
407.0, 0.1833983791264535
408.0, 0.1613899402697368
409.0, 0.14447301682026792
410.0, 0.12618352721891202
411.0, 0.11373431191316728
412.0, 0.09990802847040543
413.0, 0.0857947485143863
414.0, 0.07728285028443561
415.0, 0.06480723748946687
416.0, 0.056652632083783516
417.0, 0.05264401248530978
418.0, 0.04798309689402781
419.0, 0.042212734192959324
420.0, 0.0377086457413783
421.0, 0.034892878824407475
422.0, 0.03070597691758536
423.0, 0.02822813235220136
424.0, 0.02570034315514511
425.0, 0.022738314778974113
426.0, 0.020183050783814507
427.0, 0.019462567352520586
428.0, 0.01648786766316615
429.0, 0.016283079733438476
430.0, 0.013998988298018699
431.0, 0.01152318665169438
432.0, 0.01132175486426568
433.0, 0.011385751427335888
434.0, 0.011682054865621697
435.0, 0.009723065829282545
436.0, 0.008082563251200348
437.0, 0.007480886289496583
438.0, 0.007535473261534161
439.0, 0.0073313957528732335
440.0, 0.0072817654684811444
441.0, 0.007005612322124155
442.0, 0.004044618148461202
443.0, 0.001529135390522501
444.0, 0.0009196358483517498
445.0, 0.0008662728304972083
446.0, 0.0007646689115098905
447.0, 0.0006222103094477389
448.0, 0.0033535380569381904
449.0, 0.0033758816341059655
450.0, 0.0020944447822165125
451.0, 0.004014723325573763
452.0, 0.0055991755080552754
453.0, 0.003923933517361471
454.0, 0.006768592742799803
455.0, 0.0057063863689703264
456.0, 0.005595806742910931
457.0, 0.010859262539088614
458.0, 0.012513042969353565
459.0, 0.012765402597762923
460.0, 0.0169668051630819
461.0, 0.018957139644921028
462.0, 0.019556831953827496
463.0, 0.02118482447353025
464.0, 0.024521036549891444
465.0, 0.02324496205998366
466.0, 0.027370440941057568
467.0, 0.029304415571160175
468.0, 0.030246871430425197
469.0, 0.030463011042634474
470.0, 0.029839128868056713
471.0, 0.03333539245844076
472.0, 0.03188395042105258
473.0, 0.03309497186469506
474.0, 0.0344357686625934
475.0, 0.03584729246304949
476.0, 0.03655182078753136
477.0, 0.03235130331119719
478.0, 0.032976893580348006
479.0, 0.03349647501145041
480.0, 0.03608919406243634
481.0, 0.03527487099124028
482.0, 0.033118335102773976
483.0, 0.03845009967968758
484.0, 0.03773655023352807
485.0, 0.03295241211976802
486.0, 0.032849778532227314
487.0, 0.03373448025255442
488.0, 0.03450373935627983
489.0, 0.03603371575714733
490.0, 0.037337281896219654
491.0, 0.038585826425037946
492.0, 0.03875462727099665
493.0, 0.03714370450882545
494.0, 0.036962759552563486
495.0, 0.03853043365900617
496.0, 0.03763450824464775
497.0, 0.03932462274706952
498.0, 0.03929878372921717
499.0, 0.04011562380125457
500.0, 0.03980429445233322
501.0, 0.04028603461933729
502.0, 0.04408114863526463
503.0, 0.04601094838150056
504.0, 0.04298463611172334
505.0, 0.045620103649283435
506.0, 0.04584404336248594
507.0, 0.046799479290285065
508.0, 0.05061297283545375
509.0, 0.052593241063258855
510.0, 0.0541495236496091
511.0, 0.05764645974273656
512.0, 0.059312802995488946
513.0, 0.06039053261712926
514.0, 0.06338636045186166
515.0, 0.06864353672549084
516.0, 0.07039493323433363
517.0, 0.06845045716175277
518.0, 0.07033863923023395
519.0, 0.0741840089553516
520.0, 0.07751677605454135
521.0, 0.07999980993118197
522.0, 0.08310996729563085
523.0, 0.08240751638518701
524.0, 0.08614572109535142
525.0, 0.09081277995991366
526.0, 0.09334698045111171
527.0, 0.09647573522451637
528.0, 0.10148265389724677
529.0, 0.10056648731337332
530.0, 0.10090190804376022
531.0, 0.10538528213468697
532.0, 0.10714590619421635
533.0, 0.10923069853772792
534.0, 0.11270779957261794
535.0, 0.11477740087464995
536.0, 0.11397069615551385
537.0, 0.11334455022980716
538.0, 0.11406556738746065
539.0, 0.11590144853257148
540.0, 0.1166031890716238
541.0, 0.11639942357722374
542.0, 0.11837721507628084
543.0, 0.11343776956864801
544.0, 0.1134213924772729
545.0, 0.11097850191017156
546.0, 0.11174644903199733
547.0, 0.11331469117621208
548.0, 0.11199628183670314
549.0, 0.11352645868971799
550.0, 0.11197544618523174
551.0, 0.10932174867953491
552.0, 0.11178547560714439
553.0, 0.11292129023468692
554.0, 0.11051504755111184
555.0, 0.10911847938105586
556.0, 0.11396297222211381
557.0, 0.11333934365624113
558.0, 0.10955908199446036
559.0, 0.10976521483298507
560.0, 0.10941825916903272
561.0, 0.10548808390590628
562.0, 0.10100049685456086
563.0, 0.09584445895910615
564.0, 0.09376799445723896
565.0, 0.08874333095447656
566.0, 0.08563040582369517
567.0, 0.08406194746578552
568.0, 0.08049297952816219
569.0, 0.07307745572832165
570.0, 0.07412794648203902
571.0, 0.06854766091966905
572.0, 0.06612504198637675
573.0, 0.06364829272532832
574.0, 0.0604818037912732
575.0, 0.056879673391257324
576.0, 0.051403775072834994
577.0, 0.05370244034102215
578.0, 0.05014714639422205
579.0, 0.04851797608411466
580.0, 0.04537498960089068
581.0, 0.041644639958019807
582.0, 0.03922408002377625
583.0, 0.03364473228946254
584.0, 0.03214548162768859
585.0, 0.028833947728256995
586.0, 0.02574450321013138
587.0, 0.022669685618351747
588.0, 0.01966723657265488
589.0, 0.016563610066416146
590.0, 0.011472945919470894
591.0, 0.006883940808863045
592.0, 0.0051275746103166655
593.0, 0.003107618254954327
594.0, 0.003232816521003757
595.0, 0.0037646441500148098
596.0, 0.0015761296859146112
597.0, 0.0018689298786753942
598.0, 0.00568550566716022
599.0, 0.007166151947300672
600.0, 0.007161038207713718
601.0, 0.007521137814465305
602.0, 0.0077717437296855735
603.0, 0.0066335762409424895
604.0, 0.006733035963552678
605.0, 0.006021233734930167
606.0, 0.00443590629219952
607.0, 0.0035883442461981246
608.0, 0.0019708692357837936
609.0, 0.0009803925431829332
610.0, 0.0030607899740268114
611.0, 0.004788640048685108
612.0, 0.006493059277567596
613.0, 0.006810805686221168
614.0, 0.00855925017464328
615.0, 0.010773085975174112
616.0, 0.012898375580380548
617.0, 0.01530401029070488
618.0, 0.017638251628693404
619.0, 0.0198224789274128
620.0, 0.022354361540941187
621.0, 0.02387727060878217
622.0, 0.025678282092864196
623.0, 0.02737093377668538
624.0, 0.028613807603918018
625.0, 0.032857051615584915
626.0, 0.03848799226377368
627.0, 0.043962568514966036
628.0, 0.046540406575077076
629.0, 0.05066936004344925
630.0, 0.055717916567235584
631.0, 0.05921316999159184
632.0, 0.06388669324953818
633.0, 0.06984224064252666
634.0, 0.07438089582627222
635.0, 0.08128179573502585
636.0, 0.0894888725055184
637.0, 0.09602341651107915
638.0, 0.101016310849872
639.0, 0.10965564830809142
640.0, 0.11955007846893845
641.0, 0.12778981841023862
642.0, 0.13618841125971792
643.0, 0.14665706790458197
644.0, 0.15841973720135336
645.0, 0.17053761849706886
646.0, 0.1841577422574951
647.0, 0.2026687701405767
648.0, 0.22099100781520659
649.0, 0.24184698558912274
650.0, 0.26638414916931175
651.0, 0.2922812938396627
652.0, 0.319759022127942
653.0, 0.35257931451477764
654.0, 0.39255567512376394
655.0, 0.43265732479937996
656.0, 0.47815744095616364
657.0, 0.5249416229415165
658.0, 0.5764748662465852
659.0, 0.632778011414501
660.0, 0.690297855185691
661.0, 0.7480379974988122
662.0, 0.8104398734580572
663.0, 0.8625078317173147
664.0, 0.9164194596419167
665.0, 0.9560633770615946
666.0, 0.9817750609605627
667.0, 0.9982027182328478
668.0, 0.9977075216308924
669.0, 0.9770545633506419
670.0, 0.9453848550992007
671.0, 0.8996949000285261
672.0, 0.8477378347685623
673.0, 0.7892653183027442
674.0, 0.7290090707355121
675.0, 0.6726720877467701
676.0, 0.6006103770480329
677.0, 0.5513920579818163
678.0, 0.502220995521448
679.0, 0.4526960410608832
680.0, 0.4091992075253078
681.0, 0.3706094677961437
682.0, 0.33373004361646064
683.0, 0.30361146451982424
684.0, 0.27363051622803203
685.0, 0.2515951835886573
686.0, 0.22961673223977633
687.0, 0.20784786474381128
688.0, 0.190177230931219
689.0, 0.1757494957775575
690.0, 0.15968724007793467
691.0, 0.15042333675994185
692.0, 0.13752697302699513
693.0, 0.12674717932305393
694.0, 0.11817144255221607
695.0, 0.1113404370173561
696.0, 0.10441238750451343
697.0, 0.09646510411329977
698.0, 0.08994098403740947
699.0, 0.08364313148071291
700.0, 0.07956258135774295
701.0, 0.07827642710110017
702.0, 0.0728456422795954
703.0, 0.06657816061309446
704.0, 0.06375603792213583
705.0, 0.06221138697803509
706.0, 0.056423926334258086
707.0, 0.05378390389226044
708.0, 0.051863291186771285
709.0, 0.0498546360279989
710.0, 0.047526478713654625
711.0, 0.04580060241747923
712.0, 0.043681931707213024
713.0, 0.03743534029338535
714.0, 0.034570974551439676
715.0, 0.03244830027664742
716.0, 0.030025091870604075
717.0, 0.02806417012432172
718.0, 0.025693551950717788
719.0, 0.023003573512326982
720.0, 0.02089630445106915
721.0, 0.018361962132217288
722.0, 0.015877062981170646
723.0, 0.014485215350542889
724.0, 0.011565174821353762
725.0, 0.009467169784140632
726.0, 0.007824572319683127
727.0, 0.005583008813371327
728.0, 0.0037397547596185717
729.0, 0.004908942327148336
730.0, 0.0012269457033627577
731.0, 0.0003179788359591011
732.0, 0.001484245386482539
733.0, 0.003160761806802014
734.0, 0.0044992402787932175
735.0, 0.005046521356858556
736.0, 0.004752683590506629
737.0, 0.007716501056710123
738.0, 0.010994622258917392
739.0, 0.009847828302713028
740.0, 0.01041832585854394
741.0, 0.010435257285136742
742.0, 0.009302648678116318
743.0, 0.009620333652485184
744.0, 0.012121876912786283
745.0, 0.011924440181469875
746.0, 0.01076452380378895
747.0, 0.010704624999293354
748.0, 0.011593146557300404
749.0, 0.012511739896066621
750.0, 0.011752250626536134
751.0, 0.009362788658114794
752.0, 0.009428525515467405
753.0, 0.005339810361354348
754.0, 0.0063736254586750085
755.0, 0.005631055052373255
756.0, 0.004124751607242839
757.0, 0.0027814021165761473
758.0, 0.003368773397727377
759.0, 0.005376764818802879
760.0, 0.0014305133444355344
761.0, 0.007041179978398359
762.0, 0.006444795402297273
763.0, 0.007430694469644631
764.0, 0.007381656093896059
765.0, 0.009287749813027844
766.0, 0.012325362332592902
767.0, 0.011985441593606325
768.0, 0.013156153792715395
769.0, 0.01100825714288698
770.0, 0.0128778481720098
771.0, 0.016165186500525824
772.0, 0.017371197034325596
773.0, 0.01703131932973367
774.0, 0.01701559143278815
775.0, 0.017940332702594926
776.0, 0.019021721610419352
777.0, 0.018927397423514698
778.0, 0.017262240442409912
779.0, 0.018904721028798165
780.0, 0.01901320203446361
781.0, 0.018627901869595422
782.0, 0.0196878796060949
783.0, 0.02061543521609948
784.0, 0.018290812516698937
785.0, 0.02102731711456702
786.0, 0.02008932119574839
787.0, 0.021708171440599007
788.0, 0.021262605751373478
789.0, 0.02155966629938509
790.0, 0.02274477488487081
791.0, 0.021683887380776878
792.0, 0.020444685479152604
793.0, 0.01950438781183543
794.0, 0.019223570686471736
795.0, 0.02099618027131759
796.0, 0.021822588150150802
797.0, 0.023053424592267575
798.0, 0.023942460789715524
799.0, 0.022700990135559825
800.0, 0.021593213424848927
801.0, 0.02470593287210138
802.0, 0.0255686233084926
803.0, 0.023936487004501534
804.0, 0.024351828913156747
805.0, 0.024995253515658303
806.0, 0.025895850615420574
807.0, 0.02722009895977133
808.0, 0.026943947931636774
809.0, 0.028289148698834646
810.0, 0.02973013201829798
811.0, 0.030662649471259084
812.0, 0.03126788961481454
813.0, 0.03200665408920805
814.0, 0.03231145633867328
815.0, 0.03280085805657556
816.0, 0.03433055910559618
817.0, 0.03334615814226152
818.0, 0.03483342171748645
819.0, 0.03508940568809928
820.0, 0.036007217778841305
821.0, 0.03649936464464954
822.0, 0.03600682674624792
823.0, 0.03470851292115323
824.0, 0.03374775206794192
825.0, 0.03424564026078093
826.0, 0.030364426573217987
827.0, 0.030037355305923198
828.0, 0.030870731510568454
829.0, 0.032057070026068425
830.0, 0.030001118919291136
831.0, 0.026826092092910075
832.0, 0.02604738878023522
833.0, 0.026496003153185416
834.0, 0.025410340744282667
835.0, 0.02488833639214099
836.0, 0.02530829015882499
837.0, 0.024442053365646685
838.0, 0.02233671383768014
839.0, 0.021347987904719073
840.0, 0.02140988965727808
841.0, 0.020278564581555966
842.0, 0.018441604222907915
843.0, 0.01984677217408377
844.0, 0.01959114705346555
845.0, 0.0208591309561109
846.0, 0.020182106501914564
847.0, 0.019650264082352268
848.0, 0.021170873919391597
849.0, 0.022700620435918143
850.0, 0.02241685603843382
851.0, 0.029059969765184167
852.0, 0.030091916880657155
853.0, 0.034304503597317286
854.0, 0.03697250143616233
855.0, 0.041070695844467583
856.0, 0.0427591080067306
857.0, 0.04469766035734795
858.0, 0.05032853367898579
859.0, 0.0524712359566305
860.0, 0.05579485887430312
861.0, 0.059796415532399325
862.0, 0.06589322498832977
863.0, 0.0681799474175034
864.0, 0.0723662381836335
865.0, 0.07514819998661673
866.0, 0.07511773994459715
867.0, 0.07658592572728286
868.0, 0.07811823686103932
869.0, 0.0795531152666923
870.0, 0.07577883029638965
871.0, 0.0767603611138217
872.0, 0.08003722827584066
873.0, 0.07919921485451185
874.0, 0.07764701935292563
875.0, 0.07970481075159308
876.0, 0.08114801644222054
877.0, 0.07615475395877935
878.0, 0.07546130034124084
879.0, 0.07684963358149739
880.0, 0.07210804973228208
881.0, 0.06945010073287718
882.0, 0.06738108360429236
883.0, 0.06742266348109528
884.0, 0.06830108895428805
885.0, 0.06356129657158616
886.0, 0.06205040345456438
887.0, 0.06581048894300387
888.0, 0.06359262473901625
889.0, 0.06255732833743495
890.0, 0.06302123386938344
891.0, 0.06091749263526502
892.0, 0.05908533080918193
893.0, 0.060296284103996664
894.0, 0.05936495154049772
895.0, 0.0560062903946076
896.0, 0.05854178041960858
897.0, 0.056744526512542866
898.0, 0.058982119517322046
899.0, 0.057216562966769524
900.0, 0.056376423285794765
901.0, 0.05847938560028206
902.0, 0.05886717333986299
903.0, 0.055874297566471845
904.0, 0.05831046887935261
905.0, 0.05807511586380708
906.0, 0.056389364642679025
907.0, 0.05597145056238327
908.0, 0.05676752863357247
909.0, 0.05730797422740446
910.0, 0.05808013027685368
911.0, 0.05924796275925019
912.0, 0.059573770318965096
913.0, 0.06131467745467038
914.0, 0.05834096611976459
915.0, 0.05973297919839991
916.0, 0.05740526367992679
917.0, 0.060741754032808244
918.0, 0.06195691632667922
919.0, 0.06255531983073936
920.0, 0.06439573200099023
921.0, 0.06301057204850437
922.0, 0.06609985583924605
923.0, 0.0663118859226822
924.0, 0.06599682461271467
925.0, 0.06693328826194479
926.0, 0.06769911084034853
927.0, 0.06818908173181441
928.0, 0.06882999473622098
929.0, 0.06963118713436554
930.0, 0.07031947824169787
931.0, 0.0710395768433848
932.0, 0.0711543286891643
933.0, 0.0721128444666198
934.0, 0.07139408516903437
935.0, 0.07125208189168247
936.0, 0.07218070482354415
937.0, 0.07411181505279557
938.0, 0.07478119948958835
939.0, 0.07289581375527114
940.0, 0.07216562383105017
941.0, 0.07680993583110919
942.0, 0.0780959660722957
943.0, 0.07893073474118054
944.0, 0.07863573460175587
945.0, 0.08198803815150468
946.0, 0.08304429143805599
947.0, 0.08399267182391056
948.0, 0.08761451298761072
949.0, 0.08973180380492392
950.0, 0.09188258857348172
951.0, 0.09430128064907634
952.0, 0.09916302350834375
953.0, 0.10021647825381565
954.0, 0.10284732798590095
955.0, 0.10822986903721701
956.0, 0.11212416933633781
957.0, 0.11412488814519339
958.0, 0.11738306795471623
959.0, 0.12144435526116781
960.0, 0.1252583722508418
961.0, 0.1260638640961316
962.0, 0.1323609464460248
963.0, 0.13524619146088215
964.0, 0.14128083292509103
965.0, 0.14558355508084742
966.0, 0.1495548637339493
967.0, 0.15401102879812295
968.0, 0.15642213985099734
969.0, 0.16288028607673402
970.0, 0.16569472114220588
971.0, 0.17450951940972176
972.0, 0.17993796345469537
973.0, 0.18512872490348722
974.0, 0.1937489985260048
975.0, 0.2010234894356305
976.0, 0.2081406796454291
977.0, 0.21662066961253218
978.0, 0.22295178766594967
979.0, 0.23460927084641586
980.0, 0.24559983130069668
981.0, 0.25337804821853105
982.0, 0.26649810307830496
983.0, 0.28029955331718465
984.0, 0.29098474116201
985.0, 0.3028868158869709
986.0, 0.3191815756577061
987.0, 0.3363655898262063
988.0, 0.3508251661540821
989.0, 0.3697993019645295
990.0, 0.3944353922858166
991.0, 0.41432140000466194
992.0, 0.4373212777306479
993.0, 0.4649422570825613
994.0, 0.4939937052266953
995.0, 0.5213114018055115
996.0, 0.5519244841320876
997.0, 0.5863526393967652
998.0, 0.6146886514747917
999.0, 0.6528067574931595
1000.0, 0.6832276882361997
1001.0, 0.7160978884638294
1002.0, 0.7424569921878318
1003.0, 0.7723007870675547
1004.0, 0.7942437682030724
1005.0, 0.8104953827333997
1006.0, 0.8236897049496806
1007.0, 0.8270437437455455
1008.0, 0.8177485088968341
1009.0, 0.8088932345183723
1010.0, 0.7992581179817635
1011.0, 0.7782390295353369
1012.0, 0.7398969296695294
1013.0, 0.7026534298643894
1014.0, 0.6614847850606898
1015.0, 0.6183311222493123
1016.0, 0.5753234397517755
1017.0, 0.5317924664467957
1018.0, 0.4904556566263074
1019.0, 0.45373207108528013
1020.0, 0.42032289517428245
1021.0, 0.38761766063605235
1022.0, 0.35307844751201367
1023.0, 0.32740277901474324
1024.0, 0.3049950516335099
1025.0, 0.2799955826373938
1026.0, 0.2595094587451829
1027.0, 0.24541497344935068
1028.0, 0.2292137742265666
1029.0, 0.21900315215777816
1030.0, 0.20548276190898204
1031.0, 0.19782859681912765
1032.0, 0.1864558140681828
1033.0, 0.1795878830615855
1034.0, 0.173303117675477
1035.0, 0.16849947810148533
1036.0, 0.16345036383179434
1037.0, 0.15642484975622936
1038.0, 0.1498241174960359
1039.0, 0.14595075431235918
1040.0, 0.140466695644094
1041.0, 0.1350029172786147
1042.0, 0.13209211886906108
1043.0, 0.1276164471400487
1044.0, 0.1222653330854149
1045.0, 0.11974078708954988
1046.0, 0.11665836483071361
1047.0, 0.11116165062935937
1048.0, 0.10467317529304426
1049.0, 0.09857745994624517
1050.0, 0.0963964332332927
1051.0, 0.09153728958129588
1052.0, 0.08951807825406177
1053.0, 0.0870586128729215
1054.0, 0.08320524221123854
1055.0, 0.07985888194104916
1056.0, 0.07691245788553883
1057.0, 0.0744721518749375
1058.0, 0.0715691170769282
1059.0, 0.06767904258639132
1060.0, 0.06511006826720533
1061.0, 0.06264925440655288
1062.0, 0.05838130191467013
1063.0, 0.0611429976958776
1064.0, 0.055725678116473186
1065.0, 0.055055676308199616
1066.0, 0.05233139423627052
1067.0, 0.04917817531838212
1068.0, 0.048811571462031994
1069.0, 0.047842116781009345
1070.0, 0.04453277869795512
1071.0, 0.04650931191404566
1072.0, 0.04547563546042102
1073.0, 0.04673166160363529
1074.0, 0.04313601527382655
1075.0, 0.04435070736246904
1076.0, 0.04174270049749371
1077.0, 0.04109524430158833
1078.0, 0.040818041238470375
1079.0, 0.04187870894693969
1080.0, 0.043797193429514
1081.0, 0.04265502980761715
1082.0, 0.0434351414727636
1083.0, 0.039762634980346
1084.0, 0.04446279900876392
1085.0, 0.04407668463244412
1086.0, 0.04341639616423446
1087.0, 0.04193831154717189
1088.0, 0.03971139941323291
1089.0, 0.03808816311151037
1090.0, 0.03883417753795406
1091.0, 0.03974690261960741
1092.0, 0.03821695286425935
1093.0, 0.03918564930096655
1094.0, 0.0396373893893703
1095.0, 0.038201738751200476
1096.0, 0.03787109843196695
1097.0, 0.038064073909628265
1098.0, 0.03527318820774243
1099.0, 0.03661168905246451
1100.0, 0.037329417256849906
1101.0, 0.036096559950256825
1102.0, 0.03649295054982242
1103.0, 0.03813241000381919
1104.0, 0.038252043858374385
1105.0, 0.03939053603107454
1106.0, 0.039470771150387024
1107.0, 0.0391286982357359
1108.0, 0.038786921081052
1109.0, 0.037871688905019185
1110.0, 0.03774307317226124
1111.0, 0.03699222769944408
1112.0, 0.037601107381831055
1113.0, 0.03783135339728101
1114.0, 0.035545105628930915
1115.0, 0.03591328569239605
1116.0, 0.036982968107126896
1117.0, 0.034815792282213966
1118.0, 0.03739321079905813
1119.0, 0.032436633626754204
1120.0, 0.031906652931968066
1121.0, 0.031901579884330705
1122.0, 0.03122037169882546
1123.0, 0.030264566864928646
1124.0, 0.028477218974276842
1125.0, 0.026550350306426614
1126.0, 0.025657660343151655
1127.0, 0.023332326824128686
1128.0, 0.02166463377988327
1129.0, 0.020657007875827506
1130.0, 0.01847014780753187
1131.0, 0.01446772266631112
1132.0, 0.01451859089721139
1133.0, 0.012082260722859863
1134.0, 0.010458961513323239
1135.0, 0.009444169591228081
1136.0, 0.007369342372133392
1137.0, 0.0061538431176200396
1138.0, 0.006331440042047076
1139.0, 0.004439539666060815
1140.0, 0.006433993256710924
1141.0, 0.0019728947991533444
1142.0, 0.0011508726563859754
1143.0, 0.0004744605801034595
1144.0, 0.000133716648466401
1145.0, 0.0010838536073674541
1146.0, 0.0034432596610674245
1147.0, 0.004453324359249372
1148.0, 0.004067407227845754
1149.0, 0.004083612022585031
1150.0, 0.003787369127679927
1151.0, 0.0059502206768074755
1152.0, 0.005420244873454926
1153.0, 0.004157595991458051
1154.0, 0.00536335670451132
1155.0, 0.004957830351766838
1156.0, 0.0057679091853362514
1157.0, 0.005546092546602725
1158.0, 0.0054236423157233305
1159.0, 0.0059352683879727855
1160.0, 0.005913790679429313
1161.0, 0.0057476803921531466
1162.0, 0.006492269401931064
1163.0, 0.005135304897567661
1164.0, 0.004832352299005265
1165.0, 0.006478963346908123
1166.0, 0.00536276308480551
1167.0, 0.003873507730630236
1168.0, 0.005572942728939678
1169.0, 0.004551058909900618
1170.0, 0.004025724477069469
1171.0, 0.003929235477942564
1172.0, 0.0034824146181692524
1173.0, 0.0033207478190401514
1174.0, 0.0025689549093582432
1175.0, 0.0031432584247738315
1176.0, 0.0010198016529045853
1177.0, 0.003288412656132959
1178.0, 0.001703485583575956
1179.0, 0.002059546731444885
1180.0, 0.0019659005487945905
1181.0, 0.001981225256662337
1182.0, 0.0018552097796441967
1183.0, 0.0021198792485083227
1184.0, 0.002546683503022357
1185.0, 0.001964789307945516
1186.0, 0.0011227391077517268
1187.0, 0.0021308831348654323
1188.0, 0.0015923127924743295
1189.0, 0.0010345521793477372
1190.0, 0.0013451634768355987
1191.0, 0.0025257830275940097
1192.0, 0.0011447399532919054
1193.0, 0.00037025468456145834
1194.0, 0.0006314182142145177
1195.0, 0.001593032087476153
1196.0, 0.002334288794108288
1197.0, 0.003107286966965881
1198.0, 0.003598644963358374
1199.0, 0.0028053040440094382
1200.0, 0.0039112348511084315
1201.0, 0.005097523673290472
1202.0, 0.0033789728938482147
1203.0, 0.0041360582001435464
1204.0, 0.004439548539128497
1205.0, 0.004360279515032426
1206.0, 0.005019438122708346
1207.0, 0.0052249146586093136
1208.0, 0.004407177331494867
1209.0, 0.004570721186886482
1210.0, 0.005715267394633711
1211.0, 0.006068522617478743
1212.0, 0.006739422613221982
1213.0, 0.007937816624599463
1214.0, 0.00643145003847643
1215.0, 0.007327616773548619
1216.0, 0.007518420347697046
1217.0, 0.00795679938021846
1218.0, 0.00953806621492417
1219.0, 0.007462760119749265
1220.0, 0.0073791753940299935
1221.0, 0.007557184039555634
1222.0, 0.008222688826750894
1223.0, 0.010296712604131312
1224.0, 0.011076949790886083
1225.0, 0.010434314785287068
1226.0, 0.011206195655481463
1227.0, 0.00980524187854774
1228.0, 0.01004532018505745
1229.0, 0.012854274973253574
1230.0, 0.01058595098444292
1231.0, 0.008705449472092367
1232.0, 0.012225089672671214
1233.0, 0.012655409174604584
1234.0, 0.01289294218743758
1235.0, 0.012868855520497388
1236.0, 0.012270269467060137
1237.0, 0.012760210060700277
1238.0, 0.012385689813812552
1239.0, 0.011003430424725555
1240.0, 0.012026341293319257
1241.0, 0.013541715608204836
1242.0, 0.013878441522206667
1243.0, 0.014401982452307267
1244.0, 0.017115787358699362
1245.0, 0.015428247713102368
1246.0, 0.01436584231506571
1247.0, 0.014028545444043814
1248.0, 0.01743622501766596
1249.0, 0.017877750460658533
1250.0, 0.015759889043917303
1251.0, 0.01770186422494068
1252.0, 0.016691611465934047
1253.0, 0.016493022913465664
1254.0, 0.014511593130010296
1255.0, 0.01702522212427468
1256.0, 0.016897454949154338
1257.0, 0.015930919312022392
1258.0, 0.017548481555412634
1259.0, 0.018013967641263708
1260.0, 0.016607019431086206
1261.0, 0.01741873335067065
1262.0, 0.018267617260013413
1263.0, 0.017838530111358372
1264.0, 0.018808170931455537
1265.0, 0.021249085771099113
1266.0, 0.022169255313799284
1267.0, 0.02129166339904555
1268.0, 0.018823880291239534
1269.0, 0.018128974409897476
1270.0, 0.019740167609845864
1271.0, 0.019580621509961104
1272.0, 0.02019705146489918
1273.0, 0.019718098694754035
1274.0, 0.01809583300646254
1275.0, 0.018462571872268227
1276.0, 0.02096118793784498
1277.0, 0.019838617054048043
1278.0, 0.017455096890281158
1279.0, 0.019953521259627936
1280.0, 0.021110318456313545
1281.0, 0.01977588611606626
1282.0, 0.02063136125463604
1283.0, 0.016979575809799932
1284.0, 0.020364812405565827
1285.0, 0.020080430512822454
1286.0, 0.018061184083032096
1287.0, 0.01915340562714365
1288.0, 0.01962327632435718
1289.0, 0.018017057433487586
1290.0, 0.017953348081766178
1291.0, 0.018877667360693396
1292.0, 0.019526856222418704
1293.0, 0.01990396219727602
1294.0, 0.019454488734650912
1295.0, 0.01968955481579304
1296.0, 0.017592754137469985
1297.0, 0.01755521037641898
1298.0, 0.01723312194264414
1299.0, 0.01933649485935285
1300.0, 0.018888008480985187
1301.0, 0.01719853101377249
1302.0, 0.018394898462298293
1303.0, 0.018560986818437132
1304.0, 0.018135202297472883
1305.0, 0.01755828582471928
1306.0, 0.016691448735055917
1307.0, 0.015347020052247548
1308.0, 0.015271845882215123
1309.0, 0.01815872537986108
1310.0, 0.01944751039279709
1311.0, 0.019012832336569932
1312.0, 0.01921794988656815
1313.0, 0.016324772248807927
1314.0, 0.015479356302743927
1315.0, 0.016197232771803318
1316.0, 0.012449713247950186
1317.0, 0.013303088472873412
1318.0, 0.014463818891924983
1319.0, 0.014730795658469836
1320.0, 0.015682223446526984
1321.0, 0.0157688503640433
1322.0, 0.014544642192664495
1323.0, 0.013764278384723891
1324.0, 0.013258509905921903
1325.0, 0.012791752074624747
1326.0, 0.012267795531234532
1327.0, 0.013824695707598075
1328.0, 0.013292624582132852
1329.0, 0.014008444478446699
1330.0, 0.016500172808680543
1331.0, 0.013317193128686018
1332.0, 0.012717479233931019
1333.0, 0.015015659908709992
1334.0, 0.012726192392002905
1335.0, 0.013384412566744514
1336.0, 0.015235773694863746
1337.0, 0.01528396124655587
1338.0, 0.0151079752500898
1339.0, 0.014408176663385577
1340.0, 0.014421636847174147
1341.0, 0.013903113214093309
1342.0, 0.014980388726436072
1343.0, 0.01492905788132978
1344.0, 0.015103828157368982
1345.0, 0.015144145590265147
1346.0, 0.014765559461950276
1347.0, 0.014398955691334358
1348.0, 0.014269694727083093
1349.0, 0.013647146145715649
1350.0, 0.013919185117364489
1351.0, 0.01393290555337198
1352.0, 0.01353484937994903
1353.0, 0.013015767970979964
1354.0, 0.012704403595822044
1355.0, 0.013080442210243017
1356.0, 0.013366346286101793
1357.0, 0.014035400622461816
1358.0, 0.013921901037278164
1359.0, 0.010554623976321875
1360.0, 0.010895960572184579
1361.0, 0.01254962769632705
1362.0, 0.011315001059997717
1363.0, 0.013436600651403055
1364.0, 0.011216012867804527
1365.0, 0.011095727443841364
1366.0, 0.010907122725982911
1367.0, 0.010717735291552713
1368.0, 0.010661192873085716
1369.0, 0.0095857559803969
1370.0, 0.009098500193506916
1371.0, 0.009404130903171595
1372.0, 0.0084300200504099
1373.0, 0.009870252519204654
1374.0, 0.011088779605736376
1375.0, 0.010734815305311174
1376.0, 0.009704058904183618
1377.0, 0.010434991725356538
1378.0, 0.010560247338334439
1379.0, 0.009780891886592877
1380.0, 0.011013487840750664
1381.0, 0.009120342710320768
1382.0, 0.0075045409069330014
1383.0, 0.006868576508782606
1384.0, 0.007394987742477436
1385.0, 0.007704345043225868
1386.0, 0.008031227428361043
1387.0, 0.007795138116352206
1388.0, 0.007000571998948894
1389.0, 0.00804131363048996
1390.0, 0.007002900773790794
1391.0, 0.0056259589164237124
1392.0, 0.006043166870170515
1393.0, 0.008557576355751351
1394.0, 0.00756424027041905
1395.0, 0.007989340680788866
1396.0, 0.007426947977537915
1397.0, 0.005491173483088827
1398.0, 0.008029734028593975
1399.0, 0.009409972854425535
1400.0, 0.008320863643187897
1401.0, 0.007890815406877262
1402.0, 0.0077158839682504015
1403.0, 0.007540030351948834
1404.0, 0.007129433020101246
1405.0, 0.006162011974451153
1406.0, 0.006351765390543873
1407.0, 0.007765787752793923
1408.0, 0.00878383336838191
1409.0, 0.006078302537324939
1410.0, 0.0038704885505443836
1411.0, 0.006813600227261086
1412.0, 0.007699080425735207
1413.0, 0.008625111695237329
1414.0, 0.005113789355307798
1415.0, 0.006010264111793943
1416.0, 0.005742833458688757
1417.0, 0.002975808137597972
1418.0, 0.004023917059614144
1419.0, 0.006726679259244058
1420.0, 0.005935672448191122
1421.0, 0.005087455431690726
1422.0, 0.006164866587174232
1423.0, 0.005098829731182613
1424.0, 0.003296722455672292
1425.0, 0.004252252358843916
1426.0, 0.004157192850880575
1427.0, 0.0042764434561249984
1428.0, 0.0041992689606405575
1429.0, 0.004149012000784843
1430.0, 0.004822085871184962
1431.0, 0.005308303972329285
1432.0, 0.006505718468200296
1433.0, 0.007060487545180987
1434.0, 0.008446893070405059
1435.0, 0.009604013773634054
1436.0, 0.009367778399527946
1437.0, 0.00938702627069335
1438.0, 0.007269982804246964
1439.0, 0.006534970933666231
1440.0, 0.007486929258041615
1441.0, 0.008276775410722687
1442.0, 0.009421724467181113
1443.0, 0.008754051802678041
1444.0, 0.00898610367722307
1445.0, 0.008466375263550312
1446.0, 0.007150029835916705
1447.0, 0.00812456808967935
1448.0, 0.009130588525008382
1449.0, 0.004571258736304033
1450.0, 0.007794596886516609
1451.0, 0.008674508214212472
1452.0, 0.007009466482191938
1453.0, 0.007139812802250945
1454.0, 0.005314233551914067
1455.0, 0.005677016617387066
1456.0, 0.005951962402009979
1457.0, 0.005987922818217997
1458.0, 0.005854866622871489
1459.0, 0.005811855244060049
1460.0, 0.006136252101303115
1461.0, 0.006289759636469465
1462.0, 0.0064779734679528645
1463.0, 0.006341705726624585
1464.0, 0.005555019570066274
1465.0, 0.005359141882911052
1466.0, 0.005005355970532038
1467.0, 0.005700997214332398
1468.0, 0.001932310771927878
1469.0, 0.004125377879109944
1470.0, 0.002080015043096974
1471.0, 0.002889758558554862
1472.0, 0.005432877115338736
1473.0, 0.0032093236148959922
1474.0, 0.005162269914846432
1475.0, 0.0020981621616407674
1476.0, 0.0018571496277992147
1477.0, 0.0020098840845717844
1478.0, 0.0008408157051905527
1479.0, 0.0006932415041067682
1480.0, 0.0010862157426224776
1481.0, 0.0014125321272681272
1482.0, 0.001213652169626439
1483.0, 0.0003812679903239868
1484.0, 0.0012203279847259976
1485.0, 0.0022078927147955157
1486.0, 0.0015272221127504344
1487.0, 0.0001649572235754835
1488.0, 0.0018775258022925068
1489.0, 0.002362223350225544
1490.0, 0.004974039181291159
1491.0, 0.0007361045580445234
1492.0, 0.00013497561837900828
1493.0, 0.0001743637423673993
1494.0, 0.0005966483295726033
1495.0, 0.002682106443185118
1496.0, 0.002719410131788788
1497.0, 0.002169221395790279
1498.0, 0.0031668682935774607
1499.0, 0.0021225515601436254
1500.0, 0.00131631466647077
1501.0, 0.001971948655347528
1502.0, 0.0012912450924901645
1503.0, 0.0008565470468407842
1504.0, 0.001257571896308805
1505.0, 0.0023149686816445825
1506.0, 0.0015754888638298877
1507.0, 0.00012098863830093114
1508.0, 0.00012034972463602654
1509.0, 0.000980733620669611
1510.0, 0.0009435379395667474
1511.0, 0.002172344197747788
1512.0, 0.0007245651489622706
1513.0, 0.0033140299709873994
1514.0, 0.0025921386400982495
1515.0, 0.0012425726122488353
1516.0, 0.00031233657162343383
1517.0, 0.0007571780945830405
1518.0, 0.0005755849377412417
1519.0, 0.00044119655851335425
1520.0, 0.0012559154827754126
1521.0, 0.0015475092378463135
1522.0, 0.0014285970101706505
1523.0, 0.001556134116524888
1524.0, 0.0011562067868168986
1525.0, 0.0008146943429654739
1526.0, 0.0012305375449412563
1527.0, 0.0012214156337621682
1528.0, 0.001714967110246371
1529.0, 0.002157056740793398
1530.0, 0.0019016160795897947
1531.0, 0.00154958950582182
1532.0, 0.0011567285154227434
1533.0, 0.001622195799175087
1534.0, 0.00019989308322736926
1535.0, 0.0005591519588220407
1536.0, 0.0013861377202085366
1537.0, 0.0036107455386542447
1538.0, 0.0024511190038288416
1539.0, 0.001330469494071469
1540.0, 0.0012651020361114861
1541.0, 0.0012442451766664642
1542.0, 0.0009312946220964733
1543.0, 0.0020287741884528507
1544.0, 0.0035968346756898224
1545.0, 0.004323398652451607
1546.0, 0.0030061612869874176
1547.0, 0.0018174526824851053
1548.0, 0.0024439103476164977
1549.0, 0.0019644602213017255
1550.0, 0.0021522403270812993
1551.0, 0.0028209622702480034
1552.0, 0.0010605157873397456
1553.0, 0.002122268864827939
1554.0, 0.0022885097714407223
1555.0, 0.0029949024567162627
1556.0, 0.002098266795452519
1557.0, 0.0017223012479007638
1558.0, 0.0030954190960909077
1559.0, 0.003482324399623707
1560.0, 0.002479049971417137
1561.0, 0.0031600406757136238
1562.0, 0.0010275138749088252
1563.0, 0.0009004398860862251
1564.0, 0.00028857671910342115
1565.0, 3.075160801355362e-06
1566, 0.0
1567, 0.0
1568, 0.0
1569, 0.0
1570, 0.0
1571, 0.0
1572, 0.0
1573, 0.0
1574, 0.0
1575, 0.0
1576, 0.0
1577, 0.0
1578, 0.0
1579, 0.0
1580, 0.0
1581, 0.0
1582, 0.0
1583, 0.0
1584, 0.0
1585, 0.0
1586, 0.0
1587, 0.0
1588, 0.0
1589, 0.0
1590, 0.0
1591, 0.0
1592, 0.0
1593, 0.0
1594, 0.0
1595, 0.0
1596, 0.0
1597, 0.0
1598, 0.0
1599, 0.0
