30, 0.0
31, 0.0
32, 0.0
33, 0.0
34, 0.0
35, 0.0
36, 0.0
37, 0.0
38, 0.0
39, 0.0
40, 0.0
41, 0.0
42, 0.0
43, 0.0
44, 0.0
45, 0.0
46, 0.0
47, 0.0
48, 0.0
49, 0.0
50, 0.0
51, 0.0
52, 0.0
53, 0.0
54, 0.0
55, 0.0
56, 0.0
57, 0.0
58, 0.0
59, 0.0
60, 0.0
61, 0.0
62, 0.0
63, 0.0
64, 0.0
65, 0.0
66, 0.0
67, 0.0
68, 0.0
69, 0.0
70, 0.0
71, 0.0
72, 0.0
73, 0.0
74, 0.0
75, 0.0
76, 0.0
77, 0.0
78, 0.0
79, 0.0
80, 0.0
81, 0.0
82, 0.0
83, 0.0
84, 0.0
85, 0.0
86, 0.0
87, 0.0
88, 0.0
89, 0.0
90, 0.0
91, 0.0
92, 0.0
93, 0.0
94, 0.0
95, 0.0
96, 0.0
97, 0.0
98, 0.0
99, 0.0
100, 0.0
101, 0.0
102, 0.0
103, 0.0
104, 0.0
105, 0.0
106.0, 0.0010404071354163814
107.0, 0.04183014705284917
108.0, 0.010806702373414924
109.0, 0.03470442844454327
110.0, 0.07869877666947901
111.0, 0.08945929650243048
112.0, 0.14214686136137622
113.0, 0.19633788314451434
114.0, 0.2550339428530729
115.0, 0.3230356572060088
116.0, 0.377464567711039
117.0, 0.4160049633499314
118.0, 0.46291188502844777
119.0, 0.5096561763884373
120.0, 0.47552624575066366
121.0, 0.4687056312020773
122.0, 0.4844883370748324
123.0, 0.4890386453202884
124.0, 0.4348156028902702
125.0, 0.4202713130408029
126.0, 0.427812643725579
127.0, 0.45672173708470476
128.0, 0.5092532461863029
129.0, 0.5550151371615659
130.0, 0.5484185377041959
131.0, 0.5319793920828558
132.0, 0.5448651949800766
133.0, 0.5343329629695164
134.0, 0.480778752273902
135.0, 0.3843697966272341
136.0, 0.2601933525431966
137.0, 0.16182207469086451
138.0, 0.09855959003782871
139.0, 0.04265688585507584
140.0, 0.0005306477456435081
141.0, 0.005544738611353447
142.0, 0.023494390106423197
143.0, 0.027462453390433808
144.0, 0.006054568165945186
145.0, 0.00718755431054853
146.0, 0.0023757274457417935
147.0, 0.02032009714711991
148.0, 0.018399769705944216
149.0, 0.019501803417652334
150.0, 0.026482782120804273
151.0, 0.03643815444526979
152.0, 0.03522229253225094
153.0, 0.04984229641348542
154.0, 0.038343865737327704
155.0, 0.04265807797255957
156.0, 0.04233544921424431
157.0, 0.04045250060411245
158.0, 0.07762610281462039
159.0, 0.10925847685219267
160.0, 0.0906842517079437
161.0, 0.05408318942275005
162.0, 0.04669437200162808
163.0, 0.0755871593206549
164.0, 0.07704955607279917
165.0, 0.06257448689871184
166.0, 0.060132098992083174
167.0, 0.08541950671754428
168.0, 0.08545125708942411
169.0, 0.08282860338363077
170.0, 0.09219868455373988
171.0, 0.10636644139048033
172.0, 0.09619443466080571
173.0, 0.06350868505985834
174.0, 0.0587579815466438
175.0, 0.1261963691523264
176.0, 0.1133655874604309
177.0, 0.10959445732612255
178.0, 0.11431490558951556
179.0, 0.1027457472880391
180.0, 0.08710797478211942
181.0, 0.10694689959472231
182.0, 0.10297186167009395
183.0, 0.07926592996537936
184.0, 0.10369034475959264
185.0, 0.0925441416518229
186.0, 0.10137179706341728
187.0, 0.12451999161141858
188.0, 0.12623813963311697
189.0, 0.1378061002268615
190.0, 0.1536375795825372
191.0, 0.14613265441696283
192.0, 0.11954926381306116
193.0, 0.15435335411268816
194.0, 0.13769166654576967
195.0, 0.13560611519314292
196.0, 0.17235885043868954
197.0, 0.18423709319002884
198.0, 0.16961626027413684
199.0, 0.13315441415247448
200.0, 0.11960440875176426
201.0, 0.13597422744710083
202.0, 0.08485941349502547
203.0, 0.04293472875460568
204.0, 0.026356477960022974
205.0, 0.013042216624485953
206.0, 0.03176828199257474
207.0, 0.009677083474467172
208.0, 0.005410530573095217
209.0, 0.007368543735723772
210.0, 0.014075904290433296
211.0, 0.0017406617578710334
212.0, 0.007397100382224755
213.0, 0.02354299149723457
214.0, 0.03258321855265743
215.0, 0.03678725903918354
216.0, 0.06042011982831749
217.0, 0.0507921796080437
218.0, 0.024202580880792357
219.0, 0.02529539291518863
220.0, 0.06322898466437604
221.0, 0.106951611411646
222.0, 0.12021962303758628
223.0, 0.11300276919671169
224.0, 0.14934460664994453
225.0, 0.18164409258235995
226.0, 0.19163762250201802
227.0, 0.19327817527594315
228.0, 0.21575542472799977
229.0, 0.25353089569587195
230.0, 0.28329690885183106
231.0, 0.2955209715455752
232.0, 0.30283785528035173
233.0, 0.36028802304438623
234.0, 0.4023655306709626
235.0, 0.43645160960532164
236.0, 0.46700968451723085
237.0, 0.4816988999801049
238.0, 0.49165300253159644
239.0, 0.4991341630974385
240.0, 0.5141067356992011
241.0, 0.518533113227497
242.0, 0.48231152412582207
243.0, 0.4738009332890816
244.0, 0.44177982648807634
245.0, 0.4036799538726509
246.0, 0.3946548205656524
247.0, 0.3674481984994594
248.0, 0.3761629642381971
249.0, 0.3626212982853294
250.0, 0.32661066232449004
251.0, 0.3532293903629044
252.0, 0.3599788585854171
253.0, 0.36010598162243634
254.0, 0.3597615727963447
255.0, 0.3626128202630896
256.0, 0.39711342760059914
257.0, 0.45273353274918815
258.0, 0.47603155401341596
259.0, 0.4722716801988181
260.0, 0.4945056238793612
261.0, 0.5374968941517023
262.0, 0.5435571665493927
263.0, 0.5820365723897942
264.0, 0.6797786059474547
265.0, 0.7333692904960759
266.0, 0.7201625869738875
267.0, 0.6727728724188964
268.0, 0.610529873607147
269.0, 0.5353271267373376
270.0, 0.4392719702442047
271.0, 0.38851887387759043
272.0, 0.352744676056819
273.0, 0.28923908720591546
274.0, 0.1931930621906836
275.0, 0.10938011179498072
276.0, 0.09608624777758712
277.0, 0.12175112490895473
278.0, 0.1162350605589593
279.0, 0.0711138731647983
280.0, 0.060878996086286906
281.0, 0.0850575603890136
282.0, 0.09083851423547143
283.0, 0.05124213754420108
284.0, 0.03932059837047545
285.0, 0.01840242670441791
286.0, 0.004893084338083894
287.0, 0.003562205856807706
288.0, 0.004439421152796188
289.0, 0.015563321424887063
290.0, 0.015213839991760826
291.0, 0.005317791898803584
292.0, 0.0032092807837885502
293.0, 0.019019074890928307
294.0, 0.010872552951795504
295.0, 0.012870703941612653
296.0, 0.019507376593730832
297.0, 0.024580635242871393
298.0, 0.006149584468655645
299.0, 0.030762902693411077
300.0, 0.03704809285897741
301.0, 0.016895790928763265
302.0, 0.003424651271629656
303.0, 0.0038905579615147417
304.0, 0.006350604948685581
305.0, 0.017786528137387497
306.0, 0.027688781207146827
307.0, 0.03780261541287047
308.0, 0.04531726621070115
309.0, 0.07158129694111898
310.0, 0.0907776455218949
311.0, 0.09516745323808563
312.0, 0.13083147506914014
313.0, 0.14354154287641532
314.0, 0.1609506246694804
315.0, 0.20761107058326642
316.0, 0.2688972060920854
317.0, 0.25038140281337185
318.0, 0.29510266448615474
319.0, 0.33138481511611656
320.0, 0.34236519500907786
321.0, 0.3950616976496973
322.0, 0.4029042563738721
323.0, 0.4386701454330414
324.0, 0.49724190307716587
325.0, 0.5477218412842607
326.0, 0.5631906849887582
327.0, 0.6056976721356111
328.0, 0.6432797018674508
329.0, 0.7045236633489135
330.0, 0.7979906189896141
331.0, 0.8664105055544445
332.0, 0.9405088642296306
333.0, 0.9925277461658409
334.0, 0.9864888771713902
335.0, 0.9247659443959028
336.0, 0.8384583318997874
337.0, 0.7119560712466005
338.0, 0.5889658447990601
339.0, 0.49536920686713276
340.0, 0.42772540616356475
341.0, 0.35984547189156574
342.0, 0.2911961163809673
343.0, 0.250100191579901
344.0, 0.2105486594306206
345.0, 0.1493718511609989
346.0, 0.16068923224056092
347.0, 0.1547497914452436
348.0, 0.13150555060779542
349.0, 0.09791257734999512
350.0, 0.05756017960191899
351.0, 0.08376068478229276
352.0, 0.08708570870629895
353.0, 0.06682801254065442
354.0, 0.05007798215553355
355.0, 0.058459560776179635
356.0, 0.0646216362986764
357.0, 0.05648972435757281
358.0, 0.060101565561823854
359.0, 0.07202236723690131
360.0, 0.06187935679945941
361.0, 0.05226199277352042
362.0, 0.04750326313843392
363.0, 0.04576957454625474
364.0, 0.05054679427986298
365.0, 0.06420185652571292
366.0, 0.06422398375010298
367.0, 0.04821846231307202
368.0, 0.04444210185956446
369.0, 0.04315591827238061
370.0, 0.012163396627625844
371.0, 0.018855191173317406
372.0, 0.008142994482698456
373.0, 0.005546162013248734
374.0, 0.022399651400752577
375.0, 0.02854901403882753
376.0, 0.03938372700725612
377.0, 0.022339677760645986
378.0, 0.0020736171620898657
379.0, 0.010252772839528584
380.0, 0.001148882133651632
381.0, 0.000681456294675723
382.0, 0.0014225256379397282
383.0, 0.014857415631152471
384.0, 0.02914730867356265
385.0, 0.004532710594245474
386.0, 0.02085917351294415
387.0, 0.005292300968178603
388.0, 0.008603851201526935
389.0, 0.011698761282013402
390.0, 0.00037483108338272575
391.0, 0.001981894749396493
392.0, 0.00969534384653219
393.0, 0.0229822953279735
394.0, 0.03298271589285639
395.0, 0.026026649307603022
396.0, 0.006574965348950342
397.0, 0.0165198824073855
398.0, 0.010817007584289402
399.0, 0.035927483551565026
400.0, 0.05028641910223297
401.0, 0.06579108068526254
402.0, 0.06681600118909056
403.0, 0.11973305992885164
404.0, 0.16082083783618806
405.0, 0.1433039010360285
406.0, 0.18201251935125132
407.0, 0.1799420767340388
408.0, 0.17089454398206033
409.0, 0.17621428288257673
410.0, 0.18828161042319005
411.0, 0.20098104841487321
412.0, 0.2462883080076888
413.0, 0.2479180332913547
414.0, 0.25109404383499206
415.0, 0.2803921051470366
416.0, 0.25068092627689903
417.0, 0.2893258469909321
418.0, 0.32717290016226164
419.0, 0.34543620947529663
420.0, 0.34559855946490897
421.0, 0.3327987487257025
422.0, 0.3479588613752801
423.0, 0.38050668078901256
424.0, 0.399985036102686
425.0, 0.40412199167021534
426.0, 0.4207506930028923
427.0, 0.4990157888513968
428.0, 0.5424559039186396
429.0, 0.5541238285096962
430.0, 0.5645896714661139
431.0, 0.5961734136704934
432.0, 0.5863388568818708
433.0, 0.5871095254486135
434.0, 0.5705044810739436
435.0, 0.5303353494425922
436.0, 0.4934785085807796
437.0, 0.4758782911278723
438.0, 0.4292834802039991
439.0, 0.4136388490937223
440.0, 0.41853187303565875
441.0, 0.4003120560308841
442.0, 0.36402472118736257
443.0, 0.3915792002364533
444.0, 0.4047023811608758
445.0, 0.41347409832589954
446.0, 0.43193827292560655
447.0, 0.45957320008683755
448.0, 0.5150246228236737
449.0, 0.5313635451087027
450.0, 0.5254680793209219
451.0, 0.5518813604650646
452.0, 0.61228520563703
453.0, 0.6356764910282158
454.0, 0.7047795658567118
455.0, 0.7542955419023543
456.0, 0.7997064514988421
457.0, 0.8511759845023814
458.0, 0.8804755366901491
459.0, 0.9317603454128519
460.0, 0.9466186647620688
461.0, 0.9443950612529847
462.0, 0.936802127397622
463.0, 0.9106071796229112
464.0, 0.8440288160605844
465.0, 0.8005802873720476
466.0, 0.7524246464826584
467.0, 0.7098513885712356
468.0, 0.6731402496490402
469.0, 0.5744554369313681
470.0, 0.5186060748158225
471.0, 0.5212214628403374
472.0, 0.5027132084933907
473.0, 0.44984767573273754
474.0, 0.4184537557375116
475.0, 0.373602193000313
476.0, 0.3421819399867861
477.0, 0.30957428167386525
478.0, 0.30917863459558015
479.0, 0.3512439316762231
480.0, 0.35504684533916936
481.0, 0.3076993658580635
482.0, 0.2763312791247244
483.0, 0.2685133391694861
484.0, 0.2580007977793223
485.0, 0.21427004345521242
486.0, 0.2227324396487849
487.0, 0.19757497925830544
488.0, 0.18660347393481777
489.0, 0.19145933412448052
490.0, 0.16752884622472108
491.0, 0.12786508776724761
492.0, 0.12356482842758308
493.0, 0.0917391006578381
494.0, 0.10129062147523576
495.0, 0.13528543758349237
496.0, 0.08258958519538975
497.0, 0.12094977015479506
498.0, 0.10339317137746185
499.0, 0.08934495167026092
500.0, 0.09396141282490507
501.0, 0.08370331708248545
502.0, 0.05716671921177682
503.0, 0.06515365786266901
504.0, 0.0814290867898694
505.0, 0.07434554040324932
506.0, 0.06225498348014766
507.0, 0.07139336362586439
508.0, 0.05621896361617262
509.0, 0.048752459140718206
510.0, 0.04170501813050696
511.0, 0.03199399722455117
512.0, 0.0160002408282733
513.0, 0.010772647857339909
514.0, 0.001545933011793971
515.0, 0.0010362977669559304
516.0, 0.02215516925459992
517.0, 0.04514694488564565
518.0, 0.02383768933202067
519.0, 0.007284498225113654
520.0, 0.030784287147351205
521.0, 0.019610163411426858
522.0, 0.010331979023124022
523.0, 0.01962949658715942
524.0, 0.0011730257151835646
525.0, 0.03018839811583773
526.0, 0.034047283340669615
527.0, 0.03961578316937136
528.0, 0.053594864698365954
529.0, 0.05134483884218098
530.0, 0.017452704980948273
531.0, 0.014389992790234157
532.0, 0.022906447918700047
533.0, 0.023477999000450556
534.0, 0.020682812717119286
535.0, 0.029257126212076903
536.0, 0.05004444316953015
537.0, 0.06229390236495627
538.0, 0.04015441605673884
539.0, 0.03419376122975714
540.0, 0.0372361232723241
541.0, 0.026818327412847398
542.0, 0.031077774821694874
543.0, 0.008414121534499646
544.0, 0.01193695755527172
545.0, 0.02451601205945053
546.0, 0.01299574279702418
547.0, 0.011458068458892615
548.0, 0.0015968902820093565
549.0, 0.0031914138599757978
550.0, 0.0012195597363056853
551.0, 0.019225474832399295
552.0, 0.0406636242793265
553.0, 0.050001802954487085
554.0, 0.03651060066194863
555.0, 0.045974817630298724
556.0, 0.034620365610076205
557.0, 0.017291131312650337
558.0, 0.026299966735034975
559.0, 0.05259002211206117
560.0, 0.028144726366486794
561.0, 0.03193472148970653
562.0, 0.04192108841610303
563.0, 0.04326675691177105
564.0, 0.043032154508122505
565.0, 0.03789001961814415
566.0, 0.0034140805495188878
567.0, 0.01990561373522434
568.0, 0.035266445235166234
569.0, 0.015424995786124536
570.0, 0.005637048684210125
571.0, 0.027550593088884752
572.0, 0.018666484682847914
573.0, 0.03706210441590669
574.0, 0.02531394609068586
575.0, 0.009078900667566609
576.0, 0.02629519461663609
577.0, 0.03844383829508278
578.0, 0.012203361662947094
579.0, 0.0324304231647129
580.0, 0.01600168091384027
581.0, 0.008225903864130876
582.0, 0.0031449197070970384
583.0, 0.007281733007208817
584.0, 0.013618403746943284
585.0, 0.013127189512117738
586.0, 0.023827773187016614
587.0, 0.03611071815145741
588.0, 0.03958576656342496
589.0, 0.05480845207517752
590.0, 0.06118239809217762
591.0, 0.036922763273053966
592.0, 0.03257752467244822
593.0, 0.054018221873011626
594.0, 0.0679982403303524
595.0, 0.05053773215217545
596.0, 0.028158524044727344
597.0, 0.061463332835098035
598.0, 0.05019920302854664
599.0, 0.043029619823382964
600.0, 0.04907709663965217
601.0, 0.015795922079062635
602.0, 0.026314819063040257
603.0, 0.016344776760425766
604.0, 0.013732301870389806
605.0, 0.017426376900115715
606.0, 0.02750399561407035
607.0, 0.032393763143036346
608.0, 0.0027054895893604764
609.0, 0.013795067511574034
610.0, 0.022854608725583914
611.0, 0.04187098706023561
612.0, 0.06292307148202633
613.0, 0.058893492018348606
614.0, 0.03649167169929477
615.0, 0.016615097225062745
616.0, 0.015943333702762852
617.0, 0.023692451714973153
618.0, 0.03449981880869032
619.0, 0.043645825666181796
620.0, 0.04236505684625681
621.0, 0.03961601376520776
622.0, 0.04095388094313651
623.0, 0.03246696541963759
624.0, 0.037828186855691025
625.0, 0.053604250632900884
626.0, 0.04366252025270598
627.0, 0.025161689914281374
628.0, 0.007327284999649986
629.0, 0.022168772896848835
630.0, 0.022643975622727096
631.0, 0.01932110504396135
632.0, 0.0431838578478953
633.0, 0.04673592199620686
634.0, 0.053430042629646346
635.0, 0.048402172570964026
636.0, 0.03664958256272502
637.0, 0.02837958411033709
638.0, 0.04133203299123171
639.0, 0.07906907493941841
640.0, 0.06947359319627606
641.0, 0.0463120535211127
642.0, 0.06250226541057965
643.0, 0.06618119523290272
644.0, 0.05001274565532571
645.0, 0.05677168004927442
646.0, 0.0416270460743339
647.0, 0.0563646235234311
648.0, 0.05911838385519208
649.0, 0.04349411471921968
650.0, 0.03409540818722437
651.0, 0.03130335129663005
652.0, 0.006220493385092158
653.0, 0.002679569039383115
654.0, 0.005327752527854254
655.0, 0.041555372044019934
656.0, 0.05423659635018555
657.0, 0.02575592517856878
658.0, 0.013313638312750217
659.0, 0.04697925558481489
660.0, 0.019963145856989713
661.0, 0.0047075627317945444
662.0, 0.007271724267844296
663.0, 0.020365265193098284
664.0, 0.006274358461684788
665.0, 0.015252171457561145
666.0, 0.01772712657656894
667.0, 0.006744523949624632
668.0, 0.004253847469596987
669.0, 0.002152197559847162
670.0, 0.011738853755549308
671.0, 0.009231986915626463
672.0, 0.037461832071764005
673.0, 0.02063493332626854
674.0, 0.0054014181958326685
675.0, 0.013347512061744057
676.0, 0.008115774846199545
677.0, 0.003379290292151895
678.0, 0.009429599052249845
679.0, 0.0134806346054543
680.0, 0.024440150506830797
681.0, 0.025950262502607943
682.0, 0.03603837564723402
683.0, 0.04707225229233048
684.0, 0.025008966867146046
685.0, 0.00387868653022759
686.0, 0.026298179044263282
687.0, 0.018308681642344
688.0, 0.032227809012569365
689.0, 0.017509467009826276
690.0, 0.009022917237473359
691.0, 0.005754438874146145
692.0, 0.02957907873664282
693.0, 0.0185321095612358
694.0, 0.06697305859656326
695.0, 0.06881808965865341
696.0, 0.053643829645102274
697.0, 0.05427895584728338
698.0, 0.049122515456187385
699.0, 0.04105256097409865
700.0, 0.05418709913663061
701.0, 0.03714710161587628
702.0, 0.043390771323300624
703.0, 0.06819261800350254
704.0, 0.0650576868477248
705.0, 0.04179920770710828
706.0, 0.07452304507043787
707.0, 0.0730301850502002
708.0, 0.05793075498770148
709.0, 0.05984861042972838
710.0, 0.06918335974408682
711.0, 0.06737903697636131
712.0, 0.0558847986899439
713.0, 0.047690036628032006
714.0, 0.037532455525928675
715.0, 0.0447608483019218
716.0, 0.07940701570797264
717.0, 0.09775644712086551
718.0, 0.08781173867408987
719.0, 0.09433299795736758
720.0, 0.10477075625169796
721.0, 0.10895416089953565
722.0, 0.11129686502802144
723.0, 0.10573163638815307
724.0, 0.08693852139800325
725.0, 0.087397882225253
726.0, 0.12744050978205354
727.0, 0.11866443032588313
728.0, 0.12065086882732942
729.0, 0.16331457161357915
730.0, 0.17318306950975523
731.0, 0.18624580461137458
732.0, 0.21322797260124213
733.0, 0.22490949301430588
734.0, 0.2567911755734899
735.0, 0.2751563183731393
736.0, 0.255183763742232
737.0, 0.2661581490901772
738.0, 0.3046430561380129
739.0, 0.3365141819292314
740.0, 0.35043769455928697
741.0, 0.3559845811794904
742.0, 0.3447210964305737
743.0, 0.3615683554796754
744.0, 0.3719370497376025
745.0, 0.37370142934884254
746.0, 0.3709934993779606
747.0, 0.3654246481426391
748.0, 0.3558971242399301
749.0, 0.3358270199107505
750.0, 0.32425729146345134
751.0, 0.2737434782499425
752.0, 0.2708988380236265
753.0, 0.2637945360057379
754.0, 0.2213433727460034
755.0, 0.19218028372323467
756.0, 0.17732901306489934
757.0, 0.17035402262099894
758.0, 0.15570932634213447
759.0, 0.14231697373741498
760.0, 0.1354699237600054
761.0, 0.12619475495876492
762.0, 0.10068436163949442
763.0, 0.07101028117047363
764.0, 0.06884023918231559
765.0, 0.03422471239803849
766.0, 0.06884305080622773
767.0, 0.059140584055739236
768.0, 0.02290979155800889
769.0, 0.02189032569943053
770.0, 0.03026704046471108
771.0, 0.032097374374788254
772.0, 0.04718615427920572
773.0, 0.026112253091537977
774.0, 0.03810756379562763
775.0, 0.051994872279313264
776.0, 0.052073515177557754
777.0, 0.05884774292713234
778.0, 0.07124151233059732
779.0, 0.07258494179249651
780.0, 0.08716405986050717
781.0, 0.1042523326117844
782.0, 0.12031819626057366
783.0, 0.13406169475457355
784.0, 0.13863028219340726
785.0, 0.13002958057682093
786.0, 0.12174051422025067
787.0, 0.14336955755575828
788.0, 0.16853970992720133
789.0, 0.18928103287325904
790.0, 0.18598384738706955
791.0, 0.19884472317974644
792.0, 0.2221630016084969
793.0, 0.20196706311243923
794.0, 0.17164755385606736
795.0, 0.20074635177675293
796.0, 0.20922252905009386
797.0, 0.18237896198387782
798.0, 0.16916171596433702
799.0, 0.16531676866719872
800.0, 0.14084842064247594
801.0, 0.11373604495544999
802.0, 0.07575571272296307
803.0, 0.07777626492721387
804.0, 0.06384392765911419
805.0, 0.054234982595358805
806.0, 0.06639699117565746
807.0, 0.06548962866727032
808.0, 0.0338451911978892
809.0, 0.016008601853144285
810.0, 0.02021751761331707
811.0, 0.0189766034314746
812.0, 0.04330234445179525
813.0, 0.041879100595936136
814.0, 0.041972298014327655
815.0, 0.036519637443895
816.0, 0.012754872163593374
817.0, 0.0038812041897980723
818.0, 0.01644118600546711
819.0, 0.014606819802600365
820.0, 0.03959306327438102
821.0, 0.05263686507573494
822.0, 0.02770894810280415
823.0, 0.004289486242473174
824.0, 0.004694155110331867
825.0, 0.026870922387547593
826.0, 0.022094938436830063
827.0, 0.02094871195012142
828.0, 0.010255894281898732
829.0, 0.006553777659188895
830.0, 0.002409996839240228
831.0, 0.0015649236293212086
832.0, 0.013264877124008067
833.0, 0.02969435257856894
834.0, 0.006468864138301117
835.0, 0.009232391764763148
836.0, 0.008336815411579959
837.0, 0.016963732464075985
838.0, 0.014024682380697453
839.0, 0.0033344073790410097
840.0, 0.005865346961580816
841.0, 0.02484639986929571
842.0, 0.03445301974008233
843.0, 0.005698435616043733
844.0, 0.015323554231873565
845.0, 0.035729094435604736
846.0, 0.011514792826516398
847.0, 0.025513616484666157
848.0, 0.05114882862141296
849.0, 0.02791071417670304
850.0, 0.005722174714360002
851.0, 0.016498129704155234
852.0, 0.0017804268586405529
853.0, 0.010627569125855248
854.0, 0.005530644735436691
855.0, 0.01682025270640219
856.0, 0.036061049265710604
857.0, 0.022548955926450037
858.0, 0.023861549824007074
859.0, 0.0469047824396008
860.0, 0.028960421373481725
861.0, 0.008278041179400583
862.0, 0.0065308638659623795
863.0, 0.012533159109581332
864.0, 0.0028363847566942116
865.0, 0.015235986965634723
866.0, 0.011202333319923543
867.0, 0.029154775606364983
868.0, 0.02092066879749643
869.0, 0.0028224822539202094
870.0, 0.03870644687676218
871.0, 0.02677748019027381
872.0, 0.027553182468047124
873.0, 0.014249627513118986
874.0, 0.003949841024862169
875.0, 0.038471373703449184
876.0, 0.04571466854364997
877.0, 0.04086267333063189
878.0, 0.034475624797798865
879.0, 0.03788662862566703
880.0, 0.04448296869815157
881.0, 0.036640668733222075
882.0, 0.029184278343973774
883.0, 0.0432688191427313
884.0, 0.05079100178582166
885.0, 0.01814957075700413
886.0, 0.016705268839058228
887.0, 0.01460567761335805
888.0, 0.012886130649062988
889.0, 0.024804489579048197
890.0, 0.034136042343165016
891.0, 0.04258479666252963
892.0, 0.04678532295555342
893.0, 0.042647396923023405
894.0, 0.04952370536579937
895.0, 0.06814914442456885
896.0, 0.05010029453986804
897.0, 0.08019935084269834
898.0, 0.09650306109615839
899.0, 0.11048869440577215
900.0, 0.10547466005994416
901.0, 0.09532751003020982
902.0, 0.11943110739476206
903.0, 0.1529962226031151
904.0, 0.1806392003966486
905.0, 0.15272061771455733
906.0, 0.17206592446825497
907.0, 0.17482444412678802
908.0, 0.19339378272820734
909.0, 0.20195230915756474
910.0, 0.18809737989090078
911.0, 0.19835820364161222
912.0, 0.2353635288665202
913.0, 0.23411795144474737
914.0, 0.23659346562489447
915.0, 0.2403852684348495
916.0, 0.21296991739390206
917.0, 0.19347376349490453
918.0, 0.15782920134136286
919.0, 0.13390192662227351
920.0, 0.14274255300466718
921.0, 0.12742848352950525
922.0, 0.09820519663269932
923.0, 0.11094260772557171
924.0, 0.09870016657212008
925.0, 0.0837292784520859
926.0, 0.08363306637791978
927.0, 0.05237465602282855
928.0, 0.03238610616918192
929.0, 0.04062012189573902
930.0, 0.0673917976660521
931.0, 0.09108192989024086
932.0, 0.05865632704137849
933.0, 0.04223383180752674
934.0, 0.053821592249301727
935.0, 0.06254083533675735
936.0, 0.06506500717712559
937.0, 0.053216826070326094
938.0, 0.05912076953361798
939.0, 0.057086963609813135
940.0, 0.046294097087181116
941.0, 0.08452222573551577
942.0, 0.05859868674685311
943.0, 0.01574800113602583
944.0, 0.00683829535750667
945.0, 0.03831383315346375
946.0, 0.03493628831851124
947.0, 0.026563686750376743
948.0, 0.019104310460600387
949.0, 0.02008123957390836
950.0, 0.03851593335964598
951.0, 0.053486752017576425
952.0, 0.059875314893075585
953.0, 0.042345812964655505
954.0, 0.03176082336834309
955.0, 0.032840639506228536
956.0, 0.04517984198890041
957.0, 0.03563032247341818
958.0, 0.029662376526568127
959.0, 0.03070151361076343
960.0, 0.023021953644657256
961.0, 0.03323991506170269
962.0, 0.029203766396209394
963.0, 0.013430104801057781
964.0, 0.006373032588935309
965.0, 0.034106320623317796
966.0, 0.01824173506923608
967.0, 0.030882885370723222
968.0, 0.002975074638747407
969.0, 0.013851207681745043
970.0, 0.006829743146171738
971.0, 0.004034880526402283
972.0, 0.01801229236739413
973.0, 0.037803519789645884
974.0, 0.016480750882639818
975.0, 0.028305616195819786
976.0, 0.029339349427563895
977.0, 0.014930350041357985
978.0, 0.034257057523385315
979.0, 0.029722113831778387
980.0, 0.004487264063808435
981.0, 0.0066961449831312945
982.0, 0.029627878492034458
983.0, 0.0060642860487287115
984.0, 0.007963649358768893
985.0, 0.004411029201605804
986.0, 0.005041793837723652
987.0, 0.013583008993492377
988.0, 0.019022086348410898
989.0, 0.00828542661034846
990.0, 0.020203628621814945
991.0, 0.03259394232395371
992.0, 0.022073099326817187
993.0, 0.027052731444205884
994.0, 0.012335899147810803
995.0, 0.06813331113812057
996.0, 0.05692061868317655
997.0, 0.023464508537974146
998.0, 0.031444904142815124
999.0, 0.03519947225436963
1000.0, 0.033900703647319876
1001.0, 0.029331217730574004
1002.0, 0.029419446196061735
1003.0, 0.039477494249098743
1004.0, 0.04263608488473691
1005.0, 0.03548360835846461
1006.0, 0.02832618954768657
1007.0, 0.03180889921536665
1008.0, 0.03441150102916283
1009.0, 0.006995436676120297
1010.0, 0.013595599448527066
1011.0, 0.03571541345040251
1012.0, 0.03229225128974073
1013.0, 0.031699264346495566
1014.0, 0.04213336585004378
1015.0, 0.013711375981559725
1016.0, 0.010407842693805841
1017.0, 0.03550189923502235
1018.0, 0.03033924055598168
1019.0, 0.04234957276884682
1020.0, 0.03518643559263013
1021.0, 0.03659166750696553
1022.0, 0.04913928972822213
1023.0, 0.019519440616652704
1024.0, 0.019149940455426482
1025.0, 0.05212082825523181
1026.0, 0.0496351339992856
1027.0, 0.05147454553099278
1028.0, 0.04797844515296522
1029.0, 0.05008961271432847
1030.0, 0.0398795632021786
1031.0, 0.05405842816331447
1032.0, 0.07385601942735794
1033.0, 0.04280680531193048
1034.0, 0.01946190991978522
1035.0, 0.037986132510132886
1036.0, 0.04965131490556298
1037.0, 0.038967381999894454
1038.0, 0.04039260164593332
1039.0, 0.048949903827715927
1040.0, 0.01974052810959294
1041.0, 0.06185267240728652
1042.0, 0.06512585420016809
1043.0, 0.05936779094800064
1044.0, 0.09042996342774447
1045.0, 0.05041540748902831
1046.0, 0.031980574892960856
1047.0, 0.054288859164469176
1048.0, 0.061216018994920095
1049.0, 0.06884151074168306
1050.0, 0.08735810159021849
1051.0, 0.07623726087031032
1052.0, 0.040591442570199546
1053.0, 0.019757001737761827
1054.0, 0.05472046875811197
1055.0, 0.04339628242909634
1056.0, 0.04443722947914552
1057.0, 0.05429980675171315
1058.0, 0.017332966797466647
1059.0, 0.012554313615335823
1060.0, 0.021586729917089348
1061.0, 0.007128027456176321
1062.0, 0.008133703244530166
1063.0, 0.035100320884057123
1064.0, 0.04643800202843519
1065.0, 0.0008509606180683623
1066.0, 0.006453852777971489
1067.0, 0.01584398490743847
1068.0, 0.009350619993971963
1069.0, 0.0013521331477364933
1070.0, 0.020597353108690836
1071.0, 0.03289166808819254
1072.0, 0.032061359103178824
1073.0, 0.03726827869786196
1074.0, 0.041636579639999664
1075.0, 0.030296459008773355
1076.0, 0.013454781206657296
1077.0, 0.01164828104395019
1078.0, 0.008161074454723303
1079.0, 0.006741899250816925
1080.0, 0.049490491170727305
1081.0, 0.01900097235378863
1082.0, 0.03959727691965682
1083.0, 0.0111724509796433
1084.0, 0.023005755806897298
1085.0, 0.04333380733086467
1086.0, 0.012840724716673909
1087.0, 0.03575256023951485
1088.0, 0.045257241381257945
1089.0, 0.01955408028691809
1090.0, 0.012543848712771415
1091.0, 0.006347755699175459
1092.0, 0.021867706491433863
1093.0, 0.032498707116386034
1094.0, 0.008716489264755089
1095.0, 0.011035056433327656
1096.0, 0.02912357820426183
1097.0, 0.025292797877980985
1098.0, 0.026683798223150534
1099.0, 0.034892886413891516
1100.0, 0.05014298062189981
1101.0, 0.04232699114766579
1102.0, 0.03420246158254701
1103.0, 0.04238875654701817
1104.0, 0.053628934892041895
1105.0, 0.06527397514791713
1106.0, 0.05404973716383248
1107.0, 0.03582298086847625
1108.0, 0.027617964495248434
1109.0, 0.02160009224626799
1110.0, 0.023682594400122763
1111.0, 0.023449689804625303
1112.0, 0.04054114820452567
1113.0, 0.02936109515546444
1114.0, 0.0208399400973816
1115.0, 0.016083573348265358
1116.0, 0.03532568907884838
1117.0, 0.02675580290387878
1118.0, 0.0258848672478929
1119.0, 0.06713255753354325
1120.0, 0.03578175432632094
1121.0, 0.019799150932250063
1122.0, 0.00427334568613046
1123.0, 0.0070831403967335695
1124.0, 0.022505252510155074
1125.0, 0.02971010599753339
1126.0, 0.027213056585032966
1127.0, 0.02705889007484325
1128.0, 0.0366609171059478
1129.0, 0.03520345421126632
1130.0, 0.03663036380388238
1131.0, 0.03661659521587375
1132.0, 0.03252631672573221
1133.0, 0.03271072586554954
1134.0, 0.041016281489791556
1135.0, 0.03675478752911458
1136.0, 0.013864539459637093
1137.0, 0.031354377367339634
1138.0, 0.03847468549230144
1139.0, 0.03531862888961295
1140.0, 0.0286663168394166
1141.0, 0.02770904856246592
1142.0, 0.04902476785470291
1143.0, 0.018988820132038155
1144.0, 0.012095037934836465
1145.0, 0.05787049628290956
1146.0, 0.03814639535305711
1147.0, 0.00869095045379605
1148.0, 0.022775337477371777
1149.0, 0.017321474691305735
1150.0, 0.016311393803889174
1151.0, 0.03265332881891393
1152.0, 0.014886100807133741
1153.0, 0.00882880048586856
1154.0, 0.0070168731589209275
1155.0, 0.008160301001182186
1156.0, 0.028228313391920563
1157.0, 0.030349363028273076
1158.0, 0.03146043920940892
1159.0, 0.02647989432773226
1160.0, 0.016983467411550688
1161.0, 0.022580853796097044
1162.0, 0.043581424575014106
1163.0, 0.017179806951874828
1164.0, 0.01680408694008645
1165.0, 0.028611896427926484
1166.0, 0.032028296081544574
1167.0, 0.0156150932198572
1168.0, 0.03149836282666362
1169.0, 0.03259755838136529
1170.0, 0.025629305783775327
1171.0, 0.027984421309577533
1172.0, 0.03130288146993973
1173.0, 0.028287669432744782
1174.0, 0.034348410063837716
1175.0, 0.029453614190317747
1176.0, 0.017385704224307175
1177.0, 0.04339986402165787
1178.0, 0.03357129276440856
1179.0, 0.014942458880544041
1180.0, 0.012736082212799201
1181.0, 0.024243266741695267
1182.0, 0.010683707270036886
1183.0, 0.019183162430153486
1184.0, 0.037543304562536746
1185.0, 0.02920111314359163
1186.0, 0.014090862451367595
1187.0, 0.024159543650713107
1188.0, 0.07684173734824834
1189.0, 0.05937727671357091
1190.0, 0.005009006033123175
1191.0, 0.03141393570401398
1192.0, 0.006927131564564829
1193.0, 0.019155244346432274
1194.0, 0.05407557583091299
1195.0, 0.017760550008062256
1196.0, 0.006441531722943649
1197.0, 0.0035959989855011013
1198.0, 0.02200395533468749
1199.0, 0.0380597467496708
1200.0, 0.02322399351925736
1201.0, 0.013687868869673818
1202.0, 0.007482915783252199
1203.0, 0.014804774273853696
1204.0, 0.039587856871550746
1205.0, 0.04415717873382858
1206.0, 0.03902342874039457
1207.0, 0.05047761711768694
1208.0, 0.06423378313936952
1209.0, 0.06249821711443244
1210.0, 0.030492636651070833
1211.0, 0.005491428357472107
1212.0, 0.05301662826819807
1213.0, 0.03419900049364642
1214.0, 0.01945997426537403
1215.0, 0.04451135573118109
1216.0, 0.050320825706396226
1217.0, 0.03515778706978392
1218.0, 0.042180945199464547
1219.0, 0.05033092904553827
1220.0, 0.026570989344636142
1221.0, 0.03230565281640687
1222.0, 0.013270369469765588
1223.0, 0.013871690260555743
1224.0, 0.017672184424721057
1225.0, 0.005545238973937869
1226.0, 0.008234578321593737
1227.0, 0.014906556321326814
1228.0, 0.04065969506314076
1229.0, 0.02439767834622094
1230.0, 0.05158011059623706
1231.0, 0.026760855537749012
1232.0, 0.0439791025691367
1233.0, 0.037041242967987935
1234.0, 0.025032882931916304
1235.0, 0.04076415179980797
1236.0, 0.055887472633877854
1237.0, 0.02333345209313078
1238.0, 0.06709356838243755
1239.0, 0.056443337901607965
1240.0, 0.03314993108484004
1241.0, 0.04084510545680885
1242.0, 0.02825946316533327
1243.0, 0.038421398860502644
1244.0, 0.038295980500663296
1245.0, 0.0374147229338855
1246.0, 0.04928643263261285
1247.0, 0.05559483634717744
1248.0, 0.0382663954925998
1249.0, 0.024894352832084556
1250.0, 0.023868926297456607
1251.0, 0.026214406202980867
1252.0, 0.02179012308483725
1253.0, 0.014037695789914593
1254.0, 0.04686648388713679
1255.0, 0.0416708226540859
1256.0, 0.03388921051101826
1257.0, 0.03281010997025639
1258.0, 0.031554790512336964
1259.0, 0.06238713071147695
1260.0, 0.04281421707823061
1261.0, 0.018203410329818127
1262.0, 0.060813690415181074
1263.0, 0.02898012253073603
1264.0, 0.045138539395732445
1265.0, 0.022668358848527404
1266.0, 0.025058526518469654
1267.0, 0.008392368205486759
1268.0, 0.04049785043719945
1269.0, 0.0450996152225689
1270.0, 0.02283287637650604
1271.0, 0.005176818310748504
1272.0, 0.022102171891094397
1273.0, 0.02199926664019611
1274.0, 0.002899275661181341
1275.0, 0.013834539363636104
1276.0, 0.03223736840390023
1277.0, 0.022798310153186785
1278.0, 0.026694142332370153
1279.0, 0.0535607818224635
1280.0, 0.04957282306157445
1281.0, 0.012358652048860028
1282.0, 0.012775704938135431
1283.0, 0.01128151143659723
1284.0, 0.0057345747978206655
1285.0, 0.024544731892604543
1286, 0.0
1287, 0.0
1288, 0.0
1289, 0.0
1290, 0.0
1291, 0.0
1292, 0.0
1293, 0.0
1294, 0.0
1295, 0.0
1296, 0.0
1297, 0.0
1298, 0.0
1299, 0.0
1300, 0.0
1301, 0.0
1302, 0.0
1303, 0.0
1304, 0.0
1305, 0.0
1306, 0.0
1307, 0.0
1308, 0.0
1309, 0.0
1310, 0.0
1311, 0.0
1312, 0.0
1313, 0.0
1314, 0.0
1315, 0.0
1316, 0.0
1317, 0.0
1318, 0.0
1319, 0.0
1320, 0.0
1321, 0.0
1322, 0.0
1323, 0.0
1324, 0.0
1325, 0.0
1326, 0.0
1327, 0.0
1328, 0.0
1329, 0.0
1330, 0.0
1331, 0.0
1332, 0.0
1333, 0.0
1334, 0.0
1335, 0.0
1336, 0.0
1337, 0.0
1338, 0.0
1339, 0.0
1340, 0.0
1341, 0.0
1342, 0.0
1343, 0.0
1344, 0.0
1345, 0.0
1346, 0.0
1347, 0.0
1348, 0.0
1349, 0.0
1350, 0.0
1351, 0.0
1352, 0.0
1353, 0.0
1354, 0.0
1355, 0.0
1356, 0.0
1357, 0.0
1358, 0.0
1359, 0.0
1360, 0.0
1361, 0.0
1362, 0.0
1363, 0.0
1364, 0.0
1365, 0.0
1366, 0.0
1367, 0.0
1368, 0.0
1369, 0.0
1370, 0.0
1371, 0.0
1372, 0.0
1373, 0.0
1374, 0.0
1375, 0.0
1376, 0.0
1377, 0.0
1378, 0.0
1379, 0.0
1380, 0.0
1381, 0.0
1382, 0.0
1383, 0.0
1384, 0.0
1385, 0.0
1386, 0.0
1387, 0.0
1388, 0.0
1389, 0.0
1390, 0.0
1391, 0.0
1392, 0.0
1393, 0.0
1394, 0.0
1395, 0.0
1396, 0.0
1397, 0.0
1398, 0.0
1399, 0.0
1400, 0.0
1401, 0.0
1402, 0.0
1403, 0.0
1404, 0.0
1405, 0.0
1406, 0.0
1407, 0.0
1408, 0.0
1409, 0.0
1410, 0.0
1411, 0.0
1412, 0.0
1413, 0.0
1414, 0.0
1415, 0.0
1416, 0.0
1417, 0.0
1418, 0.0
1419, 0.0
1420, 0.0
1421, 0.0
1422, 0.0
1423, 0.0
1424, 0.0
1425, 0.0
1426, 0.0
1427, 0.0
1428, 0.0
1429, 0.0
1430, 0.0
1431, 0.0
1432, 0.0
1433, 0.0
1434, 0.0
1435, 0.0
1436, 0.0
1437, 0.0
1438, 0.0
1439, 0.0
1440, 0.0
1441, 0.0
1442, 0.0
1443, 0.0
1444, 0.0
1445, 0.0
1446, 0.0
1447, 0.0
1448, 0.0
1449, 0.0
1450, 0.0
1451, 0.0
1452, 0.0
1453, 0.0
1454, 0.0
1455, 0.0
1456, 0.0
1457, 0.0
1458, 0.0
1459, 0.0
1460, 0.0
1461, 0.0
1462, 0.0
1463, 0.0
1464, 0.0
1465, 0.0
1466, 0.0
1467, 0.0
1468, 0.0
1469, 0.0
1470, 0.0
1471, 0.0
1472, 0.0
1473, 0.0
1474, 0.0
1475, 0.0
1476, 0.0
1477, 0.0
1478, 0.0
1479, 0.0
1480, 0.0
1481, 0.0
1482, 0.0
1483, 0.0
1484, 0.0
1485, 0.0
1486, 0.0
1487, 0.0
1488, 0.0
1489, 0.0
1490, 0.0
1491, 0.0
1492, 0.0
1493, 0.0
1494, 0.0
1495, 0.0
1496, 0.0
1497, 0.0
1498, 0.0
1499, 0.0
1500, 0.0
1501, 0.0
1502, 0.0
1503, 0.0
1504, 0.0
1505, 0.0
1506, 0.0
1507, 0.0
1508, 0.0
1509, 0.0
1510, 0.0
1511, 0.0
1512, 0.0
1513, 0.0
1514, 0.0
1515, 0.0
1516, 0.0
1517, 0.0
1518, 0.0
1519, 0.0
1520, 0.0
1521, 0.0
1522, 0.0
1523, 0.0
1524, 0.0
1525, 0.0
1526, 0.0
1527, 0.0
1528, 0.0
1529, 0.0
1530, 0.0
1531, 0.0
1532, 0.0
1533, 0.0
1534, 0.0
1535, 0.0
1536, 0.0
1537, 0.0
1538, 0.0
1539, 0.0
1540, 0.0
1541, 0.0
1542, 0.0
1543, 0.0
1544, 0.0
1545, 0.0
1546, 0.0
1547, 0.0
1548, 0.0
1549, 0.0
1550, 0.0
1551, 0.0
1552, 0.0
1553, 0.0
1554, 0.0
1555, 0.0
1556, 0.0
1557, 0.0
1558, 0.0
1559, 0.0
1560, 0.0
1561, 0.0
1562, 0.0
1563, 0.0
1564, 0.0
1565, 0.0
1566, 0.0
1567, 0.0
1568, 0.0
1569, 0.0
1570, 0.0
1571, 0.0
1572, 0.0
1573, 0.0
1574, 0.0
1575, 0.0
1576, 0.0
1577, 0.0
1578, 0.0
1579, 0.0
1580, 0.0
1581, 0.0
1582, 0.0
1583, 0.0
1584, 0.0
1585, 0.0
1586, 0.0
1587, 0.0
1588, 0.0
1589, 0.0
1590, 0.0
1591, 0.0
1592, 0.0
1593, 0.0
1594, 0.0
1595, 0.0
1596, 0.0
1597, 0.0
1598, 0.0
1599, 0.0
