30, 0.0
31, 0.0
32, 0.0
33, 0.0
34, 0.0
35, 0.0
36, 0.0
37, 0.0
38, 0.0
39, 0.0
40, 0.0
41, 0.0
42, 0.0
43, 0.0
44, 0.0
45, 0.0
46, 0.0
47, 0.0
48, 0.0
49, 0.0
50, 0.0
51, 0.0
52, 0.0
53, 0.0
54, 0.0
55, 0.0
56, 0.0
57, 0.0
58, 0.0
59, 0.0
60, 0.0
61, 0.0
62, 0.0
63, 0.0
64, 0.0
65, 0.0
66, 0.0
67, 0.0
68, 0.0
69, 0.0
70, 0.0
71, 0.0
72, 0.0
73, 0.0
74, 0.0
75, 0.0
76, 0.0
77, 0.0
78, 0.0
79, 0.0
80, 0.0
81, 0.0
82, 0.0
83, 0.0
84, 0.0
85, 0.0
86, 0.0
87, 0.0
88, 0.0
89, 0.0
90, 0.0
91, 0.0
92, 0.0
93, 0.0
94, 0.0
95, 0.0
96, 0.0
97, 0.0
98, 0.0
99, 0.0
100, 0.0
101, 0.0
102, 0.0
103, 0.0
104, 0.0
105, 0.0
106, 0.0
107, 0.0
108, 0.0
109, 0.0
110, 0.0
111, 0.0
112, 0.0
113, 0.0
114, 0.0
115, 0.0
116, 0.0
117, 0.0
118, 0.0
119, 0.0
120, 0.0
121, 0.0
122, 0.0
123, 0.0
124, 0.0
125, 0.0
126, 0.0
127, 0.0
128, 0.0
129, 0.0
130, 0.0
131, 0.0
132, 0.0
133, 0.0
134, 0.0
135, 0.0
136, 0.0
137, 0.0
138, 0.0
139, 0.0
140, 0.0
141, 0.0
142, 0.0
143, 0.0
144, 0.0
145, 0.0
146, 0.0
147, 0.0
148, 0.0
149, 0.0
150, 0.0
151.0, 0.00045640271698974683
152.0, 0.0023256940496719438
153.0, 0.0015926493698550787
154.0, 0.0025414678147978494
155.0, 0.002854098659828049
156.0, 0.0016520051825543384
157.0, 0.0004336514903199045
158.0, 0.0005683678074033676
159.0, 0.0019065064763760364
160.0, 0.0034531150636537603
161.0, 0.00450615677790961
162.0, 0.0023067291700552273
163.0, 0.0027352271220377877
164.0, 0.004225938300054804
165.0, 0.004976618997774869
166.0, 0.004457991498226115
167.0, 0.006879366460574549
168.0, 0.006532132985023291
169.0, 0.005189979012306071
170.0, 0.004979052416960631
171.0, 0.004370863079545245
172.0, 0.007220584508443167
173.0, 0.007189741132830997
174.0, 0.005087787950243767
175.0, 0.005202818172041588
176.0, 0.004679232322977543
177.0, 0.007972107756666957
178.0, 0.008035243859524654
179.0, 0.005072746111212101
180.0, 0.007533806800924295
181.0, 0.004507158959128186
182.0, 0.003721724127188639
183.0, 0.005223959694817205
184.0, 0.005459534773357785
185.0, 0.005989221258949005
186.0, 0.008314718439532734
187.0, 0.008033761583076495
188.0, 0.004716091015373549
189.0, 0.003955258158100003
190.0, 0.008008379041600797
191.0, 0.007982015706151273
192.0, 0.0058097018811163244
193.0, 0.006907881089266037
194.0, 0.006086977030554675
195.0, 0.004903064843568778
196.0, 0.005484912439342306
197.0, 0.008069181902112374
198.0, 0.010046166697862846
199.0, 0.00908465246343794
200.0, 0.005198661875989285
201.0, 0.0059951056642103704
202.0, 0.010702186225007066
203.0, 0.007148867819664898
204.0, 0.0023982499305783824
205.0, 0.0037712599635698163
206.0, 0.007250037560317494
207.0, 0.007326044695538941
208.0, 0.00804734908540268
209.0, 0.007946871895086803
210.0, 0.006084705900309037
211.0, 0.004767022930059739
212.0, 0.008647841284109269
213.0, 0.006586987503529014
214.0, 0.006169754092286896
215.0, 0.006464595877801645
216.0, 0.004229949745331614
217.0, 0.004699387831419893
218.0, 0.004633191837125699
219.0, 0.004170706438817761
220.0, 0.0038864323793047556
221.0, 0.0038312042920089534
222.0, 0.002256066328791185
223.0, 0.0026230684873244704
224.0, 0.004038336007879715
225.0, 0.004448610688707728
226.0, 0.004285264855749681
227.0, 0.005115571134891668
228.0, 0.004620527827213293
229.0, 0.00437724278080283
230.0, 0.005098046806647453
231.0, 0.002977499330528465
232.0, 0.002363662167908432
233.0, 0.0032116232463691883
234.0, 0.00346601176331762
235.0, 0.0023899653752171156
236.0, 0.003873140425061684
237.0, 0.004137066645105332
238.0, 0.0030449277901320447
239.0, 0.002201261163239563
240.0, 0.0033979228128445636
241.0, 0.003991787227958009
242.0, 0.003612880390459377
243.0, 0.003108955932127468
244.0, 0.003312385967899086
245.0, 0.004166193784797289
246.0, 0.0005752170033825465
247.0, 0.001886820530073633
248.0, 0.006755135399799475
249.0, 0.00462624275017625
250.0, 0.002868351115249798
251.0, 0.004076977545683809
252.0, 0.003704419720788535
253.0, 0.0024632183707942964
254.0, 0.0038913587487084443
255.0, 0.0023506330808330676
256.0, 0.0033186991428428465
257.0, 0.00532415950822878
258.0, 0.005232030824332707
259.0, 0.0027209524414088825
260.0, 0.002729068652988664
261.0, 0.004297004024880789
262.0, 0.004895041746412215
263.0, 0.0035234352801691714
264.0, 0.0013150310067316158
265.0, 0.0023198382499660104
266.0, 0.003950318393600189
267.0, 0.005121869964530925
268.0, 0.005336348274059138
269.0, 0.0017571035774365945
270.0, 0.003065842374850962
271.0, 0.004373900363815412
272.0, 0.0035756843566618823
273.0, 0.0015902511830242767
274.0, 0.0005805938525511938
275.0, 0.000433879307834526
276.0, 0.0018594090719427545
277.0, 0.00355605342261541
278.0, 0.00036385441003406745
279.0, 0.0013211720427553377
280.0, 0.0031349041387069678
281.0, 0.003286293645382503
282.0, 0.0019504298586890704
283.0, 0.0008020148788379087
284.0, 0.004083485026059396
285.0, 0.0039689042277828235
286.0, 0.0022638518456090015
287.0, 0.0021269609393754284
288.0, 0.004104455455609883
289.0, 0.003957107891049384
290.0, 0.004055672349085205
291.0, 0.003915715449647112
292.0, 0.0024320699361720906
293.0, 0.0017298485009222403
294.0, 0.0024817877967513733
295.0, 0.003378007275469796
296.0, 0.002894762765937888
297.0, 0.001724123152860846
298.0, 0.0017803629867420951
299.0, 0.001896153122877614
300.0, 0.0027049319609226117
301.0, 0.004195111833132966
302.0, 0.00520830915569799
303.0, 0.004093832321574043
304.0, 0.0006726929664918618
305.0, 0.0007137640450696972
306.0, 0.0013502598309447138
307.0, 0.0010755914098645367
308.0, 0.004427433866101219
309.0, 0.003172278062394832
310.0, 0.00242791939921769
311.0, 0.0027064279744222043
312.0, 0.0027706800616936465
313.0, 0.001778661802290209
314.0, 0.0004434116540446237
315.0, 0.0005007460893834388
316.0, 0.00040251928778360657
317.0, 0.0007142136322302911
318.0, 0.0038602725229193676
319.0, 0.0022779601357994193
320.0, 0.0025598638383397803
321.0, 0.002241454391638278
322.0, 0.00011556910578123073
323.0, 0.0022161997239502984
324.0, 0.0006872452619166217
325.0, 0.0019249969450936902
326.0, 0.0015965352451996677
327.0, 0.0016713338312915012
328.0, 0.000272721157482716
329.0, 0.0034346557876236677
330.0, 0.005064063883168512
331.0, 0.0030902870313141892
332.0, 0.00042416226916330873
333.0, 0.0004899721387560947
334.0, 0.0012295481163625255
335.0, 0.001080688387581478
336.0, 0.0006260557261314988
337.0, 0.0026133079330850823
338.0, 0.006302064821787268
339.0, 0.004557620741221726
340.0, 0.005825152392000662
341.0, 0.005730673392714153
342.0, 0.003606871686356273
343.0, 0.0032276322592403165
344.0, 0.0026053496133901038
345.0, 0.002753304115405913
346.0, 0.003742830566037909
347.0, 0.001992596093827787
348.0, 0.003307670411691335
349.0, 0.00235966583593306
350.0, 0.004153164559481469
351.0, 0.0025112647409527207
352.0, 0.0029456542291943152
353.0, 0.0069444948791805555
354.0, 0.003492887061430858
355.0, 0.0031958467019893265
356.0, 0.0041160887237979985
357.0, 0.0034877434237711056
358.0, 0.0017343045755774846
359.0, 0.002013247490980642
360.0, 0.0033592942088348206
361.0, 0.0017310668081344223
362.0, 0.0009253749857897589
363.0, 0.0028818225783988926
364.0, 0.001619223778165996
365.0, 0.004117884534225904
366.0, 0.0034072585440178237
367.0, 0.0023621554171257826
368.0, 0.003836965440173288
369.0, 0.004513473925899472
370.0, 0.001521555965290081
371.0, 0.0008636978118289357
372.0, 0.002261784073114954
373.0, 0.003258065945096646
374.0, 0.0024651673553605204
375.0, 0.0004643099990860518
376.0, 0.0014660002639881684
377.0, 0.002419021893759404
378.0, 0.0014230835663328748
379.0, 0.0012040288234478713
380.0, 0.0038036745482170936
381.0, 0.003616116128521431
382.0, 0.0016392621660849197
383.0, 0.0019684007436281763
384.0, 0.005624983079053318
385.0, 0.005113294805925246
386.0, 0.002113162668710626
387.0, 0.0010076243089384557
388.0, 0.0009236695016463296
389.0, 0.00021639109926339587
390.0, 0.0004117652665737803
391.0, 0.000129998025515335
392.0, 0.0027156984192521472
393.0, 0.0012833500493910177
394.0, 0.0008649546040452803
395.0, 0.003593480531758574
396.0, 0.0018347849893977166
397.0, 0.0008984062061647136
398.0, 0.0002922512738820952
399.0, 0.0014852492973744258
400.0, 0.004522614956597487
401.0, 0.0028785899728079422
402.0, 0.002148819068066525
403.0, 0.0024822535716287506
404.0, 0.003891790254765753
405.0, 0.004663447408373411
406.0, 0.003124988359897051
407.0, 0.0030377119604256654
408.0, 0.0041369962703316
409.0, 0.0027985503173432466
410.0, 0.0005211571139337369
411.0, 0.0005309798336453868
412.0, 0.0030892947413119383
413.0, 0.004097469517791105
414.0, 0.0036457187663484496
415.0, 0.004305491997375684
416.0, 0.0054604113717961825
417.0, 0.0041481665507869
418.0, 0.0009025941511286398
419.0, 0.003165264328055272
420.0, 0.0052094105096312255
421.0, 0.004587092609381524
422.0, 0.003526098552932928
423.0, 0.005140693209505744
424.0, 0.007623806118440727
425.0, 0.007511852864436013
426.0, 0.006305461778683369
427.0, 0.007099342289436453
428.0, 0.010912171855963458
429.0, 0.008980909617058035
430.0, 0.007112578483883718
431.0, 0.012118519219176758
432.0, 0.017804391480258704
433.0, 0.0160336237805977
434.0, 0.013145994635502083
435.0, 0.018595502113910846
436.0, 0.021124330003087083
437.0, 0.02303291802166972
438.0, 0.027664387443781746
439.0, 0.03246017195393792
440.0, 0.032776610192759494
441.0, 0.03574915566774482
442.0, 0.04189939994581851
443.0, 0.046843031239050544
444.0, 0.049661688537398614
445.0, 0.05876216644828636
446.0, 0.06119671260043443
447.0, 0.07002673432516575
448.0, 0.07732942322429555
449.0, 0.07728209745980974
450.0, 0.0747072647743816
451.0, 0.07671339529056949
452.0, 0.06889853677148088
453.0, 0.060603921713139566
454.0, 0.05472244158472589
455.0, 0.0499557338592207
456.0, 0.04605233996289689
457.0, 0.041167910568990544
458.0, 0.039331172026810794
459.0, 0.034767971841296576
460.0, 0.029280383961627878
461.0, 0.0280110925405117
462.0, 0.027999880118501505
463.0, 0.028910875878187012
464.0, 0.026969764771789966
465.0, 0.026310211390907112
466.0, 0.02510221891322116
467.0, 0.020353507666040337
468.0, 0.025182407202061673
469.0, 0.022369852301773966
470.0, 0.016525301460299312
471.0, 0.014612332351710064
472.0, 0.015246767657774975
473.0, 0.008897257414125075
474.0, 0.008488056390163161
475.0, 0.005939902348892599
476.0, 0.006940552157366783
477.0, 0.008005153980593958
478.0, 0.005317586771559186
479.0, 0.005637727166034546
480.0, 0.0061351737547895744
481.0, 0.004263255156068249
482.0, 0.004745325414654426
483.0, 0.006225415944797959
484.0, 0.005846238229566899
485.0, 0.008480977412284442
486.0, 0.005476137790649287
487.0, 0.0022076229919337814
488.0, 0.000741614209427924
489.0, 0.001402381343029827
490.0, 0.0044604630571419435
491.0, 0.003387456116212709
492.0, 0.0043182025327490195
493.0, 0.004350445523256807
494.0, 0.002772754929143155
495.0, 0.001067763410275104
496.0, 0.0008465061010889804
497.0, 0.004234549202705275
498.0, 0.004789222147032233
499.0, 0.002438623942595929
500.0, 0.0013695250613752945
501.0, 0.0017421767689584156
502.0, 0.0009666193243759954
503.0, 0.0007214032406165493
504.0, 0.0019331210518301566
505.0, 0.002682318169844761
506.0, 0.0022280664854971684
507.0, 0.0017724501675565442
508.0, 0.001199036536794756
509.0, 0.0018140102217611702
510.0, 0.0045469390396949035
511.0, 0.004265567602906018
512.0, 0.0019378341831831265
513.0, 0.002218365846461497
514.0, 0.007228918902310538
515.0, 0.0014213052695349862
516.0, 0.0011471934658369763
517.0, 0.0006285939561383317
518.0, 0.0010032719983274936
519.0, 0.0006021713800898325
520.0, 0.0021646142259356765
521.0, 0.0005190447737024717
522.0, 0.0011650835071770425
523.0, 0.0019613639934102215
524.0, 0.002696471900154007
525.0, 0.0037507577481975755
526.0, 0.0025163014176456714
527.0, 0.002321564119139913
528.0, 0.001793903415891811
529.0, 0.0010013009027342622
530.0, 0.003040768116633343
531.0, 0.004506912192329138
532.0, 0.0007505210134356427
533.0, 0.001055339857491648
534.0, 0.004062261673472449
535.0, 0.003031874790449253
536.0, 0.0020557343176600866
537.0, 0.0020937374146269895
538.0, 0.00021624915670172967
539.0, 0.0007746102022381418
540.0, 0.0022714451175492828
541.0, 0.003613090806786248
542.0, 0.0035162140916508624
543.0, 0.0024693616352082903
544.0, 0.002282346248102837
545.0, 0.003977883523426399
546.0, 0.007063618089352412
547.0, 0.004546498062736259
548.0, 0.0023492362547724594
549.0, 0.001995497226118497
550.0, 0.001527359463485467
551.0, 0.0021736854431838727
552.0, 0.0019239538565213258
553.0, 0.0031067532554009277
554.0, 0.002857585885764083
555.0, 0.0006706185323592677
556.0, 0.0008524931528720028
557.0, 0.003636524344979097
558.0, 0.002392669985960853
559.0, 0.0004922870847908772
560.0, 0.002290420874977798
561.0, 0.004534986069179237
562.0, 0.0026645964184239886
563.0, 0.0013622935720995072
564.0, 0.0007085798430532886
565.0, 0.005118902335679649
566.0, 0.000521347619383761
567.0, 0.0003273058755620187
568.0, 0.004406217045918615
569.0, 0.002859753660299448
570.0, 0.0024055235063508134
571.0, 0.0002486947768113518
572.0, 0.001557578432912824
573.0, 0.002845772324180394
574.0, 0.0020540158189304965
575.0, 0.0006206390817973004
576.0, 0.0010519643460622924
577.0, 0.000991945003626797
578.0, 0.003825093511619951
579.0, 0.002558804362864375
580.0, 0.0007330636584710968
581.0, 0.0019259634366131405
582.0, 0.0042592598533494055
583.0, 0.0029763427368137427
584.0, 0.0010890290449337662
585.0, 0.0007477409206363893
586.0, 0.001194736447533912
587.0, 0.0030551844728152473
588.0, 0.0054317986943397435
589.0, 0.0032960677530834313
590.0, 0.00150473502077805
591.0, 0.0007808338247547712
592.0, 0.0027125608635594706
593.0, 0.004720788789833183
594.0, 0.003984918231033828
595.0, 0.0009227994131044025
596.0, 0.0015939442236313137
597.0, 0.002018913785889146
598.0, 0.0016114547422665497
599.0, 0.0022340230461882432
600.0, 0.002286749870790328
601.0, 0.002195580085314401
602.0, 0.006924688349741761
603.0, 0.006947512522862402
604.0, 0.006542800928271826
605.0, 0.008321358689473686
606.0, 0.008046376214609139
607.0, 0.006444308991307715
608.0, 0.00871245350579976
609.0, 0.010809485024218482
610.0, 0.013398699318868869
611.0, 0.019056326094974863
612.0, 0.02204653968861738
613.0, 0.023221263378597826
614.0, 0.02530019175517807
615.0, 0.02858514497748868
616.0, 0.0369545594969622
617.0, 0.043755309911142945
618.0, 0.04884107729527783
619.0, 0.055724087892308094
620.0, 0.06126243663806766
621.0, 0.06103638691011542
622.0, 0.05762005461596072
623.0, 0.05227790788169119
624.0, 0.047060382198128366
625.0, 0.043431451108469056
626.0, 0.042552208260462285
627.0, 0.04514736803215642
628.0, 0.05007984981411984
629.0, 0.05374999938143466
630.0, 0.059111814320493256
631.0, 0.06333642684398584
632.0, 0.06651762087926644
633.0, 0.06642678556918812
634.0, 0.06137468933851951
635.0, 0.054875987171561516
636.0, 0.053244993062969
637.0, 0.04418471975748261
638.0, 0.03781536268691622
639.0, 0.03680647318729314
640.0, 0.038659897206607216
641.0, 0.04316510394544322
642.0, 0.050016232484694896
643.0, 0.05056245835599375
644.0, 0.05979827598014523
645.0, 0.06572047457450193
646.0, 0.06687548940439166
647.0, 0.06740542360212678
648.0, 0.06768529409365777
649.0, 0.06157065082951849
650.0, 0.04651888852185093
651.0, 0.03695358210636507
652.0, 0.030230842950943672
653.0, 0.021028346007969063
654.0, 0.012426493156296037
655.0, 0.009117755846545185
656.0, 0.008687404969280707
657.0, 0.0047816821701612815
658.0, 0.0050410871170914195
659.0, 0.007137317934547881
660.0, 0.004690548914150872
661.0, 0.0007972552749677859
662.0, 0.0017801876753670899
663.0, 0.004434725297589332
664.0, 0.001672242575581172
665.0, 0.0018994477060220514
666.0, 0.0038297146658085486
667.0, 0.003274479455156398
668.0, 0.0016780298640870308
669.0, 0.00044178705558476765
670.0, 0.0019188423588343017
671.0, 0.002591209832260176
672.0, 0.001164699177819499
673.0, 0.00026592412843954325
674.0, 0.0005981911952993927
675.0, 0.0005335047097049492
676.0, 0.000663103254753709
677.0, 0.0031914722922171588
678.0, 0.0029204988254351518
679.0, 0.0022740955347720906
680.0, 0.003462947447660822
681.0, 0.001174525374638666
682.0, 0.0005041435391707211
683.0, 0.0023583793955911456
684.0, 0.0035907344985131283
685.0, 0.0030140756289300627
686.0, 0.0018943311275457905
687.0, 0.000702706293877301
688.0, 0.0009057696476533681
689.0, 0.0005239959398136697
690.0, 0.002312292808352435
691.0, 0.0015483229923563503
692.0, 0.0022930659616293638
693.0, 0.0006509598875227441
694.0, 0.0003969258458319382
695.0, 0.0019368018727455264
696.0, 0.0015302832357043542
697.0, 0.0028990655148478477
698.0, 0.004510269086347378
699.0, 0.0018847294354207194
700.0, 0.0046757860749331095
701.0, 0.003948203222946901
702.0, 0.0008829923337507722
703.0, 0.001978222081794298
704.0, 0.0035400182482632383
705.0, 0.0025404091596431502
706.0, 0.0011700388296276305
707.0, 0.001079480208283435
708.0, 0.0025591587384482233
709.0, 0.0017959697669198231
710.0, 0.002163462393487311
711.0, 0.0020212722844634694
712.0, 0.0004064722780849345
713.0, 0.00030988949586630737
714.0, 0.004787148953613987
715.0, 0.0005723821838579998
716.0, 0.002152732886940552
717.0, 0.004351949255247201
718.0, 0.005257402191398957
719.0, 0.004444000443853372
720.0, 0.003981901496181161
721.0, 0.0046902345734497934
722.0, 0.0031693978283122756
723.0, 0.0014165450006099047
724.0, 0.0013677537238168957
725.0, 0.0019357037559255886
726.0, 0.0002958542482082141
727.0, 0.001148628856627226
728.0, 0.0029473041420024176
729.0, 0.002056370333329343
730.0, 0.004427847950142673
731.0, 0.004132285889244745
732.0, 0.0024107319886474605
733.0, 0.0019750339576362747
734.0, 0.0027424601018739754
735.0, 0.004822845129428863
736.0, 0.004730064176420546
737.0, 0.0013235374556688437
738.0, 0.0052585978011372905
739.0, 0.004994754450956221
740.0, 0.0024100620599811617
741.0, 0.002857807943732443
742.0, 0.0030441941280759267
743.0, 0.0014102084843704526
744.0, 0.0007180204555765194
745.0, 0.0025620261206412997
746.0, 0.0029122580853476365
747.0, 0.0019108024015595157
748.0, 0.0036334535909546338
749.0, 0.0033604468940163974
750.0, 0.0014182778372731778
751.0, 0.0008145648536908319
752.0, 0.0012660933125819079
753.0, 0.001482832482786174
754.0, 0.002746713805844814
755.0, 0.003164682387939684
756.0, 0.0029012155839993423
757.0, 0.0026873997475688246
758.0, 0.004097446551590437
759.0, 0.005151398462120253
760.0, 0.004412104290784521
761.0, 0.004075643796577749
762.0, 0.0020346780794086323
763.0, 0.002491041142334393
764.0, 0.0009433074994200809
765.0, 0.0018645491275623154
766.0, 0.004609075881991015
767.0, 0.004327518589523344
768.0, 0.0018592863579471159
769.0, 0.0029583151321814455
770.0, 0.004644027948304619
771.0, 0.004718614248410003
772.0, 0.004205023484914417
773.0, 0.0009544602731429049
774.0, 0.0014755794968013523
775.0, 0.003509023488015267
776.0, 0.0038011789149474968
777.0, 0.004388078823008085
778.0, 0.0033051754519730766
779.0, 0.0016438885294078687
780.0, 0.002326555351577949
781.0, 0.0037794378309087165
782.0, 0.0015092125080361006
783.0, 0.003043293300610302
784.0, 0.004504972459971109
785.0, 0.0012802407071976143
786.0, 0.004314210888999028
787.0, 0.0007271312391599956
788.0, 0.00019716734223719523
789.0, 0.00041496551951269675
790.0, 0.0008088368173050252
791.0, 0.0008910390510533849
792.0, 0.0008269185685709934
793.0, 0.0018800428793917935
794.0, 0.0045577373665947295
795.0, 0.007067116682996239
796.0, 0.00744807824666148
797.0, 0.006403290349960321
798.0, 0.004315282409710225
799.0, 0.004078941229889727
800.0, 0.0046330625635783535
801.0, 0.005796298831469127
802.0, 0.006350765341142757
803.0, 0.0031873232953364325
804.0, 0.0038222524296926312
805.0, 0.005438251501592805
806.0, 0.001646142573119503
807.0, 0.00034699757149538605
808.0, 0.0013576621899428183
809.0, 0.0024455473048716173
810.0, 0.0026365742450420557
811.0, 0.005067837964335521
812.0, 0.002843820024888778
813.0, 0.0022593115858947845
814.0, 0.004676420896877716
815.0, 0.00461860369534508
816.0, 0.004200612066106882
817.0, 0.0035396912213545135
818.0, 0.0025289599148073795
819.0, 0.00297390584920966
820.0, 0.003236381070744766
821.0, 0.0011920444775634104
822.0, 0.0009296398087881291
823.0, 0.0015434258240342622
824.0, 0.002641802105015626
825.0, 0.0025178169066731376
826.0, 0.002010024016706092
827.0, 0.001820728490921358
828.0, 0.0018417171192400801
829.0, 0.003413883855615961
830.0, 0.0037909158268068
831.0, 0.0016266241067689393
832.0, 0.004290350521853802
833.0, 0.0030100082484478563
834.0, 0.00044065428490950827
835.0, 0.0001535944779275014
836.0, 0.003063817263243052
837.0, 0.0048230980741475055
838.0, 0.003874576426268666
839.0, 0.006261811900335884
840.0, 0.005715671141393392
841.0, 0.0035101146073895978
842.0, 0.004739598263743186
843.0, 0.0032305934981743316
844.0, 0.003642139644602138
845.0, 0.0060390433367024906
846.0, 0.004942881036992536
847.0, 0.003580710971181202
848.0, 0.005165751890562734
849.0, 0.006899106653235855
850.0, 0.005055112584137099
851.0, 0.0043514207790513034
852.0, 0.0057041612330652434
853.0, 0.0051400064346988645
854.0, 0.0030021467992021244
855.0, 0.0009146891137845995
856.0, 0.0010131468459659396
857.0, 0.004108835192515438
858.0, 0.003486660541094132
859.0, 0.0047267162706875684
860.0, 0.0023649486960454513
861.0, 0.0018281082385274892
862.0, 0.0008633253193660391
863.0, 0.0011611684742437638
864.0, 0.0025660271961338555
865.0, 0.0023248614415530182
866.0, 0.0017978589759840785
867.0, 0.0030245373121910424
868.0, 0.002398207052425348
869.0, 0.0012031263464187749
870.0, 0.0027911703261619073
871.0, 0.0012708417757179374
872.0, 0.001725842633815941
873.0, 0.004977416056057045
874.0, 0.00437523034641858
875.0, 0.000815179944280178
876.0, 0.0017712929496825924
877.0, 0.000831830221767744
878.0, 0.0012285389220806722
879.0, 0.0013958408870227929
880.0, 0.0033087132352343524
881.0, 0.00367215815675557
882.0, 0.0024150686502164643
883.0, 0.001318546190975495
884.0, 0.0014734546559729423
885.0, 0.0011540939383239367
886.0, 0.0008792762846797455
887.0, 0.002510002248956524
888.0, 0.0036823358135779265
889.0, 0.0012008261976436743
890.0, 0.0008761338932723017
891.0, 0.0019501559798989494
892.0, 0.0022769963055595714
893.0, 0.0020822413395826084
894.0, 0.0006321079174511142
895.0, 0.0005198843029225905
896.0, 0.0015230752213583265
897.0, 0.0002717578809849936
898.0, 0.0009438043522741166
899.0, 0.0031026865762186734
900.0, 0.0018644395121207968
901.0, 0.003463971826294325
902.0, 0.00419052407910204
903.0, 0.0014788886749078616
904.0, 0.00011885228609171317
905.0, 0.001092711283859639
906.0, 0.00040889040584934477
907.0, 0.00168669502547707
908.0, 0.0043917098704260756
909.0, 0.002474528995031945
910.0, 0.0023526665796384
911.0, 0.0016709283885551823
912.0, 0.0020861805482768063
913.0, 0.0017003994383627621
914.0, 0.0005980155038301635
915.0, 0.0007747897952935317
916.0, 0.0005807501626920023
917.0, 0.0003046731790739954
918.0, 0.0023509139730950217
919.0, 0.0025185987186654994
920.0, 0.0012962584829589103
921.0, 0.0025738846437577054
922.0, 0.0007883494142294594
923.0, 0.0010562617219918645
924.0, 0.0008605666858491616
925.0, 0.0019966733404511742
926.0, 0.004722859100557937
927.0, 0.0021543935207577005
928.0, 0.002849981348906515
929.0, 0.00153657523546343
930.0, 0.0019127428589524622
931.0, 0.0035791500160713982
932.0, 0.003334344266520518
933.0, 0.0024341398987827844
934.0, 0.0006256777656801454
935.0, 0.0006847964968369416
936.0, 0.0010739261138337005
937.0, 0.0020563367297669766
938.0, 0.002420040378824742
939.0, 0.0034019440630654934
940.0, 0.0022713334988925787
941.0, 0.004695918714482026
942.0, 0.0017963941601023509
943.0, 6.089477204070662e-05
944.0, 0.0016999133859050297
945.0, 0.0011932962811583832
946.0, 0.001542864784358175
947.0, 0.003769033004868571
948.0, 0.003981189073991569
949.0, 0.0027883410519845275
950.0, 0.00026268036556240153
951.0, 0.0030482212810223385
952.0, 0.003064825843932482
953.0, 0.004590701249826439
954.0, 0.003359486642562852
955.0, 0.003616188373495784
956.0, 0.002396063811723038
957.0, 0.0009728556717217841
958.0, 0.0008684562440937145
959.0, 0.005886686992736822
960.0, 0.005149819171487245
961.0, 0.00224213896577643
962.0, 0.0019086867597888633
963.0, 0.006780098789685409
964.0, 0.003717105704197162
965.0, 0.0007978514258215019
966.0, 0.0022309428984388694
967.0, 0.008120834998964457
968.0, 0.00852972182458481
969.0, 0.00874754640415868
970.0, 0.007866631861409297
971.0, 0.006313058000870761
972.0, 0.010642443533629597
973.0, 0.01200980838252187
974.0, 0.014893933113137591
975.0, 0.017420255312898134
976.0, 0.021650850784240692
977.0, 0.024690043710479767
978.0, 0.023961628956340235
979.0, 0.028907511892053584
980.0, 0.036496436936336356
981.0, 0.05169987360264062
982.0, 0.08011291104864386
983.0, 0.12273106919252749
984.0, 0.1757673172754321
985.0, 0.22957912959472992
986.0, 0.28490535653842775
987.0, 0.3342323148567955
988.0, 0.40065904310764977
989.0, 0.4946617016985215
990.0, 0.6192237150285901
991.0, 0.7878809613482951
992.0, 0.9483394191506678
993.0, 0.9905520895997919
994.0, 0.8503333833080003
995.0, 0.6172731377585925
996.0, 0.42043442868539993
997.0, 0.2727675074978922
998.0, 0.16654873990203137
999.0, 0.10160800483043521
1000.0, 0.06697314141989388
1001.0, 0.0484374857500945
1002.0, 0.04065856020485436
1003.0, 0.03207039096779412
1004.0, 0.027986026644620892
1005.0, 0.02335716241900116
1006.0, 0.01851056685617699
1007.0, 0.01813959563466087
1008.0, 0.017336725159872442
1009.0, 0.012817404844410496
1010.0, 0.010078854216933322
1011.0, 0.008446933578405272
1012.0, 0.010326840938002351
1013.0, 0.005930469281099675
1014.0, 0.008526056303830893
1015.0, 0.005846248190482784
1016.0, 0.004338868883985346
1017.0, 0.004767456806286028
1018.0, 0.007377345779837968
1019.0, 0.007450612302471277
1020.0, 0.007040593858956439
1021.0, 0.007846498397681312
1022.0, 0.006605602561058669
1023.0, 0.005326374518442644
1024.0, 0.005992895610569462
1025.0, 0.005197509383804795
1026.0, 0.004745978869814944
1027.0, 0.004315043813597865
1028.0, 0.003673756174535046
1029.0, 0.004428975209951554
1030.0, 0.004390726733057189
1031.0, 0.0035791712306155084
1032.0, 0.0025218460963141757
1033.0, 0.0038725350100632353
1034.0, 0.004562967043663936
1035.0, 0.003235862553778691
1036.0, 0.0019349791276080403
1037.0, 0.000978249341104745
1038.0, 0.00419072184801134
1039.0, 0.0012628908170957457
1040.0, 0.0018474110841967277
1041.0, 0.0007908902427804045
1042.0, 0.0034276225533236004
1043.0, 0.0008520466098764181
1044.0, 0.0009071688804684787
1045.0, 0.002339580247366828
1046.0, 0.004984420284051141
1047.0, 0.0031652090416036567
1048.0, 0.0017738620459110527
1049.0, 0.003076251510860192
1050.0, 0.002538093759214707
1051.0, 0.00033913935470960107
1052.0, 6.4500762964037e-05
1053.0, 0.003290458808238518
1054.0, 0.002585098112379941
1055.0, 0.00047683290103898193
1056.0, 0.0005045716299715084
1057.0, 0.0017728992863026741
1058.0, 0.0007011236311713366
1059.0, 0.0014192180057587208
1060.0, 0.0008017389793940608
1061.0, 0.0005081832950236366
1062.0, 0.0005741811642477076
1063.0, 0.000500366504009864
1064.0, 0.001939518972720857
1065.0, 0.0038837186717811055
1066.0, 0.002824440214757774
1067.0, 0.001445652684147619
1068.0, 0.00031514440432004576
1069.0, 0.0022191450397514275
1070.0, 0.0016030547743960935
1071.0, 0.000283122149158308
1072.0, 0.0014253788654998102
1073.0, 0.002692964020665264
1074.0, 0.0016334399948696719
1075.0, 0.0031773138909936397
1076.0, 0.002722004526017233
1077.0, 0.0011020899065963441
1078.0, 0.001004765998846979
1079.0, 0.00200267977147398
1080.0, 0.003885990983238567
1081.0, 0.004310309102825087
1082.0, 0.0024298378084943685
1083.0, 0.004138377231330934
1084.0, 0.004612680384709326
1085.0, 0.0035963641423541687
1086.0, 0.005039068409102984
1087.0, 0.003840054879200938
1088.0, 0.007327589529187504
1089.0, 0.006118656570553676
1090.0, 0.007215308561837526
1091.0, 0.008374177179448309
1092.0, 0.01061819385470151
1093.0, 0.011995663846265894
1094.0, 0.016965228828651088
1095.0, 0.022514124164437693
1096.0, 0.0259262397164877
1097.0, 0.030558839626191193
1098.0, 0.03618478006687414
1099.0, 0.04164438884993897
1100.0, 0.04180200796822973
1101.0, 0.045600327786017344
1102.0, 0.04445397228452318
1103.0, 0.03576401214758521
1104.0, 0.03295334242299024
1105.0, 0.023667517986761047
1106.0, 0.018024457266689765
1107.0, 0.013498231052366607
1108.0, 0.011630239430492939
1109.0, 0.007213622460887967
1110.0, 0.004018630649473312
1111.0, 0.004142382794705014
1112.0, 0.0036035249111899415
1113.0, 0.0015610267312615776
1114.0, 0.000829176184898722
1115.0, 0.0026000819230809556
1116.0, 0.0052351809555713415
1117.0, 0.006466449284035134
1118.0, 0.005125427132600795
1119.0, 0.004845158208938403
1120.0, 0.0064668890891175605
1121.0, 0.006692546059068428
1122.0, 0.007930755882834976
1123.0, 0.011718485583731356
1124.0, 0.01786526585841881
1125.0, 0.023466045715222792
1126.0, 0.0250860666227184
1127.0, 0.03174325406463096
1128.0, 0.04445906589642488
1129.0, 0.052234472919844406
1130.0, 0.060762827713342744
1131.0, 0.0662073050724639
1132.0, 0.06463355809280816
1133.0, 0.05768330280579481
1134.0, 0.04600100617468493
1135.0, 0.03450882169889187
1136.0, 0.022111119626541362
1137.0, 0.015253658112218503
1138.0, 0.014225277149236399
1139.0, 0.012315409729857398
1140.0, 0.009788784207743114
1141.0, 0.00887550090576742
1142.0, 0.010220621274126948
1143.0, 0.012151074253774827
1144.0, 0.01818859923827652
1145.0, 0.021565375478681995
1146.0, 0.025044944739282194
1147.0, 0.02997298727275044
1148.0, 0.03849029761148429
1149.0, 0.04329043535909157
1150.0, 0.052549881209129755
1151.0, 0.06401911286863134
1152.0, 0.06732154792786613
1153.0, 0.06369316370837817
1154.0, 0.05417574195542084
1155.0, 0.04052042314074748
1156.0, 0.02918365559269699
1157.0, 0.021278167027903208
1158.0, 0.011977368669065442
1159.0, 0.007009256386924774
1160.0, 0.00482044247002011
1161.0, 0.003498855853429021
1162.0, 0.003049955864877653
1163.0, 0.0018983588662460466
1164.0, 0.002491598673226591
1165.0, 0.0023942102015283924
1166.0, 0.002829336015149151
1167.0, 0.003407007871465704
1168.0, 0.001285636506413968
1169.0, 0.0036352589452553212
1170.0, 0.002467152800373501
1171.0, 0.0015032567834865073
1172.0, 0.001056863031224544
1173.0, 0.0012114002187480761
1174.0, 0.00252683810110874
1175.0, 0.0019343455932499982
1176.0, 0.000666397385195648
1177.0, 0.000923755133628316
1178.0, 0.000545310113417793
1179.0, 0.0011099422128884322
1180.0, 0.0015588985213261402
1181.0, 0.002004782243485224
1182.0, 0.0015771236446225963
1183.0, 0.0005067691917562912
1184.0, 0.000834177491508529
1185.0, 0.00048633057789329787
1186.0, 8.337752193276953e-05
1187.0, 0.0009942744772157663
1188.0, 0.0004974316738597772
1189.0, 0.0004956422476203071
1190.0, 0.001933505939524819
1191.0, 0.0007931100213975553
1192.0, 0.0013245100907800398
1193.0, 0.00045904135580488174
1194.0, 0.00030346230419246104
1195.0, 0.0013460074630430466
1196.0, 0.0013395869490615204
1197.0, 0.00015351733673143575
1198.0, 0.0005490262100265111
1199.0, 0.00137881769323307
1200.0, 0.002539675773735037
1201.0, 0.0035755835896099032
1202.0, 0.0031126346903234134
1203.0, 0.003926430342427236
1204.0, 0.004242896083692984
1205.0, 0.0009988355574382934
1206.0, 0.0011043705427499254
1207.0, 0.004532342498506153
1208.0, 0.0028356290413252753
1209.0, 0.0019791719943529963
1210.0, 0.003074284947858325
1211.0, 0.0019147168415895926
1212.0, 0.0021765933812945594
1213.0, 0.0032136478566452335
1214.0, 0.0021966222106644547
1215.0, 0.0031024228324019114
1216.0, 0.006408016864382967
1217.0, 0.005604479289436337
1218.0, 0.005461650739098044
1219.0, 0.003950632472660349
1220.0, 0.0030409482751915396
1221.0, 0.0032672291784447095
1222.0, 0.004712261261679698
1223.0, 0.004161909840063475
1224.0, 0.003073102821379993
1225.0, 0.00385123203081284
1226.0, 0.0013521182024860562
1227.0, 0.0006675991002001419
1228.0, 0.0010088248304040322
1229.0, 0.0022478370358985245
1230.0, 0.0030405058573583703
1231.0, 0.0006113320553855953
1232.0, 0.0032843184201998034
1233.0, 0.00496762714585914
1234.0, 0.0014057899488924247
1235.0, 0.0006958084434312494
1236.0, 0.0018252258301635436
1237, 0.0
1238, 0.0
1239, 0.0
1240, 0.0
1241, 0.0
1242, 0.0
1243, 0.0
1244, 0.0
1245, 0.0
1246, 0.0
1247, 0.0
1248, 0.0
1249, 0.0
1250, 0.0
1251, 0.0
1252, 0.0
1253, 0.0
1254, 0.0
1255, 0.0
1256, 0.0
1257, 0.0
1258, 0.0
1259, 0.0
1260, 0.0
1261, 0.0
1262, 0.0
1263, 0.0
1264, 0.0
1265, 0.0
1266, 0.0
1267, 0.0
1268, 0.0
1269, 0.0
1270, 0.0
1271, 0.0
1272, 0.0
1273, 0.0
1274, 0.0
1275, 0.0
1276, 0.0
1277, 0.0
1278, 0.0
1279, 0.0
1280, 0.0
1281, 0.0
1282, 0.0
1283, 0.0
1284, 0.0
1285, 0.0
1286, 0.0
1287, 0.0
1288, 0.0
1289, 0.0
1290, 0.0
1291, 0.0
1292, 0.0
1293, 0.0
1294, 0.0
1295, 0.0
1296, 0.0
1297, 0.0
1298, 0.0
1299, 0.0
1300, 0.0
1301, 0.0
1302, 0.0
1303, 0.0
1304, 0.0
1305, 0.0
1306, 0.0
1307, 0.0
1308, 0.0
1309, 0.0
1310, 0.0
1311, 0.0
1312, 0.0
1313, 0.0
1314, 0.0
1315, 0.0
1316, 0.0
1317, 0.0
1318, 0.0
1319, 0.0
1320, 0.0
1321, 0.0
1322, 0.0
1323, 0.0
1324, 0.0
1325, 0.0
1326, 0.0
1327, 0.0
1328, 0.0
1329, 0.0
1330, 0.0
1331, 0.0
1332, 0.0
1333, 0.0
1334, 0.0
1335, 0.0
1336, 0.0
1337, 0.0
1338, 0.0
1339, 0.0
1340, 0.0
1341, 0.0
1342, 0.0
1343, 0.0
1344, 0.0
1345, 0.0
1346, 0.0
1347, 0.0
1348, 0.0
1349, 0.0
1350, 0.0
1351, 0.0
1352, 0.0
1353, 0.0
1354, 0.0
1355, 0.0
1356, 0.0
1357, 0.0
1358, 0.0
1359, 0.0
1360, 0.0
1361, 0.0
1362, 0.0
1363, 0.0
1364, 0.0
1365, 0.0
1366, 0.0
1367, 0.0
1368, 0.0
1369, 0.0
1370, 0.0
1371, 0.0
1372, 0.0
1373, 0.0
1374, 0.0
1375, 0.0
1376, 0.0
1377, 0.0
1378, 0.0
1379, 0.0
1380, 0.0
1381, 0.0
1382, 0.0
1383, 0.0
1384, 0.0
1385, 0.0
1386, 0.0
1387, 0.0
1388, 0.0
1389, 0.0
1390, 0.0
1391, 0.0
1392, 0.0
1393, 0.0
1394, 0.0
1395, 0.0
1396, 0.0
1397, 0.0
1398, 0.0
1399, 0.0
1400, 0.0
1401, 0.0
1402, 0.0
1403, 0.0
1404, 0.0
1405, 0.0
1406, 0.0
1407, 0.0
1408, 0.0
1409, 0.0
1410, 0.0
1411, 0.0
1412, 0.0
1413, 0.0
1414, 0.0
1415, 0.0
1416, 0.0
1417, 0.0
1418, 0.0
1419, 0.0
1420, 0.0
1421, 0.0
1422, 0.0
1423, 0.0
1424, 0.0
1425, 0.0
1426, 0.0
1427, 0.0
1428, 0.0
1429, 0.0
1430, 0.0
1431, 0.0
1432, 0.0
1433, 0.0
1434, 0.0
1435, 0.0
1436, 0.0
1437, 0.0
1438, 0.0
1439, 0.0
1440, 0.0
1441, 0.0
1442, 0.0
1443, 0.0
1444, 0.0
1445, 0.0
1446, 0.0
1447, 0.0
1448, 0.0
1449, 0.0
1450, 0.0
1451, 0.0
1452, 0.0
1453, 0.0
1454, 0.0
1455, 0.0
1456, 0.0
1457, 0.0
1458, 0.0
1459, 0.0
1460, 0.0
1461, 0.0
1462, 0.0
1463, 0.0
1464, 0.0
1465, 0.0
1466, 0.0
1467, 0.0
1468, 0.0
1469, 0.0
1470, 0.0
1471, 0.0
1472, 0.0
1473, 0.0
1474, 0.0
1475, 0.0
1476, 0.0
1477, 0.0
1478, 0.0
1479, 0.0
1480, 0.0
1481, 0.0
1482, 0.0
1483, 0.0
1484, 0.0
1485, 0.0
1486, 0.0
1487, 0.0
1488, 0.0
1489, 0.0
1490, 0.0
1491, 0.0
1492, 0.0
1493, 0.0
1494, 0.0
1495, 0.0
1496, 0.0
1497, 0.0
1498, 0.0
1499, 0.0
1500, 0.0
1501, 0.0
1502, 0.0
1503, 0.0
1504, 0.0
1505, 0.0
1506, 0.0
1507, 0.0
1508, 0.0
1509, 0.0
1510, 0.0
1511, 0.0
1512, 0.0
1513, 0.0
1514, 0.0
1515, 0.0
1516, 0.0
1517, 0.0
1518, 0.0
1519, 0.0
1520, 0.0
1521, 0.0
1522, 0.0
1523, 0.0
1524, 0.0
1525, 0.0
1526, 0.0
1527, 0.0
1528, 0.0
1529, 0.0
1530, 0.0
1531, 0.0
1532, 0.0
1533, 0.0
1534, 0.0
1535, 0.0
1536, 0.0
1537, 0.0
1538, 0.0
1539, 0.0
1540, 0.0
1541, 0.0
1542, 0.0
1543, 0.0
1544, 0.0
1545, 0.0
1546, 0.0
1547, 0.0
1548, 0.0
1549, 0.0
1550, 0.0
1551, 0.0
1552, 0.0
1553, 0.0
1554, 0.0
1555, 0.0
1556, 0.0
1557, 0.0
1558, 0.0
1559, 0.0
1560, 0.0
1561, 0.0
1562, 0.0
1563, 0.0
1564, 0.0
1565, 0.0
1566, 0.0
1567, 0.0
1568, 0.0
1569, 0.0
1570, 0.0
1571, 0.0
1572, 0.0
1573, 0.0
1574, 0.0
1575, 0.0
1576, 0.0
1577, 0.0
1578, 0.0
1579, 0.0
1580, 0.0
1581, 0.0
1582, 0.0
1583, 0.0
1584, 0.0
1585, 0.0
1586, 0.0
1587, 0.0
1588, 0.0
1589, 0.0
1590, 0.0
1591, 0.0
1592, 0.0
1593, 0.0
1594, 0.0
1595, 0.0
1596, 0.0
1597, 0.0
1598, 0.0
1599, 0.0
