30, 0.0
31, 0.0
32, 0.0
33, 0.0
34, 0.0
35, 0.0
36, 0.0
37, 0.0
38, 0.0
39, 0.0
40, 0.0
41, 0.0
42, 0.0
43, 0.0
44, 0.0
45, 0.0
46, 0.0
47, 0.0
48, 0.0
49, 0.0
50, 0.0
51, 0.0
52, 0.0
53, 0.0
54.0, 4.001885690232691e-05
55.0, 0.00048467282248371965
56.0, 0.001202764422335684
57.0, 0.001773665027427947
58.0, 0.002213059038855883
59.0, 0.0027072345356546185
60.0, 0.0036382962148645576
61.0, 0.003863025558865639
62.0, 0.00313852793017894
63.0, 0.0022922593902230228
64.0, 0.001794521793235833
65.0, 0.0008423240702765672
66.0, 0.00036741105371028936
67.0, 0.000482440476805364
68.0, 0.0004388748102164432
69.0, 0.00017850821720858854
70.0, 0.0006488492077443063
71.0, 0.0003466409017939182
72.0, 0.0006238323516413451
73.0, 0.0008217350186901998
74.0, 0.0006719710325733541
75.0, 0.00036027889380578655
76.0, 0.0020738812934487775
77.0, 0.003175668329578881
78.0, 0.0047353606983010265
79.0, 0.00671434488756432
80.0, 0.008844119116744521
81.0, 0.012581495000723888
82.0, 0.017355438243551395
83.0, 0.02270180367066738
84.0, 0.02660443586944137
85.0, 0.028351650899036185
86.0, 0.032118315116539016
87.0, 0.03689768090509425
88.0, 0.039992060222020585
89.0, 0.04255460620816739
90.0, 0.04539514480604232
91.0, 0.048160662936075176
92.0, 0.04805544413980765
93.0, 0.04652412172990503
94.0, 0.044701748814578626
95.0, 0.042174514388282736
96.0, 0.03751364721979179
97.0, 0.032877359555668034
98.0, 0.030521879037246354
99.0, 0.027964393886174603
100.0, 0.025402142074454685
101.0, 0.023681089404733242
102.0, 0.02132284944140225
103.0, 0.019184382899898496
104.0, 0.018239720532775793
105.0, 0.018767059917513564
106.0, 0.02147659770551037
107.0, 0.02860138213136644
108.0, 0.0240489396738935
109.0, 0.02649891554792231
110.0, 0.023811029684797404
111.0, 0.0147880713406283
112.0, 0.012049314442594113
113.0, 0.011056409462055442
114.0, 0.01300407939109098
115.0, 0.015764962694204566
116.0, 0.017837553477764122
117.0, 0.018371998674265626
118.0, 0.018266371708429856
119.0, 0.015754507827370222
120.0, 0.014744245266073782
121.0, 0.015013068324508957
122.0, 0.015814954577106882
123.0, 0.01774090986300897
124.0, 0.01709332605212145
125.0, 0.016552751476793266
126.0, 0.016367464294386718
127.0, 0.017094595968148395
128.0, 0.019702770836395284
129.0, 0.020285119328731848
130.0, 0.023262458563799764
131.0, 0.0252829046603425
132.0, 0.027011388461211015
133.0, 0.03067528202579571
134.0, 0.03451418712627162
135.0, 0.037351517207066434
136.0, 0.03959266377141562
137.0, 0.04160540958295533
138.0, 0.043078347021656846
139.0, 0.04206168002980596
140.0, 0.04124526614460187
141.0, 0.0391515170053049
142.0, 0.03782811206895343
143.0, 0.038194874073964914
144.0, 0.03967824138916755
145.0, 0.039740050857583684
146.0, 0.04228479817484788
147.0, 0.045752393904542714
148.0, 0.04940583268006754
149.0, 0.053450744940659004
150.0, 0.06083780658080648
151.0, 0.0701370536243957
152.0, 0.0784719263111206
153.0, 0.08568730336200561
154.0, 0.09402639497156842
155.0, 0.10862514224402595
156.0, 0.11769662604070495
157.0, 0.12835417892431453
158.0, 0.137919823121897
159.0, 0.14584543051742155
160.0, 0.15241824365879264
161.0, 0.15264311196663624
162.0, 0.15755204416947308
163.0, 0.15675145863574214
164.0, 0.15372786683939263
165.0, 0.1516713702524287
166.0, 0.14541372541013187
167.0, 0.14421589867134946
168.0, 0.13993506025899463
169.0, 0.13352996483890348
170.0, 0.1256319983619564
171.0, 0.11607520494379045
172.0, 0.10301794185319176
173.0, 0.08922886166088279
174.0, 0.07722613705216082
175.0, 0.06617131195186907
176.0, 0.05532143351277101
177.0, 0.047531007727756064
178.0, 0.04046696705927167
179.0, 0.035377960562055756
180.0, 0.03073327990410562
181.0, 0.026401950942629177
182.0, 0.02373814099495173
183.0, 0.02034753555457317
184.0, 0.018131789030080316
185.0, 0.017892079648414733
186.0, 0.01879263409333736
187.0, 0.01981718748450583
188.0, 0.021562736195562534
189.0, 0.024550091151889747
190.0, 0.028597976239841772
191.0, 0.03218327499211587
192.0, 0.035686551619319135
193.0, 0.04133579231872106
194.0, 0.04447389128531583
195.0, 0.04804911013483445
196.0, 0.05124923226691927
197.0, 0.052955323206763855
198.0, 0.05268345478388762
199.0, 0.052224479096324175
200.0, 0.05151325451208075
201.0, 0.05007574336023607
202.0, 0.04818588145464815
203.0, 0.04608779571743537
204.0, 0.04384517552000843
205.0, 0.040671900126875014
206.0, 0.03658779464670792
207.0, 0.032698409827573306
208.0, 0.029446090170351852
209.0, 0.02663616107875196
210.0, 0.022987089393235655
211.0, 0.0196297513171
212.0, 0.018019479751624483
213.0, 0.01673239669720701
214.0, 0.015413226523570495
215.0, 0.014775232048278348
216.0, 0.014523781989819748
217.0, 0.01670906873125111
218.0, 0.017541669232600036
219.0, 0.018930270652468384
220.0, 0.022273937538148707
221.0, 0.024512195855182023
222.0, 0.02978773476161661
223.0, 0.034703894002360874
224.0, 0.04079469731923278
225.0, 0.048876061422289355
226.0, 0.05900676870708816
227.0, 0.07089519242667194
228.0, 0.08512800402969024
229.0, 0.10232313625974755
230.0, 0.12112695337121279
231.0, 0.14067501918644623
232.0, 0.1614899606396757
233.0, 0.18282052481983474
234.0, 0.19854383534851036
235.0, 0.2128198902586166
236.0, 0.2232955493537345
237.0, 0.22651670622993048
238.0, 0.2254300130197309
239.0, 0.22154623418608085
240.0, 0.2139600643978265
241.0, 0.20455219497678426
242.0, 0.19568437314939438
243.0, 0.1889568888052832
244.0, 0.17810488254309248
245.0, 0.1691727642219195
246.0, 0.1582358589641112
247.0, 0.14469548714489686
248.0, 0.12908708812618974
249.0, 0.11228079695433776
250.0, 0.09390856801464968
251.0, 0.07826276062689753
252.0, 0.06451060874917208
253.0, 0.053028006987093486
254.0, 0.04455678490054602
255.0, 0.03859770635622661
256.0, 0.03534301102691688
257.0, 0.03468375449885447
258.0, 0.03362174036599287
259.0, 0.033159012516936474
260.0, 0.037430612214543524
261.0, 0.03383657564470155
262.0, 0.03766351205021043
263.0, 0.04243379087668869
264.0, 0.047810305219902795
265.0, 0.054668140751131036
266.0, 0.06295505128170235
267.0, 0.06882619492803148
268.0, 0.07297213526242484
269.0, 0.07616512556814309
270.0, 0.07852932379963803
271.0, 0.08005867183987808
272.0, 0.08158981037913206
273.0, 0.08397025069011414
274.0, 0.08637514938574915
275.0, 0.08982770403676454
276.0, 0.09433044209837738
277.0, 0.09849571076390568
278.0, 0.09821024984142437
279.0, 0.0995867224286589
280.0, 0.10100369812521812
281.0, 0.10349552096248502
282.0, 0.10739493644885613
283.0, 0.11146785351131996
284.0, 0.12022060247298456
285.0, 0.12733059296240024
286.0, 0.13585992446476067
287.0, 0.14529112905293717
288.0, 0.15318860657451056
289.0, 0.15599803440444127
290.0, 0.16217694399034238
291.0, 0.16406599736257105
292.0, 0.16390693551393534
293.0, 0.16270956998083302
294.0, 0.1601814317429995
295.0, 0.15464505963029357
296.0, 0.15084488257414963
297.0, 0.1434513514918749
298.0, 0.1338190416289715
299.0, 0.12356064730540632
300.0, 0.11353368096373817
301.0, 0.10257278600898014
302.0, 0.09386921720088844
303.0, 0.08234498592887737
304.0, 0.07127085879440515
305.0, 0.06232221887918407
306.0, 0.05344239241610937
307.0, 0.04548189460394195
308.0, 0.03859225085967196
309.0, 0.033303480615034756
310.0, 0.02989230157876341
311.0, 0.027746030933044348
312.0, 0.025097646212900414
313.0, 0.024216771182831498
314.0, 0.023337295040617614
315.0, 0.024406913088536087
316.0, 0.02614865680001332
317.0, 0.027073048534921332
318.0, 0.028326606147379103
319.0, 0.03108687561141846
320.0, 0.032970415464587746
321.0, 0.0348641636839216
322.0, 0.036287736064405
323.0, 0.036888807443791444
324.0, 0.03910945694923113
325.0, 0.04041542920218685
326.0, 0.042853628415645315
327.0, 0.0463734375544032
328.0, 0.050876177971440846
329.0, 0.055994844400134795
330.0, 0.060050202893291806
331.0, 0.0661345695495726
332.0, 0.07448411179815756
333.0, 0.08440647728586417
334.0, 0.09658370685631182
335.0, 0.11222348755326203
336.0, 0.12906140735762486
337.0, 0.15290521932670462
338.0, 0.175237200230331
339.0, 0.1990726826791982
340.0, 0.22435082219343866
341.0, 0.24679151867103474
342.0, 0.26363519410773
343.0, 0.2766595713101233
344.0, 0.28711313191829074
345.0, 0.29208812247473487
346.0, 0.2918704633154416
347.0, 0.29002054951589756
348.0, 0.2811984662495852
349.0, 0.2704891313349006
350.0, 0.2590298295650011
351.0, 0.24371720791568027
352.0, 0.22471697293787957
353.0, 0.206307792705117
354.0, 0.18334530682390818
355.0, 0.16151918230505505
356.0, 0.13951851636018864
357.0, 0.11795206005853048
358.0, 0.09798265398817149
359.0, 0.08078612347843989
360.0, 0.06750915712250652
361.0, 0.05532967810736612
362.0, 0.04517561209479406
363.0, 0.03661605254270111
364.0, 0.028877139944738072
365.0, 0.021509834262940397
366.0, 0.017032992675474028
367.0, 0.01268411601502737
368.0, 0.008142496202612835
369.0, 0.003716001866594221
370.0, 0.0005201824799854814
371.0, 0.00037314151417688164
372.0, 0.00475375884870567
373.0, 0.0068643274530447405
374.0, 0.007309555823718449
375.0, 0.008064252229195339
376.0, 0.009399116782293295
377.0, 0.009255582752325206
378.0, 0.010199010141661344
379.0, 0.008909368397435814
380.0, 0.008766329653274008
381.0, 0.008442745848538595
382.0, 0.007082765628183807
383.0, 0.005669982147166611
384.0, 0.0031190811367754648
385.0, 0.002368138490886988
386.0, 0.002164170397494891
387.0, 0.0014539532620191707
388.0, 0.0006526080822519364
389.0, 0.0012771391390323636
390.0, 0.0005502829372626877
391.0, 0.0005335313124639924
392.0, 0.0015060943320437945
393.0, 0.0019970748258979136
394.0, 0.0018254418689100868
395.0, 0.002294972775131276
396.0, 0.003330468641636199
397.0, 0.004580682807933665
398.0, 0.00481826291029642
399.0, 0.005106371298962151
400.0, 0.006335508496507455
401.0, 0.008640313063026097
402.0, 0.011121363969445117
403.0, 0.013798974112014877
404.0, 0.01704514061250466
405.0, 0.02213482499377384
406.0, 0.027920856511264216
407.0, 0.032693128344820306
408.0, 0.039936876808004444
409.0, 0.048200052680603706
410.0, 0.05781369088527688
411.0, 0.07063768584180011
412.0, 0.08668732242758899
413.0, 0.10464050636538258
414.0, 0.12313838835902627
415.0, 0.14593871588923446
416.0, 0.1649389921676275
417.0, 0.1832823415790354
418.0, 0.19989669105154703
419.0, 0.21357437542205965
420.0, 0.22772644291898866
421.0, 0.2385792745600441
422.0, 0.2524121588052638
423.0, 0.26662642229172745
424.0, 0.28427287016788744
425.0, 0.30499392938749964
426.0, 0.32029426931896887
427.0, 0.33438521677518274
428.0, 0.34475775373318956
429.0, 0.3522320693916518
430.0, 0.3591159972317365
431.0, 0.3662122774646097
432.0, 0.3723621426852486
433.0, 0.3801719051135914
434.0, 0.3983339263668199
435.0, 0.4192957463473703
436.0, 0.44775055011710607
437.0, 0.4846790153786603
438.0, 0.526714156043154
439.0, 0.5750337092568096
440.0, 0.6312159031045171
441.0, 0.6884291686399422
442.0, 0.7422802794815224
443.0, 0.7934580920528197
444.0, 0.8436222546404725
445.0, 0.8880900557500871
446.0, 0.9257604238651229
447.0, 0.9504620629622813
448.0, 0.9712001687367361
449.0, 0.9889825158669383
450.0, 0.9998273967557675
451.0, 0.9983315242850279
452.0, 0.9789454858277512
453.0, 0.9472524608460552
454.0, 0.9053074640167255
455.0, 0.8593568447964423
456.0, 0.8108904671007175
457.0, 0.7560621712317624
458.0, 0.7036184485155363
459.0, 0.6511565520779717
460.0, 0.5944117900282911
461.0, 0.5328033029908603
462.0, 0.47225621601002105
463.0, 0.41853328006581597
464.0, 0.36206032102796726
465.0, 0.31627349416833206
466.0, 0.27490594625795645
467.0, 0.23898085992561025
468.0, 0.20871257519664926
469.0, 0.18374902165970788
470.0, 0.16362054911006424
471.0, 0.14596292625036283
472.0, 0.13040941314574697
473.0, 0.12042192008953373
474.0, 0.11240670220396161
475.0, 0.10467486886727616
476.0, 0.09926628713288703
477.0, 0.091986310049936
478.0, 0.09170441157721596
479.0, 0.08999287330118395
480.0, 0.08942448056566742
481.0, 0.09110712019045968
482.0, 0.09390038740887793
483.0, 0.09629970487080769
484.0, 0.10241961947557496
485.0, 0.10931213332439062
486.0, 0.11871401269748938
487.0, 0.12992054290156393
488.0, 0.1423564573007846
489.0, 0.15660952832030234
490.0, 0.16623295769460422
491.0, 0.1773932964193547
492.0, 0.18838023198591036
493.0, 0.19491603473600902
494.0, 0.1977591025269411
495.0, 0.20041720743776537
496.0, 0.19844619084115886
497.0, 0.1922827553524025
498.0, 0.18865693983077766
499.0, 0.18436221248439025
500.0, 0.17942533862509016
501.0, 0.17419927208773006
502.0, 0.166419709172893
503.0, 0.15403239717882589
504.0, 0.1442785770588445
505.0, 0.1311065397320107
506.0, 0.11735796977690684
507.0, 0.10583052431047506
508.0, 0.09617480865190309
509.0, 0.08400654573026443
510.0, 0.07488344524185907
511.0, 0.06859913030138069
512.0, 0.0619874975739504
513.0, 0.05625551342633597
514.0, 0.05243356761084176
515.0, 0.047482927157897384
516.0, 0.042683402275643524
517.0, 0.03872841288818203
518.0, 0.035370257511390384
519.0, 0.032374821030866245
520.0, 0.030014035230128917
521.0, 0.028548253334178667
522.0, 0.02662931674972026
523.0, 0.023327926883798967
524.0, 0.020895591919947935
525.0, 0.018822401065055262
526.0, 0.01571422623972409
527.0, 0.011638495818427429
528.0, 0.00887820629881863
529.0, 0.005246546742977157
530.0, 0.0017562987783142968
531.0, 0.0007344373298037582
532.0, 0.0013397650654871846
533.0, 0.0025067781677946283
534.0, 0.00353835143202296
535.0, 0.004007394605942422
536.0, 0.003386100534847075
537.0, 0.003619112532724632
538.0, 0.0031971550773111346
539.0, 0.0018161499867416623
540.0, 0.0003638365625828983
541.0, 0.00040585068571771105
542.0, 0.0027247390357752277
543.0, 0.005952739353055367
544.0, 0.009263640034408282
545.0, 0.01343300296958574
546.0, 0.018510021522541324
547.0, 0.024155803456631538
548.0, 0.030439465584249023
549.0, 0.040577642519271574
550.0, 0.052918010174452995
551.0, 0.06853959670043683
552.0, 0.09020446366651177
553.0, 0.11662902908585196
554.0, 0.14561547497053184
555.0, 0.18227516401195745
556.0, 0.21663668263544775
557.0, 0.24694440927489694
558.0, 0.27217529995845197
559.0, 0.2891282262947085
560.0, 0.29795907195012605
561.0, 0.30127102953520996
562.0, 0.2908046353131489
563.0, 0.2803948794649394
564.0, 0.2735129015649304
565.0, 0.2664475235524294
566.0, 0.2553231375076271
567.0, 0.23902325332359933
568.0, 0.21947823719904175
569.0, 0.19068292786220076
570.0, 0.16102390374231906
571.0, 0.13329154555972947
572.0, 0.11260798219481183
573.0, 0.09765457885006204
574.0, 0.08594880827191836
575.0, 0.08164489615428291
576.0, 0.0811582889734417
577.0, 0.08360435143908994
578.0, 0.08681843639713532
579.0, 0.0914892479633065
580.0, 0.09847311887914965
581.0, 0.10674916947983397
582.0, 0.11157757938363232
583.0, 0.11802480690107045
584.0, 0.12880717914964862
585.0, 0.13854012610885036
586.0, 0.149435161135825
587.0, 0.16324302497702348
588.0, 0.17840406606301845
589.0, 0.1921108412506363
590.0, 0.2044286126243858
591.0, 0.2138086554971117
592.0, 0.22149012011007066
593.0, 0.2272975124414948
594.0, 0.23121832002427953
595.0, 0.23375133654705466
596.0, 0.23364985653237802
597.0, 0.23234188043498102
598.0, 0.22876505406617387
599.0, 0.22457145542416
600.0, 0.21837813609851536
601.0, 0.2092258718270401
602.0, 0.19891660484046
603.0, 0.1904657590438071
604.0, 0.17986380434288274
605.0, 0.1700347277519018
606.0, 0.16108322322920354
607.0, 0.15240097959461982
608.0, 0.14419424699859468
609.0, 0.13748309098373923
610.0, 0.12858519790927148
611.0, 0.11975724761874113
612.0, 0.11289592081551374
613.0, 0.10486836336477297
614.0, 0.09681642094774694
615.0, 0.08998689032570635
616.0, 0.08219893550233981
617.0, 0.07386254562759031
618.0, 0.06556022948161819
619.0, 0.058558150913917535
620.0, 0.05170025612877005
621.0, 0.04564584984889325
622.0, 0.04059973150962914
623.0, 0.034830999729330604
624.0, 0.03043442673693563
625.0, 0.02571768673256326
626.0, 0.022189094546835864
627.0, 0.01911999338685678
628.0, 0.01703683177904212
629.0, 0.01561756096586488
630.0, 0.012872330101402834
631.0, 0.012198015779224927
632.0, 0.01203456836078264
633.0, 0.009673337693704404
634.0, 0.007924044549527528
635.0, 0.007283629022095974
636.0, 0.0068224045587855645
637.0, 0.005840245705206638
638.0, 0.004242666638746763
639.0, 0.004769163486748412
640.0, 0.004653278616402209
641.0, 0.0032249245316374074
642.0, 0.0020353449824936486
643.0, 0.002306409217879341
644.0, 0.0031354785310257404
645.0, 0.001777307148108143
646.0, 0.0015352186523548694
647.0, 0.0014440202158923403
648.0, 0.002305443387344494
649.0, 0.0020492763954357038
650.0, 0.0013606557781053307
651.0, 0.002996140497529826
652.0, 0.0007509434709136141
653.0, 0.0007259167058051448
654.0, 0.0012670395237908937
655.0, 0.0021422704541660367
656.0, 0.001809804323027085
657.0, 0.0008232499764160586
658.0, 0.0010373643272769966
659.0, 0.0009517104648234129
660.0, 0.0021496380704177564
661.0, 0.002992194034156452
662.0, 0.0026051005367645854
663.0, 0.0026863440540062684
664.0, 0.004003729680401876
665.0, 0.005469700150181565
666.0, 0.005185035509901303
667.0, 0.005938304656006288
668.0, 0.005545657367117813
669.0, 0.0072118705173814775
670.0, 0.008513096541925103
671.0, 0.009941838634287256
672.0, 0.012294161638866439
673.0, 0.013193045347208245
674.0, 0.01460510302599287
675.0, 0.01642030527393599
676.0, 0.020028258751717272
677.0, 0.02321231965456404
678.0, 0.02612123328714222
679.0, 0.029862880382213297
680.0, 0.034422297905557564
681.0, 0.037305971302732124
682.0, 0.03936633367631143
683.0, 0.0422158898828419
684.0, 0.043902537214738406
685.0, 0.04491199506579124
686.0, 0.04571481583854106
687.0, 0.0456947466369401
688.0, 0.04382969358682274
689.0, 0.0420769026402548
690.0, 0.04066455687853405
691.0, 0.03787525155700651
692.0, 0.03516612634130149
693.0, 0.03241828738621162
694.0, 0.02874855465370747
695.0, 0.024746150108406417
696.0, 0.021514984218914096
697.0, 0.0192153390231387
698.0, 0.01684774440455332
699.0, 0.014389155777972482
700.0, 0.012491003704705336
701.0, 0.010777602718685716
702.0, 0.008294255583090852
703.0, 0.0075119595508429185
704.0, 0.006847949181915998
705.0, 0.006469362565972469
706.0, 0.005393396763324509
707.0, 0.003434450245040206
708.0, 0.0022098196314522824
709.0, 0.0026501693721539973
710.0, 0.001982297077950684
711.0, 0.00022373354809264456
712.0, 0.0005985624200229355
713.0, 0.0006983846623959614
714.0, 0.0004762520526146441
715.0, 0.0003796668990646992
716.0, 0.0003820597117969
717.0, 0.0001840492287489951
718.0, 0.0013228434668866639
719.0, 0.00024888502863778725
720.0, 0.0009106206519097703
721.0, 0.001925228697899225
722.0, 0.0020872524879403816
723.0, 0.0017105933898989953
724.0, 0.0015697431143825607
725.0, 0.0011527131821532988
726.0, 0.0014746438106589379
727.0, 0.0013419765243629905
728.0, 0.0014774554423360048
729.0, 0.001110880369253156
730.0, 0.00098582443073963
731.0, 0.0012239882024701033
732.0, 0.0009084083237308676
733.0, 0.001161425584105036
734.0, 0.0005455639405990429
735.0, 0.0006822229355567879
736.0, 0.0011443387814883597
737.0, 0.0017006252811757603
738.0, 0.0021612914756082603
739.0, 0.00240722305982332
740.0, 0.0024611277510182897
741.0, 0.0024720577747580023
742.0, 0.0006682620040662896
743.0, 0.00017382422122029484
744.0, 0.0008600446435650754
745.0, 0.0008248709274365834
746.0, 0.0006175927341122564
747.0, 0.0014813647791017464
748.0, 0.0002978282929078426
749.0, 0.00016929764347961527
750.0, 0.000962809090963209
751.0, 0.0008378180968928531
752.0, 0.0008176670791873922
753.0, 0.0007979205234610687
754.0, 0.0004461624349612732
755.0, 9.093695492168297e-05
756.0, 0.00015687954372761576
757.0, 5.7799653753860915e-05
758.0, 0.0005281749614179013
759.0, 0.0005958396527912967
760.0, 0.000474069842241874
761.0, 0.0003232764145355499
762.0, 0.00015936618516833748
763.0, 5.556147929669183e-05
764.0, 6.848531748664795e-05
765.0, 0.0009355438764849053
766.0, 0.0002999595293716697
767.0, 0.0001976375761163339
768.0, 0.0008456488481400103
769.0, 0.001187918236701667
770.0, 0.000617271791631197
771.0, 0.0001509368233632581
772.0, 0.00021221074660376671
773.0, 0.00027646507435396617
774.0, 0.0006330072318065285
775.0, 0.0007862028937865829
776.0, 0.0006292569194735636
777.0, 0.0007467071718636443
778.0, 0.0010965561226491784
779.0, 0.00019505996505358373
780.0, 0.001160243392902173
781.0, 0.00032380702862902006
782.0, 0.0009726350615783931
783.0, 0.0007526467890006786
784.0, 0.0008031470181774948
785.0, 0.0013429183417651156
786.0, 0.0011457447158648348
787.0, 0.000597174628004007
788.0, 0.0013547237368000291
789.0, 0.00037601198491301154
790.0, 0.00064068045463773
791.0, 0.001008838681468467
792.0, 0.00136876359317326
793.0, 0.0015794293004678798
794.0, 0.0013208419968016066
795.0, 0.0010438941027313881
796.0, 0.0014827169089006863
797.0, 0.0008997618037731133
798.0, 0.0017280770519821338
799.0, 0.0018366300356161044
800.0, 0.0017075476479780187
801.0, 0.0017011248851558547
802.0, 0.0014517621895690119
803.0, 0.0014800017510431067
804.0, 0.0017476986120110367
805.0, 0.0018080263059161352
806.0, 0.002285801033017536
807.0, 0.003048510000610509
808.0, 0.003352303286875517
809.0, 0.0033359904508184074
810.0, 0.003793362882509467
811.0, 0.004738871822293074
812.0, 0.004852538560827054
813.0, 0.004750964026691744
814.0, 0.005517897007323897
815.0, 0.0055694599845301715
816.0, 0.006340680806020169
817.0, 0.007007446447475904
818.0, 0.0068182427149839275
819.0, 0.008350984302985745
820.0, 0.008031670126987852
821.0, 0.009339775855574417
822.0, 0.009927231521158576
823.0, 0.010525899717481016
824.0, 0.011243247384181813
825.0, 0.012004665842928603
826.0, 0.012820633241305281
827.0, 0.013734881841763004
828.0, 0.01445181302381251
829.0, 0.01467666566805311
830.0, 0.016096239923589207
831.0, 0.01672339265311117
832.0, 0.017389306973506113
833.0, 0.01793155234708235
834.0, 0.018191585632616223
835.0, 0.018958396297422176
836.0, 0.020627385228672607
837.0, 0.022018827101845998
838.0, 0.02345706124833695
839.0, 0.023579817525570406
840.0, 0.024233146262047988
841.0, 0.0251886533594425
842.0, 0.025880038195949664
843.0, 0.027099144329746434
844.0, 0.030262835156594652
845.0, 0.031881921478470666
846.0, 0.033592338067714556
847.0, 0.037331886422481794
848.0, 0.03973535112487106
849.0, 0.04282334558951017
850.0, 0.04700229218691516
851.0, 0.05121706648517238
852.0, 0.05589072950831596
853.0, 0.061534238967224715
854.0, 0.0672254794372416
855.0, 0.07251468963136717
856.0, 0.07958356669523672
857.0, 0.0861063954960682
858.0, 0.09282287993156543
859.0, 0.10037361429691548
860.0, 0.10769681336588548
861.0, 0.1153104078119484
862.0, 0.12557396115181932
863.0, 0.1321047206077783
864.0, 0.14073621525142985
865.0, 0.14855170779028146
866.0, 0.15694848234857697
867.0, 0.16578954759309014
868.0, 0.17455174633997472
869.0, 0.18397576582862324
870.0, 0.18824347005667688
871.0, 0.19662897965571552
872.0, 0.20438977708778022
873.0, 0.21050467089259764
874.0, 0.21644616445894024
875.0, 0.2214418218537059
876.0, 0.22545695052616874
877.0, 0.2303138093206403
878.0, 0.23622085183804423
879.0, 0.23616888187491178
880.0, 0.23765970276377615
881.0, 0.23846540977338548
882.0, 0.2367801556304866
883.0, 0.23148024311646662
884.0, 0.22291403036806487
885.0, 0.21241859789247522
886.0, 0.20159535255064806
887.0, 0.1917217541740735
888.0, 0.17806586717983006
889.0, 0.16687773175221152
890.0, 0.15367091027648785
891.0, 0.1409631662249934
892.0, 0.1298381908283795
893.0, 0.11896058364597857
894.0, 0.10885643689100162
895.0, 0.10243112827657393
896.0, 0.09310159528719485
897.0, 0.08842300653716571
898.0, 0.08354915604005753
899.0, 0.08040327877570635
900.0, 0.07797861017168886
901.0, 0.07590229906339165
902.0, 0.07484858732970223
903.0, 0.07529936813563987
904.0, 0.07611738259170901
905.0, 0.07490109726628512
906.0, 0.0775602597718065
907.0, 0.07715034467916042
908.0, 0.07966861526904602
909.0, 0.08188305332047391
910.0, 0.08275858454634584
911.0, 0.08319093623426659
912.0, 0.08329424580530997
913.0, 0.08234041861713144
914.0, 0.0833485018230884
915.0, 0.07850049726211954
916.0, 0.07663760060454632
917.0, 0.07413230011138217
918.0, 0.06989322905849873
919.0, 0.06464151045426007
920.0, 0.05903905072874737
921.0, 0.05320029288003018
922.0, 0.04752625653570187
923.0, 0.0419019208790733
924.0, 0.03719552189795046
925.0, 0.032840186495139735
926.0, 0.029469652847510103
927.0, 0.025906949299651223
928.0, 0.022813636574801135
929.0, 0.020603737177803453
930.0, 0.018917240011818985
931.0, 0.017983467300026906
932.0, 0.0150880234349426
933.0, 0.01456517464135797
934.0, 0.01351415225333281
935.0, 0.012813723817999
936.0, 0.01111528155017121
937.0, 0.009567126745341329
938.0, 0.009019273220485697
939.0, 0.009193133936091238
940.0, 0.009869836396837812
941.0, 0.008182834647060317
942.0, 0.008968755907968928
943.0, 0.008098734485315675
944.0, 0.007147373627892247
945.0, 0.007191541922544819
946.0, 0.007650063668996449
947.0, 0.008014408168416469
948.0, 0.008355758587810588
949.0, 0.008696723431728403
950.0, 0.008956764895877786
951.0, 0.009256968427396074
952.0, 0.009818677901149766
953.0, 0.010157163071186673
954.0, 0.010974905434549275
955.0, 0.011174962475127117
956.0, 0.011345825120053733
957.0, 0.012307530926479472
958.0, 0.013171326735126537
959.0, 0.013453560974764401
960.0, 0.016015437319529723
961.0, 0.017551344552982753
962.0, 0.01967933133993142
963.0, 0.02060275587409388
964.0, 0.02196601182592356
965.0, 0.02425146300124724
966.0, 0.027497193119574333
967.0, 0.03221053565124492
968.0, 0.038203142433078846
969.0, 0.04342185142466993
970.0, 0.051159416306096876
971.0, 0.05872182860407416
972.0, 0.06680135584321568
973.0, 0.07505636883076013
974.0, 0.08198562748075239
975.0, 0.08735003698181645
976.0, 0.09155476822769616
977.0, 0.09435400154105707
978.0, 0.09580154533995389
979.0, 0.09599037941176539
980.0, 0.09359505537652897
981.0, 0.09125632370986202
982.0, 0.08437720664270226
983.0, 0.07749213392712759
984.0, 0.0702890278116368
985.0, 0.061285680507991096
986.0, 0.052193245876177935
987.0, 0.045061081810718044
988.0, 0.037330144633205366
989.0, 0.03232408410011614
990.0, 0.027877071006047815
991.0, 0.023265367451480515
992.0, 0.020681127101885976
993.0, 0.017874626325632144
994.0, 0.015057575148693218
995.0, 0.013595500522727682
996.0, 0.012625054617357249
997.0, 0.010366521602352095
998.0, 0.008732218716050094
999.0, 0.009184616069495876
1000.0, 0.008011729847892798
1001.0, 0.006922341010029745
1002.0, 0.006318554232370079
1003.0, 0.006114313158185456
1004.0, 0.006493628846192013
1005.0, 0.007162531071352573
1006.0, 0.0077390767053155856
1007.0, 0.009439489480150921
1008.0, 0.010785109907837046
1009.0, 0.012728710424774782
1010.0, 0.015023945569673887
1011.0, 0.016523154909344175
1012.0, 0.017858599753838217
1013.0, 0.019947609790756143
1014.0, 0.02258758530574463
1015.0, 0.02403568324123619
1016.0, 0.02372540887864045
1017.0, 0.02502862170781737
1018.0, 0.02355158191559585
1019.0, 0.02238570305897233
1020.0, 0.021521406142428944
1021.0, 0.01987610303036613
1022.0, 0.018843772184072294
1023.0, 0.016959397303018466
1024.0, 0.014861173703533438
1025.0, 0.014150755390803982
1026.0, 0.01421189155835747
1027.0, 0.013987503337494997
1028.0, 0.01289347420027191
1029.0, 0.01217908706896427
1030.0, 0.0137102794682852
1031.0, 0.014378525229031065
1032.0, 0.015737918747985722
1033.0, 0.016485356229467597
1034.0, 0.017451020210714333
1035.0, 0.019385600452953185
1036.0, 0.020861414801598813
1037.0, 0.021903621708016335
1038.0, 0.022881532498473994
1039.0, 0.024929843246293836
1040.0, 0.02391323825178798
1041.0, 0.02439438624017888
1042.0, 0.0258572845452329
1043.0, 0.02639708631766868
1044.0, 0.025871331261400152
1045.0, 0.02541998194409831
1046.0, 0.02485145565714488
1047.0, 0.022863847725999132
1048.0, 0.022596339098099032
1049.0, 0.02204123097413368
1050.0, 0.022130472601664796
1051.0, 0.02247377412597314
1052.0, 0.02420043274671713
1053.0, 0.026299910445101524
1054.0, 0.02819365833338188
1055.0, 0.02988773587206445
1056.0, 0.03137886282597225
1057.0, 0.03259059271327548
1058.0, 0.03389266345487895
1059.0, 0.0363198844029555
1060.0, 0.03686196618873715
1061.0, 0.03826233640793669
1062.0, 0.039402898096685665
1063.0, 0.039601512887670484
1064.0, 0.0399326307464992
1065.0, 0.040161473984225655
1066.0, 0.040539086432812545
1067.0, 0.041823859949313716
1068.0, 0.042978286538032956
1069.0, 0.0441187735494061
1070.0, 0.04861315226355511
1071.0, 0.0521174377921575
1072.0, 0.05707177761648839
1073.0, 0.06408962680944097
1074.0, 0.07233235012630723
1075.0, 0.08213072922047326
1076.0, 0.09246536049001437
1077.0, 0.10400774067447502
1078.0, 0.11799998248251178
1079.0, 0.13104187622029304
1080.0, 0.1466472285894155
1081.0, 0.15787749783655342
1082.0, 0.16590966653810083
1083.0, 0.16848757773832004
1084.0, 0.1685815197976852
1085.0, 0.1619806724788272
1086.0, 0.15379273078943434
1087.0, 0.14395753782841936
1088.0, 0.1307406380672019
1089.0, 0.11752249664703078
1090.0, 0.10198096760319031
1091.0, 0.08598795593671237
1092.0, 0.07136788321867495
1093.0, 0.05767985921737747
1094.0, 0.047487311177364974
1095.0, 0.039644679513105976
1096.0, 0.03276168977426925
1097.0, 0.027502267735486998
1098.0, 0.024059596544347493
1099.0, 0.021674324094195185
1100.0, 0.01948614134218219
1101.0, 0.016476604517749623
1102.0, 0.013826196325983376
1103.0, 0.013875345749528378
1104.0, 0.012093998381734986
1105.0, 0.010806236421392236
1106.0, 0.009471347658336102
1107.0, 0.008742375158248713
1108.0, 0.0083638867020393
1109.0, 0.00789462458188983
1110.0, 0.007444877363167764
1111.0, 0.0072995138446596535
1112.0, 0.007288325738987056
1113.0, 0.00709814275761614
1114.0, 0.007162214559115215
1115.0, 0.00727942722201497
1116.0, 0.007513368407959904
1117.0, 0.007958120983047315
1118.0, 0.00859645314127771
1119.0, 0.009389702075998159
1120.0, 0.009240558538992354
1121.0, 0.009033305457460039
1122.0, 0.009790636302592134
1123.0, 0.009459417786613623
1124.0, 0.008263116397533403
1125.0, 0.006045543422518092
1126.0, 0.007213336700267671
1127.0, 0.0051446956114584485
1128.0, 0.004630854058564524
1129.0, 0.003517131455949282
1130.0, 0.0026063094450299532
1131.0, 0.00277005368460597
1132.0, 0.002425950024220995
1133.0, 0.001528576269471912
1134.0, 0.0015401497365233967
1135.0, 0.00047981945084630835
1136.0, 0.0002675663407349428
1137.0, 7.952257554219322e-05
1138.0, 0.001203757528523342
1139.0, 0.0005808644813700278
1140.0, 0.0002628280479825531
1141.0, 0.0002913350584706081
1142.0, 0.0006752289373370246
1143.0, 0.0006381325337230668
1144.0, 0.0003303684872319093
1145.0, 0.0005652753465276523
1146.0, 0.0009444779093452505
1147.0, 0.0006190968769132915
1148.0, 0.0007714981679154103
1149.0, 0.0009448689502736089
1150.0, 0.0012083471228239919
1151.0, 0.0009041390802954174
1152.0, 0.0009693222047565229
1153.0, 0.0008425536729257674
1154.0, 0.0007982379603488452
1155.0, 0.0015134268460127713
1156.0, 0.0015012053917635695
1157.0, 0.0009428295484365619
1158.0, 0.002108436537745693
1159.0, 0.0015669427476048174
1160.0, 0.0006525069911162352
1161.0, 0.0002971641513876711
1162.0, 0.0009574175255043689
1163.0, 0.00037563088938322907
1164.0, 0.0005256350599292424
1165.0, 0.0008613053885969899
1166.0, 0.0011395226860530974
1167.0, 0.0006606334920240837
1168.0, 0.0003111918871268066
1169.0, 0.0007657400363808251
1170.0, 0.0008563487962853364
1171.0, 0.0006505001308617841
1172.0, 0.0004437707473113863
1173.0, 0.00018314195470241028
1174.0, 0.0009725868255851517
1175.0, 0.0004257188197744698
1176.0, 0.0006815192869989623
1177.0, 0.0003395333514388018
1178.0, 0.0005735555699689096
1179.0, 0.00047765090160353546
1180.0, 0.0004544888505881164
1181.0, 0.0005566877094137025
1182.0, 0.00012057152071946418
1183.0, 0.0003835562780699469
1184.0, 0.00034592350581066423
1185.0, 0.0005068295399841342
1186.0, 0.0003696048540857284
1187.0, 0.0004707387438080373
1188.0, 0.00021912286922562754
1189.0, 0.0006282284371611549
1190.0, 0.0006472887230483794
1191.0, 0.00041549129679060754
1192.0, 0.0005259319074004039
1193.0, 0.000668120861114054
1194.0, 0.0004103327403777228
1195.0, 0.00046217829579539484
1196.0, 0.0012172090262508436
1197.0, 0.0004902832519546141
1198.0, 0.0006070526589998683
1199.0, 0.0005249410909682757
1200.0, 0.0002560058361744434
1201.0, 0.0002739890803061056
1202.0, 0.00047888893325315473
1203.0, 0.00039664024055721355
1204.0, 0.0005169202703584476
1205.0, 0.0009769205833998057
1206.0, 0.0012224806244733497
1207.0, 0.0011144063474116794
1208.0, 0.0011084973524172548
1209.0, 0.0010564489255721582
1210.0, 0.0007154345519315834
1211.0, 0.001294249403832559
1212.0, 0.0015737715225130496
1213.0, 0.0012842410679564896
1214.0, 0.0011416339134705184
1215.0, 0.0008793522778293105
1216.0, 0.0005269270814831449
1217.0, 0.0007769045617801162
1218.0, 0.0012913320897934455
1219.0, 0.0010253005346686703
1220.0, 0.0005453265482036375
1221.0, 0.0006813546511954049
1222.0, 0.00021531079776550865
1223.0, 0.0003132592537515651
1224.0, 0.0007105726885888882
1225.0, 0.0004433062726910419
1226.0, 0.0004071361636782591
1227.0, 0.0009804351823601842
1228.0, 0.0017089847223277631
1229.0, 0.0012714249998754203
1230.0, 0.0006265370846254402
1231.0, 0.0008050924525435862
1232.0, 0.0007380543479258325
1233.0, 0.0006579531188595732
1234.0, 0.000994315406740694
1235.0, 0.0004311683661790092
1236.0, 0.00035607892975651084
1237.0, 0.00035766671441179174
1238.0, 0.001090549937890608
1239.0, 0.0008175961520176305
1240.0, 0.0007701822269948214
1241.0, 0.0005251488264952467
1242.0, 0.0010662917665163955
1243.0, 0.0011525761635921767
1244.0, 0.0011168127688703196
1245.0, 0.0008091294999913841
1246.0, 0.0009131856140735045
1247.0, 0.001023195941127068
1248.0, 0.0007130706140151928
1249.0, 0.0009934519002919731
1250.0, 0.00032574055461184623
1251.0, 0.0012649218687924178
1252.0, 0.0009223306689711863
1253.0, 0.0008255876426972756
1254.0, 0.00014892481109148752
1255.0, 0.00049767003952256
1256.0, 0.001232927757829989
1257.0, 0.001586807673607365
1258.0, 0.001407980172794996
1259.0, 0.0011835177784216228
1260.0, 0.001140951095397625
1261.0, 0.0010955857622373933
1262.0, 0.0010201792808233938
1263.0, 0.0010733674646361626
1264.0, 0.0010822042851235988
1265.0, 0.0009583124809977361
1266.0, 0.0012628389020688997
1267.0, 0.001378812023827172
1268.0, 0.001800996917938499
1269.0, 0.002176480754257451
1270.0, 0.0017014059480140542
1271.0, 0.0014142227045524083
1272.0, 0.0015244656817756698
1273.0, 0.0010333754313294836
1274.0, 0.0008386478536708808
1275.0, 0.0014029946136282845
1276.0, 0.0016419112432852576
1277.0, 0.0013863694998109148
1278.0, 0.0015732284665611286
1279.0, 0.0017885143670140502
1280.0, 0.002118951522002204
1281.0, 0.0009916463867482045
1282.0, 0.0007984108771902689
1283.0, 0.0008664280563003452
1284.0, 0.0014261008054696287
1285.0, 0.001623107380143107
1286.0, 0.0016624182508407324
1287.0, 0.0012133108046754682
1288.0, 0.0011165670695865715
1289.0, 0.0011423111906356527
1290.0, 0.0010171103270695855
1291.0, 0.0010069963391872068
1292.0, 0.001221776601758183
1293.0, 0.001490629203877625
1294.0, 0.001406679731063091
1295.0, 0.0015255232587414909
1296.0, 0.0020489428753098274
1297.0, 0.001893096791317675
1298.0, 0.0018804418462676704
1299.0, 0.0004154903841252221
1300.0, 0.0004337376283329731
1301.0, 0.0005599606048080375
1302.0, 0.0009276958067173615
1303.0, 0.0013110150980457755
1304.0, 0.0010051102021400376
1305.0, 0.0011333363831866133
1306.0, 0.001910958429275494
1307.0, 0.0017316662675525073
1308.0, 0.0009415491014472737
1309.0, 0.0013330175875340957
1310.0, 0.0013608748596724298
1311.0, 0.001085782114499209
1312.0, 0.0014722410972353372
1313.0, 0.0008159996663201564
1314.0, 0.0013582964730460443
1315.0, 0.0010604772878676997
1316.0, 0.0008653391636843963
1317.0, 0.0005017741024848559
1318.0, 0.0009742791946727509
1319.0, 0.0018167125091135055
1320.0, 0.0016369552256225728
1321.0, 0.0013764681113228058
1322.0, 0.0014118771545757846
1323.0, 0.0016937181509320992
1324.0, 0.0022965106253327395
1325.0, 0.001865942674306096
1326.0, 0.002274381712080616
1327.0, 0.0016442014390852682
1328.0, 0.0021878615670012282
1329.0, 0.0017975132191785652
1330.0, 0.002299119977717227
1331.0, 0.002174995318823536
1332.0, 0.0025054655290581594
1333.0, 0.0018827289293644502
1334.0, 0.002444278976215612
1335.0, 0.0025752510951106192
1336.0, 0.0018440148570625266
1337.0, 0.0020347962738904266
1338.0, 0.0022293696086942132
1339.0, 0.0024046173081792074
1340.0, 0.003079925291377093
1341.0, 0.00237794071622827
1342.0, 0.0020507760635388207
1343.0, 0.003072143139466101
1344.0, 0.002662740566199003
1345.0, 0.0029060717093686893
1346.0, 0.002789641032463798
1347.0, 0.0030427279584430513
1348.0, 0.003085042539858411
1349.0, 0.0031478076592815155
1350.0, 0.003396983845974086
1351.0, 0.0034797518947774202
1352.0, 0.003749960322982546
1353.0, 0.0038089722656575883
1354.0, 0.003753272240052714
1355.0, 0.0042209182877314105
1356.0, 0.004627285294088166
1357.0, 0.004537716182445883
1358.0, 0.0045361128701781935
1359.0, 0.0044465329436209405
1360.0, 0.004604652643154912
1361.0, 0.004577825026357995
1362.0, 0.004924546689470356
1363.0, 0.004607862895291137
1364.0, 0.003816659523006537
1365.0, 0.004130932123108526
1366.0, 0.004096053165696226
1367.0, 0.0037837631124243674
1368.0, 0.003920787535341821
1369.0, 0.004444270775802931
1370.0, 0.00465285879633297
1371.0, 0.004683128335255966
1372.0, 0.004578175461349358
1373.0, 0.004478521670254929
1374.0, 0.004185879428358738
1375.0, 0.0038271614405422
1376.0, 0.003951127594206885
1377.0, 0.004192472491765985
1378.0, 0.004194269834366594
1379.0, 0.003644716940422626
1380.0, 0.004610392088099855
1381.0, 0.0036031906419216452
1382.0, 0.003277644602499249
1383.0, 0.004368225646701448
1384.0, 0.00299548511195883
1385.0, 0.0023389360698481882
1386.0, 0.002698458992753671
1387.0, 0.002443402181551414
1388.0, 0.00278321316931511
1389.0, 0.003696448639329807
1390.0, 0.003614802478484385
1391.0, 0.0033652706396520727
1392.0, 0.0033268220550431954
1393.0, 0.0029967834633007526
1394.0, 0.0025936975753244637
1395.0, 0.00278945533090559
1396.0, 0.0034266935670168377
1397.0, 0.002903297263629694
1398.0, 0.0030362776213589495
1399.0, 0.004038353151702921
1400.0, 0.0023013314700396424
1401.0, 0.0028556835944140053
1402.0, 0.0025925159609761395
1403.0, 0.0035073663989129778
1404.0, 0.0033268174182740306
1405.0, 0.0033494450650877776
1406.0, 0.002440786038378765
1407.0, 0.003089691529957336
1408.0, 0.0027469828556426013
1409.0, 0.002407598475524116
1410.0, 0.002156033088639334
1411.0, 0.0018632184079448984
1412.0, 0.00223900757567846
1413.0, 0.0027388745371200434
1414.0, 0.0027168797113120333
1415.0, 0.0029146689062523527
1416.0, 0.0031978306746444744
1417.0, 0.0027766669476815904
1418.0, 0.002109520595392037
1419.0, 0.0010270705428145125
1420.0, 0.0018306031331040153
1421.0, 0.001675649772443274
1422.0, 0.0028500722308190617
1423.0, 0.0017611294102846836
1424.0, 0.0009572968298715225
1425.0, 0.0012506733076372675
1426.0, 0.0020271582279112773
1427.0, 0.0017411150510457498
1428.0, 0.0021856463721678385
1429.0, 0.0018239859380865836
1430.0, 0.0012453289564551204
1431.0, 0.0017331402111293102
1432.0, 0.002100544418699567
1433.0, 0.0017404208271340435
1434.0, 0.0009571255467411015
1435.0, 0.0009301469308337746
1436.0, 0.0014998997318627304
1437.0, 0.0007029098443350063
1438.0, 0.0005698163419743147
1439.0, 0.0015572894539445988
1440.0, 0.0009319099507522862
1441.0, 0.0015597061667109668
1442.0, 0.0015974356834926797
1443.0, 0.0014324147764555597
1444.0, 0.0013454761464667753
1445.0, 0.0016687833987039855
1446.0, 0.0006361296318342426
1447.0, 0.00156405870073756
1448.0, 0.0023200429177832006
1449.0, 0.0007725491856136483
1450.0, 0.0002613128248674278
1451.0, 0.0009237692481777874
1452.0, 0.0011757840579310595
1453.0, 0.0016774573330292353
1454.0, 0.0014471287145037602
1455.0, 0.0006401939746848708
1456.0, 0.0010099843162655183
1457.0, 0.0012690073921951407
1458.0, 0.0006211558347498414
1459.0, 0.0006514190684787793
1460.0, 0.0009298268207454351
1461.0, 0.0012907374286401326
1462.0, 0.0011852400731478768
1463.0, 0.0009203359340181981
1464.0, 0.0012542091911611705
1465.0, 0.002548750679438992
1466.0, 0.00040099251695684417
1467.0, 0.0019224139986326822
1468.0, 0.0019114426641047228
1469.0, 0.0006199836186952058
1470.0, 0.0015332131126727904
1471.0, 0.0010475820609228373
1472.0, 0.0005919662477472792
1473.0, 0.0002442246289790236
1474.0, 0.0006160582151316965
1475.0, 0.0009800485231464132
1476.0, 0.0012699697114618026
1477.0, 0.0006238589896864536
1478.0, 0.0001932548487090941
1479.0, 0.000502253192194064
1480.0, 0.0010339115689688122
1481.0, 0.0013284916371827022
1482.0, 0.0011102413374599652
1483.0, 0.001223984186811455
1484.0, 0.0016936119692200443
1485.0, 0.0016624408234333175
1486.0, 0.0021005743191726597
1487.0, 0.0014353331788653902
1488.0, 0.0011749247605219964
1489.0, 0.0016106989997551999
1490.0, 0.0007320268994290289
1491.0, 0.0012042616773894092
1492.0, 0.000928664978773098
1493.0, 0.0009462870182266673
1494.0, 0.0013334171575213188
1495.0, 0.0009227797571515017
1496.0, 0.0003200949658370092
1497.0, 0.001655217184112284
1498.0, 0.0005513645534089726
1499.0, 0.0013876082828884369
1500.0, 0.0014691554618116813
1501.0, 0.0008331337415893547
1502.0, 0.0015503682429680874
1503.0, 0.0012967082114758916
1504.0, 0.0007447278162439501
1505.0, 0.0008664884535760373
1506.0, 0.0011650622331901314
1507.0, 0.0009147803199332985
1508.0, 0.0008301044824387385
1509.0, 0.00121719727438502
1510.0, 0.0010187542809051361
1511.0, 0.0010617103032287514
1512.0, 0.0014716282551968096
1513.0, 0.0006768259207084193
1514.0, 0.0007706722751468834
1515.0, 0.0006514204423257964
1516.0, 0.0014466610235216483
1517.0, 0.001872741785859986
1518.0, 0.0014111364705017152
1519.0, 0.0013288680802137473
1520.0, 0.0007612767561090184
1521.0, 0.00065219852851984
1522.0, 0.0005880892610474172
1523.0, 0.0005698401911178193
1524.0, 0.0006734270178022156
1525.0, 0.0011893189381021925
1526.0, 0.0015216035541959837
1527.0, 0.0007269282556281999
1528.0, 0.0008929023555245473
1529.0, 0.000408359428195964
1530.0, 0.0004739371614481761
1531.0, 0.0017279848763131617
1532.0, 0.0014399224977068234
1533.0, 0.0014481678385091668
1534.0, 0.0007475825611749081
1535.0, 0.00028065000732856974
1536.0, 0.00042324277755787437
1537.0, 0.0005990430630192239
1538.0, 0.0003919782782981735
1539.0, 0.0006740070934396201
1540.0, 0.0009261379420573489
1541.0, 0.0009009077752044349
1542.0, 0.001383402528388058
1543.0, 0.001002752877982239
1544.0, 0.0012676109168596995
1545.0, 0.002317081319976457
1546.0, 0.001171065021954924
1547.0, 0.0014381870832889155
1548.0, 0.0005411585791652744
1549.0, 0.0005595207657295335
1550.0, 0.000991076425608219
1551.0, 0.0016612028907840445
1552.0, 0.002289456431741785
1553.0, 0.0018766626161198085
1554.0, 0.002350760548729526
1555.0, 0.003269096996818488
1556.0, 0.0021058975243725946
1557.0, 0.0011611429884968742
1558.0, 0.0006421181577026642
1559.0, 0.0009259587630645555
1560.0, 0.001314687602143993
1561.0, 0.0008002194591866004
1562.0, 0.00023351231631756842
1563.0, 0.0003398707194074681
1564.0, 0.00025084035849435877
1565.0, 0.00045144944486661754
1566.0, 0.0006082398387045757
1567.0, 0.0007804396943227126
1568.0, 0.0006099332787231007
1569.0, 0.00022475167153827798
1570.0, 6.969180782364829e-05
1571.0, 0.00046541632005306664
1572.0, 0.00031002791271174553
1573, 0.0
1574, 0.0
1575, 0.0
1576, 0.0
1577, 0.0
1578, 0.0
1579, 0.0
1580, 0.0
1581, 0.0
1582, 0.0
1583, 0.0
1584, 0.0
1585, 0.0
1586, 0.0
1587, 0.0
1588, 0.0
1589, 0.0
1590, 0.0
1591, 0.0
1592, 0.0
1593, 0.0
1594, 0.0
1595, 0.0
1596, 0.0
1597, 0.0
1598, 0.0
1599, 0.0
