30, 0.0
31, 0.0
32, 0.0
33, 0.0
34, 0.0
35, 0.0
36, 0.0
37, 0.0
38, 0.0
39, 0.0
40, 0.0
41, 0.0
42, 0.0
43, 0.0
44, 0.0
45, 0.0
46, 0.0
47, 0.0
48, 0.0
49, 0.0
50, 0.0
51, 0.0
52.0, 0.0023399260728849294
53.0, 0.007410653863219433
54.0, 0.01693316295987479
55.0, 0.027346025411046675
56.0, 0.036389983094161624
57.0, 0.04206093615447011
58.0, 0.04306208617423216
59.0, 0.04011727222836898
60.0, 0.03445725827420594
61.0, 0.03144091296178018
62.0, 0.025814049279953274
63.0, 0.017738784818384118
64.0, 0.006696563584054809
65.0, 0.0024880141403822325
66.0, 0.0007091465199898031
67.0, 0.0006466450093861447
68.0, 0.0007345494322955131
69.0, 0.0014547610733395269
70.0, 0.0017596404831219787
71.0, 0.0008903189293012901
72.0, 0.004056970626269876
73.0, 0.008354005429087067
74.0, 0.013635889873274472
75.0, 0.020205654067790183
76.0, 0.026893068727657177
77.0, 0.03500125625447978
78.0, 0.045516917557657466
79.0, 0.060887344220968816
80.0, 0.08472652784035757
81.0, 0.1166449120054976
82.0, 0.15732343774540705
83.0, 0.19771541246511018
84.0, 0.23531381595375597
85.0, 0.26859562650184454
86.0, 0.29898609029702133
87.0, 0.3258005582805271
88.0, 0.3481577281559768
89.0, 0.3624120364622188
90.0, 0.3657127629963853
91.0, 0.36189608430275844
92.0, 0.3515208184591701
93.0, 0.3325816687567256
94.0, 0.30884388697676307
95.0, 0.28186331613111415
96.0, 0.25367907140129764
97.0, 0.227097691917205
98.0, 0.20199915241773003
99.0, 0.17839365710973637
100.0, 0.1553812803554098
101.0, 0.1336044638017325
102.0, 0.11350332754808595
103.0, 0.09624054748967492
104.0, 0.08426779468107337
105.0, 0.07683682622641612
106.0, 0.0731302446407936
107.0, 0.06627176245957049
108.0, 0.05792954599402303
109.0, 0.048078974445112804
110.0, 0.03627734771043217
111.0, 0.031233968154830916
112.0, 0.029130064200176636
113.0, 0.02980658073776802
114.0, 0.034828283184497634
115.0, 0.04039981047022152
116.0, 0.04429268987844104
117.0, 0.04481026099161316
118.0, 0.04054233257513048
119.0, 0.03403266809258619
120.0, 0.027321525643418044
121.0, 0.02636965310418172
122.0, 0.0241094525711381
123.0, 0.021706972101859966
124.0, 0.019649131113224333
125.0, 0.021079688040078846
126.0, 0.021159378873496826
127.0, 0.02152808102344469
128.0, 0.025276394984239697
129.0, 0.03078436618750623
130.0, 0.033583321118569175
131.0, 0.03308985548525833
132.0, 0.034447863601169595
133.0, 0.031536361636384895
134.0, 0.028309632968967904
135.0, 0.028732335172797874
136.0, 0.025409384725502908
137.0, 0.023905386896827703
138.0, 0.023999082986219004
139.0, 0.022199063864418875
140.0, 0.0193818410482824
141.0, 0.015354762628539577
142.0, 0.009823637215509063
143.0, 0.007236223260964652
144.0, 0.007078663145233421
145.0, 0.008360450063999316
146.0, 0.00906852856048653
147.0, 0.009570737988550963
148.0, 0.009647545862666584
149.0, 0.00929912286161392
150.0, 0.00985813624920808
151.0, 0.013086624565399874
152.0, 0.017000570924174344
153.0, 0.01940986074467708
154.0, 0.023527652132214985
155.0, 0.02893133907464147
156.0, 0.03513280976018349
157.0, 0.039937609938036106
158.0, 0.04734272919384445
159.0, 0.05791041266763461
160.0, 0.07241066563874234
161.0, 0.08909967449070011
162.0, 0.10952971003732594
163.0, 0.13280253267373548
164.0, 0.15751689956080084
165.0, 0.1799570219568503
166.0, 0.2025406829582334
167.0, 0.2258107683103567
168.0, 0.24901263247844083
169.0, 0.2645416346658466
170.0, 0.2758169372095746
171.0, 0.28523435283683796
172.0, 0.2799347696747512
173.0, 0.26932072393523465
174.0, 0.25437848135420404
175.0, 0.2351544640571688
176.0, 0.2138042936245966
177.0, 0.19248484108136296
178.0, 0.1720563371512478
179.0, 0.15178172544368973
180.0, 0.13538675058169014
181.0, 0.12195549104962236
182.0, 0.11083584140313861
183.0, 0.10287792919520321
184.0, 0.09570074554846872
185.0, 0.08900134692951586
186.0, 0.08307991177424436
187.0, 0.0753819844642045
188.0, 0.06801750919405604
189.0, 0.062234467613862046
190.0, 0.058949857582940336
191.0, 0.05219128135632747
192.0, 0.04420869349550667
193.0, 0.03942249612671174
194.0, 0.03417247957644098
195.0, 0.03043509772734063
196.0, 0.02860788976665087
197.0, 0.02843267999224589
198.0, 0.026787901861449474
199.0, 0.02645141182817158
200.0, 0.02961044850911464
201.0, 0.03031338277423698
202.0, 0.030726308231386917
203.0, 0.031127644157588497
204.0, 0.032016407224202896
205.0, 0.031440011539715595
206.0, 0.02974352304387871
207.0, 0.027314905628128657
208.0, 0.02724725984059371
209.0, 0.026282114605952648
210.0, 0.024229519389676338
211.0, 0.02076043712966079
212.0, 0.022614956918219443
213.0, 0.02468885094244663
214.0, 0.027711840580577806
215.0, 0.0341133843438769
216.0, 0.04250507385478978
217.0, 0.051102075517938154
218.0, 0.059929925754050026
219.0, 0.07291197308265976
220.0, 0.08730162174658884
221.0, 0.10261788996076743
222.0, 0.11864580841507817
223.0, 0.13845527534694912
224.0, 0.1575404540326682
225.0, 0.17637255547139238
226.0, 0.196225351606742
227.0, 0.21023305529748573
228.0, 0.22106188328839535
229.0, 0.22927867567269022
230.0, 0.23529129358532272
231.0, 0.23950228390415657
232.0, 0.2413929520360628
233.0, 0.2403779469091729
234.0, 0.23923422549178266
235.0, 0.23826528093166124
236.0, 0.23717443693084064
237.0, 0.23540643490639454
238.0, 0.2385267269651801
239.0, 0.23892259995684126
240.0, 0.2355209152811349
241.0, 0.22876773964019467
242.0, 0.2203554490744216
243.0, 0.20878954608994788
244.0, 0.19321240219815797
245.0, 0.17725508021994799
246.0, 0.15904631418929197
247.0, 0.14164051618122034
248.0, 0.12901694226859192
249.0, 0.11293113598663912
250.0, 0.10157356219188421
251.0, 0.09413513883446592
252.0, 0.0859903391928313
253.0, 0.08114450731952041
254.0, 0.07593596027883227
255.0, 0.06967080611309526
256.0, 0.06711932261672307
257.0, 0.06072341920659239
258.0, 0.054501706308664834
259.0, 0.0516068095555293
260.0, 0.0462628548529835
261.0, 0.041406879096696644
262.0, 0.038275776146847657
263.0, 0.03944493725494656
264.0, 0.039765065512980355
265.0, 0.04057004296179315
266.0, 0.042912201731848766
267.0, 0.050995303361085716
268.0, 0.05635791874128729
269.0, 0.06534921314896422
270.0, 0.08045002635830671
271.0, 0.09028637610872182
272.0, 0.09625461938053344
273.0, 0.09784967830947897
274.0, 0.09385979743048133
275.0, 0.09586757966685099
276.0, 0.09124340852851659
277.0, 0.08075992452338836
278.0, 0.06706387123524074
279.0, 0.05522966645717851
280.0, 0.04438512691606286
281.0, 0.03455151180891059
282.0, 0.02688318720270922
283.0, 0.019951677027658397
284.0, 0.014651708713927986
285.0, 0.011659508952045584
286.0, 0.013888080985771383
287.0, 0.014396177413469111
288.0, 0.013929985873787763
289.0, 0.013155884673828841
290.0, 0.01634469732813136
291.0, 0.018822199765303235
292.0, 0.020705187532303746
293.0, 0.02283404759876565
294.0, 0.020357901236371996
295.0, 0.01916915404172343
296.0, 0.01989485390422855
297.0, 0.01974516827804008
298.0, 0.019658258247494124
299.0, 0.019355770134546736
300.0, 0.018746337963837758
301.0, 0.01856564395379792
302.0, 0.01785821596803701
303.0, 0.019100371949046815
304.0, 0.024736894012497714
305.0, 0.02537916546041003
306.0, 0.02452190312716585
307.0, 0.024689222080836504
308.0, 0.030479449978290257
309.0, 0.029945020687769282
310.0, 0.03012626390993722
311.0, 0.03105519873370938
312.0, 0.029328514885590486
313.0, 0.02977359326579611
314.0, 0.02987773571194724
315.0, 0.02873611256439051
316.0, 0.025332501990471372
317.0, 0.027182931889969363
318.0, 0.028306234845780806
319.0, 0.025349206441955943
320.0, 0.029031258069322812
321.0, 0.02862502893658425
322.0, 0.027710813999198163
323.0, 0.030319799262200874
324.0, 0.0289475032510641
325.0, 0.031882501192195024
326.0, 0.03667978507167793
327.0, 0.03739583806094662
328.0, 0.04090856517574203
329.0, 0.04397876902831823
330.0, 0.04692417948532047
331.0, 0.05304963590750857
332.0, 0.05356148239995669
333.0, 0.056886274849324764
334.0, 0.0647663102352878
335.0, 0.06886038463743016
336.0, 0.0765927695425784
337.0, 0.0864235474710746
338.0, 0.09778536613768196
339.0, 0.11519003221432579
340.0, 0.13396107455745448
341.0, 0.15564069334973732
342.0, 0.18205647940589237
343.0, 0.2098661428547579
344.0, 0.24033497685871077
345.0, 0.2699051996493765
346.0, 0.2922967041081905
347.0, 0.3149376522852785
348.0, 0.3283037207642355
349.0, 0.3320748145438636
350.0, 0.32746792232107724
351.0, 0.3115619598700545
352.0, 0.28894585637923526
353.0, 0.26113304183089436
354.0, 0.23070223382786248
355.0, 0.19959147906699753
356.0, 0.16953055140817852
357.0, 0.1413515963284842
358.0, 0.11636534294788561
359.0, 0.09401165976595614
360.0, 0.07625506347975729
361.0, 0.06423624020751516
362.0, 0.04758997928709461
363.0, 0.03657225501459539
364.0, 0.027237145134625208
365.0, 0.01589771513962613
366.0, 0.012531390545969768
367.0, 0.006437659026753951
368.0, 0.0015397181480457636
369.0, 0.004276375683925977
370.0, 0.010590134755679563
371.0, 0.015432136484949713
372.0, 0.018424570951275473
373.0, 0.019496050508917968
374.0, 0.02186770611990504
375.0, 0.023961269772876423
376.0, 0.02487691561969053
377.0, 0.022263354140683256
378.0, 0.02034617774559426
379.0, 0.016306082674687753
380.0, 0.009806481923996094
381.0, 0.00313996524669928
382.0, 0.00799758685467774
383.0, 0.016595615159975596
384.0, 0.02585511639117572
385.0, 0.03419391559562189
386.0, 0.04520951677242689
387.0, 0.05365823399956683
388.0, 0.05708687615028688
389.0, 0.06720048575005819
390.0, 0.06847359373348438
391.0, 0.06593434788298144
392.0, 0.06329996382091503
393.0, 0.058278065989780095
394.0, 0.05129436464355025
395.0, 0.044253128920181274
396.0, 0.03927471047849145
397.0, 0.02591154620613427
398.0, 0.01945011116143473
399.0, 0.01633545641383204
400.0, 0.010692276198765555
401.0, 0.007934563925851209
402.0, 0.008041204751392738
403.0, 0.008672279702903315
404.0, 0.005137131768179589
405.0, 0.0036904344240473045
406.0, 0.006388247809626638
407.0, 0.01164784407744492
408.0, 0.014703408770486
409.0, 0.01958185050047201
410.0, 0.025678310128505917
411.0, 0.03183001776548481
412.0, 0.034304125923500114
413.0, 0.044284871831517546
414.0, 0.05379979961079265
415.0, 0.06135382846355166
416.0, 0.06920287608083245
417.0, 0.08612477483497916
418.0, 0.10394513656546306
419.0, 0.12074529940772574
420.0, 0.1407729031914539
421.0, 0.158528456253408
422.0, 0.17867857011406124
423.0, 0.20286470767598053
424.0, 0.2283813480870748
425.0, 0.24916277505369402
426.0, 0.2727753042299903
427.0, 0.30222682782712273
428.0, 0.3273189369788859
429.0, 0.35753158568247523
430.0, 0.39056248958385886
431.0, 0.4253946336562125
432.0, 0.46639829614473366
433.0, 0.489769363897263
434.0, 0.5079582215415068
435.0, 0.5286067417592156
436.0, 0.5209484855556231
437.0, 0.515872697557805
438.0, 0.5048607788130188
439.0, 0.4808796533003099
440.0, 0.46332119505440483
441.0, 0.4436066755655571
442.0, 0.42847310146958095
443.0, 0.4245031663806324
444.0, 0.41925035890578805
445.0, 0.41908797298600386
446.0, 0.4232240519096053
447.0, 0.4308678195921868
448.0, 0.43163515575032335
449.0, 0.43584699814123484
450.0, 0.440161099630821
451.0, 0.4402699602424517
452.0, 0.4364401833697033
453.0, 0.4215579098287798
454.0, 0.40464333962015936
455.0, 0.3979678834134515
456.0, 0.37175215669233025
457.0, 0.3515455834731197
458.0, 0.33200309492620433
459.0, 0.3038206223928804
460.0, 0.27965951797743105
461.0, 0.25597690880851515
462.0, 0.23168620185717623
463.0, 0.20538513726062774
464.0, 0.1816098194449112
465.0, 0.16218938217352627
466.0, 0.14480247996664242
467.0, 0.1256502379417682
468.0, 0.11061076555470942
469.0, 0.09970870399827349
470.0, 0.09051845504490622
471.0, 0.07912459441569362
472.0, 0.07092802386290192
473.0, 0.06068654583135069
474.0, 0.05053038696038896
475.0, 0.0446727332736342
476.0, 0.04034465750302831
477.0, 0.037182473899230545
478.0, 0.0338130397407645
479.0, 0.02797680506547475
480.0, 0.02816398893697298
481.0, 0.028294203216407004
482.0, 0.028267885913804754
483.0, 0.02865081058263703
484.0, 0.03222395801690486
485.0, 0.03555001087032184
486.0, 0.03919399256933883
487.0, 0.044461130200450574
488.0, 0.04769362013727517
489.0, 0.052113733608265024
490.0, 0.058808613019913906
491.0, 0.06920725544000084
492.0, 0.07805038284727427
493.0, 0.08954992329932787
494.0, 0.10198583455449267
495.0, 0.11254955448255648
496.0, 0.12643767483315663
497.0, 0.14282397968192556
498.0, 0.16048112035857323
499.0, 0.17783892037327706
500.0, 0.18859507788310115
501.0, 0.20011075653885002
502.0, 0.20979150367656513
503.0, 0.21412827339619822
504.0, 0.2250650462844221
505.0, 0.22918414942553134
506.0, 0.2306735551527245
507.0, 0.23447374703660573
508.0, 0.22698675501145898
509.0, 0.21774080794456824
510.0, 0.20760201779194679
511.0, 0.1972312169910116
512.0, 0.17145939550379688
513.0, 0.15099193798854701
514.0, 0.13251234583358323
515.0, 0.11333527234584638
516.0, 0.1016972290815303
517.0, 0.08574716054540447
518.0, 0.0698435187065121
519.0, 0.05744180080731542
520.0, 0.05162352245064643
521.0, 0.04429205572693284
522.0, 0.03715959545819337
523.0, 0.031143906251971113
524.0, 0.02374268099738144
525.0, 0.021342628756825934
526.0, 0.02012315390253585
527.0, 0.01797856972401207
528.0, 0.014535037126610934
529.0, 0.013937218501398358
530.0, 0.012161773937385177
531.0, 0.00811438533236347
532.0, 0.006679187015024568
533.0, 0.007479194091928023
534.0, 0.00804441444091378
535.0, 0.00792588000201154
536.0, 0.009390808562423476
537.0, 0.008448303574717373
538.0, 0.008781519080502733
539.0, 0.010620970373191294
540.0, 0.010767881951966221
541.0, 0.014124254821856863
542.0, 0.015577259413038757
543.0, 0.01597330640371805
544.0, 0.021118194597716185
545.0, 0.024225898923187307
546.0, 0.027514227595465523
547.0, 0.03102958870932943
548.0, 0.034082898592285533
549.0, 0.04209789388597443
550.0, 0.04858396298112302
551.0, 0.05457865654319615
552.0, 0.06304192620031839
553.0, 0.07548965732682435
554.0, 0.09290364031194115
555.0, 0.10950000688999602
556.0, 0.11770872544693929
557.0, 0.1413283379406193
558.0, 0.16888524540849656
559.0, 0.2000337421727856
560.0, 0.23458504551486342
561.0, 0.27280416250326
562.0, 0.3032421808261735
563.0, 0.3254804266158577
564.0, 0.3391213261136441
565.0, 0.3425428053956198
566.0, 0.3216569097730827
567.0, 0.29329120213492427
568.0, 0.26573381261682893
569.0, 0.2343207229385486
570.0, 0.20574854243687393
571.0, 0.18177128925748873
572.0, 0.16423202734266132
573.0, 0.158552317621532
574.0, 0.15577494697003783
575.0, 0.15379351496754792
576.0, 0.15362824680681916
577.0, 0.16016769868296948
578.0, 0.17376164818124606
579.0, 0.1875595732604639
580.0, 0.2019082820125963
581.0, 0.21991513111601327
582.0, 0.24508964505426528
583.0, 0.26491585565299947
584.0, 0.2824655804315204
585.0, 0.3037261105427753
586.0, 0.3341721468162123
587.0, 0.358745901857984
588.0, 0.3824248522925794
589.0, 0.41041113360092074
590.0, 0.43760207084473557
591.0, 0.4658257992261278
592.0, 0.4973978850092767
593.0, 0.5337147832439596
594.0, 0.5733180062114848
595.0, 0.601737693378295
596.0, 0.6226191926114077
597.0, 0.6358408624382585
598.0, 0.6324355095986224
599.0, 0.63012119685415
600.0, 0.6126770638730763
601.0, 0.5813772637927164
602.0, 0.5540630765027464
603.0, 0.5297650928148392
604.0, 0.5051057231764171
605.0, 0.4819043665433614
606.0, 0.464702527142497
607.0, 0.4478771208924407
608.0, 0.43282775726906564
609.0, 0.41983095336226683
610.0, 0.40903361476751854
611.0, 0.39602708711855067
612.0, 0.3857303400229609
613.0, 0.3739904220586622
614.0, 0.35773925387500105
615.0, 0.33924476574270446
616.0, 0.31985523149664186
617.0, 0.29542996425575746
618.0, 0.26596039760677676
619.0, 0.2425544889752631
620.0, 0.21754557633039648
621.0, 0.19628478390083567
622.0, 0.17805997545789976
623.0, 0.15620875763268918
624.0, 0.14251660850052475
625.0, 0.12757942500951963
626.0, 0.1144506917984382
627.0, 0.11070939414365416
628.0, 0.09783936967202964
629.0, 0.09227651730661679
630.0, 0.08886273623016847
631.0, 0.08160677980824178
632.0, 0.07652591236643597
633.0, 0.07207381258073063
634.0, 0.06688924154462386
635.0, 0.06113379581114229
636.0, 0.06245799486631015
637.0, 0.058014597399416085
638.0, 0.05450161920391183
639.0, 0.05325693883841427
640.0, 0.05073517864748632
641.0, 0.04847842720954603
642.0, 0.0453874325376616
643.0, 0.04213455105696207
644.0, 0.04038163505851928
645.0, 0.03826018302554791
646.0, 0.03641901171572295
647.0, 0.03478572599377255
648.0, 0.033202598560834226
649.0, 0.030566510806422278
650.0, 0.028812924699318482
651.0, 0.02807725530968479
652.0, 0.02790310544354204
653.0, 0.02456984152683287
654.0, 0.025055648918172847
655.0, 0.02398234730981882
656.0, 0.020769151378013752
657.0, 0.0191040284589715
658.0, 0.020079407961487557
659.0, 0.019655522600973606
660.0, 0.01841621384383341
661.0, 0.018296643081710372
662.0, 0.018255100953918708
663.0, 0.01895200877585477
664.0, 0.019076277634616723
665.0, 0.017666341402744
666.0, 0.017867678235985805
667.0, 0.017171747291055185
668.0, 0.01735165140137085
669.0, 0.01856417863843462
670.0, 0.017636987305286126
671.0, 0.01714080915049599
672.0, 0.01812065617470004
673.0, 0.019501091980186108
674.0, 0.018425359708309254
675.0, 0.019687906634464757
676.0, 0.019559025737034004
677.0, 0.018922151035566513
678.0, 0.019120626605713214
679.0, 0.021598513199184016
680.0, 0.020046745756141685
681.0, 0.018949593561064692
682.0, 0.02015744952412506
683.0, 0.0192527836696387
684.0, 0.01898867816941032
685.0, 0.01945092158181629
686.0, 0.01998763430275285
687.0, 0.018914897503187533
688.0, 0.0199212838139724
689.0, 0.019521978869828222
690.0, 0.018334794494969504
691.0, 0.017512966086090737
692.0, 0.016852766783094556
693.0, 0.01808823012616592
694.0, 0.01852825739265163
695.0, 0.017109473197971372
696.0, 0.017272569098090537
697.0, 0.015745868951152504
698.0, 0.013954264588805962
699.0, 0.012485329738228523
700.0, 0.011823928516012298
701.0, 0.011218365882257459
702.0, 0.009686458581123564
703.0, 0.008515070358400321
704.0, 0.009190565428196445
705.0, 0.010122128582874933
706.0, 0.007943819288958473
707.0, 0.0048512315272168606
708.0, 0.0027681300044502728
709.0, 0.005254850287439463
710.0, 0.0031180944416808014
711.0, 0.0017333110599845004
712.0, 0.0015100194259066813
713.0, 0.0007445609655648531
714.0, 0.002297201881134081
715.0, 0.0017599939432029505
716.0, 0.0015848219320261662
717.0, 0.0038098764520675963
718.0, 0.0016732960987639583
719.0, 0.0010547131369749803
720.0, 0.0015477913249305904
721.0, 0.0026457299963747833
722.0, 0.0031726834063260843
723.0, 0.004465696770447587
724.0, 0.004946996041746981
725.0, 0.004534244915278776
726.0, 0.0035132979356095446
727.0, 0.00641826544825847
728.0, 0.00598051826260752
729.0, 0.003834898477592578
730.0, 0.0019561091595043977
731.0, 0.005381555559409434
732.0, 0.004924748829764454
733.0, 0.004907208568135455
734.0, 0.005626116786423878
735.0, 0.004993424872717009
736.0, 0.004366121211093412
737.0, 0.003755986143109563
738.0, 0.0034200752302028826
739.0, 0.003605039100779828
740.0, 0.0043737359858773426
741.0, 0.004591693177383232
742.0, 0.005179886842340079
743.0, 0.005804941212948654
744.0, 0.004035673020945284
745.0, 0.004612154189341712
746.0, 0.0048732265793016835
747.0, 0.004424480045363621
748.0, 0.0032904630475830083
749.0, 0.0032127522459526247
750.0, 0.0027326932840909695
751.0, 0.002475604827832358
752.0, 0.002512136144352782
753.0, 0.0014787123836739738
754.0, 0.001173163707253051
755.0, 0.0008579394419035679
756.0, 0.0004952911504197652
757.0, 0.00027023616370169573
758.0, 0.00022125851286177757
759.0, 0.0002924467604597201
760.0, 0.0008632484839228281
761.0, 0.001956586229093137
762.0, 0.0021018563144194467
763.0, 0.0017410098440018317
764.0, 0.0010684485435580016
765.0, 0.001369347278974155
766.0, 0.005083671867453431
767.0, 0.001971861034553468
768.0, 0.0022857934328861704
769.0, 0.003362575845738083
770.0, 0.0029201844773774467
771.0, 0.003201946857261317
772.0, 0.003649199099331308
773.0, 0.0027238934614066674
774.0, 0.0018747007384142082
775.0, 0.0053966477130557595
776.0, 0.003903221221742373
777.0, 0.00329645036506651
778.0, 0.003919813697672724
779.0, 0.005500144274324734
780.0, 0.005928625239017433
781.0, 0.005189640251965477
782.0, 0.004207639873123363
783.0, 0.004416833516553664
784.0, 0.008441178925059547
785.0, 0.007153028268098805
786.0, 0.007326782587780082
787.0, 0.008071102599475936
788.0, 0.008276025110921868
789.0, 0.008667533291683106
790.0, 0.008289447209496644
791.0, 0.008652667773728657
792.0, 0.009726592498002007
793.0, 0.010340052744615077
794.0, 0.011998068197255896
795.0, 0.012682068656270177
796.0, 0.012823178119629058
797.0, 0.013067441571202331
798.0, 0.014711100948324498
799.0, 0.01662320785763308
800.0, 0.017289659443684015
801.0, 0.01711251073407374
802.0, 0.017836840130973298
803.0, 0.021128603897982115
804.0, 0.020586589612829533
805.0, 0.0201028255808461
806.0, 0.022352860072453358
807.0, 0.02425252777341235
808.0, 0.026742993014272087
809.0, 0.027675448657475454
810.0, 0.028415806701077347
811.0, 0.032201569452234055
812.0, 0.03270913797933988
813.0, 0.03488883671221553
814.0, 0.036828382437690634
815.0, 0.03785317129809327
816.0, 0.04069869121212311
817.0, 0.04327476527432596
818.0, 0.04724722397835849
819.0, 0.051107193197808
820.0, 0.05250564098502918
821.0, 0.05661509886788009
822.0, 0.061096194980441235
823.0, 0.06469177808325037
824.0, 0.06763925393465013
825.0, 0.07278753155375688
826.0, 0.0739636702674474
827.0, 0.07658296932991168
828.0, 0.07987554129508363
829.0, 0.08253387265646954
830.0, 0.0869857279792297
831.0, 0.08779306195211736
832.0, 0.08886341110131629
833.0, 0.09084606169769426
834.0, 0.09204725434152915
835.0, 0.09358619724139994
836.0, 0.09495452448113167
837.0, 0.09581623093419606
838.0, 0.09573063204136043
839.0, 0.09338069412193525
840.0, 0.09674182365268363
841.0, 0.09749370764293235
842.0, 0.09587126826675321
843.0, 0.09518110304680617
844.0, 0.09908474780122414
845.0, 0.09799325186365405
846.0, 0.09851457641284687
847.0, 0.10263305982140139
848.0, 0.10553013782987881
849.0, 0.11136149452491927
850.0, 0.11521171909285961
851.0, 0.11799805706165763
852.0, 0.12122457935658737
853.0, 0.12486978593015258
854.0, 0.13168153574543576
855.0, 0.1382564241065978
856.0, 0.14316431716922606
857.0, 0.14574158686869848
858.0, 0.1506247557897239
859.0, 0.1607791142371915
860.0, 0.17000340475541503
861.0, 0.17480312142757584
862.0, 0.17699712555427802
863.0, 0.18585529069915746
864.0, 0.18998704127305976
865.0, 0.1914912911073974
866.0, 0.19465351632486025
867.0, 0.19912666828509543
868.0, 0.2015913826890185
869.0, 0.2026537787216013
870.0, 0.20558066938766204
871.0, 0.21643404314556014
872.0, 0.22226733969504928
873.0, 0.23056727542371383
874.0, 0.24203643372594097
875.0, 0.2561460862712537
876.0, 0.26980456207829506
877.0, 0.2908475667157527
878.0, 0.3118782561725998
879.0, 0.3319467566609083
880.0, 0.3513266988258056
881.0, 0.37154613827452015
882.0, 0.38807045816434277
883.0, 0.40275157632478886
884.0, 0.4159006935282777
885.0, 0.4271285048703117
886.0, 0.43055050686800345
887.0, 0.43222341816707494
888.0, 0.42925154912902397
889.0, 0.4222720876097234
890.0, 0.41859743108639885
891.0, 0.4105657658473149
892.0, 0.39878711460086946
893.0, 0.3894552826794546
894.0, 0.388402010984553
895.0, 0.397748404107194
896.0, 0.39198714077003866
897.0, 0.39686492085248803
898.0, 0.4124189834135833
899.0, 0.4292396724381581
900.0, 0.44217271493224214
901.0, 0.46272494757784216
902.0, 0.48947600501707683
903.0, 0.519981565962361
904.0, 0.5500686238359225
905.0, 0.5905584457213318
906.0, 0.6351043547799735
907.0, 0.6810535459148158
908.0, 0.7274566751004697
909.0, 0.7773923690220507
910.0, 0.8276787739325994
911.0, 0.8775815088155202
912.0, 0.9213063706442217
913.0, 0.9552497228758945
914.0, 0.9936290343030844
915.0, 0.9889735999607938
916.0, 0.9675582508346399
917.0, 0.9393508160424582
918.0, 0.9083395993984923
919.0, 0.8389506613131207
920.0, 0.7710226951860835
921.0, 0.7065297375452771
922.0, 0.6450406907680042
923.0, 0.5838401433013397
924.0, 0.5268962762330209
925.0, 0.47529204006103754
926.0, 0.4273868128861854
927.0, 0.38267817868376913
928.0, 0.34332776816639893
929.0, 0.3100439674063481
930.0, 0.28257157751636064
931.0, 0.2574687853403812
932.0, 0.2328202633528893
933.0, 0.21486795200209097
934.0, 0.1998745935201491
935.0, 0.18179595899598172
936.0, 0.16561858917222796
937.0, 0.1570442698561564
938.0, 0.14463523207936443
939.0, 0.13282275987365966
940.0, 0.12522651849649866
941.0, 0.1193888896440673
942.0, 0.11009528042698742
943.0, 0.10193266064253667
944.0, 0.09846804548285573
945.0, 0.09613791185874744
946.0, 0.09296226040171857
947.0, 0.0879384188694431
948.0, 0.08601640535901323
949.0, 0.08460007058053368
950.0, 0.08418482672560759
951.0, 0.08402357459256807
952.0, 0.08130486088281677
953.0, 0.07898778705034512
954.0, 0.08118031384189262
955.0, 0.08228902991924583
956.0, 0.07978959622347165
957.0, 0.07979913654085352
958.0, 0.07859498814223775
959.0, 0.07707938455392595
960.0, 0.07503077824107708
961.0, 0.072238651148157
962.0, 0.06893408235348085
963.0, 0.06548473516686641
964.0, 0.06193023434212052
965.0, 0.05848308976770146
966.0, 0.05549889016660205
967.0, 0.05409395668897688
968.0, 0.05167183426892244
969.0, 0.0524378765952339
970.0, 0.0541115131453581
971.0, 0.05328411847589867
972.0, 0.0590635626647033
973.0, 0.06006056361132525
974.0, 0.06500865486672591
975.0, 0.07182331580696386
976.0, 0.07380504492865006
977.0, 0.07785280395492021
978.0, 0.08330302106195002
979.0, 0.08509182497442809
980.0, 0.082602033827449
981.0, 0.07826980459290604
982.0, 0.07659399402926968
983.0, 0.06821169699521522
984.0, 0.062204190317489985
985.0, 0.05857963599359455
986.0, 0.049500265020053474
987.0, 0.044704354098322026
988.0, 0.039706742204293176
989.0, 0.037360168125376125
990.0, 0.036332736834805875
991.0, 0.030475306099730076
992.0, 0.029949296272284754
993.0, 0.02764691665137907
994.0, 0.0261908529539474
995.0, 0.025634929810771423
996.0, 0.022248499510587133
997.0, 0.020469169336456945
998.0, 0.01803006020131688
999.0, 0.01776042133186495
1000.0, 0.019549077877535275
1001.0, 0.01831388654393439
1002.0, 0.017324468420487512
1003.0, 0.017196848691686025
1004.0, 0.01723294449949763
1005.0, 0.01706414292029296
1006.0, 0.01701596191153492
1007.0, 0.019187957702129586
1008.0, 0.019276489712275306
1009.0, 0.01975612330304606
1010.0, 0.02191218979563886
1011.0, 0.024015348679690067
1012.0, 0.027396662772712285
1013.0, 0.03210696231729652
1014.0, 0.03585527812531702
1015.0, 0.038696449050873855
1016.0, 0.045890058996857275
1017.0, 0.0494709624470501
1018.0, 0.051833762462880385
1019.0, 0.05484407153256399
1020.0, 0.05771357774621983
1021.0, 0.054062303974778604
1022.0, 0.0522335598221614
1023.0, 0.04930330380971867
1024.0, 0.04695959981878978
1025.0, 0.04577678715101351
1026.0, 0.04347707357550651
1027.0, 0.04125745317427877
1028.0, 0.04289511266655015
1029.0, 0.04370960627537702
1030.0, 0.04247633511866464
1031.0, 0.045518565267840046
1032.0, 0.04649441139374521
1033.0, 0.05035125064462755
1034.0, 0.05364581161119674
1035.0, 0.055357301261889535
1036.0, 0.059375798085742316
1037.0, 0.06250087796229915
1038.0, 0.0626282944637967
1039.0, 0.06499189657224197
1040.0, 0.06882303428803038
1041.0, 0.06387951989509216
1042.0, 0.06370107575546541
1043.0, 0.0659380455254177
1044.0, 0.06392885432284029
1045.0, 0.057582238571079344
1046.0, 0.05515102861479019
1047.0, 0.05358756812516341
1048.0, 0.05235515011794556
1049.0, 0.048895710844521656
1050.0, 0.0448929205272784
1051.0, 0.04626655642726417
1052.0, 0.042820994859631735
1053.0, 0.040355363015339284
1054.0, 0.03926976880391761
1055.0, 0.03910048449062853
1056.0, 0.03867034998954495
1057.0, 0.037266399860438365
1058.0, 0.03614789048464856
1059.0, 0.03466945407118575
1060.0, 0.03313108263358988
1061.0, 0.0323066825006217
1062.0, 0.031037171212400013
1063.0, 0.02900558226737136
1064.0, 0.027148878245763793
1065.0, 0.025479394818064282
1066.0, 0.02384167402671781
1067.0, 0.024525441621206106
1068.0, 0.02426499937327284
1069.0, 0.02571200776479024
1070.0, 0.028994851009737175
1071.0, 0.0329946979321046
1072.0, 0.034653589898641174
1073.0, 0.0397276168232321
1074.0, 0.045005637030562484
1075.0, 0.051196468203503716
1076.0, 0.059115514414768505
1077.0, 0.06700468034627308
1078.0, 0.07939826835474711
1079.0, 0.09307842780894418
1080.0, 0.10820007781124409
1081.0, 0.12538346113774237
1082.0, 0.14548851270584479
1083.0, 0.16508435544719413
1084.0, 0.18570298607645305
1085.0, 0.20216796800730358
1086.0, 0.21197010542979597
1087.0, 0.21725890384126975
1088.0, 0.20849783337959776
1089.0, 0.19261626842777166
1090.0, 0.17136476874332304
1091.0, 0.14714279907110148
1092.0, 0.12291918925910247
1093.0, 0.10107122054756468
1094.0, 0.08546101718576249
1095.0, 0.07040163087669274
1096.0, 0.05677849466821045
1097.0, 0.048659023451235614
1098.0, 0.04335803638054306
1099.0, 0.038539638296230784
1100.0, 0.031050153856069764
1101.0, 0.02535827603227566
1102.0, 0.02569628650152342
1103.0, 0.021984636837802135
1104.0, 0.021689786807466645
1105.0, 0.01920603925433437
1106.0, 0.017348256492020864
1107.0, 0.017649488113547704
1108.0, 0.014067459336779935
1109.0, 0.014066161346936688
1110.0, 0.012503198738735516
1111.0, 0.010115449412484054
1112.0, 0.00849069783041772
1113.0, 0.009652594712814546
1114.0, 0.008944907999908065
1115.0, 0.007653237010132777
1116.0, 0.006690925734230728
1117.0, 0.006211211680329384
1118.0, 0.005745050638469656
1119.0, 0.004927508223358892
1120.0, 0.006597493775604832
1121.0, 0.013253394376360292
1122.0, 0.021538493936682487
1123.0, 0.025770745661388678
1124.0, 0.02109734540370296
1125.0, 0.01403016383332604
1126.0, 0.008678704281293578
1127.0, 0.004644490669806446
1128.0, 0.0019291015590341743
1129.0, 0.003965387467404335
1130.0, 0.002990884894658364
1131.0, 0.0017251010901976284
1132.0, 0.0006814183769069798
1133.0, 0.00021102492913400458
1134.0, 0.0006059497058901187
1135.0, 0.0016850633407462768
1136.0, 0.002959882952618596
1137.0, 0.0025586108758003097
1138.0, 0.0013579777916967305
1139.0, 0.0015611839316536985
1140.0, 0.002629424068276065
1141.0, 0.0014973951994912155
1142.0, 0.0018398225985141003
1143.0, 0.001996610962425773
1144.0, 0.0004355680144353616
1145.0, 0.0005312373364752839
1146.0, 0.0028300471319160298
1147.0, 0.0017119658900972856
1148.0, 0.0008485304348293336
1149.0, 0.0019398494507299464
1150.0, 0.0027359950481175084
1151.0, 0.002547640448367643
1152.0, 0.0017626483706954835
1153.0, 0.0017668550072789334
1154.0, 0.0018108611591552567
1155.0, 0.0006857982840751812
1156.0, 0.0040930902808034375
1157.0, 0.0023775001783738862
1158.0, 0.0017690863528884173
1159.0, 0.0016431476745467953
1160.0, 0.0011775563652899755
1161.0, 0.003729505513226464
1162.0, 0.003927304088055358
1163.0, 0.0020057997589696865
1164.0, 0.0008568089670311405
1165.0, 0.001679115732719436
1166.0, 0.003342590459683846
1167.0, 0.0016445080376487967
1168.0, 0.0018325697282228735
1169.0, 0.002261985454985678
1170.0, 0.002131889039905827
1171.0, 0.0013546945411284784
1172.0, 0.001288699802925717
1173.0, 0.0004451518310290881
1174.0, 0.0018385549223969696
1175.0, 0.0023470332851338272
1176.0, 0.0006911442547889487
1177.0, 0.0004384613072002317
1178.0, 0.00038437027757766114
1179.0, 0.0024050488945401493
1180.0, 0.0026917887886849304
1181.0, 0.0016853708002210037
1182.0, 0.002336291855656457
1183.0, 0.003533037038784088
1184.0, 0.002398525474967435
1185.0, 0.0019037685884324335
1186.0, 0.0019554998982511257
1187.0, 0.002344362895969054
1188.0, 0.0043414311485526665
1189.0, 0.0043442959813907766
1190.0, 0.00402635392096297
1191.0, 0.003842245070174827
1192.0, 0.0034087912225997394
1193.0, 0.0021518413926253322
1194.0, 0.0047640044827548375
1195.0, 0.005363719925492258
1196.0, 0.003981248771704125
1197.0, 0.0025362394813139015
1198.0, 0.0033006585524201974
1199.0, 0.007936915569916445
1200.0, 0.004177903018904042
1201.0, 0.004876172339326631
1202.0, 0.004368021450543572
1203.0, 0.002868410452511908
1204.0, 0.005953509566254959
1205.0, 0.005513855298083087
1206.0, 0.005745616169413317
1207.0, 0.004866235233151059
1208.0, 0.003954434158442855
1209.0, 0.004022518466071477
1210.0, 0.003538007552777773
1211.0, 0.0050647648045512245
1212.0, 0.00452923366843237
1213.0, 0.004199706220649853
1214.0, 0.00438741914239531
1215.0, 0.003631030295529689
1216.0, 0.0035143930232456946
1217.0, 0.004552737140337808
1218.0, 0.00507582494111023
1219.0, 0.00501046742131676
1220.0, 0.004536514474066417
1221.0, 0.0033900069800826237
1222.0, 0.0028132962233908296
1223.0, 0.002699448317987705
1224.0, 0.0029930343216378946
1225.0, 0.003213370647254208
1226.0, 0.002778615606198387
1227.0, 0.002302729045806724
1228.0, 0.001523240093607107
1229.0, 0.0012590129535183852
1230.0, 0.0014884226369628337
1231.0, 0.0017132922874029536
1232.0, 0.0010291175001867863
1233.0, 0.002091793792919502
1234.0, 0.0021354115961438975
1235.0, 0.0022389366496524
1236.0, 0.002972107355726911
1237.0, 0.003982698861133694
1238.0, 0.0023659066886969203
1239.0, 0.0011510100018889684
1240.0, 0.0021091841594451837
1241.0, 0.0028965201458539293
1242.0, 0.0023826248112687183
1243.0, 0.0014168119471544734
1244.0, 0.00036739051715162306
1245.0, 0.001480668420707164
1246.0, 0.0015698441803501675
1247.0, 0.0007850689412799343
1248.0, 0.0005390359751813873
1249.0, 0.0025625144928909825
1250.0, 0.0006669459765385065
1251.0, 0.0010340203629364522
1252.0, 0.002946683440094285
1253.0, 0.004125716256305524
1254.0, 0.0025147363402352437
1255.0, 0.0013221968417494487
1256.0, 0.0011047126060991783
1257.0, 0.000695984259700857
1258.0, 0.0004937499409856347
1259.0, 0.0006708715189932341
1260.0, 0.0008219271540450214
1261.0, 0.0005519354728279306
1262.0, 0.0019173305632994126
1263.0, 0.0022968701697977673
1264.0, 0.004405787882293501
1265.0, 0.008108918868342087
1266.0, 0.0027994118095469177
1267.0, 0.0006646559473745641
1268.0, 0.0028492109265524186
1269.0, 0.0035227482310819496
1270.0, 0.0026386799988605547
1271.0, 0.0027614507911369384
1272.0, 0.0006282355138782496
1273.0, 0.003756339160381014
1274.0, 0.002484083882919017
1275.0, 0.0013142859750423243
1276.0, 0.0017932746482349187
1277.0, 0.0009538726884471716
1278.0, 0.00017713162264539018
1279.0, 0.00069638248281817
1280.0, 0.0016414824145558778
1281.0, 0.0021116937124835353
1282.0, 0.0015759912603451735
1283.0, 0.00022434147787856075
1284.0, 0.0005980329352703955
1285.0, 0.0005865372017388832
1286.0, 0.001089850375623575
1287.0, 0.0015175458653581926
1288.0, 0.0011340422478621126
1289.0, 0.00048334121065765753
1290.0, 0.0005583796010481685
1291.0, 0.001926966939616112
1292.0, 0.002733089531484474
1293.0, 0.0025471865135549597
1294.0, 0.002276090832193744
1295.0, 0.004041508414957158
1296.0, 0.002371750099118084
1297.0, 0.0023487579297052476
1298.0, 0.0016438294844389565
1299.0, 0.0008880808409435731
1300.0, 0.0027575906264887423
1301.0, 0.00034969888522644603
1302.0, 0.0009201880077229396
1303.0, 0.0015683150017976797
1304.0, 0.001304732866407475
1305.0, 0.0005266043373376692
1306.0, 0.0007929323425618631
1307.0, 0.002415726374092415
1308.0, 0.0009125361383113046
1309.0, 0.00011269378705067785
1310.0, 0.0002899701832221607
1311.0, 0.0007150210702954298
1312.0, 0.0007357859438978324
1313.0, 0.0009294788941672994
1314.0, 0.0015779928949344177
1315.0, 0.0015347439237550309
1316.0, 0.00130361004632277
1317.0, 0.0012640798949006206
1318.0, 0.0002646205659076989
1319.0, 0.0011040638505427172
1320.0, 0.0019481634031534517
1321.0, 0.0011830944255482483
1322.0, 0.00016054889336526961
1323.0, 0.0005571269567943953
1324.0, 0.0011736561667430236
1325.0, 0.0009798927950590056
1326.0, 0.0006837829201211149
1327.0, 0.0011703435427938766
1328.0, 0.0014427321914095034
1329.0, 0.0004861125468145351
1330.0, 0.0005693972370736551
1331.0, 0.0011286537329180059
1332.0, 0.001774168262161973
1333.0, 0.0021708600604957006
1334.0, 0.0016741482658765422
1335.0, 0.00017080988184617628
1336.0, 8.993827804060326e-05
1337.0, 0.0007227444686361142
1338.0, 0.0016169115126687368
1339.0, 0.00229871116427025
1340.0, 0.002314548018852071
1341.0, 0.0017779308822712028
1342.0, 0.002921378191707053
1343.0, 0.0017191406357473244
1344.0, 0.002392808287849521
1345.0, 0.0027816095036936215
1346.0, 0.003159417504629197
1347.0, 0.004783833547698264
1348.0, 0.0030375624134964824
1349.0, 0.0024487783035939976
1350.0, 0.0026570539659589915
1351.0, 0.002184075575910694
1352.0, 0.001372726443003688
1353.0, 0.0019340932110676547
1354.0, 0.004965427080708496
1355.0, 0.0025890371776099447
1356.0, 0.0035978734690769423
1357.0, 0.005603370953879368
1358.0, 0.0058753086616047
1359.0, 0.003899787700462102
1360.0, 0.005405046199716882
1361.0, 0.005289147591412884
1362.0, 0.0043068955201404375
1363.0, 0.004370183971550311
1364.0, 0.005440998285283804
1365.0, 0.006269963580407436
1366.0, 0.007059979704525091
1367.0, 0.006233243625622957
1368.0, 0.004711846902503644
1369.0, 0.0034506793872742174
1370.0, 0.004100883073660019
1371.0, 0.006884612089289197
1372.0, 0.005846656389169231
1373.0, 0.007543060739397392
1374.0, 0.006952434748818665
1375.0, 0.006442463007727089
1376.0, 0.005838287566622063
1377.0, 0.004333654289930212
1378.0, 0.004691946095399461
1379.0, 0.00593922801025825
1380.0, 0.006516370997294482
1381.0, 0.006712284488897481
1382.0, 0.006695513087937201
1383.0, 0.006665010378946697
1384.0, 0.007114085666059568
1385.0, 0.006909294968021506
1386.0, 0.00682398402564279
1387.0, 0.006733646533236877
1388.0, 0.0068282092636253785
1389.0, 0.007116825120598329
1390.0, 0.007043471864436695
1391.0, 0.007283164406019763
1392.0, 0.00670185311421623
1393.0, 0.006338232658608392
1394.0, 0.00656232870138648
1395.0, 0.007288116600820714
1396.0, 0.007957884456754301
1397.0, 0.005578446380641277
1398.0, 0.00703816900460416
1399.0, 0.00790803328494064
1400.0, 0.006983111223738866
1401.0, 0.005604655829431474
1402.0, 0.006621714654641849
1403.0, 0.00950126213031083
1404.0, 0.009103290901415331
1405.0, 0.009210812757266684
1406.0, 0.008797607124440866
1407.0, 0.00768605039015947
1408.0, 0.007285092456240749
1409.0, 0.009510237099196862
1410.0, 0.007302296866667262
1411.0, 0.008483293803355241
1412.0, 0.008952785816694116
1413.0, 0.008605662939332575
1414.0, 0.009155797949364166
1415.0, 0.007502389397816778
1416.0, 0.007985369724151661
1417.0, 0.006018845780649904
1418.0, 0.007493205682154523
1419.0, 0.008527119527413328
1420.0, 0.00650718909839968
1421.0, 0.009520239179192348
1422.0, 0.0071507295769416114
1423.0, 0.00649964521411534
1424.0, 0.006876771066345056
1425.0, 0.0071347912957208355
1426.0, 0.006845963059860733
1427.0, 0.00668076604631927
1428.0, 0.007085293408340557
1429.0, 0.006340677070783956
1430.0, 0.005972144147510501
1431.0, 0.006415458103648589
1432.0, 0.007300870336244228
1433.0, 0.007721877215879853
1434.0, 0.006748176706048411
1435.0, 0.007680188154796459
1436.0, 0.00794811021988464
1437.0, 0.0076370500433479765
1438.0, 0.007597156452588315
1439.0, 0.007969077696849965
1440.0, 0.006853776521533813
1441.0, 0.00961808241811682
1442.0, 0.009356717030065015
1443.0, 0.00827308986858888
1444.0, 0.007798524523728048
1445.0, 0.008699625841235929
1446.0, 0.01076004866295914
1447.0, 0.010346750815119857
1448.0, 0.008802067792713952
1449.0, 0.006890324588319079
1450.0, 0.0067789961928390345
1451.0, 0.00796618512556427
1452.0, 0.008238536264762513
1453.0, 0.007691794543328722
1454.0, 0.010614434273122348
1455.0, 0.009006240932352636
1456.0, 0.008716861680158713
1457.0, 0.008950981429449572
1458.0, 0.0077245119293733195
1459.0, 0.007162940601480206
1460.0, 0.009659378010926069
1461.0, 0.009057442288078678
1462.0, 0.008224509777809622
1463.0, 0.008307528361814361
1464.0, 0.00871108899161306
1465.0, 0.008262631112679721
1466.0, 0.009115096387365946
1467.0, 0.00856038645405464
1468.0, 0.008011276438209031
1469.0, 0.007461516256062958
1470.0, 0.006842231567354433
1471.0, 0.006383073414241993
1472.0, 0.006760524507741726
1473.0, 0.00675509436086059
1474.0, 0.008122786852779479
1475.0, 0.007414782942928507
1476.0, 0.00532191986289255
1477.0, 0.00432876039017479
1478.0, 0.005846689392675963
1479.0, 0.003605593420123114
1480.0, 0.006906868787060816
1481.0, 0.00406603900931202
1482.0, 0.004076532395468844
1483.0, 0.005786187244748103
1484.0, 0.005071916704676897
1485.0, 0.0049396971979380104
1486.0, 0.004093325229071154
1487.0, 0.005172499730016416
1488.0, 0.0040509789147671746
1489.0, 0.003720037544175678
1490.0, 0.0047529560447956
1491.0, 0.00487286114456963
1492.0, 0.006852175346001694
1493.0, 0.008356970728187049
1494.0, 0.005613613487217245
1495.0, 0.005397335186528391
1496.0, 0.005620192021789028
1497.0, 0.0042857709754190705
1498.0, 0.0059326131179355335
1499.0, 0.002826399444503663
1500.0, 0.001394247925705389
1501.0, 0.0007489571923670344
1502.0, 0.001512837336709735
1503.0, 0.003000956073834542
1504.0, 0.0034951733548787504
1505.0, 0.0019025491967586987
1506.0, 0.0026630576761892
1507.0, 0.00229038419676322
1508.0, 0.0024591918269663464
1509.0, 0.0028218570510069687
1510.0, 0.00353375384992841
1511.0, 0.005117881862907743
1512.0, 0.0022992939801270117
1513.0, 0.0024104178140769723
1514.0, 0.0009907784963622541
1515.0, 0.0002609177645446523
1516.0, 0.0002998389140324456
1517.0, 0.0005763147178391359
1518.0, 0.0019191714885750796
1519.0, 0.0023780438766932118
1520.0, 0.0005955831314779768
1521, 0.0
1522, 0.0
1523, 0.0
1524, 0.0
1525, 0.0
1526, 0.0
1527, 0.0
1528, 0.0
1529, 0.0
1530, 0.0
1531, 0.0
1532, 0.0
1533, 0.0
1534, 0.0
1535, 0.0
1536, 0.0
1537, 0.0
1538, 0.0
1539, 0.0
1540, 0.0
1541, 0.0
1542, 0.0
1543, 0.0
1544, 0.0
1545, 0.0
1546, 0.0
1547, 0.0
1548, 0.0
1549, 0.0
1550, 0.0
1551, 0.0
1552, 0.0
1553, 0.0
1554, 0.0
1555, 0.0
1556, 0.0
1557, 0.0
1558, 0.0
1559, 0.0
1560, 0.0
1561, 0.0
1562, 0.0
1563, 0.0
1564, 0.0
1565, 0.0
1566, 0.0
1567, 0.0
1568, 0.0
1569, 0.0
1570, 0.0
1571, 0.0
1572, 0.0
1573, 0.0
1574, 0.0
1575, 0.0
1576, 0.0
1577, 0.0
1578, 0.0
1579, 0.0
1580, 0.0
1581, 0.0
1582, 0.0
1583, 0.0
1584, 0.0
1585, 0.0
1586, 0.0
1587, 0.0
1588, 0.0
1589, 0.0
1590, 0.0
1591, 0.0
1592, 0.0
1593, 0.0
1594, 0.0
1595, 0.0
1596, 0.0
1597, 0.0
1598, 0.0
1599, 0.0
