30, 0.0
31, 0.0
32, 0.0
33, 0.0
34, 0.0
35, 0.0
36, 0.0
37, 0.0
38, 0.0
39, 0.0
40, 0.0
41, 0.0
42, 0.0
43, 0.0
44, 0.0
45, 0.0
46, 0.0
47, 0.0
48, 0.0
49, 0.0
50, 0.0
51, 0.0
52, 0.0
53, 0.0
54.0, 7.090230364486502e-05
55.0, 0.000858705677476668
56.0, 0.001089750626081261
57.0, 0.0019949872243073983
58.0, 0.002806062902301684
59.0, 0.0028812411626203695
60.0, 0.004462949524994529
61.0, 0.0039031187349109243
62.0, 0.0030561942071273378
63.0, 0.0020629459559504243
64.0, 0.0009755932628779571
65.0, 0.0002356826032934222
66.0, 0.0009423328149472839
67.0, 0.0012660927263856802
68.0, 0.0008688960494282426
69.0, 0.00014247275105733854
70.0, 0.000288058083253756
71.0, 0.00017204340718625512
72.0, 0.0005216332572036231
73.0, 0.00211389799107407
74.0, 0.004689687006903232
75.0, 0.007208208536884156
76.0, 0.009328057134887059
77.0, 0.013490646601703207
78.0, 0.01812330167444903
79.0, 0.023616785965894567
80.0, 0.030924369182221793
81.0, 0.039517342149802584
82.0, 0.05032676082286534
83.0, 0.06163085286803886
84.0, 0.07273893606081448
85.0, 0.08272595809356152
86.0, 0.08920172908433684
87.0, 0.09312238374685917
88.0, 0.09627477366597685
89.0, 0.09579885091620974
90.0, 0.09066504039801385
91.0, 0.08321639038472367
92.0, 0.07386082279005873
93.0, 0.06571345673510126
94.0, 0.05792173403436294
95.0, 0.0501080640400991
96.0, 0.04240536636848444
97.0, 0.03578787180919417
98.0, 0.029901906958913774
99.0, 0.025014077622381767
100.0, 0.021189756555979947
101.0, 0.018271873787903178
102.0, 0.015657974393891067
103.0, 0.014291293235151652
104.0, 0.013556229333163236
105.0, 0.014860986055796756
106.0, 0.019664716206807143
107.0, 0.028909702116869246
108.0, 0.03229543294032359
109.0, 0.02509380415098137
110.0, 0.016220946890270822
111.0, 0.010900056094775883
112.0, 0.008831660664662564
113.0, 0.008612448575910203
114.0, 0.009345319459681513
115.0, 0.009334783140396957
116.0, 0.009060356409537298
117.0, 0.009699014501597939
118.0, 0.009028000439701329
119.0, 0.009027806455121579
120.0, 0.009698048989114711
121.0, 0.011070628603725813
122.0, 0.013207570539456655
123.0, 0.016342347079236322
124.0, 0.01986385072802629
125.0, 0.02467990265061386
126.0, 0.030377334775218753
127.0, 0.03651701030898104
128.0, 0.042780819005447716
129.0, 0.04845378426451254
130.0, 0.05177043568273757
131.0, 0.051119896169572784
132.0, 0.04802962249798842
133.0, 0.04524663953514954
134.0, 0.04202445445560049
135.0, 0.04127769785579279
136.0, 0.04236640603449574
137.0, 0.04454139912374988
138.0, 0.04754343202065643
139.0, 0.05249479756436569
140.0, 0.05978630707557237
141.0, 0.06428626465293542
142.0, 0.07092963744249388
143.0, 0.07923753026943753
144.0, 0.08320729675729881
145.0, 0.0833902914729487
146.0, 0.08283578343900104
147.0, 0.08061647722260479
148.0, 0.07813564245451704
149.0, 0.07803473907761466
150.0, 0.08435046617734113
151.0, 0.09018936369689158
152.0, 0.09847764243117807
153.0, 0.11069282485920413
154.0, 0.12720325968058976
155.0, 0.14699657919827758
156.0, 0.17166324399357594
157.0, 0.1969277730479169
158.0, 0.226466173459076
159.0, 0.2601362426160117
160.0, 0.295164314051324
161.0, 0.3286484839554689
162.0, 0.3634032033421618
163.0, 0.38713342981431176
164.0, 0.39456824257371315
165.0, 0.38628386714759244
166.0, 0.37110198506059755
167.0, 0.3466696166542924
168.0, 0.3173947691253433
169.0, 0.29097958390443046
170.0, 0.26551737341071163
171.0, 0.23243237415370765
172.0, 0.204896094981099
173.0, 0.17730603935177242
174.0, 0.1529917982382071
175.0, 0.13150353194178666
176.0, 0.11165628630600499
177.0, 0.09401228890323485
178.0, 0.08225038275083048
179.0, 0.07018554991275623
180.0, 0.06018485995444575
181.0, 0.05276066806846595
182.0, 0.04602626168158158
183.0, 0.042080307597819236
184.0, 0.03820744587450544
185.0, 0.03545765623911622
186.0, 0.03425180978072581
187.0, 0.0343840587539255
188.0, 0.034556458644589935
189.0, 0.03450993792656726
190.0, 0.03552507814950153
191.0, 0.037300524866136234
192.0, 0.040072362764815704
193.0, 0.0446894790472641
194.0, 0.049806177128710084
195.0, 0.0550106370004926
196.0, 0.060467460316705766
197.0, 0.0655770756808714
198.0, 0.06957981829708308
199.0, 0.07208156001872622
200.0, 0.07001127236016892
201.0, 0.06794259966271748
202.0, 0.06352587934821823
203.0, 0.056350343183083816
204.0, 0.048732191615946614
205.0, 0.04346558673138329
206.0, 0.0372426267757151
207.0, 0.03230336291921729
208.0, 0.028355823765658657
209.0, 0.024923649505020382
210.0, 0.02360772248574923
211.0, 0.02049430320388176
212.0, 0.019046912139336472
213.0, 0.018283228758788548
214.0, 0.017886195476980025
215.0, 0.018312440738939173
216.0, 0.018984534743470928
217.0, 0.021363083255441152
218.0, 0.023359798684853012
219.0, 0.02572959909868094
220.0, 0.029319522187677947
221.0, 0.033497118593299346
222.0, 0.03654658612512158
223.0, 0.04348694048356655
224.0, 0.051170543639321504
225.0, 0.05900481018803767
226.0, 0.06844387051569871
227.0, 0.08139033528000117
228.0, 0.09923143740510477
229.0, 0.11857832025155815
230.0, 0.1417391193436192
231.0, 0.16978775180903036
232.0, 0.20048959027673205
233.0, 0.23485462245958755
234.0, 0.27150150774929244
235.0, 0.30997876746349823
236.0, 0.34892081212937615
237.0, 0.38508051262555854
238.0, 0.4098170913777757
239.0, 0.42793152354730457
240.0, 0.42804704211813516
241.0, 0.4142452349336403
242.0, 0.3877394267658729
243.0, 0.3470666147778143
244.0, 0.30816462932140004
245.0, 0.2679166304898899
246.0, 0.2265059523492311
247.0, 0.18811171085647987
248.0, 0.15569292629396522
249.0, 0.12762322021713676
250.0, 0.10390262313781076
251.0, 0.08465441058979227
252.0, 0.06936524165412977
253.0, 0.05741860077101249
254.0, 0.04814561249683647
255.0, 0.04104298408138004
256.0, 0.03596165181290392
257.0, 0.03401270787847944
258.0, 0.033590445869217694
259.0, 0.03228139416219425
260.0, 0.02796975713753451
261.0, 0.025015298777869694
262.0, 0.024799872184735127
263.0, 0.027228847815271667
264.0, 0.03003623303494252
265.0, 0.03193165592385485
266.0, 0.0347614273984484
267.0, 0.03877303424582062
268.0, 0.04355537768126177
269.0, 0.04934432646033833
270.0, 0.05563766772801784
271.0, 0.061210470022191335
272.0, 0.06354519888504788
273.0, 0.06798410932949293
274.0, 0.06808090827629579
275.0, 0.06829313022218092
276.0, 0.07005735053598426
277.0, 0.07152829359400668
278.0, 0.07450550740268981
279.0, 0.08078309307282627
280.0, 0.08998997667255398
281.0, 0.10136202748060483
282.0, 0.11516634816580501
283.0, 0.13309743300881205
284.0, 0.1520739325918574
285.0, 0.17194042449751243
286.0, 0.19469011479342616
287.0, 0.21946353796391893
288.0, 0.24327653431426033
289.0, 0.2610178718988205
290.0, 0.26902234372425826
291.0, 0.26940399965003914
292.0, 0.2603482433677098
293.0, 0.24591886826975465
294.0, 0.23081957836796418
295.0, 0.2088301754785695
296.0, 0.19134883906905523
297.0, 0.17065004809368575
298.0, 0.15119216454972606
299.0, 0.13409619073093157
300.0, 0.1167595410795218
301.0, 0.0988288552019894
302.0, 0.08511984195460619
303.0, 0.07428176732362624
304.0, 0.06476274603189369
305.0, 0.05571351668369774
306.0, 0.04740389734927303
307.0, 0.041079096789482884
308.0, 0.036653220526697054
309.0, 0.034024619430759476
310.0, 0.031309644137194934
311.0, 0.028390211326355448
312.0, 0.028840885493733717
313.0, 0.0326377462735957
314.0, 0.034284929926956975
315.0, 0.0366868906109201
316.0, 0.040761334892669074
317.0, 0.04592866054219518
318.0, 0.05024747984436926
319.0, 0.05750254307249441
320.0, 0.06372265082542114
321.0, 0.06978209552700479
322.0, 0.07581255598637565
323.0, 0.08107622152224658
324.0, 0.08358333527753624
325.0, 0.0873479315672481
326.0, 0.09097560760330752
327.0, 0.09486273352609843
328.0, 0.09975352753460344
329.0, 0.10635040606148047
330.0, 0.11476334769011072
331.0, 0.12519237303613356
332.0, 0.13743383856652022
333.0, 0.15471274090377718
334.0, 0.1771059394469345
335.0, 0.20221701342286935
336.0, 0.23054766153741257
337.0, 0.2645166192409471
338.0, 0.3031410072521213
339.0, 0.346859072000117
340.0, 0.39580977141942997
341.0, 0.44873622681398434
342.0, 0.4977184064840443
343.0, 0.5436343862362937
344.0, 0.5806166572664291
345.0, 0.6059202723079639
346.0, 0.6153580376967317
347.0, 0.6047986287905354
348.0, 0.5857620002711068
349.0, 0.542564125285712
350.0, 0.4942727664026855
351.0, 0.44182505280933915
352.0, 0.38626745763837694
353.0, 0.3326244002849314
354.0, 0.2832602866092721
355.0, 0.23979110309729665
356.0, 0.2008693095630414
357.0, 0.1664895272612177
358.0, 0.13717383679511308
359.0, 0.11355203566911751
360.0, 0.09361733248176601
361.0, 0.0778343771024354
362.0, 0.06507023964605539
363.0, 0.05309052792902546
364.0, 0.04152184733919439
365.0, 0.03265805889181079
366.0, 0.025390260181650384
367.0, 0.019163522632674096
368.0, 0.013597673570112965
369.0, 0.00873067762382278
370.0, 0.004439169201921184
371.0, 0.0006349495156796939
372.0, 0.0021953436774036126
373.0, 0.004819137580449498
374.0, 0.006865022461577169
375.0, 0.008225559329153715
376.0, 0.009352243854178176
377.0, 0.010627977705755616
378.0, 0.009341453030337347
379.0, 0.008841184330511098
380.0, 0.008525017232286408
381.0, 0.008005879776278521
382.0, 0.007287717720660094
383.0, 0.00675318001651613
384.0, 0.006303562688724254
385.0, 0.005721525425179194
386.0, 0.005438777036615201
387.0, 0.004981208759371628
388.0, 0.003873700735752982
389.0, 0.0022477390285174322
390.0, 0.003146836583965004
391.0, 0.0026470761041231627
392.0, 0.002083366327271918
393.0, 0.00215263964112207
394.0, 0.0022960245224822543
395.0, 0.0013100688040497683
396.0, 0.0012731313414326457
397.0, 0.001098897795898451
398.0, 0.000582825538009838
399.0, 0.0017583668120649965
400.0, 0.004493239796948864
401.0, 0.006737008532761936
402.0, 0.008262462403462144
403.0, 0.012496939704284123
404.0, 0.01636835626959012
405.0, 0.020064615733839254
406.0, 0.024374169940496244
407.0, 0.02971304623530581
408.0, 0.034481472343880645
409.0, 0.042904173643614194
410.0, 0.05253941437059148
411.0, 0.06396533030223311
412.0, 0.07667879361010657
413.0, 0.09005533750709545
414.0, 0.10545918639039165
415.0, 0.12318331969403361
416.0, 0.1431652009942725
417.0, 0.1644120077798446
418.0, 0.18703208500329424
419.0, 0.21045893860052667
420.0, 0.23155765997705957
421.0, 0.24967637961562084
422.0, 0.26589517334275853
423.0, 0.2757289865166647
424.0, 0.28419899766994705
425.0, 0.2945349485127403
426.0, 0.3018567545923054
427.0, 0.3176085823691
428.0, 0.32886382276018633
429.0, 0.34173972793494944
430.0, 0.3573245139368109
431.0, 0.37336570897344024
432.0, 0.3868080265325587
433.0, 0.40637531706043833
434.0, 0.4147982783066213
435.0, 0.4276068003913765
436.0, 0.4449900052777127
437.0, 0.4655957853762003
438.0, 0.4907775795335326
439.0, 0.5302369870582296
440.0, 0.5742113391598754
441.0, 0.6305832693057628
442.0, 0.6931853091573836
443.0, 0.7621956722217662
444.0, 0.8367631575048148
445.0, 0.899825890498237
446.0, 0.9541528449278254
447.0, 0.9867824946536737
448.0, 0.9987323946172615
449.0, 0.9925837603406803
450.0, 0.9736322493915934
451.0, 0.9498408017999895
452.0, 0.9104586298555396
453.0, 0.8609243322395063
454.0, 0.80102195541992
455.0, 0.737339774836194
456.0, 0.6721786884466184
457.0, 0.6016681299660884
458.0, 0.5311040560570182
459.0, 0.4702095859378428
460.0, 0.4118737755289586
461.0, 0.35616986267952894
462.0, 0.30773733982123486
463.0, 0.2695784864616697
464.0, 0.23044043981531614
465.0, 0.2016037704095361
466.0, 0.17873460841148264
467.0, 0.15847823999811333
468.0, 0.14133041713090855
469.0, 0.12792943132113033
470.0, 0.11560616556364166
471.0, 0.10757283766015058
472.0, 0.10216902129654537
473.0, 0.09817149302444964
474.0, 0.09416373315505873
475.0, 0.09072731538460405
476.0, 0.0900571820744581
477.0, 0.08969010108733094
478.0, 0.09037797295954623
479.0, 0.09344067426572794
480.0, 0.09810716791449887
481.0, 0.10395581553409537
482.0, 0.11138474187251853
483.0, 0.12171329709599914
484.0, 0.13283224688378759
485.0, 0.1461410981654441
486.0, 0.1604070195884068
487.0, 0.17707094766427908
488.0, 0.1971411226784112
489.0, 0.2189042636156581
490.0, 0.23737205333335237
491.0, 0.26016275229770736
492.0, 0.2827408415437868
493.0, 0.3020835595427228
494.0, 0.31754111108328004
495.0, 0.3289612499049368
496.0, 0.3308372859040928
497.0, 0.326877884501423
498.0, 0.3147152120036815
499.0, 0.2985148709519544
500.0, 0.28160066784448373
501.0, 0.2643775968319197
502.0, 0.2440696247428247
503.0, 0.22718682114629826
504.0, 0.2078545196036809
505.0, 0.19035035490067104
506.0, 0.17322288867977154
507.0, 0.15544628947590836
508.0, 0.13799663232166173
509.0, 0.12309569361886588
510.0, 0.10953104477420927
511.0, 0.09611810843010611
512.0, 0.08461944516489957
513.0, 0.07591968885773294
514.0, 0.06965937468230993
515.0, 0.06444805280731118
516.0, 0.060602789938560844
517.0, 0.06066480616720874
518.0, 0.06180154089221839
519.0, 0.06232642938470064
520.0, 0.0607161167413154
521.0, 0.05671401208757758
522.0, 0.054265775432619366
523.0, 0.04895837933407406
524.0, 0.04271340056982818
525.0, 0.03623576443636084
526.0, 0.030322302353355427
527.0, 0.02503874338991934
528.0, 0.019521477821842704
529.0, 0.015047439197539113
530.0, 0.011149328658549422
531.0, 0.007498846593730745
532.0, 0.004489827356471033
533.0, 0.0022375277973806585
534.0, 0.0007045689298295275
535.0, 0.0002370442874540552
536.0, 0.0011476869459095163
537.0, 0.0007784402611990003
538.0, 0.0008273239626539051
539.0, 0.0009745016244707753
540.0, 0.0012731363294879439
541.0, 0.002811400512559733
542.0, 0.005535992227315129
543.0, 0.009027200582417808
544.0, 0.012607332762494395
545.0, 0.017583271926278714
546.0, 0.023193153348068096
547.0, 0.028819084396288233
548.0, 0.03623581730771825
549.0, 0.04597264042876448
550.0, 0.05950279123229789
551.0, 0.07575411072313823
552.0, 0.09559103288775345
553.0, 0.11994685940186739
554.0, 0.14925694205578796
555.0, 0.18325587917060104
556.0, 0.2184865170169147
557.0, 0.25873688495859865
558.0, 0.29904100336695993
559.0, 0.33893142408386867
560.0, 0.3739005941678037
561.0, 0.39447030513221587
562.0, 0.39630188653691495
563.0, 0.372038626156004
564.0, 0.33551713572491004
565.0, 0.29112288170125816
566.0, 0.2442578481654974
567.0, 0.2000190255477082
568.0, 0.16189698857391868
569.0, 0.13419795980607957
570.0, 0.11132381952518522
571.0, 0.09542716443383549
572.0, 0.08505901002949837
573.0, 0.07973388513303209
574.0, 0.0785126647308056
575.0, 0.07779269868833105
576.0, 0.08024643733860067
577.0, 0.08501206656693278
578.0, 0.0900846043116459
579.0, 0.09654021958505037
580.0, 0.10577713496912154
581.0, 0.11713198377887178
582.0, 0.12552293234551884
583.0, 0.13321698117176364
584.0, 0.14325924799464532
585.0, 0.15176438435970552
586.0, 0.159223214225934
587.0, 0.16838729755821924
588.0, 0.18106472492019676
589.0, 0.1928823009952658
590.0, 0.21026797548586387
591.0, 0.2245303330032139
592.0, 0.23979148913353146
593.0, 0.2532485876599858
594.0, 0.26123018404287635
595.0, 0.2639127279255359
596.0, 0.26784850408006555
597.0, 0.25680068235871484
598.0, 0.24473957197791452
599.0, 0.23006193564225713
600.0, 0.21393734632195796
601.0, 0.19849238579307893
602.0, 0.18431314562374448
603.0, 0.1686079067332454
604.0, 0.15684032857434274
605.0, 0.14858846673917542
606.0, 0.14097395428070802
607.0, 0.134893551783287
608.0, 0.13038911855350613
609.0, 0.12424757965622554
610.0, 0.11931344624053916
611.0, 0.11216576995125005
612.0, 0.10540580131225932
613.0, 0.09917594198861328
614.0, 0.09153214848784962
615.0, 0.08255566328833476
616.0, 0.0756236916648436
617.0, 0.06509462200462117
618.0, 0.056060974238438026
619.0, 0.04913511695860438
620.0, 0.04327581880181344
621.0, 0.0377673567774375
622.0, 0.032552235934878354
623.0, 0.027998937488760107
624.0, 0.023618689144510853
625.0, 0.02113791023769862
626.0, 0.018123638096506762
627.0, 0.015096330499461103
628.0, 0.0130971889083684
629.0, 0.01194554897523195
630.0, 0.01001817921947474
631.0, 0.009394588500773573
632.0, 0.007343282915073891
633.0, 0.007601369559474653
634.0, 0.00687041700086364
635.0, 0.005795564726377399
636.0, 0.005136269727278697
637.0, 0.003242630539947568
638.0, 0.003363560408070069
639.0, 0.0031766814185173616
640.0, 0.002330275309686335
641.0, 0.002301001055929953
642.0, 0.0022006099938110223
643.0, 0.0012027202222972338
644.0, 0.0002044823563771382
645.0, 0.00050286640726586
646.0, 0.00010667076972553118
647.0, 0.00043393139328145626
648.0, 0.0004567919628847164
649.0, 0.000818281191941621
650.0, 0.0012639937600344292
651.0, 0.000548227128583477
652.0, 0.0006177835605369855
653.0, 0.0001654782161448626
654.0, 0.00045479571195302905
655.0, 0.0007340838122591519
656.0, 0.0005561327110015723
657.0, 0.00017095104199352188
658.0, 0.00015987071045688093
659.0, 0.0004118534254969679
660.0, 0.0001818914364134575
661.0, 0.0004516097075801557
662.0, 0.0004894968837325635
663.0, 0.0008186185966039139
664.0, 0.0014499637958563009
665.0, 0.0019975825695195326
666.0, 0.002676902677681574
667.0, 0.0031426348121886476
668.0, 0.004649237281289277
669.0, 0.005480567084339661
670.0, 0.006152835989536548
671.0, 0.007827818416743086
672.0, 0.010203173437221396
673.0, 0.010926988008276997
674.0, 0.01254398472534628
675.0, 0.014946451536165842
676.0, 0.017809639831041158
677.0, 0.021630779287910826
678.0, 0.024487243371586205
679.0, 0.026512300708801027
680.0, 0.030799337854378106
681.0, 0.03521745507016636
682.0, 0.0382871215106956
683.0, 0.042552264589570066
684.0, 0.04470938591508769
685.0, 0.04536403952280383
686.0, 0.04492707592292033
687.0, 0.04322145951251198
688.0, 0.04242530786193413
689.0, 0.04039922098033725
690.0, 0.03540481189467614
691.0, 0.03155702118656597
692.0, 0.028673618537343255
693.0, 0.025530684236796247
694.0, 0.022003263918470038
695.0, 0.019648133989610694
696.0, 0.01689524925195967
697.0, 0.01507858953982728
698.0, 0.013192736825045247
699.0, 0.011296020152859248
700.0, 0.009848028767703692
701.0, 0.008756204956555488
702.0, 0.007479210400533716
703.0, 0.006836615090562936
704.0, 0.005956906691636365
705.0, 0.004148973349201021
706.0, 0.0039252055782347745
707.0, 0.0035387849375116917
708.0, 0.002463582971405476
709.0, 0.0019171634571435244
710.0, 0.0023273882165220565
711.0, 0.001582996492443503
712.0, 0.0004938549872998367
713.0, 0.0007025578689626239
714.0, 0.0005113854582223836
715.0, 0.0003784197098119578
716.0, 0.0006752181635378327
717.0, 0.0005041280960959687
718.0, 0.0011647393338373516
719.0, 0.0017805934281341883
720.0, 0.001974288633918533
721.0, 0.0020907159359800265
722.0, 0.0019226200893581499
723.0, 0.0017917300154939512
724.0, 0.0019600412078880696
725.0, 0.0016598294071581555
726.0, 0.0021025993779097835
727.0, 0.0015414825612066131
728.0, 0.0015725512585786443
729.0, 0.0017525527707533384
730.0, 0.001808716031077296
731.0, 0.0017535387508140164
732.0, 0.0017030250272263804
733.0, 0.0017193933492719723
734.0, 0.0016817122131554507
735.0, 0.002168520943954644
736.0, 0.001730121340281699
737.0, 0.0015021380226404475
738.0, 0.0013746844782938697
739.0, 0.0008188120770861537
740.0, 0.0006006200013531641
741.0, 0.0006462375180718336
742.0, 0.0005818054703525044
743.0, 0.0007412147464095908
744.0, 0.0004642149064114603
745.0, 0.00041486104475731535
746.0, 0.0006157087501392027
747.0, 0.000586965805128475
748.0, 0.000988645410696105
749.0, 0.0005643365807733111
750.0, 0.0006187681158183273
751.0, 0.0007676771635849904
752.0, 0.0004884626619687417
753.0, 0.0004040779913603793
754.0, 0.0005246942924845134
755.0, 0.0002167488935727295
756.0, 0.0011463993311730996
757.0, 0.00018294731700761312
758.0, 0.0006303348647618022
759.0, 0.0003898726968829517
760.0, 0.00032218446123095744
761.0, 0.0006861707984633569
762.0, 0.001152254754267692
763.0, 0.001481655740146849
764.0, 0.0007610128612430479
765.0, 0.0012943610185034082
766.0, 0.0018098908594050777
767.0, 0.0011370869524212578
768.0, 0.000973808532199181
769.0, 0.0013698671958466567
770.0, 0.0014021822342888549
771.0, 0.001541822028348773
772.0, 0.0017953289019613683
773.0, 0.0012295504607549462
774.0, 0.001717887962717778
775.0, 0.0015937420279099471
776.0, 0.001248123612913043
777.0, 0.0013523316111714932
778.0, 0.0015231128929287631
779.0, 0.0005875377914583656
780.0, 0.0007967364488683575
781.0, 0.002104757942594478
782.0, 0.0019178590350274487
783.0, 0.001469347692668464
784.0, 0.001353944494341363
785.0, 0.0014842272956372914
786.0, 0.0016128716630851151
787.0, 0.001880615425117318
788.0, 0.0030215349088077567
789.0, 0.0018618129350504594
790.0, 0.0022551774127776937
791.0, 0.001755346964591195
792.0, 0.0016333799786442317
793.0, 0.002076800830472536
794.0, 0.0020266007917007656
795.0, 0.0027887067927044678
796.0, 0.0017064338614215155
797.0, 0.003169600721881479
798.0, 0.00267630314492705
799.0, 0.003025736660208098
800.0, 0.002822619691037688
801.0, 0.002665915845835464
802.0, 0.004044211405101877
803.0, 0.0035590510936960897
804.0, 0.002885322556305504
805.0, 0.004230218201314918
806.0, 0.004504253634015548
807.0, 0.004442051840685319
808.0, 0.004227150496628614
809.0, 0.004152699395509176
810.0, 0.00439124993479064
811.0, 0.004405697808869579
812.0, 0.005028580833413558
813.0, 0.00546656478471958
814.0, 0.005831242509706794
815.0, 0.00621363713040468
816.0, 0.006610565218694467
817.0, 0.006923086229101986
818.0, 0.007107021153903326
819.0, 0.0074178656518660594
820.0, 0.008703613833345133
821.0, 0.010004053987008285
822.0, 0.00929326325673738
823.0, 0.009741132068547596
824.0, 0.010335816948135146
825.0, 0.011493585434294944
826.0, 0.012936481881297961
827.0, 0.012395368193194893
828.0, 0.013408952998376019
829.0, 0.014719690019479635
830.0, 0.01475544938628733
831.0, 0.014318040073917997
832.0, 0.015614378609444021
833.0, 0.01748025829357483
834.0, 0.018029574105117737
835.0, 0.017775481844905607
836.0, 0.01916730677949321
837.0, 0.020935284827630542
838.0, 0.02070990414151178
839.0, 0.02272564929733127
840.0, 0.024687656706340756
841.0, 0.025319380762824573
842.0, 0.025955890996059442
843.0, 0.027891936246649696
844.0, 0.029284712930436347
845.0, 0.031923184831325814
846.0, 0.032763955253965665
847.0, 0.035704189565284705
848.0, 0.03808318021181063
849.0, 0.0412368563970005
850.0, 0.04512473310349541
851.0, 0.048202172262076806
852.0, 0.050361329718432095
853.0, 0.05421104040130491
854.0, 0.057319891731901676
855.0, 0.06305526264739937
856.0, 0.0693264327382038
857.0, 0.0752222774055977
858.0, 0.08164689639384413
859.0, 0.08965973093410189
860.0, 0.09831058548615747
861.0, 0.1047370749691469
862.0, 0.11550635536513489
863.0, 0.12548687910344067
864.0, 0.13463403461379533
865.0, 0.14619713042711285
866.0, 0.15940593153107321
867.0, 0.1720436905229168
868.0, 0.18332415666265656
869.0, 0.19481048448604618
870.0, 0.20818287977604302
871.0, 0.21768457526547846
872.0, 0.2250617228896432
873.0, 0.22921891096387104
874.0, 0.23024580676400389
875.0, 0.22869514680005681
876.0, 0.22410432064428623
877.0, 0.21551475644039556
878.0, 0.20386614350773966
879.0, 0.1930423619931304
880.0, 0.18218027757209726
881.0, 0.17075958027773833
882.0, 0.15869472644868088
883.0, 0.14730986077267083
884.0, 0.13615172149138
885.0, 0.12560817061225152
886.0, 0.11746113119173336
887.0, 0.10930900223852928
888.0, 0.10197131895724544
889.0, 0.09367588614466264
890.0, 0.08724721759810775
891.0, 0.08269573432926534
892.0, 0.0801113373384784
893.0, 0.07708106561583539
894.0, 0.07342411629949078
895.0, 0.07340496485507846
896.0, 0.07236568554967973
897.0, 0.07264933211261224
898.0, 0.07469500713811136
899.0, 0.07597510132749623
900.0, 0.07796853068296913
901.0, 0.08026820859340042
902.0, 0.08381499213707565
903.0, 0.08871197299719519
904.0, 0.09136498912085679
905.0, 0.09713272676317551
906.0, 0.10174926144884218
907.0, 0.10457027602095903
908.0, 0.10952743064819148
909.0, 0.11347839168834092
910.0, 0.11528000408484702
911.0, 0.11565837476310556
912.0, 0.11470858717111246
913.0, 0.11137581422694948
914.0, 0.10765516907366453
915.0, 0.098482518360368
916.0, 0.09233107344940106
917.0, 0.08344572551732694
918.0, 0.07614628880914011
919.0, 0.06931849007397854
920.0, 0.06206970093776048
921.0, 0.05577488699152432
922.0, 0.04869899272162457
923.0, 0.04400649689419346
924.0, 0.03793472752306236
925.0, 0.033570756548365596
926.0, 0.030204275647680974
927.0, 0.027503582520524535
928.0, 0.025059296660416615
929.0, 0.022691835840577206
930.0, 0.020571534206701544
931.0, 0.018861848460501672
932.0, 0.017337105055668187
933.0, 0.015313183320575715
934.0, 0.014550438966894147
935.0, 0.014159824739759989
936.0, 0.012910863485328055
937.0, 0.011889289575216545
938.0, 0.011524476858550911
939.0, 0.010563817346808228
940.0, 0.00879258548657903
941.0, 0.010211534690252613
942.0, 0.008303472123352277
943.0, 0.00871808737096426
944.0, 0.007712376157775206
945.0, 0.007981854571673587
946.0, 0.0078394030114506
947.0, 0.007477650110226021
948.0, 0.008138251847842075
949.0, 0.008426566788682172
950.0, 0.00943515221294569
951.0, 0.008837230484412624
952.0, 0.009208614452451157
953.0, 0.008645556660202386
954.0, 0.00796615991232266
955.0, 0.009103460307618268
956.0, 0.010264923528911592
957.0, 0.010231227184742581
958.0, 0.010992525332226725
959.0, 0.01204036124457606
960.0, 0.012543860807591034
961.0, 0.012592789846074176
962.0, 0.01413182653697003
963.0, 0.015619847307957851
964.0, 0.0165097493723534
965.0, 0.018765237364328963
966.0, 0.022364544985239335
967.0, 0.02579321553380673
968.0, 0.03018364790516351
969.0, 0.034677093785799494
970.0, 0.03890290508092239
971.0, 0.04629318517271241
972.0, 0.0514605389035032
973.0, 0.059129849601911554
974.0, 0.0656818181158408
975.0, 0.07001292194793933
976.0, 0.07413138074545729
977.0, 0.07703549012336522
978.0, 0.07554753519923198
979.0, 0.07388140662039111
980.0, 0.06539882278323482
981.0, 0.058702116153688234
982.0, 0.05252851169075076
983.0, 0.04462874777885846
984.0, 0.037446848002475476
985.0, 0.032362982207250986
986.0, 0.027846155063778244
987.0, 0.02344688844988061
988.0, 0.01992991503992053
989.0, 0.016464244179917986
990.0, 0.014228870724992742
991.0, 0.01169301103475396
992.0, 0.009854361077538423
993.0, 0.008352924872928021
994.0, 0.0073552341298602055
995.0, 0.006322964139673393
996.0, 0.0047158382535698205
997.0, 0.004373413680328253
998.0, 0.003256039545761166
999.0, 0.002810289912047955
1000.0, 0.002276631370950494
1001.0, 0.0014505126419653376
1002.0, 0.0011167638350041765
1003.0, 0.001198171720884805
1004.0, 0.001134643681114752
1005.0, 0.0008329877282668469
1006.0, 0.0007502482478405081
1007.0, 0.0008898189004215262
1008.0, 0.0007035059648834033
1009.0, 0.0013840362216885336
1010.0, 0.0022357070089059363
1011.0, 0.0028465094779051574
1012.0, 0.003800191130299191
1013.0, 0.004538784042211763
1014.0, 0.005373631821293391
1015.0, 0.006423168883147025
1016.0, 0.006611004342822734
1017.0, 0.006205228826325282
1018.0, 0.006948837345817587
1019.0, 0.00683266016660257
1020.0, 0.0072162480792493195
1021.0, 0.006906595603726682
1022.0, 0.007649958436568764
1023.0, 0.007993574227835717
1024.0, 0.008780002728375286
1025.0, 0.010783056382713136
1026.0, 0.012241473585325657
1027.0, 0.014006079892375161
1028.0, 0.01605102459029603
1029.0, 0.017287188387524636
1030.0, 0.01987055585069883
1031.0, 0.022184669848221757
1032.0, 0.024289531995009862
1033.0, 0.027288767085499172
1034.0, 0.030638431673366013
1035.0, 0.033003612795452886
1036.0, 0.03448597512020514
1037.0, 0.036274744797539185
1038.0, 0.036703394915566234
1039.0, 0.03676389728687127
1040.0, 0.035838945373720836
1041.0, 0.03511910265443946
1042.0, 0.03298630760388223
1043.0, 0.030479370763890207
1044.0, 0.027915278382918046
1045.0, 0.026072729167920115
1046.0, 0.025154557901318587
1047.0, 0.023340426589769068
1048.0, 0.023288472542878292
1049.0, 0.020160970392914316
1050.0, 0.02071885407538711
1051.0, 0.020089585836651044
1052.0, 0.021402079821131677
1053.0, 0.022248188700067034
1054.0, 0.02245473213356085
1055.0, 0.023913829080994778
1056.0, 0.025624624224523673
1057.0, 0.02522289482330281
1058.0, 0.026954977680226033
1059.0, 0.02770681186276064
1060.0, 0.027634179378209434
1061.0, 0.02593151850155107
1062.0, 0.02571249673155463
1063.0, 0.025173045883604205
1064.0, 0.025591828846211105
1065.0, 0.02626355280084522
1066.0, 0.026935058944827242
1067.0, 0.028659088593290798
1068.0, 0.030590282013664212
1069.0, 0.03248327689028206
1070.0, 0.03590332306796522
1071.0, 0.040818633820992704
1072.0, 0.04516568197776115
1073.0, 0.049933521617544475
1074.0, 0.05641301838888801
1075.0, 0.06336522681528155
1076.0, 0.07157862609236626
1077.0, 0.08146015930467793
1078.0, 0.09149077821091758
1079.0, 0.10237139202459476
1080.0, 0.11374725401708588
1081.0, 0.12503988749150252
1082.0, 0.13168907583781292
1083.0, 0.13390713873591095
1084.0, 0.12961446817336905
1085.0, 0.12123103231316101
1086.0, 0.10814026708529963
1087.0, 0.0932239969584851
1088.0, 0.08003618066737575
1089.0, 0.06756222463285026
1090.0, 0.05543074724593501
1091.0, 0.046007258993875914
1092.0, 0.03619145678210611
1093.0, 0.030987959083426532
1094.0, 0.024913681366029707
1095.0, 0.02219000621177424
1096.0, 0.018775674982702783
1097.0, 0.016155266919334596
1098.0, 0.01490377785406937
1099.0, 0.013337865582996572
1100.0, 0.011799009816157576
1101.0, 0.011187545975821568
1102.0, 0.010218618236860967
1103.0, 0.008825738508664173
1104.0, 0.009316826841423204
1105.0, 0.008386781907886434
1106.0, 0.007192087264427452
1107.0, 0.007069982251030041
1108.0, 0.006430707297814567
1109.0, 0.005546688997433016
1110.0, 0.005421332184940463
1111.0, 0.005246126734693996
1112.0, 0.004776857874085185
1113.0, 0.0058804467453351635
1114.0, 0.007685399098464563
1115.0, 0.007608860842387914
1116.0, 0.008212557466192765
1117.0, 0.01012097938828144
1118.0, 0.010218125263124806
1119.0, 0.011016150272407417
1120.0, 0.011332366361380165
1121.0, 0.010521475165872533
1122.0, 0.010282242703222325
1123.0, 0.010007803317750578
1124.0, 0.010076356398441004
1125.0, 0.00900577663558032
1126.0, 0.00738693153897973
1127.0, 0.006689578694364236
1128.0, 0.005384344757468596
1129.0, 0.004334141661106809
1130.0, 0.003450005128309815
1131.0, 0.0024869804733705487
1132.0, 0.001704801546364495
1133.0, 0.000972452073146057
1134.0, 0.0006491640203645222
1135.0, 0.0021219092038395676
1136.0, 0.0013216851328947611
1137.0, 0.0006516985957938298
1138.0, 0.000774837721995579
1139.0, 0.00024522669355703095
1140.0, 0.0003088255935033835
1141.0, 0.00016454473096940916
1142.0, 0.0002978361750473986
1143.0, 0.00047538084576544045
1144.0, 0.0005816630060319262
1145.0, 0.000668896926638047
1146.0, 0.000630296356832352
1147.0, 0.0011967935497795258
1148.0, 0.001461497327084358
1149.0, 0.001122252073515337
1150.0, 0.0016591192668456507
1151.0, 0.0009661673601676558
1152.0, 0.001407155143542966
1153.0, 0.0012556310031993747
1154.0, 0.0009461402362109881
1155.0, 0.0007530575442027673
1156.0, 0.000512166566647555
1157.0, 0.00028884738709108017
1158.0, 0.00016981443926769875
1159.0, 0.00012664133570449164
1160.0, 0.0001810991311857965
1161.0, 0.0012460769032293611
1162.0, 0.0008104493300609439
1163.0, 0.0011106055244576062
1164.0, 0.00041754620964830406
1165.0, 0.0002793583215267749
1166.0, 0.0010012726570000755
1167.0, 0.001061849519489516
1168.0, 0.00040463866361477486
1169.0, 0.0003070277160816088
1170.0, 0.0006677573522940684
1171.0, 0.00041585040481611585
1172.0, 0.00040377100170160574
1173.0, 0.00020753490639649326
1174.0, 0.0004802074807144915
1175.0, 0.0002490909751168759
1176.0, 0.0007333614123717151
1177.0, 0.0006916407145381533
1178.0, 0.000381435693348367
1179.0, 0.00041515751943032886
1180.0, 0.0005527629551668462
1181.0, 0.0007875911823174098
1182.0, 0.000925746107194772
1183.0, 0.00047777586672155016
1184.0, 0.0016494178416129714
1185.0, 0.00012224731758774286
1186.0, 0.00029409620592513126
1187.0, 0.0004839635111718876
1188.0, 0.0008209053459509325
1189.0, 0.00042259068480253047
1190.0, 0.0009860221496442716
1191.0, 0.0008523159575758708
1192.0, 0.0004226968089307846
1193.0, 0.0004874629361196437
1194.0, 0.0004335166329610616
1195.0, 0.000138962812916723
1196.0, 0.0005753407595906631
1197.0, 0.0012847125837060467
1198.0, 0.00043296418266907126
1199.0, 0.00012076302100201696
1200.0, 0.0007145486852458874
1201.0, 0.0010715585775998094
1202.0, 0.0009353640199812524
1203.0, 0.0009502971159860968
1204.0, 0.0010610686522741306
1205.0, 0.0008148891037729788
1206.0, 0.0008559749904528987
1207.0, 0.001162447152610136
1208.0, 0.0011092484251005253
1209.0, 0.0019309097108737821
1210.0, 0.0014721824938625746
1211.0, 0.0007225300120604802
1212.0, 0.0009604180150798522
1213.0, 0.0007032510848462275
1214.0, 0.000858722076284365
1215.0, 0.0009209095311621256
1216.0, 0.0009877754464338291
1217.0, 0.0011896115173337873
1218.0, 0.001217687175694757
1219.0, 0.0010045145398879564
1220.0, 0.0009496351439754128
1221.0, 0.0010984179529161505
1222.0, 0.0011148561289526752
1223.0, 0.0015233939041947434
1224.0, 0.0011650658872429877
1225.0, 0.0012167835838807091
1226.0, 0.0005866935563136478
1227.0, 0.0007713412267976889
1228.0, 0.0003446618119006929
1229.0, 0.0006129566708356072
1230.0, 0.0009807023031105405
1231.0, 0.0007591084632185825
1232.0, 0.0006616122241359757
1233.0, 0.0007373313659182845
1234.0, 0.0007145067921582253
1235.0, 0.0008952986972069481
1236.0, 0.00023076473161196464
1237.0, 0.00017732468468982897
1238.0, 0.0006501470402994988
1239.0, 0.0012203181816065427
1240.0, 0.0003902568525368292
1241.0, 0.00017520708941548134
1242.0, 0.0005262580753154647
1243.0, 0.00031364829347573056
1244.0, 0.0003274993165619147
1245.0, 0.00039880639121405543
1246.0, 0.00020227141061021636
1247.0, 2.8131598603671936e-05
1248.0, 0.00014374154191503646
1249.0, 0.00047206596057306133
1250.0, 0.0006544394897815902
1251.0, 7.09210067852028e-05
1252.0, 0.0003250471590462267
1253.0, 7.930275429383377e-05
1254.0, 1.3563932512042924e-05
1255.0, 1.391775986996608e-05
1256.0, 0.00035399919465590264
1257.0, 0.0008987070244988158
1258.0, 0.0011941760058531122
1259.0, 0.0008147568784553213
1260.0, 0.0009172902744959211
1261.0, 0.0009307811057234302
1262.0, 0.00017259030662580957
1263.0, 0.0002565161823583056
1264.0, 0.00041204668901398856
1265.0, 0.0003501946861037324
1266.0, 0.0009028328490712309
1267.0, 0.0008211583435408427
1268.0, 0.0010065385365739515
1269.0, 0.001197796067113366
1270.0, 0.0010352846330880187
1271.0, 0.0011520060824389622
1272.0, 0.0010380361144749078
1273.0, 0.0006401558504384855
1274.0, 0.0008056686541808895
1275.0, 0.0010344500658398422
1276.0, 0.0010826623208357055
1277.0, 0.0015503242392004297
1278.0, 0.0017004852287510208
1279.0, 0.0013449766936642713
1280.0, 0.0011409226145244374
1281.0, 0.0005998306713399665
1282.0, 0.0008521701090076924
1283.0, 0.0003821740620248489
1284.0, 0.0004344847456409165
1285.0, 0.00021124757554553389
1286.0, 0.0009920330654757962
1287.0, 0.0006498489553524058
1288.0, 0.0016069908473446875
1289.0, 0.001300932750156772
1290.0, 0.00038815484359749057
1291.0, 0.0009323722544211961
1292.0, 0.0008643906093733825
1293.0, 0.00011355300923647515
1294.0, 0.0004154229747318018
1295.0, 0.0008365479227527042
1296.0, 0.0010773432492230978
1297.0, 0.00147441752184696
1298.0, 0.001012590581097514
1299.0, 0.0010791979879633859
1300.0, 0.0005195323839589436
1301.0, 0.00041106206860324913
1302.0, 0.00018242243211902417
1303.0, 0.00014461273213842483
1304.0, 9.928263961394903e-05
1305.0, 0.000680203569954246
1306.0, 0.0013660218004260263
1307.0, 0.001327055350900447
1308.0, 0.0013483900829694068
1309.0, 0.0013350127207702965
1310.0, 0.0009144043492166321
1311.0, 0.0007635108595033426
1312.0, 0.0013654379598479823
1313.0, 0.000931830087701221
1314.0, 0.0008518959856234254
1315.0, 0.0013039034050002383
1316.0, 0.0015263080696183203
1317.0, 0.0014850062920982743
1318.0, 0.0016395260293866323
1319.0, 0.0017988484249868832
1320.0, 0.0015561633588496192
1321.0, 0.001044334187023062
1322.0, 0.0009292194191409132
1323.0, 0.0012575867986988182
1324.0, 0.001333391552366433
1325.0, 0.0010284405434039098
1326.0, 0.0008347652842888049
1327.0, 0.001529731035253426
1328.0, 0.0011870829256652171
1329.0, 0.0011197275808263556
1330.0, 0.0018009182936829565
1331.0, 0.0007982540177205253
1332.0, 0.0010244603271192183
1333.0, 0.0019221387936037106
1334.0, 0.002341186069346657
1335.0, 0.0019175622281240538
1336.0, 0.0017491924026254223
1337.0, 0.002145177319388877
1338.0, 0.00224875900873266
1339.0, 0.0024861647723530764
1340.0, 0.0031178306496112643
1341.0, 0.0031201410773344183
1342.0, 0.0031825720056564183
1343.0, 0.002840096395254707
1344.0, 0.002791541102155908
1345.0, 0.0025016420431268485
1346.0, 0.0031764400327447782
1347.0, 0.004260767464234619
1348.0, 0.0037613358105930074
1349.0, 0.004111697354734887
1350.0, 0.004319477831287005
1351.0, 0.00437463646447699
1352.0, 0.004400701424633464
1353.0, 0.004078771500450411
1354.0, 0.0039608804226906194
1355.0, 0.003678680859813589
1356.0, 0.003522838893523376
1357.0, 0.003796162546008521
1358.0, 0.0033757370069448975
1359.0, 0.003034160603840151
1360.0, 0.004171819695576929
1361.0, 0.00460544895629053
1362.0, 0.005084484591123973
1363.0, 0.004263605784219269
1364.0, 0.0047744407524569
1365.0, 0.003131938585625385
1366.0, 0.004006413363616999
1367.0, 0.004855628649500195
1368.0, 0.004141754492403206
1369.0, 0.004058216608722197
1370.0, 0.004198198983928769
1371.0, 0.003937102449938128
1372.0, 0.003567709363118956
1373.0, 0.003335148371082396
1374.0, 0.0030329359052383115
1375.0, 0.0030945718622030966
1376.0, 0.0034183105188741493
1377.0, 0.002996149382034361
1378.0, 0.0033405890458450644
1379.0, 0.003992404948084152
1380.0, 0.0035012335558761765
1381.0, 0.0024511337758673533
1382.0, 0.0035498101071542703
1383.0, 0.002307910946266963
1384.0, 0.0029314791228490485
1385.0, 0.003128083825524869
1386.0, 0.003276622645065439
1387.0, 0.0037102157247736202
1388.0, 0.0037204558933074585
1389.0, 0.0036612481150508414
1390.0, 0.0035096102756480615
1391.0, 0.0033115851178308993
1392.0, 0.003126167312332069
1393.0, 0.0029930809643941825
1394.0, 0.0028079754873725437
1395.0, 0.0028001264243821935
1396.0, 0.002920691429132369
1397.0, 0.0021980826262628875
1398.0, 0.0027976368011679758
1399.0, 0.0015922436312277525
1400.0, 0.0023891794844715566
1401.0, 0.002625108995763714
1402.0, 0.003236706767291108
1403.0, 0.0025614976518204503
1404.0, 0.0022126693995322038
1405.0, 0.0022693461289523143
1406.0, 0.0015336800601950466
1407.0, 0.0020257368407132206
1408.0, 0.002199514107801708
1409.0, 0.002182883323890382
1410.0, 0.001978271613893696
1411.0, 0.002066246082628483
1412.0, 0.002499447873649302
1413.0, 0.0026000385033717365
1414.0, 0.0022193740686664003
1415.0, 0.0019433195345724627
1416.0, 0.0020338801671994857
1417.0, 0.001991862311375448
1418.0, 0.0018556353080476738
1419.0, 0.0012279034827645374
1420.0, 0.0018916406319889876
1421.0, 0.0027077422589416
1422.0, 0.001128703905101242
1423.0, 0.0018767024148301206
1424.0, 0.0019000542732390399
1425.0, 0.0023253125362898857
1426.0, 0.0020241251837070846
1427.0, 0.001245324798708829
1428.0, 0.001252351458976687
1429.0, 0.0017763908995455865
1430.0, 0.001466938452635209
1431.0, 0.0015513813205749445
1432.0, 0.00141334823107162
1433.0, 0.0011032555951873083
1434.0, 0.0007187434614973634
1435.0, 0.0005978976451725442
1436.0, 0.0016453141938591789
1437.0, 0.0019843091989695215
1438.0, 0.0007272396715668348
1439.0, 0.0005586393309809441
1440.0, 0.0015078685088456062
1441.0, 0.00042749838567758775
1442.0, 0.0016982888689555295
1443.0, 0.0021098974058085126
1444.0, 0.0010525195168100646
1445.0, 0.0005504075332437739
1446.0, 0.0009110332753934933
1447.0, 0.0017196178972298118
1448.0, 0.00036493307801575294
1449.0, 0.00048458689359121097
1450.0, 0.0011005096494508648
1451.0, 0.0009011765740534827
1452.0, 0.0009977795322010752
1453.0, 0.0009161327329403321
1454.0, 0.0005808504029057814
1455.0, 0.0005292515014596361
1456.0, 0.000333775687150096
1457.0, 0.00045506410227967315
1458.0, 0.0006323783488131636
1459.0, 0.0005251750507871272
1460.0, 0.0012907919113351856
1461.0, 0.0009764279831239492
1462.0, 0.0003721436309478392
1463.0, 0.001036870587411894
1464.0, 0.00028735630625311315
1465.0, 0.0008684650921835905
1466.0, 0.001346075960958041
1467.0, 0.0005978510798725076
1468.0, 0.0009982841689123246
1469.0, 0.0010201197070426426
1470.0, 0.0013822720175636952
1471.0, 0.0012782994611076283
1472.0, 0.0012087800839529542
1473.0, 0.0011260076319441336
1474.0, 0.0009423896985073933
1475.0, 0.0011428397227457902
1476.0, 0.0007875605855612545
1477.0, 0.0005002399575349324
1478.0, 0.0008938832482846115
1479.0, 0.0008117981920423144
1480.0, 0.0008545604183537521
1481.0, 0.0012600372481501624
1482.0, 0.0010447754455919426
1483.0, 0.0006726905293347214
1484.0, 0.0010346657803703416
1485.0, 0.0013398284007046118
1486.0, 0.0006225820358078852
1487.0, 0.0006755121681439598
1488.0, 0.0008893488853447319
1489.0, 0.00034240658478225735
1490.0, 0.0006287009092543672
1491.0, 0.0006500115683103157
1492.0, 0.0008508876581978125
1493.0, 0.00037193866704482843
1494.0, 0.0003895907834032201
1495.0, 0.0015415377158465777
1496.0, 0.0011772114276583643
1497.0, 0.0008160163341247981
1498.0, 0.0015442122243099652
1499.0, 0.0009238793745368836
1500.0, 0.0012062251659205477
1501.0, 0.0019841983564578606
1502.0, 0.0013993905613177882
1503.0, 0.0015168368679921264
1504.0, 0.0015282636281965351
1505.0, 0.0015781705829763146
1506.0, 0.0015755856152103354
1507.0, 0.0015521932375767466
1508.0, 0.001661367076706466
1509.0, 0.0013602679056572732
1510.0, 0.001262294655462411
1511.0, 0.0015101420205274755
1512.0, 0.0011239504207016012
1513.0, 0.0011190609438083586
1514.0, 0.0015245379176887818
1515.0, 0.0015833582706945863
1516.0, 0.0011305699640390505
1517.0, 0.0008785265495231859
1518.0, 0.0008436751394639647
1519.0, 0.0013716182055637594
1520.0, 0.002228228262488456
1521.0, 0.001411569490979556
1522.0, 0.0019659642443752403
1523.0, 0.0010327482008859604
1524.0, 0.0011306177017785992
1525.0, 0.0013454275307446804
1526.0, 0.0008259857821465404
1527.0, 0.0012120127409955242
1528.0, 0.0015821415682287646
1529.0, 0.0012094631578007634
1530.0, 0.001274828276687207
1531.0, 0.001308748269297437
1532.0, 0.00043093984492673137
1533.0, 0.00029415584294328277
1534.0, 0.0005114477352519794
1535.0, 0.001107996559848627
1536.0, 0.0008649557320098495
1537.0, 0.0005233017685280283
1538.0, 0.0007185194948752682
1539.0, 0.0008694134528908598
1540.0, 0.001164791141904134
1541.0, 0.001080110073666729
1542.0, 0.0007172078449720981
1543.0, 0.0009200064239137379
1544.0, 0.0005777932321921177
1545.0, 0.00020487529589474673
1546.0, 0.0008090888626048531
1547.0, 0.0010466688570929523
1548.0, 0.0006495908546450581
1549.0, 0.0017956286765040805
1550.0, 0.001764903965543769
1551.0, 0.0009772077009131388
1552.0, 0.0014973908081850566
1553.0, 0.003180881030280226
1554.0, 0.0037883771668884955
1555.0, 0.0017870535642432203
1556.0, 0.0004997865411872686
1557.0, 0.0017759496122314168
1558.0, 0.0011725109852181693
1559.0, 0.0017027606144791854
1560.0, 0.0009070529484865959
1561.0, 0.0006438273795099397
1562.0, 0.0008341672946011505
1563.0, 0.001172116823427071
1564.0, 0.0009039816299984081
1565.0, 0.0009850401141264758
1566.0, 0.0008589188034267799
1567.0, 0.00096689533794433
1568.0, 0.0007291073987737402
1569.0, 0.0005781269369496382
1570.0, 0.0008595692494794344
1571.0, 0.0004143751801230743
1572.0, 2.8174048223322362e-06
1573, 0.0
1574, 0.0
1575, 0.0
1576, 0.0
1577, 0.0
1578, 0.0
1579, 0.0
1580, 0.0
1581, 0.0
1582, 0.0
1583, 0.0
1584, 0.0
1585, 0.0
1586, 0.0
1587, 0.0
1588, 0.0
1589, 0.0
1590, 0.0
1591, 0.0
1592, 0.0
1593, 0.0
1594, 0.0
1595, 0.0
1596, 0.0
1597, 0.0
1598, 0.0
1599, 0.0
