30, 0.0
31, 0.0
32, 0.0
33, 0.0
34, 0.0
35, 0.0
36, 0.0
37, 0.0
38, 0.0
39, 0.0
40, 0.0
41, 0.0
42, 0.0
43, 0.0
44, 0.0
45, 0.0
46, 0.0
47, 0.0
48, 0.0
49, 0.0
50, 0.0
51, 0.0
52, 0.0
53, 0.0
54.0, 8.591328690376579e-05
55.0, 0.001040505363612239
56.0, 0.002898865983921665
57.0, 0.0038593472358301956
58.0, 0.004851454005215871
59.0, 0.00668011345438239
60.0, 0.006397142072653185
61.0, 0.00408842599687869
62.0, 0.0018508566164642441
63.0, 0.0006586961435950052
64.0, 0.0009959965499823078
65.0, 0.0027078284886144404
66.0, 0.0008274274809038859
67.0, 0.0016327609913970671
68.0, 0.004693966119332359
69.0, 0.009507858423146517
70.0, 0.016158877635651474
71.0, 0.019295460890690865
72.0, 0.022747074266720086
73.0, 0.02971471603667018
74.0, 0.03988560667203218
75.0, 0.05044915202595324
76.0, 0.0641860239313611
77.0, 0.07678698957629956
78.0, 0.09092142320343224
79.0, 0.10901856151451368
80.0, 0.1325585891966768
81.0, 0.15888992178163253
82.0, 0.19487103097178282
83.0, 0.23626781175349554
84.0, 0.2794025291750827
85.0, 0.3218559844473456
86.0, 0.36514949383659906
87.0, 0.4168714268526802
88.0, 0.4561716454906555
89.0, 0.4880135905262145
90.0, 0.5156759576279771
91.0, 0.5355314168999652
92.0, 0.5484161469534871
93.0, 0.5519921170891443
94.0, 0.5411628484747829
95.0, 0.5124086601492471
96.0, 0.46468156948374534
97.0, 0.40812231299689283
98.0, 0.35390924705704646
99.0, 0.30378283979963416
100.0, 0.25978864863451023
101.0, 0.22311787664134958
102.0, 0.1915784779185706
103.0, 0.17144811303300198
104.0, 0.16015515000663197
105.0, 0.15202509771373432
106.0, 0.14687142154743202
107.0, 0.15956647660008969
108.0, 0.17059729552850889
109.0, 0.152944926803897
110.0, 0.12472657183523449
111.0, 0.10207333435858282
112.0, 0.09400316159322339
113.0, 0.09027713061199638
114.0, 0.09353473244789093
115.0, 0.09385130104926821
116.0, 0.09033337539288783
117.0, 0.08601939231359941
118.0, 0.07586325706271879
119.0, 0.07050553051482429
120.0, 0.06998799807951672
121.0, 0.07127621395867448
122.0, 0.07181176545827768
123.0, 0.07262542697748793
124.0, 0.07042065553157954
125.0, 0.06693662496769646
126.0, 0.06286965443357663
127.0, 0.05943010482260269
128.0, 0.05835210793381663
129.0, 0.05897036531066434
130.0, 0.05961531565812662
131.0, 0.058217292613637145
132.0, 0.05584389576163961
133.0, 0.05471622366922536
134.0, 0.053416672805171955
135.0, 0.05139329145011351
136.0, 0.05170540406603408
137.0, 0.05427436287253702
138.0, 0.05746467441531412
139.0, 0.0577752734223602
140.0, 0.055957638464068406
141.0, 0.05350311951046061
142.0, 0.052932090745104625
143.0, 0.05446703383035535
144.0, 0.05602331161755422
145.0, 0.056806042831732545
146.0, 0.05573515816269217
147.0, 0.056507409158754206
148.0, 0.0580259601563134
149.0, 0.058666806092848155
150.0, 0.0632557535517181
151.0, 0.06764825084385646
152.0, 0.07178528051592802
153.0, 0.07619852856284566
154.0, 0.08165103096468732
155.0, 0.08905904074325184
156.0, 0.09650469066272639
157.0, 0.10792387339830041
158.0, 0.12349315972520981
159.0, 0.14168370402579658
160.0, 0.16080012462155144
161.0, 0.18606722879765092
162.0, 0.21270985427617803
163.0, 0.24574878476043654
164.0, 0.2815465955863004
165.0, 0.31557682701122086
166.0, 0.3462821834094556
167.0, 0.38170936416272583
168.0, 0.40805593524655676
169.0, 0.4217008710617252
170.0, 0.4198034746819459
171.0, 0.40086077935818004
172.0, 0.3709614856259439
173.0, 0.3346033497097544
174.0, 0.2957919772035825
175.0, 0.2567258395807567
176.0, 0.220744292211997
177.0, 0.1962908170758686
178.0, 0.17166181447526768
179.0, 0.15191850726095688
180.0, 0.13576680183681555
181.0, 0.12194918263392311
182.0, 0.1101854610913547
183.0, 0.105443083611065
184.0, 0.10086243708900185
185.0, 0.09389900803001681
186.0, 0.08749580728822531
187.0, 0.08388843137967379
188.0, 0.0761006850458788
189.0, 0.07430925021438724
190.0, 0.07226525724961856
191.0, 0.07030746052331427
192.0, 0.0692022252358326
193.0, 0.06942224620637188
194.0, 0.07029606007323919
195.0, 0.07223577876512073
196.0, 0.07690686854517659
197.0, 0.08105276886175361
198.0, 0.08190660992769239
199.0, 0.08445318604426365
200.0, 0.08147839160755936
201.0, 0.07773623703903886
202.0, 0.07329473605928431
203.0, 0.06770511410591401
204.0, 0.0607569651478214
205.0, 0.057661213288915186
206.0, 0.05416848863453088
207.0, 0.05114967711264306
208.0, 0.05049645881446866
209.0, 0.05251379276323482
210.0, 0.05228185522720389
211.0, 0.057953403359675505
212.0, 0.06227187843982653
213.0, 0.06731808782347841
214.0, 0.07470392844771118
215.0, 0.08473388284307044
216.0, 0.09572874072860302
217.0, 0.11085785842221893
218.0, 0.12619449672409444
219.0, 0.1431365527154061
220.0, 0.1628821802047984
221.0, 0.18315608717925919
222.0, 0.20301368186907492
223.0, 0.22456533096852715
224.0, 0.24373747950424157
225.0, 0.2585037349776891
226.0, 0.26786947773021824
227.0, 0.26569499691616116
228.0, 0.26166100155119293
229.0, 0.2552749935661707
230.0, 0.24821368425479884
231.0, 0.24145099952882762
232.0, 0.2342151711306732
233.0, 0.2272899347732811
234.0, 0.2283298056048906
235.0, 0.229109960153448
236.0, 0.23123068898763244
237.0, 0.23644323062079783
238.0, 0.23057519324710754
239.0, 0.22069823455376272
240.0, 0.20367726787312462
241.0, 0.18078444783342118
242.0, 0.15505710124752903
243.0, 0.13051072109969705
244.0, 0.11112656132643206
245.0, 0.09248342754023622
246.0, 0.07809314556092689
247.0, 0.0664925509245992
248.0, 0.05615136659343684
249.0, 0.048223532406462745
250.0, 0.044321444175870035
251.0, 0.04031698826730539
252.0, 0.03728349090861194
253.0, 0.03400582557054076
254.0, 0.02942519069815992
255.0, 0.028801788402556643
256.0, 0.02792375600334104
257.0, 0.031049439265585937
258.0, 0.0331242078903409
259.0, 0.035184969989141904
260.0, 0.0436568063680547
261.0, 0.039458894415351664
262.0, 0.04414659990270683
263.0, 0.05183488531278245
264.0, 0.06097122802937252
265.0, 0.07227381431421297
266.0, 0.08850324046855439
267.0, 0.10365123857985012
268.0, 0.12020222616663007
269.0, 0.13808251249716189
270.0, 0.15409802090139788
271.0, 0.16497748293216166
272.0, 0.1725774290584932
273.0, 0.16427593112045283
274.0, 0.15020471937969818
275.0, 0.13403450202062087
276.0, 0.1168639208442515
277.0, 0.0983114353904963
278.0, 0.08239110718426637
279.0, 0.07325469374568197
280.0, 0.06340364746334248
281.0, 0.056088545917643624
282.0, 0.052026685938161975
283.0, 0.0457128098676054
284.0, 0.044691402370496125
285.0, 0.042173570167162285
286.0, 0.04127840845667459
287.0, 0.04289498660790226
288.0, 0.04604071656981011
289.0, 0.04761384617207425
290.0, 0.05141343192031336
291.0, 0.05402123805159599
292.0, 0.05703691208473372
293.0, 0.05904645445188989
294.0, 0.05779265181045985
295.0, 0.054742576355000926
296.0, 0.057276237618088276
297.0, 0.056437190540798994
298.0, 0.05456413138121463
299.0, 0.0530287171066088
300.0, 0.05222338667185451
301.0, 0.059038730890689374
302.0, 0.06026398970294436
303.0, 0.06364951819940784
304.0, 0.06890828697028939
305.0, 0.07456889655952349
306.0, 0.08006311492983727
307.0, 0.0916844130841732
308.0, 0.1020140458539855
309.0, 0.10761752369656517
310.0, 0.10982347151594751
311.0, 0.10949790039918758
312.0, 0.10442349118149895
313.0, 0.09535220267177134
314.0, 0.08952323932840739
315.0, 0.08343298782737268
316.0, 0.07670680301869233
317.0, 0.07080453980861885
318.0, 0.06822882295523096
319.0, 0.06538488635451543
320.0, 0.06220702924503705
321.0, 0.06075788210486048
322.0, 0.06119896624916071
323.0, 0.06176430717216316
324.0, 0.05824274880941883
325.0, 0.056553214975140244
326.0, 0.054458144333441455
327.0, 0.052783580022810785
328.0, 0.0565743000339373
329.0, 0.06870491484628828
330.0, 0.07265425195449328
331.0, 0.06214799292402477
332.0, 0.08263134214097034
333.0, 0.10273082114099728
334.0, 0.11213774146799929
335.0, 0.12091796834722882
336.0, 0.11352975044144378
337.0, 0.11900026126955639
338.0, 0.13777576284540394
339.0, 0.16150808549030943
340.0, 0.18614599077723037
341.0, 0.21380124724280064
342.0, 0.24877452666547545
343.0, 0.27607842668384
344.0, 0.30322359540397564
345.0, 0.3221026555664277
346.0, 0.32916554628200034
347.0, 0.3281194803301758
348.0, 0.31267159897739205
349.0, 0.2891371980610243
350.0, 0.25847158462259107
351.0, 0.22711060568335587
352.0, 0.1992196253468416
353.0, 0.17409354569650834
354.0, 0.1486470406296117
355.0, 0.12621229915057772
356.0, 0.10825963846382697
357.0, 0.09393472117882991
358.0, 0.08253062214136725
359.0, 0.0739347750227439
360.0, 0.06251085546906757
361.0, 0.05576763511151228
362.0, 0.049172628017613636
363.0, 0.041491825138900255
364.0, 0.03327308198756185
365.0, 0.026190184734868217
366.0, 0.020369655429447946
367.0, 0.015429722933502412
368.0, 0.01008962527022843
369.0, 0.004967115694882336
370.0, 0.0019169314414496205
371.0, 0.003257188604819204
372.0, 0.006880263040504512
373.0, 0.008736963722169215
374.0, 0.009509962469327208
375.0, 0.009284379950073602
376.0, 0.007950865763208028
377.0, 0.005430239038783274
378.0, 0.00278424157842813
379.0, 0.0035780100324775553
380.0, 0.007021135834403726
381.0, 0.012528937741845731
382.0, 0.018188966313356692
383.0, 0.02112897434781945
384.0, 0.023555285112834674
385.0, 0.025409650088026894
386.0, 0.026726003833914845
387.0, 0.026594841872335993
388.0, 0.023643673902535557
389.0, 0.017042411094714258
390.0, 0.011784166845873908
391.0, 0.00698707316617577
392.0, 0.003360284843437245
393.0, 0.0034837949355591325
394.0, 0.006792996634059275
395.0, 0.009604890802506932
396.0, 0.011012510671217998
397.0, 0.015433974040519502
398.0, 0.014522483437660947
399.0, 0.014360295491633828
400.0, 0.015916634840617325
401.0, 0.014736082560769055
402.0, 0.012816130877562368
403.0, 0.011721708389353649
404.0, 0.010429584378938431
405.0, 0.008343379534313093
406.0, 0.005079467489112891
407.0, 0.0015617224630644357
408.0, 0.0031487211868026295
409.0, 0.008817242939230092
410.0, 0.016783223097492656
411.0, 0.02525369392283513
412.0, 0.036413234901499524
413.0, 0.051908975098055116
414.0, 0.06474206983189247
415.0, 0.08421331989157012
416.0, 0.10607525518375997
417.0, 0.12845065284841187
418.0, 0.15353924611348826
419.0, 0.18224389379097924
420.0, 0.20853849928096935
421.0, 0.23521255070654848
422.0, 0.26334674637158784
423.0, 0.2910367930356099
424.0, 0.32165836043563933
425.0, 0.3575036217336422
426.0, 0.39645683362219136
427.0, 0.45099668945563454
428.0, 0.5041979258664857
429.0, 0.5555850263440659
430.0, 0.5998542066344531
431.0, 0.6264151728079643
432.0, 0.6232656055158214
433.0, 0.5967804244767742
434.0, 0.5527231205123393
435.0, 0.5041129668976361
436.0, 0.4549433248584223
437.0, 0.4125126997582433
438.0, 0.3847309086956412
439.0, 0.3662382628107907
440.0, 0.3593197412151188
441.0, 0.3534197527512476
442.0, 0.3545303186060262
443.0, 0.3640927118457553
444.0, 0.37831895925341436
445.0, 0.3905324837999421
446.0, 0.40926131378596126
447.0, 0.4216956418596599
448.0, 0.42654180539083303
449.0, 0.4267132866862547
450.0, 0.424362963987935
451.0, 0.4170573972053847
452.0, 0.40001058566898545
453.0, 0.3764601414780943
454.0, 0.34597333785185863
455.0, 0.31144110918152884
456.0, 0.27478865177148687
457.0, 0.23642431502811784
458.0, 0.2031713183122762
459.0, 0.17390937186296873
460.0, 0.14721391962427863
461.0, 0.12568064252966576
462.0, 0.10673117313367163
463.0, 0.0867873490564028
464.0, 0.073745475935309
465.0, 0.06543159547509948
466.0, 0.05723482515616662
467.0, 0.048942524475001414
468.0, 0.04042909128591185
469.0, 0.032495361505825326
470.0, 0.027370922867724558
471.0, 0.02057085074769833
472.0, 0.017234378073702067
473.0, 0.014400781277503974
474.0, 0.012012054799287615
475.0, 0.009927798265262827
476.0, 0.007441871018651275
477.0, 0.006895527640249578
478.0, 0.00584818780627687
479.0, 0.008175907966003775
480.0, 0.010832222483419288
481.0, 0.012949640735976724
482.0, 0.015809443071761207
483.0, 0.020247440600251222
484.0, 0.02493469932916095
485.0, 0.02936070061607186
486.0, 0.034726020744279905
487.0, 0.04180223187227058
488.0, 0.05086005663828087
489.0, 0.06182739415247947
490.0, 0.07620276471717342
491.0, 0.09071226481257064
492.0, 0.10414128877795308
493.0, 0.11670779998243022
494.0, 0.128260817051275
495.0, 0.1382327451886874
496.0, 0.14659292318289588
497.0, 0.1546274935703788
498.0, 0.15976460543130142
499.0, 0.1638242662567336
500.0, 0.1672523688576916
501.0, 0.17009918080209405
502.0, 0.1729621191296579
503.0, 0.1737241883158128
504.0, 0.1763733629429768
505.0, 0.17882367107808123
506.0, 0.1761629898615095
507.0, 0.16666747447367686
508.0, 0.1522084912465705
509.0, 0.13370278181223974
510.0, 0.11288984441000686
511.0, 0.09791162687701371
512.0, 0.08245034460593471
513.0, 0.0666915210370656
514.0, 0.053646927379337114
515.0, 0.04420347458973392
516.0, 0.035698539597182964
517.0, 0.028484715863573856
518.0, 0.023494134997684355
519.0, 0.020493212109925624
520.0, 0.017924102992817548
521.0, 0.013596889434986558
522.0, 0.00617825750600144
523.0, 0.005607515712358679
524.0, 0.0030456115157837496
525.0, 0.0010612366401666646
526.0, 0.0010777377206605536
527.0, 0.00198246889749288
528.0, 0.0007358870935501413
529.0, 0.0009584785853888284
530.0, 0.0013405547638625733
531.0, 0.0012376742129766084
532.0, 0.0009730115856512477
533.0, 0.0006201837285166198
534.0, 0.0002164952130974847
535.0, 0.0005111581586957674
536.0, 0.0014432088306310018
537.0, 0.0019234048491172532
538.0, 0.0030105590173101905
539.0, 0.0037975157475059118
540.0, 0.004669476423627395
541.0, 0.007472762978949452
542.0, 0.009708411499755943
543.0, 0.01142479571815793
544.0, 0.015133405757210715
545.0, 0.01921529418617351
546.0, 0.022495170321081528
547.0, 0.02459773517046524
548.0, 0.02622356798241232
549.0, 0.03504592855441282
550.0, 0.044114895465162715
551.0, 0.051842354416776634
552.0, 0.06130778660839154
553.0, 0.07540637499694966
554.0, 0.0937455265499651
555.0, 0.10990416789872987
556.0, 0.13570415697736393
557.0, 0.15768717791685916
558.0, 0.1843591530175511
559.0, 0.21249919714701873
560.0, 0.23413719536529795
561.0, 0.2423757995185497
562.0, 0.23636200060764667
563.0, 0.21599807333735604
564.0, 0.1953254541959813
565.0, 0.16982121726933214
566.0, 0.14794456434970674
567.0, 0.13458197606700212
568.0, 0.1200879299225509
569.0, 0.11212287805643782
570.0, 0.11180002119249277
571.0, 0.11384952096091093
572.0, 0.11761867314150248
573.0, 0.12436212365848814
574.0, 0.13492562314030687
575.0, 0.1475810135219329
576.0, 0.16255197141143168
577.0, 0.1813799706531478
578.0, 0.2010532820562819
579.0, 0.22248538508764676
580.0, 0.2477136872597752
581.0, 0.27574147511300684
582.0, 0.2973543096044875
583.0, 0.32052261216845573
584.0, 0.34176151199017857
585.0, 0.36311228794621364
586.0, 0.3841717582098802
587.0, 0.4073579680562345
588.0, 0.43650963662199216
589.0, 0.46786127083517703
590.0, 0.5056115983457536
591.0, 0.5388722594751663
592.0, 0.5706111917483521
593.0, 0.591961658242464
594.0, 0.5995294695923848
595.0, 0.6006495993596376
596.0, 0.5961154917066408
597.0, 0.5722626314216517
598.0, 0.5450313029462477
599.0, 0.5166680776373048
600.0, 0.48796720383225073
601.0, 0.4629614367068692
602.0, 0.44792506854540026
603.0, 0.43579005219679995
604.0, 0.422882648868973
605.0, 0.4171065119191587
606.0, 0.41211498759505477
607.0, 0.40850071957986467
608.0, 0.40719015475832404
609.0, 0.4040084407722753
610.0, 0.39733973951275314
611.0, 0.3789388555745115
612.0, 0.35841967852772305
613.0, 0.3326860081943178
614.0, 0.3044093800144793
615.0, 0.27658434964025447
616.0, 0.24748300363008524
617.0, 0.21890225055449067
618.0, 0.19699146100290021
619.0, 0.17465484810659843
620.0, 0.15331872191120732
621.0, 0.1354814473319976
622.0, 0.12124159767293054
623.0, 0.10765869275162632
624.0, 0.09747702371812952
625.0, 0.08910744087857651
626.0, 0.0828844970127608
627.0, 0.0754940568218956
628.0, 0.06802509268694455
629.0, 0.0630125695397911
630.0, 0.06047909283843576
631.0, 0.05632216090367225
632.0, 0.050285681199049234
633.0, 0.04681263955524617
634.0, 0.044281686095037284
635.0, 0.041576370769059186
636.0, 0.03882779234401841
637.0, 0.03673048160113488
638.0, 0.03369793593067771
639.0, 0.03236104071423118
640.0, 0.03148526861955948
641.0, 0.029719064876977428
642.0, 0.028134076189286795
643.0, 0.02705194648818386
644.0, 0.02495704577567774
645.0, 0.0233215110468206
646.0, 0.020813296353760304
647.0, 0.020166565825864465
648.0, 0.018551707430113872
649.0, 0.016618570103786125
650.0, 0.015185589506785222
651.0, 0.013885525015041707
652.0, 0.013853981954314093
653.0, 0.012619759022059817
654.0, 0.01285094950286269
655.0, 0.011794812154939173
656.0, 0.010907932013006438
657.0, 0.010812939450054179
658.0, 0.01030368432797438
659.0, 0.009489350990375817
660.0, 0.008873871422725348
661.0, 0.008330056567844819
662.0, 0.005461241283310605
663.0, 0.004929017854187713
664.0, 0.006828705173329269
665.0, 0.007022731626812525
666.0, 0.004301868113031373
667.0, 0.006475073519424387
668.0, 0.004919106994041193
669.0, 0.004965695921516276
670.0, 0.00533313267866352
671.0, 0.005117087922765485
672.0, 0.004825720365346954
673.0, 0.0052560817985719665
674.0, 0.00412900914194484
675.0, 0.005165566465262491
676.0, 0.005193629098610928
677.0, 0.004632817352990109
678.0, 0.004786998725182021
679.0, 0.005578181052365178
680.0, 0.005361480869159459
681.0, 0.00479517620621189
682.0, 0.0052603902511523136
683.0, 0.004382043743574543
684.0, 0.004539847979038996
685.0, 0.004820501602367226
686.0, 0.0043853453762428005
687.0, 0.0035454194880752514
688.0, 0.002527351930259128
689.0, 0.005163733374329517
690.0, 0.004530701792643713
691.0, 0.004376710570156454
692.0, 0.003316599387821074
693.0, 0.002373346332210937
694.0, 0.002671395841804274
695.0, 0.0018232629861365014
696.0, 0.0013142189082245136
697.0, 0.0021576952572374703
698.0, 0.0016060866809724185
699.0, 0.0018733806131819622
700.0, 0.0014489377967244995
701.0, 0.00069657898775182
702.0, 0.0024453333517899614
703.0, 0.0019892380507405064
704.0, 0.00035615764161959205
705.0, 0.0003551695050875489
706.0, 0.00041368128020227
707.0, 0.00029081916956535454
708.0, 0.000575395059397346
709.0, 0.0013178049109239442
710.0, 0.0009812904012434416
711.0, 0.00033192315602569494
712.0, 0.000837263093312854
713.0, 0.0020778744077456094
714.0, 0.001561452053563512
715.0, 0.00038296273992166065
716.0, 0.00031671150807334914
717.0, 0.001076903546330704
718.0, 0.0012276593179291464
719.0, 0.0011996949200638915
720.0, 0.0007330842479618221
721.0, 0.0015794945526736394
722.0, 0.001683406384010588
723.0, 0.00105561017024643
724.0, 0.0012604009671230952
725.0, 0.001757861438148321
726.0, 0.0018503548532775617
727.0, 0.0016872630717762666
728.0, 0.0021156748683775714
729.0, 0.0026613553593556718
730.0, 0.0028325294793844734
731.0, 0.0028063379188811425
732.0, 0.003036857012653868
733.0, 0.0026085956452117755
734.0, 0.0026715038592333117
735.0, 0.0028416243533470015
736.0, 0.002053346426109498
737.0, 0.0018242109501123713
738.0, 0.00205429389971463
739.0, 0.0017957093965066898
740.0, 0.0015221150018131886
741.0, 0.003183125416149421
742.0, 0.001292128412575716
743.0, 0.0013175023735583526
744.0, 0.001267622103764531
745.0, 0.0006465533944747119
746.0, 0.0003387992680227844
747.0, 0.0007722707542563344
748.0, 0.0002289479057375354
749.0, 0.001290591847763044
750.0, 0.002988889195715235
751.0, 0.0019213821714743847
752.0, 0.0012807259021717537
753.0, 0.0012468490467603744
754.0, 0.0008712686169040559
755.0, 0.0003771720365525079
756.0, 0.0005559837827835873
757.0, 0.0004649619983019715
758.0, 0.0007327554575338238
759.0, 0.00039945504370309106
760.0, 0.0009331395610656627
761.0, 0.0012924709103200732
762.0, 0.0007499307305295369
763.0, 0.001157716625434365
764.0, 0.0016502399007305847
765.0, 0.0008317904361754234
766.0, 0.0017992665915520431
767.0, 0.0010062400939285948
768.0, 0.00029578936649584287
769.0, 0.0009909806612141115
770.0, 0.0017296957785095373
771.0, 0.0002276334520982657
772.0, 0.00011042044351222013
773.0, 0.0016023417173157552
774.0, 0.0013342081556875236
775.0, 0.0017301400204702397
776.0, 0.0016902377369301543
777.0, 0.0017273656456900095
778.0, 0.002700467324510411
779.0, 0.0022699122599853707
780.0, 0.0037671424499744147
781.0, 0.0025780695280605633
782.0, 0.001984073541775268
783.0, 0.002979609307536599
784.0, 0.004820620806260007
785.0, 0.004824122737344014
786.0, 0.002247867291601325
787.0, 0.0020923676916840147
788.0, 0.0031476823734979146
789.0, 0.005176841527329407
790.0, 0.004813014954608233
791.0, 0.0047566552731795496
792.0, 0.005036370359741814
793.0, 0.005935937092687259
794.0, 0.007032902933911354
795.0, 0.0048213514311487415
796.0, 0.007694316493563395
797.0, 0.006362003183699649
798.0, 0.008226007689481367
799.0, 0.00815874671007115
800.0, 0.00812237740901045
801.0, 0.009375028225716545
802.0, 0.01043023689456709
803.0, 0.011493166620951095
804.0, 0.012629593966776773
805.0, 0.012820313031169667
806.0, 0.013755740770487307
807.0, 0.014979966632530428
808.0, 0.015564970365673841
809.0, 0.015936989247307385
810.0, 0.016782183545941406
811.0, 0.01745742938591579
812.0, 0.021629984324197982
813.0, 0.02297945196953515
814.0, 0.023521941682880174
815.0, 0.025976515694898967
816.0, 0.027372045476295563
817.0, 0.029333271688747487
818.0, 0.03356832487098542
819.0, 0.03502300782283788
820.0, 0.03778027696457748
821.0, 0.03798463240722819
822.0, 0.04454831685951807
823.0, 0.049961862097073984
824.0, 0.052143701537744724
825.0, 0.053386984666313204
826.0, 0.05613238569023649
827.0, 0.059648475233114374
828.0, 0.0612922947113934
829.0, 0.0626642605531756
830.0, 0.061509550315817375
831.0, 0.06273429083904995
832.0, 0.06182946111187509
833.0, 0.061334702504375824
834.0, 0.06275381774967093
835.0, 0.06263396080169462
836.0, 0.06352754928893184
837.0, 0.06293591175581573
838.0, 0.06380760877027748
839.0, 0.06355005371719863
840.0, 0.06395026321442586
841.0, 0.06379140344539345
842.0, 0.06323133182479382
843.0, 0.06437355413500682
844.0, 0.06689107828826617
845.0, 0.06537845560088604
846.0, 0.0703192944169427
847.0, 0.07354426455615587
848.0, 0.07535968655064727
849.0, 0.07802964091105226
850.0, 0.08172381102003382
851.0, 0.0855382302614897
852.0, 0.09020762624090166
853.0, 0.09772114407824886
854.0, 0.09601979886551949
855.0, 0.102888320532178
856.0, 0.10727257128914355
857.0, 0.1102529752147968
858.0, 0.11480042260573903
859.0, 0.12075161186978307
860.0, 0.12536538902485497
861.0, 0.12762729536756867
862.0, 0.1266824580380433
863.0, 0.1290025777267207
864.0, 0.13295317128288975
865.0, 0.1363368183839167
866.0, 0.14023917415764253
867.0, 0.1438903556654479
868.0, 0.14733466187023614
869.0, 0.15394000056698187
870.0, 0.16161385140507734
871.0, 0.1666718341580563
872.0, 0.17713787163841843
873.0, 0.18935130116826096
874.0, 0.20230206612164725
875.0, 0.2162492471365601
876.0, 0.23023080975487484
877.0, 0.24386478492855285
878.0, 0.26030488964824017
879.0, 0.2739203868711689
880.0, 0.28378222795145525
881.0, 0.29086503244125744
882.0, 0.2942020162384916
883.0, 0.2952129544112668
884.0, 0.2936276262882518
885.0, 0.2883224621971368
886.0, 0.28067282711806774
887.0, 0.2761836764760854
888.0, 0.27434770850124207
889.0, 0.27196488849744904
890.0, 0.2725654989325998
891.0, 0.27678460326622506
892.0, 0.283051280441581
893.0, 0.2925562526926529
894.0, 0.30572726974943243
895.0, 0.31974125629272687
896.0, 0.34021668841554054
897.0, 0.3601527483876888
898.0, 0.38393572684150096
899.0, 0.4115528881283094
900.0, 0.44319103219405537
901.0, 0.48035102036070176
902.0, 0.5213815617566558
903.0, 0.5645729624762964
904.0, 0.61384008884004
905.0, 0.670751685183983
906.0, 0.7317056711078893
907.0, 0.7920779187782335
908.0, 0.8507548998791369
909.0, 0.9059252403235376
910.0, 0.9508610707060405
911.0, 0.9824312832303466
912.0, 0.9981524232554441
913.0, 0.9900201138786349
914.0, 0.9769767392181019
915.0, 0.9252899480480822
916.0, 0.8691146868909084
917.0, 0.7998748891526403
918.0, 0.7264564343325282
919.0, 0.651446574299232
920.0, 0.5793090018589198
921.0, 0.5151600741640933
922.0, 0.4534049973570353
923.0, 0.40343344280328813
924.0, 0.35509120945785433
925.0, 0.31580324881214444
926.0, 0.2805770444277314
927.0, 0.25112463501082266
928.0, 0.22419778885533614
929.0, 0.19959561719865548
930.0, 0.180265214773118
931.0, 0.16337224051225693
932.0, 0.14871997987798485
933.0, 0.13396343221523338
934.0, 0.12313914899460382
935.0, 0.11210876183275519
936.0, 0.10173371132482861
937.0, 0.09368481277752112
938.0, 0.08742846979095842
939.0, 0.08099866541733758
940.0, 0.07418386048058073
941.0, 0.06974779801681133
942.0, 0.06806983545789848
943.0, 0.06396203471350635
944.0, 0.06077812717065318
945.0, 0.05729668669870977
946.0, 0.053984948142712624
947.0, 0.05094828278905755
948.0, 0.04918009865471173
949.0, 0.05026057826316733
950.0, 0.04841329949188774
951.0, 0.047529644746965666
952.0, 0.04855423305723336
953.0, 0.04852400537377525
954.0, 0.04685511406398118
955.0, 0.046684785586486095
956.0, 0.04542017150381932
957.0, 0.04164344821223939
958.0, 0.03990464911627599
959.0, 0.04050031901240316
960.0, 0.03939306821221542
961.0, 0.03661756584525326
962.0, 0.03537512723437173
963.0, 0.034456665152650674
964.0, 0.03335711306120009
965.0, 0.03307651224936822
966.0, 0.03336491817480095
967.0, 0.03336432170076116
968.0, 0.03478223528399453
969.0, 0.039307500906427234
970.0, 0.03857868666811148
971.0, 0.04305435084213983
972.0, 0.04416713364599385
973.0, 0.04696604191363988
974.0, 0.05008167481057204
975.0, 0.0514299389151223
976.0, 0.05183468424956398
977.0, 0.0516589991913825
978.0, 0.04704821498390696
979.0, 0.045164263573580235
980.0, 0.03964853514572759
981.0, 0.03372682663813938
982.0, 0.02803941959190493
983.0, 0.02341778254576193
984.0, 0.02001647140893829
985.0, 0.01695490780798882
986.0, 0.013932702008917002
987.0, 0.012362342257705808
988.0, 0.011998050043590716
989.0, 0.00876705935577029
990.0, 0.0060499347273815
991.0, 0.006396675124600155
992.0, 0.003973717788079556
993.0, 0.0020320253245325595
994.0, 0.0010641077233099019
995.0, 0.00013369678649583486
996.0, 0.00039263599503545324
997.0, 0.0016651614992052018
998.0, 0.0012111230431198963
999.0, 0.0009500248338059965
1000.0, 0.0002469683506758597
1001.0, 0.00013692376136081703
1002.0, 0.0010228628483791265
1003.0, 0.001955742872657052
1004.0, 0.0018535356304310619
1005.0, 0.0009182597557515025
1006.0, 0.000949224643759229
1007.0, 0.0033071529734295603
1008.0, 0.003288585545946691
1009.0, 0.0059476219352242714
1010.0, 0.0078097131849027505
1011.0, 0.011099450856355875
1012.0, 0.013539651353318912
1013.0, 0.013901701889781813
1014.0, 0.013689591502477788
1015.0, 0.013769138141211251
1016.0, 0.013135784462758888
1017.0, 0.01299289771375154
1018.0, 0.012817323979481708
1019.0, 0.01194056452695269
1020.0, 0.011742066468681306
1021.0, 0.01193335546057517
1022.0, 0.012321926438564982
1023.0, 0.013083493136097519
1024.0, 0.014292841621686392
1025.0, 0.015540966444315367
1026.0, 0.016727236103826856
1027.0, 0.018869294679651205
1028.0, 0.01984816769401708
1029.0, 0.022304894032211767
1030.0, 0.02532513416906787
1031.0, 0.02982695098764782
1032.0, 0.031543664989257536
1033.0, 0.033412312449660767
1034.0, 0.036390092645479155
1035.0, 0.038508868986709396
1036.0, 0.03977320973697156
1037.0, 0.041927832011109264
1038.0, 0.040055682347136495
1039.0, 0.039077650794553685
1040.0, 0.03953621011216051
1041.0, 0.036829122765690024
1042.0, 0.034990283170476394
1043.0, 0.034500363603655396
1044.0, 0.03292480385829381
1045.0, 0.028892769544741244
1046.0, 0.024435952015565993
1047.0, 0.0225950089768115
1048.0, 0.021730595922631383
1049.0, 0.02290278097276446
1050.0, 0.019301791290513702
1051.0, 0.018596907883594877
1052.0, 0.02002464504339407
1053.0, 0.02122664865500942
1054.0, 0.02076964173553558
1055.0, 0.020804806278264743
1056.0, 0.021447706637058906
1057.0, 0.02001138644743701
1058.0, 0.02120401312511605
1059.0, 0.022669749151869433
1060.0, 0.021377320228672753
1061.0, 0.01898209932907354
1062.0, 0.019183379755159415
1063.0, 0.01868288498276852
1064.0, 0.019872121910480746
1065.0, 0.02094355021514272
1066.0, 0.021882708434703385
1067.0, 0.024488245134091792
1068.0, 0.02575786209072332
1069.0, 0.029448914778149513
1070.0, 0.03343687503995709
1071.0, 0.03580231967273684
1072.0, 0.043924516295855295
1073.0, 0.05062363883106004
1074.0, 0.060209728463719976
1075.0, 0.07312672643504484
1076.0, 0.0888207117541366
1077.0, 0.10754786090631945
1078.0, 0.1294136607883831
1079.0, 0.1540952898517427
1080.0, 0.17847845356196881
1081.0, 0.2021222515202563
1082.0, 0.21069793534092895
1083.0, 0.2135362304198098
1084.0, 0.20426581269543365
1085.0, 0.18756983832104965
1086.0, 0.16241043234743358
1087.0, 0.1352511507388187
1088.0, 0.11312736787572333
1089.0, 0.09320184922343012
1090.0, 0.07538948442275663
1091.0, 0.06304972420315748
1092.0, 0.051786644650747914
1093.0, 0.04068460885381165
1094.0, 0.033414666958743656
1095.0, 0.02928109803209299
1096.0, 0.024782937777923487
1097.0, 0.021563353077592044
1098.0, 0.020411641226338553
1099.0, 0.018136726471165928
1100.0, 0.013720742276108533
1101.0, 0.012195751859745366
1102.0, 0.009756841731538566
1103.0, 0.010132372212028123
1104.0, 0.007048599921295958
1105.0, 0.006292902410268007
1106.0, 0.00732083220870203
1107.0, 0.006537205168555184
1108.0, 0.005168499179805939
1109.0, 0.003488014125025616
1110.0, 0.0025608820036364605
1111.0, 0.003435209845174217
1112.0, 0.0020767337538338693
1113.0, 0.0015489568289698279
1114.0, 0.0028200073118200605
1115.0, 0.0025842282803422312
1116.0, 0.003311577135482199
1117.0, 0.0034905768006618368
1118.0, 0.0018214855075021985
1119.0, 0.0007728703116445073
1120.0, 0.002889071939128454
1121.0, 0.005664456814402594
1122.0, 0.004903507884996173
1123.0, 0.002059611047540087
1124.0, 0.001667433699965559
1125.0, 0.0015363666998263325
1126.0, 0.0005080749246243288
1127.0, 0.001949873252467987
1128.0, 0.0015417935368182202
1129.0, 0.0009902049482193834
1130.0, 0.0018178556182419532
1131.0, 0.0024696451132203653
1132.0, 0.0021133119857988814
1133.0, 0.001516979565426712
1134.0, 0.0009903570219861105
1135.0, 0.00030768322010141637
1136.0, 0.000447870278808019
1137.0, 0.0009082882369950945
1138.0, 0.0010580433169903542
1139.0, 0.00041932318177141426
1140.0, 0.0004030240818496009
1141.0, 0.00029116036164865574
1142.0, 0.0005802786744084525
1143.0, 0.0010996846714894672
1144.0, 0.0012472030423755509
1145.0, 0.0008895119947311108
1146.0, 0.0009224674152019069
1147.0, 0.002615928787317382
1148.0, 0.0031469916867854
1149.0, 0.000633260572326407
1150.0, 0.0017844506448728673
1151.0, 0.0027753766154214083
1152.0, 0.000868530750106824
1153.0, 0.0005056691324610224
1154.0, 0.0017524744705268457
1155.0, 0.0015783864992432307
1156.0, 0.0007254869035213285
1157.0, 0.0011936743466240463
1158.0, 0.0015997718434237994
1159.0, 0.0016697428379355574
1160.0, 0.0009579510256141555
1161.0, 0.0011899944170038266
1162.0, 0.0014904212550780884
1163.0, 0.001640323190391223
1164.0, 0.0009855813114479
1165.0, 0.0008530310538770807
1166.0, 0.0008529979903400534
1167.0, 0.0011279147769777678
1168.0, 0.001746139591796938
1169.0, 0.001753318922568004
1170.0, 0.0013443032385394985
1171.0, 0.002420198475475422
1172.0, 0.0013449613632757684
1173.0, 0.0007304088532144356
1174.0, 0.0030428485838933463
1175.0, 0.004473401893632154
1176.0, 0.002451763911384649
1177.0, 0.0018419479765115227
1178.0, 0.0020922340072036492
1179.0, 0.002747531253672548
1180.0, 0.00247445450584379
1181.0, 0.0016822943364829864
1182.0, 0.0026708973964871775
1183.0, 0.004312705618222354
1184.0, 0.0034437013473321587
1185.0, 0.0033954293458420665
1186.0, 0.002842151236235236
1187.0, 0.004133215353179105
1188.0, 0.0037730473097338244
1189.0, 0.0028327466885871917
1190.0, 0.0043475697941052745
1191.0, 0.004030795052213697
1192.0, 0.005029723068794457
1193.0, 0.00596463373194275
1194.0, 0.003941684266560166
1195.0, 0.00327760318174786
1196.0, 0.003879694572953133
1197.0, 0.002090383225119923
1198.0, 0.005481371537443179
1199.0, 0.006893004321182346
1200.0, 0.0027401885484640513
1201.0, 0.002260697385842493
1202.0, 0.004443306218892347
1203.0, 0.003646394506879226
1204.0, 0.0035310435415048884
1205.0, 0.004515110055758895
1206.0, 0.004064692481971099
1207.0, 0.0025155268174826416
1208.0, 0.002173733291614629
1209.0, 0.0034054375072908555
1210.0, 0.004193334497990359
1211.0, 0.003100647225036503
1212.0, 0.0038564645419864934
1213.0, 0.005221150723948487
1214.0, 0.005282425640341037
1215.0, 0.0036613704875424636
1216.0, 0.0018656246330418648
1217.0, 0.0014816128670273772
1218.0, 0.0028289385798069043
1219.0, 0.002284664398097152
1220.0, 0.0011679835070330276
1221.0, 0.002843968823301127
1222.0, 0.001896431203877172
1223.0, 0.0019808741846392653
1224.0, 0.0014218023193002388
1225.0, 0.001992801537519899
1226.0, 0.0007875084059383604
1227.0, 0.00014687361478041722
1228.0, 0.0005763541024066969
1229.0, 0.0017997618978280014
1230.0, 0.0009335256527078124
1231.0, 0.002164241612027046
1232.0, 0.004262105809403497
1233.0, 0.0028865422306470164
1234.0, 0.00037113002074473314
1235.0, 0.0005494210677954314
1236.0, 0.00014477101294341752
1237.0, 0.0008286875710709015
1238.0, 0.0010085761231879817
1239.0, 0.00036222422148651323
1240.0, 0.0005526253764164206
1241.0, 0.0013318613179384101
1242.0, 0.001085101062388499
1243.0, 0.0010664438750999556
1244.0, 0.0006368797685470228
1245.0, 0.0013343355838439596
1246.0, 0.001712322438546665
1247.0, 0.0008497731135531292
1248.0, 0.0007611965180109915
1249.0, 0.001285145210393029
1250.0, 0.0009445679390286711
1251.0, 0.0003138819809246759
1252.0, 0.0013304288704755946
1253.0, 0.0008692298524608954
1254.0, 0.0011193918562166676
1255.0, 0.001055645219175659
1256.0, 0.0003378672404873893
1257.0, 0.0005671894831307501
1258.0, 0.00040134958874083295
1259.0, 0.0002407899992749912
1260.0, 0.0003817295946220251
1261.0, 0.0004500825178563919
1262.0, 0.0003252645719028666
1263.0, 0.00017675448774707883
1264.0, 0.0006657402008973313
1265.0, 0.001786343988649481
1266.0, 0.0010065397833481737
1267.0, 0.001526967010102132
1268.0, 0.0028620727968035145
1269.0, 0.000989054389922587
1270.0, 0.0022717059176256427
1271.0, 0.0016879552381051884
1272.0, 0.002161966796870776
1273.0, 0.0032467719429933165
1274.0, 0.004398270113290785
1275.0, 0.00480199655444626
1276.0, 0.00441737126294475
1277.0, 0.0037668973761981546
1278.0, 0.0026307805487240433
1279.0, 0.0028274315131125915
1280.0, 0.0018653443936319561
1281.0, 0.002376245986848695
1282.0, 0.0021298930545359898
1283.0, 0.0025337484594550766
1284.0, 0.001995728837052916
1285.0, 0.0016257370498070928
1286.0, 0.0014890916203874193
1287.0, 0.0021512555772905235
1288.0, 0.0022020442839620477
1289.0, 0.002002327506553288
1290.0, 0.0012864399421444585
1291.0, 0.00141872439801807
1292.0, 0.0025580608074817785
1293.0, 0.0016444870979810562
1294.0, 0.0024311244733931157
1295.0, 0.0025407455004989475
1296.0, 0.0017067145913900923
1297.0, 0.000733804539777314
1298.0, 0.0025088983400284913
1299.0, 0.0026969344962651342
1300.0, 0.0009889030463813616
1301.0, 0.0001567556945053604
1302.0, 0.0021412730204204903
1303.0, 0.0016706878107904156
1304.0, 0.0019251823357965237
1305.0, 0.002832021037573564
1306.0, 0.0021805223273004336
1307.0, 0.0013084200047975474
1308.0, 0.0008099784298619118
1309.0, 0.0006146975414013247
1310.0, 0.002245011358046433
1311.0, 0.0018754506842888535
1312.0, 0.001416473757982446
1313.0, 0.0008150261995807609
1314.0, 0.0009726185706477772
1315.0, 0.0007916372945663704
1316.0, 0.0007343280213619264
1317.0, 0.0006140537666829216
1318.0, 0.0009839518939396472
1319.0, 0.001728184877425433
1320.0, 0.0026272619427989085
1321.0, 0.0023282640584794028
1322.0, 0.0031254887601486004
1323.0, 0.003659356921934124
1324.0, 0.001834735096262035
1325.0, 0.003816228242346115
1326.0, 0.002603403935517599
1327.0, 0.003105321926628899
1328.0, 0.004257203358501057
1329.0, 0.003344987991234961
1330.0, 0.0028765074647866358
1331.0, 0.00202587676222212
1332.0, 0.0017297270602370355
1333.0, 0.0013683774510262064
1334.0, 0.0014912615702422757
1335.0, 0.002709585873140529
1336.0, 0.0026531650249442596
1337.0, 0.0031874853075994666
1338.0, 0.0037865779453226532
1339.0, 0.0033462196645784826
1340.0, 0.0027644312588298737
1341.0, 0.0022762791963594872
1342.0, 0.003665977423624255
1343.0, 0.004240998968899916
1344.0, 0.002883063331797886
1345.0, 0.002375326695039838
1346.0, 0.0052903329493219926
1347.0, 0.0033920881352098413
1348.0, 0.002756497931783401
1349.0, 0.0048489987313597716
1350.0, 0.0055641721984675185
1351.0, 0.004003535403960922
1352.0, 0.0033956862886000395
1353.0, 0.0038612389280408767
1354.0, 0.004678473377279568
1355.0, 0.0050873972051475366
1356.0, 0.005887157693520192
1357.0, 0.006225351724254934
1358.0, 0.004968967654570671
1359.0, 0.005473909996762346
1360.0, 0.00590495725399034
1361.0, 0.004348912492217322
1362.0, 0.004275537980422854
1363.0, 0.00563605290219996
1364.0, 0.0021185306368420352
1365.0, 0.003945489731086209
1366.0, 0.006809382662368984
1367.0, 0.006412957086009932
1368.0, 0.004133739643873449
1369.0, 0.004443681474757581
1370.0, 0.005054056804579984
1371.0, 0.00487930013073668
1372.0, 0.004262341841479578
1373.0, 0.004851916837256282
1374.0, 0.004744863379791896
1375.0, 0.004385808763464961
1376.0, 0.00535129200309965
1377.0, 0.0041691339370434006
1378.0, 0.005111615570691019
1379.0, 0.0030894894342469227
1380.0, 0.003340555481725937
1381.0, 0.004290450795556003
1382.0, 0.005578684694691567
1383.0, 0.004940993971805253
1384.0, 0.003586974268708427
1385.0, 0.00528511743440147
1386.0, 0.003930768186078102
1387.0, 0.004210045112263529
1388.0, 0.003571736309342512
1389.0, 0.004261786185122008
1390.0, 0.003716398923895976
1391.0, 0.0032561499866575008
1392.0, 0.0035300183903864196
1393.0, 0.0031811481840335032
1394.0, 0.0029499141841481074
1395.0, 0.004143326947725378
1396.0, 0.004962420022468991
1397.0, 0.003108755464709777
1398.0, 0.005412136378691869
1399.0, 0.004415749894090821
1400.0, 0.003963288615974364
1401.0, 0.006033252269110236
1402.0, 0.004317215790421038
1403.0, 0.002657199070903145
1404.0, 0.0029549024630942627
1405.0, 0.004342372320116665
1406.0, 0.005454599871942329
1407.0, 0.004916827422868674
1408.0, 0.004834032756816373
1409.0, 0.006101233650817256
1410.0, 0.004110150794372237
1411.0, 0.003641412632090367
1412.0, 0.004699756840540103
1413.0, 0.0054803718840129535
1414.0, 0.006592203598283441
1415.0, 0.005400815584717962
1416.0, 0.003785367790050696
1417.0, 0.004000542085187426
1418.0, 0.004176026498213371
1419.0, 0.004590419619678993
1420.0, 0.004523776881757563
1421.0, 0.006518389967105929
1422.0, 0.007575723311829934
1423.0, 0.0054455416459614926
1424.0, 0.008387882156477917
1425.0, 0.00957136908086908
1426.0, 0.007310190206533956
1427.0, 0.0072678670326373675
1428.0, 0.005715722093427187
1429.0, 0.0056595775038717445
1430.0, 0.006834675114477711
1431.0, 0.006996408618225782
1432.0, 0.0061781439329859624
1433.0, 0.00581279518145307
1434.0, 0.006011677965562468
1435.0, 0.00676127613621356
1436.0, 0.0075536033145162315
1437.0, 0.007456876808544659
1438.0, 0.007795741601403371
1439.0, 0.007589686263800029
1440.0, 0.007518772566004757
1441.0, 0.00660739579938105
1442.0, 0.0087208227957842
1443.0, 0.007513730688041409
1444.0, 0.00910110484705299
1445.0, 0.007473246714459623
1446.0, 0.009279578145244098
1447.0, 0.006434433709434211
1448.0, 0.005481519467123435
1449.0, 0.006562322217044754
1450.0, 0.006472748346205626
1451.0, 0.006343478295498897
1452.0, 0.006348418309311084
1453.0, 0.005229304584328441
1454.0, 0.005578161300934328
1455.0, 0.007622472570599043
1456.0, 0.006692811274887071
1457.0, 0.005345594134936375
1458.0, 0.007833845775663265
1459.0, 0.008999398554015658
1460.0, 0.006993826584118299
1461.0, 0.006455522208182532
1462.0, 0.006690684709470497
1463.0, 0.008088609866882666
1464.0, 0.008525971312616317
1465.0, 0.008008210386164945
1466.0, 0.0075564385373125195
1467.0, 0.006830167955565122
1468.0, 0.006358815530621103
1469.0, 0.005699460735556376
1470.0, 0.0080008874050773
1471.0, 0.0069432277717283155
1472.0, 0.007376630528163236
1473.0, 0.006470677623607425
1474.0, 0.006143860506446975
1475.0, 0.007004670198994879
1476.0, 0.007498038940010326
1477.0, 0.005625764550763517
1478.0, 0.004180210248432092
1479.0, 0.0041332139837051305
1480.0, 0.004953154506348552
1481.0, 0.006141720991310348
1482.0, 0.007430560164035666
1483.0, 0.00693166526939117
1484.0, 0.005894123979928362
1485.0, 0.007086800722987078
1486.0, 0.0055206754986808024
1487.0, 0.00560381377113939
1488.0, 0.0054392642229892894
1489.0, 0.006907946464588542
1490.0, 0.005645205848068354
1491.0, 0.003190555703859936
1492.0, 0.0040623418060912984
1493.0, 0.006303659691848669
1494.0, 0.00501478406885384
1495.0, 0.005647910595902545
1496.0, 0.00776757354253666
1497.0, 0.0053218666669907645
1498.0, 0.005897939665499815
1499.0, 0.005862911141419782
1500.0, 0.004827870530489737
1501.0, 0.005407041213940798
1502.0, 0.005775458703006316
1503.0, 0.005615028082646667
1504.0, 0.005266154260873036
1505.0, 0.004360185047637081
1506.0, 0.004405296912985292
1507.0, 0.00610403550975341
1508.0, 0.006200624523934565
1509.0, 0.005104390652570179
1510.0, 0.003647570293604662
1511.0, 0.0024983139958615827
1512.0, 0.0051090954244781195
1513.0, 0.006106320078015064
1514.0, 0.00390208666211514
1515.0, 0.003686460355856538
1516.0, 0.00322394058111377
1517.0, 0.003335769553024865
1518.0, 0.004301664489680839
1519.0, 0.0032092227903796023
1520.0, 0.004890416519892207
1521.0, 0.0020144729360957346
1522.0, 0.0037894002274165227
1523.0, 0.0020677544736766246
1524.0, 0.003732825013143606
1525.0, 0.002213455850313372
1526.0, 0.0017161605755702362
1527.0, 0.002442136336475347
1528.0, 0.0007426550047676356
1529.0, 0.0018242630847826375
1530.0, 0.0007226311514014642
1531.0, 0.0018086809661017975
1532.0, 0.002603196459595981
1533.0, 0.001921976685532357
1534.0, 0.001447289005344121
1535.0, 0.0018526279718854035
1536.0, 0.0014217414456115752
1537.0, 0.0009981388451562902
1538.0, 0.0015873427051448451
1539.0, 0.001971724504812899
1540.0, 0.0011761148141566959
1541.0, 0.0004570395720076994
1542.0, 0.0009690665072521706
1543.0, 0.0020466481492751086
1544.0, 0.0023279087906147317
1545.0, 0.0009706991276565189
1546.0, 0.0010724189560942258
1547.0, 0.0008920667191041816
1548.0, 0.001591245884094143
1549.0, 0.0023053447554925513
1550.0, 0.00243828001782904
1551.0, 0.003802795802652787
1552.0, 0.004100711700205673
1553.0, 0.0045220086046725925
1554.0, 0.004697940201630791
1555.0, 0.004378760970001287
1556.0, 0.0033171348371297104
1557.0, 0.0016467917436329253
1558.0, 0.0009009294173892785
1559.0, 0.00031514834671100237
1560.0, 0.00045633237685270176
1561.0, 0.0018727721479496191
1562.0, 0.0015299467955528752
1563.0, 0.0018211672427784582
1564.0, 0.0007375108355958288
1565.0, 0.0010593677990190721
1566.0, 0.0009801965107900988
1567.0, 0.0019984907161540288
1568.0, 0.001268779133181747
1569.0, 0.0008083311791806226
1570.0, 0.0031893641780508927
1571.0, 0.0018355081677708886
1572.0, 6.650686537587735e-06
1573, 0.0
1574, 0.0
1575, 0.0
1576, 0.0
1577, 0.0
1578, 0.0
1579, 0.0
1580, 0.0
1581, 0.0
1582, 0.0
1583, 0.0
1584, 0.0
1585, 0.0
1586, 0.0
1587, 0.0
1588, 0.0
1589, 0.0
1590, 0.0
1591, 0.0
1592, 0.0
1593, 0.0
1594, 0.0
1595, 0.0
1596, 0.0
1597, 0.0
1598, 0.0
1599, 0.0
