30, 0.0
31, 0.0
32, 0.0
33, 0.0
34, 0.0
35, 0.0
36, 0.0
37, 0.0
38, 0.0
39, 0.0
40, 0.0
41, 0.0
42, 0.0
43, 0.0
44, 0.0
45, 0.0
46, 0.0
47, 0.0
48, 0.0
49, 0.0
50, 0.0
51, 0.0
52, 0.0
53, 0.0
54.0, 0.0018012799521433054
55.0, 0.0025544079859488645
56.0, 0.0005703602794701723
57.0, 0.0036573158944487173
58.0, 0.008921988898626663
59.0, 0.01522658648651293
60.0, 0.01848954978207414
61.0, 0.019617402775488707
62.0, 0.021587942898142806
63.0, 0.026591921823989968
64.0, 0.033872115503156004
65.0, 0.045069941614900154
66.0, 0.05895387040146262
67.0, 0.06870340361746453
68.0, 0.07731521680256073
69.0, 0.08438203332301818
70.0, 0.0890998341672596
71.0, 0.09749148866722174
72.0, 0.1127465178004123
73.0, 0.134577433648843
74.0, 0.1598425884722661
75.0, 0.19233852230709297
76.0, 0.21782816447333286
77.0, 0.22121309761415814
78.0, 0.22390062934062024
79.0, 0.22449276454053485
80.0, 0.22324990462309444
81.0, 0.22321505747050785
82.0, 0.2205580114554403
83.0, 0.21650177671171553
84.0, 0.2117630954709763
85.0, 0.2095082910033375
86.0, 0.20439383737538336
87.0, 0.19671024144365282
88.0, 0.19371395988915183
89.0, 0.19353281588972665
90.0, 0.19443473537660783
91.0, 0.1950790951540977
92.0, 0.194871029812086
93.0, 0.1995514210306771
94.0, 0.20850334686224867
95.0, 0.21209003570180016
96.0, 0.20880049531068773
97.0, 0.20038940889557272
98.0, 0.18687403635711541
99.0, 0.17559131564775188
100.0, 0.16684681909916768
101.0, 0.16025934066568104
102.0, 0.15327349204050283
103.0, 0.14948755799820038
104.0, 0.14481908339308713
105.0, 0.13559132078617528
106.0, 0.12954312015077266
107.0, 0.12151753316723173
108.0, 0.11120523218769389
109.0, 0.09906008952430925
110.0, 0.08912527369022309
111.0, 0.07998388401120506
112.0, 0.07082762583232412
113.0, 0.07012363846778621
114.0, 0.07040062996576141
115.0, 0.07062108244733961
116.0, 0.06835424015645959
117.0, 0.061125931501131395
118.0, 0.05177328417109082
119.0, 0.04148357291458379
120.0, 0.03785539242489137
121.0, 0.03353391327158982
122.0, 0.028901407718340336
123.0, 0.025940553336484123
124.0, 0.021877979153233463
125.0, 0.01802813389545056
126.0, 0.01497347859305067
127.0, 0.01542604864056672
128.0, 0.012049452582364128
129.0, 0.006685076405526186
130.0, 0.003183238384015507
131.0, 0.0020304915379798006
132.0, 0.0018042104868446266
133.0, 0.002139895386916068
134.0, 0.0027496551114824007
135.0, 0.0017557678384678933
136.0, 0.0019740992973854023
137.0, 0.008377608912256928
138.0, 0.009980180547997358
139.0, 0.01039283583376295
140.0, 0.010067630147853286
141.0, 0.006698858835626009
142.0, 0.007249220921437579
143.0, 0.00873595774831175
144.0, 0.008270587690462397
145.0, 0.003407176124360415
146.0, 0.0021173501717154154
147.0, 0.004008716399004513
148.0, 0.002294302587346051
149.0, 0.0028221368075914475
150.0, 0.0036188125807601994
151.0, 0.0034559015028606927
152.0, 0.006808285204845915
153.0, 0.010006946748254388
154.0, 0.013245997613873973
155.0, 0.017619574931446627
156.0, 0.019369745940752442
157.0, 0.021534241615707012
158.0, 0.025195601350628934
159.0, 0.025716527586942907
160.0, 0.02722724415483917
161.0, 0.029879971204079942
162.0, 0.03427227252637258
163.0, 0.03982277685988499
164.0, 0.045725158966299945
165.0, 0.051929223967305156
166.0, 0.05938948137082965
167.0, 0.06988483577990987
168.0, 0.08097243405279883
169.0, 0.09051213669173669
170.0, 0.10696845115158755
171.0, 0.12253994459561343
172.0, 0.13645378895956878
173.0, 0.14787320456808822
174.0, 0.1532661875351336
175.0, 0.15740781769112236
176.0, 0.162311636777826
177.0, 0.15340707156291555
178.0, 0.14427832023822737
179.0, 0.13423511604309052
180.0, 0.12166427265281035
181.0, 0.10801708184437477
182.0, 0.09252711669789172
183.0, 0.07578883678226027
184.0, 0.06585638633948428
185.0, 0.05615024928160252
186.0, 0.04781795589944584
187.0, 0.0422124664232299
188.0, 0.03890086454889051
189.0, 0.03459016369829416
190.0, 0.029732472981090826
191.0, 0.026721459366121598
192.0, 0.023560871327520178
193.0, 0.020714126624710685
194.0, 0.01836168310411358
195.0, 0.015332797545144116
196.0, 0.014773192365670904
197.0, 0.015411151984120249
198.0, 0.015598878946444662
199.0, 0.016558308646337064
200.0, 0.019064602683792703
201.0, 0.02289196374941188
202.0, 0.02595434260204222
203.0, 0.030957428169670946
204.0, 0.03701213631035171
205.0, 0.0437342761778814
206.0, 0.04564808447500007
207.0, 0.052123826947401135
208.0, 0.06052454617094294
209.0, 0.06514252171075481
210.0, 0.06783712710210309
211.0, 0.07002051526170826
212.0, 0.07204899293337366
213.0, 0.07439366270560702
214.0, 0.07438415410935122
215.0, 0.07280330633531155
216.0, 0.06998799116367176
217.0, 0.07211330360642905
218.0, 0.07311812361218888
219.0, 0.0737707999649039
220.0, 0.07688857878704439
221.0, 0.07795041630964117
222.0, 0.08066706447835899
223.0, 0.08608006725866933
224.0, 0.09317426993900581
225.0, 0.10143665768935169
226.0, 0.11152382945777095
227.0, 0.1244044035358231
228.0, 0.135919847840489
229.0, 0.15449699444744777
230.0, 0.17790011379567616
231.0, 0.19888011458914084
232.0, 0.21941247761417024
233.0, 0.24139698691770428
234.0, 0.26428082906052525
235.0, 0.27330761756585414
236.0, 0.28085718367403434
237.0, 0.28166736565028533
238.0, 0.26964574372256556
239.0, 0.2599254040267859
240.0, 0.24508854441388017
241.0, 0.2269265640639556
242.0, 0.2110138700829688
243.0, 0.19785001601401958
244.0, 0.1856645528796362
245.0, 0.17487222496625432
246.0, 0.17408049461885178
247.0, 0.16812035786466004
248.0, 0.1630387649249911
249.0, 0.1638125092037461
250.0, 0.1618464568154806
251.0, 0.15725280459746574
252.0, 0.15119505481661435
253.0, 0.14603903738789595
254.0, 0.1354118772084953
255.0, 0.12313528007805641
256.0, 0.10988432337117317
257.0, 0.09487072417921995
258.0, 0.08385330101313582
259.0, 0.07533232993295629
260.0, 0.0686713746650901
261.0, 0.059166008720238195
262.0, 0.054942600799774664
263.0, 0.05289539431527406
264.0, 0.048226575715787
265.0, 0.0476079675018964
266.0, 0.04884523127365231
267.0, 0.051596063172401195
268.0, 0.05582014705439298
269.0, 0.06183179704423026
270.0, 0.06810963229920827
271.0, 0.07440213647326939
272.0, 0.08704119532838539
273.0, 0.09980257324615281
274.0, 0.1126145253142506
275.0, 0.12541178820175494
276.0, 0.13901279419289683
277.0, 0.1483590046182211
278.0, 0.152638133106104
279.0, 0.1497063426861805
280.0, 0.13859307884204997
281.0, 0.12429496334862476
282.0, 0.10868557341537338
283.0, 0.09725959618895982
284.0, 0.08552681793946734
285.0, 0.07609234683293244
286.0, 0.07053180944824015
287.0, 0.06319510503372164
288.0, 0.060542194082890216
289.0, 0.05998083221773143
290.0, 0.058372375182503836
291.0, 0.05737179518673123
292.0, 0.057114128162805665
293.0, 0.05708215519961908
294.0, 0.055678563386651954
295.0, 0.05579561129985628
296.0, 0.053681140950546984
297.0, 0.04930325526439605
298.0, 0.050971552299181634
299.0, 0.0479350929265834
300.0, 0.04504930723063051
301.0, 0.045211712645745625
302.0, 0.044102160470067764
303.0, 0.041015882224342805
304.0, 0.03822596404282787
305.0, 0.03884486379548171
306.0, 0.0373843019099524
307.0, 0.037558395180455735
308.0, 0.03900462396430331
309.0, 0.039913620836396525
310.0, 0.03999065950095188
311.0, 0.041150958735697934
312.0, 0.04328918391932553
313.0, 0.04256412390503892
314.0, 0.04453153732963403
315.0, 0.04449762956342628
316.0, 0.04021850379603482
317.0, 0.03959936587318163
318.0, 0.038774558418372275
319.0, 0.03742201468733512
320.0, 0.03514150329675484
321.0, 0.034391866653705236
322.0, 0.03288674806244051
323.0, 0.0318359637346558
324.0, 0.03402489210158595
325.0, 0.03451841556585728
326.0, 0.03553355468606362
327.0, 0.03727825616447596
328.0, 0.03919179999794318
329.0, 0.043689113286025226
330.0, 0.04890948719286655
331.0, 0.05434355045040988
332.0, 0.06079260279306522
333.0, 0.0689313414110833
334.0, 0.07822350725046348
335.0, 0.08838415716170488
336.0, 0.0973231964945362
337.0, 0.10731696836002719
338.0, 0.11839451295554385
339.0, 0.13070963662881413
340.0, 0.14050326310334504
341.0, 0.15088901699912585
342.0, 0.16219880211435658
343.0, 0.17486472130517544
344.0, 0.18332586832586584
345.0, 0.19260288863912944
346.0, 0.20635631722058778
347.0, 0.23589126516010128
348.0, 0.25918139980357296
349.0, 0.28951262324209565
350.0, 0.32847737858477777
351.0, 0.3559578977039857
352.0, 0.37931479266452345
353.0, 0.3935474088327851
354.0, 0.3956469507500411
355.0, 0.3907855928724546
356.0, 0.3741388663143366
357.0, 0.34816511268502903
358.0, 0.314272049657367
359.0, 0.271619522314419
360.0, 0.236309902744704
361.0, 0.20595277712352122
362.0, 0.1770267295120862
363.0, 0.14480079730424023
364.0, 0.11915707682958847
365.0, 0.09940587048027807
366.0, 0.08243248923894615
367.0, 0.06936125503804884
368.0, 0.058359303082582796
369.0, 0.04945528852980214
370.0, 0.04411782495811518
371.0, 0.037376618257842026
372.0, 0.030127480646857743
373.0, 0.02300091610951248
374.0, 0.01851231850969714
375.0, 0.013151546252859414
376.0, 0.008195581769641011
377.0, 0.004312986264702873
378.0, 0.002229357175913286
379.0, 0.003384686345220995
380.0, 0.0056984292127374905
381.0, 0.007762828724521744
382.0, 0.008695061551875716
383.0, 0.009382142478603972
384.0, 0.00968701300984353
385.0, 0.00943860062116574
386.0, 0.006285998345649155
387.0, 0.004150418278953
388.0, 0.0031468332153728124
389.0, 0.00336670585580221
390.0, 0.007268360966354194
391.0, 0.013363162503076875
392.0, 0.021342890212271513
393.0, 0.030990724023919496
394.0, 0.043672902285198004
395.0, 0.05134506740937497
396.0, 0.05326607570903235
397.0, 0.05042228084859502
398.0, 0.0480294544625412
399.0, 0.044082420499596126
400.0, 0.03793903464796776
401.0, 0.028718993324124954
402.0, 0.02211870664362107
403.0, 0.014469635342046872
404.0, 0.005513124602737991
405.0, 0.0012381813193472133
406.0, 0.0016505551734957596
407.0, 0.00518357180343363
408.0, 0.01041808910533391
409.0, 0.008891864594601671
410.0, 0.010176191861108798
411.0, 0.011493403564758387
412.0, 0.011333438874191552
413.0, 0.010787709794716422
414.0, 0.00695936191775145
415.0, 0.003049735626379762
416.0, 0.0014546811799306942
417.0, 0.004839669882340723
418.0, 0.012192501565768553
419.0, 0.021593587237299254
420.0, 0.03133392459617316
421.0, 0.044536802445792695
422.0, 0.059629959740118074
423.0, 0.07588134474008197
424.0, 0.09248988510945788
425.0, 0.12019662346144286
426.0, 0.1429748374274941
427.0, 0.1643539726187537
428.0, 0.19008726122572714
429.0, 0.2068500301991571
430.0, 0.22137563134901317
431.0, 0.23345474218040235
432.0, 0.24184817195459488
433.0, 0.244118885516256
434.0, 0.2485998605178568
435.0, 0.2548539029985763
436.0, 0.2605683883712797
437.0, 0.2713093147730624
438.0, 0.28370384763817896
439.0, 0.29635813008293055
440.0, 0.3069253174517315
441.0, 0.32928517885863395
442.0, 0.34773996337080365
443.0, 0.36251360590893705
444.0, 0.38028231492456566
445.0, 0.3950771526685293
446.0, 0.4053129017975994
447.0, 0.41180101199550295
448.0, 0.41771530983830574
449.0, 0.41992612467768425
450.0, 0.42302231870343016
451.0, 0.4288845117612164
452.0, 0.44092083053108017
453.0, 0.4394120131326914
454.0, 0.44177076185439457
455.0, 0.4445788234680966
456.0, 0.4204469806012197
457.0, 0.4127432759290267
458.0, 0.3998445392279947
459.0, 0.37944651689348186
460.0, 0.3634082232547136
461.0, 0.3552839850761158
462.0, 0.3418288341572445
463.0, 0.32309801631782137
464.0, 0.3139045512973587
465.0, 0.2995027446032983
466.0, 0.28514495485564045
467.0, 0.2730236428478729
468.0, 0.2665331664728056
469.0, 0.2514604196703036
470.0, 0.24042989998826092
471.0, 0.23347887866222827
472.0, 0.21492901193879724
473.0, 0.20202020103410046
474.0, 0.18902216554505977
475.0, 0.17422101859054234
476.0, 0.157135043390113
477.0, 0.1456857832296939
478.0, 0.13351134123762273
479.0, 0.12052237286024886
480.0, 0.11407765307623172
481.0, 0.10300926758125686
482.0, 0.09327426619593931
483.0, 0.08635355510605026
484.0, 0.08169664346581601
485.0, 0.07404985021830267
486.0, 0.06903813482038977
487.0, 0.06659024374679398
488.0, 0.06069225271401038
489.0, 0.05978653167140336
490.0, 0.05994497407092964
491.0, 0.059584784233506945
492.0, 0.0563973510803075
493.0, 0.05682461218041058
494.0, 0.05653997786443112
495.0, 0.05522708332164077
496.0, 0.05498729221750531
497.0, 0.05833421588529737
498.0, 0.05969009205448821
499.0, 0.0601164066532101
500.0, 0.06602955285739992
501.0, 0.0689023293146632
502.0, 0.07437325548836018
503.0, 0.08287705834901953
504.0, 0.09308683784702468
505.0, 0.09847767366157523
506.0, 0.10659532391228291
507.0, 0.11663868782906196
508.0, 0.12431907347696367
509.0, 0.13986375603137818
510.0, 0.15111977963027706
511.0, 0.15929927326845306
512.0, 0.16951799715814647
513.0, 0.1792421390230186
514.0, 0.1842694138111664
515.0, 0.18566263726192092
516.0, 0.18573418779567658
517.0, 0.17946483290427956
518.0, 0.17125091724478025
519.0, 0.16020327349283245
520.0, 0.14467952822047492
521.0, 0.12422573546657381
522.0, 0.1097897649359699
523.0, 0.09705132288746159
524.0, 0.08061090369397117
525.0, 0.0707129122180859
526.0, 0.059242352750782046
527.0, 0.047730407041030314
528.0, 0.037834131232109644
529.0, 0.036241765978706666
530.0, 0.02880465650433235
531.0, 0.021528204818519938
532.0, 0.018720398083109595
533.0, 0.015298798665450414
534.0, 0.01240642771103655
535.0, 0.01023938501851494
536.0, 0.00900614674608203
537.0, 0.009526216638617623
538.0, 0.007892571197763721
539.0, 0.00724879224941869
540.0, 0.008425775124260033
541.0, 0.007208628201425756
542.0, 0.00856000238380179
543.0, 0.008331027169097048
544.0, 0.006358350746616555
545.0, 0.00859781154580479
546.0, 0.008191570187018628
547.0, 0.007946924932933528
548.0, 0.0092251367238812
549.0, 0.014141220310669242
550.0, 0.013018686500386645
551.0, 0.01514044719491597
552.0, 0.019874208661326782
553.0, 0.02199437059838011
554.0, 0.02622334719598157
555.0, 0.031113549577140378
556.0, 0.036049249641242294
557.0, 0.04026828280047846
558.0, 0.05310610360959891
559.0, 0.06254278750086334
560.0, 0.07224761041119007
561.0, 0.08733882431208692
562.0, 0.1096676338210911
563.0, 0.13088067815173868
564.0, 0.15946777696386588
565.0, 0.2023606210084631
566.0, 0.2517965004747314
567.0, 0.310101149264581
568.0, 0.3768619586372645
569.0, 0.44915039060373046
570.0, 0.5031326388473137
571.0, 0.5499122887552743
572.0, 0.5642125653117285
573.0, 0.5355387521613435
574.0, 0.46397330374090273
575.0, 0.3929232033947775
576.0, 0.32191100105779624
577.0, 0.25610265254128967
578.0, 0.21205304811726988
579.0, 0.17688512591222305
580.0, 0.15348897115156077
581.0, 0.14012641744228427
582.0, 0.13247241769642226
583.0, 0.12777953360088673
584.0, 0.1321433295246387
585.0, 0.13994880055289033
586.0, 0.1432568219279495
587.0, 0.15686372934792842
588.0, 0.1736512913483787
589.0, 0.19175195660355135
590.0, 0.20985921490578807
591.0, 0.23320492012455524
592.0, 0.2567866163860927
593.0, 0.2832968663167618
594.0, 0.31338284084088697
595.0, 0.34132520468610256
596.0, 0.37434809178471573
597.0, 0.4129746023664093
598.0, 0.45447022571731205
599.0, 0.4881120874065802
600.0, 0.5291391358827355
601.0, 0.5723047469614254
602.0, 0.6147696060659108
603.0, 0.6525427275856821
604.0, 0.6921673991405884
605.0, 0.7019164661118938
606.0, 0.6948985224876945
607.0, 0.6917168409402985
608.0, 0.6674768459719774
609.0, 0.6247271894871226
610.0, 0.5778425766822629
611.0, 0.5368958313881474
612.0, 0.48171180946345055
613.0, 0.43962305452181044
614.0, 0.401235002266507
615.0, 0.36351149921456677
616.0, 0.33348944501432226
617.0, 0.31188177736838474
618.0, 0.28773272852149534
619.0, 0.26221671248741313
620.0, 0.2459827889191927
621.0, 0.21968522243538655
622.0, 0.19870166017907942
623.0, 0.1800862985470925
624.0, 0.15680453017890622
625.0, 0.14001544458486195
626.0, 0.12492311529578114
627.0, 0.1110558837376663
628.0, 0.09824039880500743
629.0, 0.08931021894399747
630.0, 0.081996412031677
631.0, 0.07447111567129702
632.0, 0.06681375273492632
633.0, 0.06389794018512267
634.0, 0.058469666055086154
635.0, 0.05360175069677225
636.0, 0.04968169037799121
637.0, 0.045785512486763706
638.0, 0.042224863437885056
639.0, 0.039853100649596455
640.0, 0.0375499742976884
641.0, 0.03376512548944255
642.0, 0.031947595876941424
643.0, 0.02980682617315103
644.0, 0.027589675559180776
645.0, 0.025723868362642163
646.0, 0.026406647037846825
647.0, 0.0253443612773237
648.0, 0.02393410269247824
649.0, 0.022772672430990192
650.0, 0.0221409759821041
651.0, 0.021584289781247486
652.0, 0.02239238636989793
653.0, 0.023607710045710772
654.0, 0.023214787694201214
655.0, 0.026492572438395878
656.0, 0.027348227442021537
657.0, 0.027251506940726578
658.0, 0.027814154004001865
659.0, 0.0299846657922131
660.0, 0.030453576976515694
661.0, 0.03034518843380203
662.0, 0.03030610535407077
663.0, 0.030904702016465058
664.0, 0.029910326033775345
665.0, 0.029441698454130305
666.0, 0.02906856520455524
667.0, 0.02714834584656329
668.0, 0.025651612213745848
669.0, 0.025302395986138627
670.0, 0.02508992871003641
671.0, 0.02411169726959974
672.0, 0.02409301664429085
673.0, 0.023162597867420667
674.0, 0.022261275765929938
675.0, 0.021537454226052438
676.0, 0.01973841188460977
677.0, 0.0192757828912763
678.0, 0.019789788251223094
679.0, 0.020788140224581985
680.0, 0.0214859516580354
681.0, 0.021610573309454602
682.0, 0.0227279202575009
683.0, 0.0236305882197302
684.0, 0.023462265321143674
685.0, 0.02530598798103814
686.0, 0.024863957271955693
687.0, 0.02549502979841666
688.0, 0.02743503888634853
689.0, 0.026716072065428934
690.0, 0.026472554949695047
691.0, 0.0261483209798741
692.0, 0.0261520560295811
693.0, 0.027193095639677874
694.0, 0.02629262755246186
695.0, 0.02734645559465297
696.0, 0.027691726616773056
697.0, 0.026395981768063403
698.0, 0.030240737141813707
699.0, 0.030180907746606304
700.0, 0.030615985307148142
701.0, 0.03230554015212464
702.0, 0.033924489124755534
703.0, 0.03561244300022134
704.0, 0.0354702076239893
705.0, 0.034358287903321454
706.0, 0.03333843150201849
707.0, 0.03127335776725323
708.0, 0.029124329433419013
709.0, 0.026414118462927644
710.0, 0.023518695460692577
711.0, 0.022770755833736903
712.0, 0.02022759083999829
713.0, 0.016170853907474875
714.0, 0.01268886938276924
715.0, 0.012793053661068086
716.0, 0.009046720757239838
717.0, 0.007440756814677204
718.0, 0.006343830353391902
719.0, 0.004730155423782221
720.0, 0.003245986204247534
721.0, 0.0034829472302796752
722.0, 0.0028849183823244674
723.0, 0.0016554589009548765
724.0, 0.0015293610554774609
725.0, 0.0004694364779270575
726.0, 0.00033551167588218397
727.0, 0.0009313540713932398
728.0, 0.0018223779021601725
729.0, 0.0015023120153594878
730.0, 0.0012580458941254477
731.0, 0.0013953543406721302
732.0, 0.0016886618123035523
733.0, 0.0013002099550532998
734.0, 0.0017652107659212187
735.0, 0.00231950067286137
736.0, 0.002274996419034485
737.0, 0.0012461059403394014
738.0, 0.0021565956494592675
739.0, 0.0023730114462970566
740.0, 0.0017708211111575989
741.0, 0.0012011484523508377
742.0, 0.0033337281385408665
743.0, 0.003184852110886972
744.0, 0.0024931537543697326
745.0, 0.002298486371895107
746.0, 0.0034036474754265546
747.0, 0.0036264107203367157
748.0, 0.0030943123716034872
749.0, 0.002590835286825365
750.0, 0.0027135534616880004
751.0, 0.004274295740262422
752.0, 0.002907465324685839
753.0, 0.0022707456101261295
754.0, 0.0027187971004952634
755.0, 0.0039711951579971426
756.0, 0.0033761479296737494
757.0, 0.0014128770208939646
758.0, 0.0012670017374976938
759.0, 0.0029232962144835305
760.0, 0.0019443710941005941
761.0, 0.002482792842515763
762.0, 0.0028591146918953494
763.0, 0.0027671816613341785
764.0, 0.002186908442787205
765.0, 0.002475055137285811
766.0, 0.0020563030690418983
767.0, 0.0021186221630503767
768.0, 0.002851076111158708
769.0, 0.0033927095104267476
770.0, 0.0027265925041931997
771.0, 0.0026696028107816377
772.0, 0.002651590340434541
773.0, 0.0020861094566139078
774.0, 0.0027728574070946376
775.0, 0.001944931539342094
776.0, 0.0010873150409150744
777.0, 0.0008723396893882194
778.0, 0.0016428113096404614
779.0, 0.0017765777619974683
780.0, 0.0012264869677018674
781.0, 0.0007787273582606661
782.0, 0.0010491380375207983
783.0, 0.001624659580889199
784.0, 0.0009504136249727248
785.0, 0.0009258372356978359
786.0, 0.0012023633682676387
787.0, 0.00014968234664853675
788.0, 0.001327422707859374
789.0, 0.0013179612724274292
790.0, 0.0008819762439735664
791.0, 0.0008465756732712061
792.0, 0.0024369010586388225
793.0, 0.0015240073538849127
794.0, 0.002295075139024902
795.0, 0.0037514555064197186
796.0, 0.0034208968582720204
797.0, 0.0031622734266797694
798.0, 0.0041850159845727925
799.0, 0.00478560331354746
800.0, 0.004589372670499308
801.0, 0.005060497903638107
802.0, 0.005409347459549919
803.0, 0.005205581348574565
804.0, 0.005373977432046128
805.0, 0.006672006698423284
806.0, 0.00717531745376524
807.0, 0.008893389593456875
808.0, 0.009493686062542852
809.0, 0.009103316625020924
810.0, 0.009471280576750972
811.0, 0.00954311732543421
812.0, 0.009964672306280243
813.0, 0.010569121599019241
814.0, 0.011226374618532722
815.0, 0.011941489647473987
816.0, 0.0130558530273682
817.0, 0.014040456567031234
818.0, 0.015118045620579583
819.0, 0.016642681226055306
820.0, 0.018077696110444304
821.0, 0.0195299585809815
822.0, 0.020281654748250697
823.0, 0.02107727094274379
824.0, 0.024415438969802236
825.0, 0.02660273881111081
826.0, 0.028628693129401535
827.0, 0.031418634392969234
828.0, 0.03518461393669741
829.0, 0.03755737136122434
830.0, 0.0402541148838455
831.0, 0.043625735865042606
832.0, 0.04713623855740362
833.0, 0.049996139617149
834.0, 0.05283903171820912
835.0, 0.05303146909282986
836.0, 0.05447486834632902
837.0, 0.05771258081779793
838.0, 0.0600435837748537
839.0, 0.057964420851419375
840.0, 0.059570587436219985
841.0, 0.061190465147008634
842.0, 0.060410737715472604
843.0, 0.06052368230274492
844.0, 0.06310786155523365
845.0, 0.06247977717369091
846.0, 0.06107187035508147
847.0, 0.06287280848981874
848.0, 0.06387176044961114
849.0, 0.0626247813813645
850.0, 0.06312911687267568
851.0, 0.06512679003067982
852.0, 0.06513800942672812
853.0, 0.06607877007494534
854.0, 0.07083289295166513
855.0, 0.0767126744157949
856.0, 0.08252117627260676
857.0, 0.09035547964528898
858.0, 0.08026943465671256
859.0, 0.07646548856583811
860.0, 0.0790020791399225
861.0, 0.08395070125544413
862.0, 0.08406825641972913
863.0, 0.08751748925702103
864.0, 0.0898053730244743
865.0, 0.09167558469579541
866.0, 0.09579968534470898
867.0, 0.10107691135495683
868.0, 0.10284058266863115
869.0, 0.10586330427108806
870.0, 0.1110031980337387
871.0, 0.11554492217737673
872.0, 0.11972898419119572
873.0, 0.12473939923635367
874.0, 0.1306577917835522
875.0, 0.1372818655846221
876.0, 0.1438697302368248
877.0, 0.1528981556412272
878.0, 0.1606840548248723
879.0, 0.16909233410490873
880.0, 0.1794607652761251
881.0, 0.18652563119268858
882.0, 0.19554839343409244
883.0, 0.2049258133556473
884.0, 0.21087692542420217
885.0, 0.21016808549742438
886.0, 0.21915941417157705
887.0, 0.22449923114335366
888.0, 0.22573659524937947
889.0, 0.22752372487450007
890.0, 0.23838548257550823
891.0, 0.2416084260059966
892.0, 0.2475174179145026
893.0, 0.25860528931136856
894.0, 0.27230914515834614
895.0, 0.27890083607006033
896.0, 0.2946221925210275
897.0, 0.3044537092062333
898.0, 0.31682809998597916
899.0, 0.3360056237765359
900.0, 0.3542213244481589
901.0, 0.37404205647576033
902.0, 0.40046607470795687
903.0, 0.4311599868815163
904.0, 0.4626621157323066
905.0, 0.4912406369059782
906.0, 0.5461501514879339
907.0, 0.5911427893410677
908.0, 0.6345462015157178
909.0, 0.6926119746028371
910.0, 0.7574036777338848
911.0, 0.8004340852173755
912.0, 0.8497395070124217
913.0, 0.8960163512165503
914.0, 0.9188703242639623
915.0, 0.969991721754929
916.0, 0.989078135153253
917.0, 0.9965767343277266
918.0, 0.9980972188136851
919.0, 0.99075139256832
920.0, 0.9587632849276225
921.0, 0.9369191165281086
922.0, 0.9134932622630454
923.0, 0.8763151230555293
924.0, 0.8113857181439935
925.0, 0.7672918960268821
926.0, 0.7221603338046475
927.0, 0.6684960269633736
928.0, 0.6131654086252861
929.0, 0.5839327963488031
930.0, 0.5314454693781788
931.0, 0.4920493725890424
932.0, 0.45372128261858236
933.0, 0.41094962685122977
934.0, 0.3742135222190868
935.0, 0.3458641404202377
936.0, 0.31745645025483055
937.0, 0.2878121060221427
938.0, 0.2586119643217045
939.0, 0.23761923372765661
940.0, 0.21665264960880082
941.0, 0.19873607146866087
942.0, 0.1833009709071685
943.0, 0.1696415379958481
944.0, 0.1582761439435223
945.0, 0.14862129935586366
946.0, 0.1397862696015998
947.0, 0.1321312364580276
948.0, 0.12586895799692374
949.0, 0.12029438302162165
950.0, 0.11330635024947874
951.0, 0.1108062998315903
952.0, 0.1089547521838853
953.0, 0.10442216026046326
954.0, 0.10371400076263994
955.0, 0.1041863873284195
956.0, 0.10328386046536271
957.0, 0.10283641290439909
958.0, 0.10383365757608999
959.0, 0.09885504594400088
960.0, 0.09752914970084083
961.0, 0.09761225531978834
962.0, 0.09575307624531147
963.0, 0.09087214505346328
964.0, 0.09481892925703365
965.0, 0.09099145392515616
966.0, 0.0871594201390042
967.0, 0.08442953416770022
968.0, 0.08270368751416829
969.0, 0.08355468081185774
970.0, 0.08176303073229382
971.0, 0.08008729977975777
972.0, 0.08047201348200685
973.0, 0.08387500092835339
974.0, 0.08761695093307867
975.0, 0.09015201783758485
976.0, 0.09515248136107271
977.0, 0.10243389290543489
978.0, 0.11068198422267986
979.0, 0.11768551075257297
980.0, 0.13273544397063622
981.0, 0.1422203751649193
982.0, 0.1489856976855645
983.0, 0.15741282826421774
984.0, 0.16434667841548958
985.0, 0.15790756652539456
986.0, 0.1536376032550371
987.0, 0.14578974049804486
988.0, 0.12937290194614884
989.0, 0.11404051353238079
990.0, 0.10180216945641364
991.0, 0.08907293854699722
992.0, 0.07649565507630192
993.0, 0.06571985762331037
994.0, 0.05982785848491345
995.0, 0.05091400326984985
996.0, 0.045119256252411685
997.0, 0.041301974001225344
998.0, 0.03774182088043849
999.0, 0.03331511414184267
1000.0, 0.029412073287405534
1001.0, 0.025760338439469777
1002.0, 0.023699238511943662
1003.0, 0.022895814033040987
1004.0, 0.019895833481632565
1005.0, 0.01861686302244471
1006.0, 0.017873450678512842
1007.0, 0.015701338910619807
1008.0, 0.012720174461358062
1009.0, 0.012959355641835152
1010.0, 0.015240212550739308
1011.0, 0.013660241784304703
1012.0, 0.013294828975367661
1013.0, 0.014614139877682363
1014.0, 0.013651578340290122
1015.0, 0.013556173510549182
1016.0, 0.016206827021011654
1017.0, 0.01793615134043332
1018.0, 0.01839185947706437
1019.0, 0.019446290175307118
1020.0, 0.022127432789883536
1021.0, 0.024327034644590805
1022.0, 0.026430156352348102
1023.0, 0.029010615268012643
1024.0, 0.03227163002635975
1025.0, 0.03278161512979367
1026.0, 0.03669826261025084
1027.0, 0.037897110863693864
1028.0, 0.038436283236728624
1029.0, 0.04126978344319182
1030.0, 0.04234427445930433
1031.0, 0.0434499297911021
1032.0, 0.04601337888947808
1033.0, 0.04791896347783322
1034.0, 0.048353407102614404
1035.0, 0.05170686178125583
1036.0, 0.056350740374255255
1037.0, 0.05863734379108163
1038.0, 0.06151462247503603
1039.0, 0.0654769904316398
1040.0, 0.0661812304838345
1041.0, 0.06890499136362707
1042.0, 0.07474551552249668
1043.0, 0.07786404475027955
1044.0, 0.07808365672669157
1045.0, 0.08057441884398348
1046.0, 0.08394261904385514
1047.0, 0.08256529708561937
1048.0, 0.08234381769437728
1049.0, 0.0824421897245641
1050.0, 0.0793497575401108
1051.0, 0.07818260842064995
1052.0, 0.07774342754767587
1053.0, 0.07429237540938846
1054.0, 0.06999842195703018
1055.0, 0.06771065054098126
1056.0, 0.06602487471861318
1057.0, 0.05945239629193946
1058.0, 0.058136513039088525
1059.0, 0.055937374936221675
1060.0, 0.049318977384086075
1061.0, 0.04420680169372795
1062.0, 0.04254609746907675
1063.0, 0.03863531747736453
1064.0, 0.03490554994610188
1065.0, 0.03197493562928496
1066.0, 0.028436710994307807
1067.0, 0.02820405515976185
1068.0, 0.026072058679498397
1069.0, 0.024689833425927604
1070.0, 0.02462984765975767
1071.0, 0.02549067337251168
1072.0, 0.027925860156711786
1073.0, 0.027399770395896875
1074.0, 0.029455687155408385
1075.0, 0.03202247346515635
1076.0, 0.03321765715081944
1077.0, 0.03686291344350627
1078.0, 0.04325084247249393
1079.0, 0.047557772757548814
1080.0, 0.053713418088006434
1081.0, 0.062493502768035836
1082.0, 0.06990244730921276
1083.0, 0.08243778842413318
1084.0, 0.09834297510170681
1085.0, 0.1144074570402643
1086.0, 0.1310089085277635
1087.0, 0.15062183094586154
1088.0, 0.1755383605599271
1089.0, 0.19205840918163242
1090.0, 0.2102930252973659
1091.0, 0.2245284201615321
1092.0, 0.22711038754513127
1093.0, 0.2152615832058301
1094.0, 0.20802677214562765
1095.0, 0.18291898570039478
1096.0, 0.15416685783312656
1097.0, 0.12995329533447098
1098.0, 0.10784011303887171
1099.0, 0.0892626713440366
1100.0, 0.07196497058046587
1101.0, 0.059150997771824275
1102.0, 0.04943393175978172
1103.0, 0.04041061566098579
1104.0, 0.03689156703010503
1105.0, 0.032308365754299295
1106.0, 0.0282651375936616
1107.0, 0.025556654739329845
1108.0, 0.023500625722688157
1109.0, 0.019041398574864962
1110.0, 0.02091061573281329
1111.0, 0.02019420998128093
1112.0, 0.017556597841776513
1113.0, 0.014997113595633488
1114.0, 0.014574039324751363
1115.0, 0.012108976049543755
1116.0, 0.012091072641629048
1117.0, 0.012227382602966465
1118.0, 0.012073152502429072
1119.0, 0.011511988914683514
1120.0, 0.009967543286900166
1121.0, 0.008527239797801293
1122.0, 0.007828850610196591
1123.0, 0.007304544368232794
1124.0, 0.006622331037584668
1125.0, 0.005892203817947661
1126.0, 0.006882229539884454
1127.0, 0.006136828292860735
1128.0, 0.006477265734108666
1129.0, 0.006573135458042359
1130.0, 0.004984289412629408
1131.0, 0.004321241757234718
1132.0, 0.00365831293039848
1133.0, 0.0033198562687980354
1134.0, 0.003947396600658356
1135.0, 0.004678507185455138
1136.0, 0.0034080638729420136
1137.0, 0.002487582839969925
1138.0, 0.0031204081478153054
1139.0, 0.0018742881593828617
1140.0, 0.000978171504209166
1141.0, 0.002525767833909469
1142.0, 0.0020094973208669067
1143.0, 0.0017896317905413486
1144.0, 0.0025716051519891338
1145.0, 0.002319049267810445
1146.0, 0.0014748012055591034
1147.0, 0.002541587281251752
1148.0, 0.0006022561571025608
1149.0, 0.0006023578754426742
1150.0, 0.0007163995109498901
1151.0, 0.0006432888886693914
1152.0, 0.00046939086355855466
1153.0, 4.69331873764941e-05
1154.0, 0.001892353004396556
1155.0, 0.001266208562127784
1156.0, 0.0011474295545804228
1157.0, 0.0017501256771976685
1158.0, 0.0011135007559984278
1159.0, 0.0004835134344719924
1160.0, 0.0015810166239877445
1161.0, 0.001916694349137657
1162.0, 0.0013486719560596265
1163.0, 0.0005273313046473833
1164.0, 0.00047103766569060664
1165.0, 0.0006835733692018349
1166.0, 0.0005555302371633614
1167.0, 0.0011537877535463734
1168.0, 0.0016482840200429938
1169.0, 0.0008379969783887146
1170.0, 0.0006907915455962266
1171.0, 0.0013677200971248995
1172.0, 0.00160868138014419
1173.0, 0.0015354350579302662
1174.0, 0.0014315866627199222
1175.0, 0.0014779455514471011
1176.0, 0.0008501221927792603
1177.0, 0.0010870469348284438
1178.0, 0.0009931177324906135
1179.0, 0.0009170480836373911
1180.0, 0.0011644244510840961
1181.0, 0.0007003743953435037
1182.0, 0.0015847297129319283
1183.0, 0.0011855289897867124
1184.0, 0.0009888812124134161
1185.0, 0.0014752973460097868
1186.0, 0.0020216609648359613
1187.0, 0.0005221214966143284
1188.0, 0.0004521922034469185
1189.0, 0.0005713414893286872
1190.0, 0.00044306296710414837
1191.0, 0.00021299043515998062
1192.0, 0.0005011779361942495
1193.0, 0.0006143424198442515
1194.0, 0.000587051088625812
1195.0, 0.00028677427908922016
1196.0, 4.120480966798368e-05
1197.0, 6.587952863243802e-05
1198.0, 2.2363885524520403e-05
1199.0, 1.7096786212655482e-05
1200.0, 5.942371356599026e-05
1201.0, 5.068304456000739e-05
1202.0, 0.0003946560078776182
1203.0, 0.0012208204622935197
1204.0, 0.0005375790365847617
1205.0, 0.0001479261575845326
1206.0, 0.0005668170904772473
1207.0, 0.0006610074039507906
1208.0, 0.0008000574360541252
1209.0, 0.002154027477953153
1210.0, 0.0006340675032117925
1211.0, 0.0008750040461607902
1212.0, 0.0006779171151914567
1213.0, 0.0003425946669934198
1214.0, 0.00024370005432337307
1215.0, 0.0002006106373231864
1216.0, 0.0006997858219029186
1217.0, 0.0002723704418365986
1218.0, 0.0014398585297435932
1219.0, 0.0019334585604535324
1220.0, 0.0005462271192765622
1221.0, 0.001268115846178791
1222.0, 0.0006736824868890296
1223.0, 0.00021406843893555645
1224.0, 9.658154453482278e-05
1225.0, 0.0005753604822912441
1226.0, 0.0015069918839961277
1227.0, 0.0015943637723212908
1228.0, 0.001158211833776518
1229.0, 0.0006739724801157193
1230.0, 0.0005932006263768187
1231.0, 0.0009527379673070512
1232.0, 0.001486057881570138
1233.0, 0.0018834360533712563
1234.0, 0.00043845818475739924
1235.0, 0.0010731600052617508
1236.0, 0.0011456168291407393
1237.0, 0.0011623698992332652
1238.0, 0.0034506338708944154
1239.0, 0.0017189168352414056
1240.0, 0.0006421428184970673
1241.0, 0.00043562424068095375
1242.0, 0.0008333622578070407
1243.0, 0.001088504535061973
1244.0, 0.0003867169590656076
1245.0, 0.0002516671907679084
1246.0, 0.00011928621842385044
1247.0, 9.231871126002872e-05
1248.0, 0.0004418152058293543
1249.0, 0.0007958780670373207
1250.0, 0.00020891211776818245
1251.0, 0.0002978539706821807
1252.0, 0.0002177507069047235
1253.0, 0.0005394256208043086
1254.0, 0.0006938619469209537
1255.0, 0.0003910930205320298
1256.0, 0.00018540450472268413
1257.0, 0.0012499532118577807
1258.0, 0.0008205553279367645
1259.0, 0.0006387154187213806
1260.0, 0.00061747318420675
1261.0, 0.0004681113211694654
1262.0, 0.00041123736025859087
1263.0, 0.0007294501380163778
1264.0, 0.0007305579053605381
1265.0, 0.0005947330734727053
1266.0, 0.0005899220551159576
1267.0, 0.0006104876083275539
1268.0, 5.9236016453398594e-05
1269.0, 0.0012331650255322795
1270.0, 0.0017238377384419987
1271.0, 0.0011362146361284225
1272.0, 0.0015060795038658165
1273.0, 0.0028649123054685917
1274.0, 0.0012540912893561436
1275.0, 0.0011863951365228525
1276.0, 0.0026850853027969757
1277.0, 0.0020675554606109045
1278.0, 0.00146032799003802
1279.0, 0.0023469995153985214
1280.0, 0.0023812535340957896
1281.0, 0.0015663144964905885
1282.0, 0.0021750310362199095
1283.0, 0.002045757451585534
1284.0, 0.001693353966931044
1285.0, 0.0019455894934257774
1286.0, 0.0027452144950972073
1287.0, 0.002311697322479007
1288.0, 0.0018737085559441629
1289.0, 0.002390380598896914
1290.0, 0.0023132172746329165
1291.0, 0.0017356205907598952
1292.0, 0.0031446420728745046
1293.0, 0.002662623697368864
1294.0, 0.002477639902995723
1295.0, 0.0038174242934054144
1296.0, 0.0036639116946961766
1297.0, 0.001986915712666323
1298.0, 0.002524699405853221
1299.0, 0.003453849740209216
1300.0, 0.0020162617220702206
1301.0, 0.0016899288278992282
1302.0, 0.002006877313562459
1303.0, 0.0020776111261924636
1304.0, 0.0016553681826297275
1305.0, 0.0023874446224379196
1306.0, 0.0007200181848556717
1307.0, 0.001681040781965277
1308.0, 0.002414585061620964
1309.0, 0.001857837146658512
1310.0, 0.0012516762548946355
1311.0, 0.0019648883990061533
1312.0, 0.0015441029163776423
1313.0, 0.0012230736082270367
1314.0, 0.002069079279418969
1315.0, 0.002840922293563955
1316.0, 0.0019986358053388853
1317.0, 0.0010367089286595554
1318.0, 0.002566595509308593
1319.0, 0.002526259062697273
1320.0, 0.0017178166711142467
1321.0, 0.001315759805751438
1322.0, 0.001783036632857751
1323.0, 0.0020566800625807418
1324.0, 0.0017837736862036408
1325.0, 0.0026028887971360102
1326.0, 0.0017994154317794385
1327.0, 0.0009580614901963492
1328.0, 0.0013268307474069443
1329.0, 0.0017554469735925231
1330.0, 0.0019119415660396512
1331.0, 0.0020146033188330253
1332.0, 0.0019277925043386047
1333.0, 0.002004739335156369
1334.0, 0.0024681271473480882
1335.0, 0.002997188709894688
1336.0, 0.0017424383599118087
1337.0, 0.00259625185838782
1338.0, 0.0034666323333874508
1339.0, 0.0030740631946071925
1340.0, 0.002357735495820101
1341.0, 0.00271273791868234
1342.0, 0.002800272294454029
1343.0, 0.00264653166605415
1344.0, 0.002325814423612482
1345.0, 0.00215059691639984
1346.0, 0.002627291533332924
1347.0, 0.0037109901052909343
1348.0, 0.004282023558339278
1349.0, 0.0021579788522585867
1350.0, 0.003665735709488324
1351.0, 0.0038124458799749694
1352.0, 0.0030924905266317333
1353.0, 0.0026586711110833734
1354.0, 0.002722074052364607
1355.0, 0.002802679025647307
1356.0, 0.003429687268190342
1357.0, 0.003935811776046796
1358.0, 0.00330201839949354
1359.0, 0.0032033958741498887
1360.0, 0.004932575329296305
1361.0, 0.0042951775619516274
1362.0, 0.0036210151653334123
1363.0, 0.004286137112810481
1364.0, 0.004014132332386127
1365.0, 0.003612410553312643
1366.0, 0.004183545687643716
1367.0, 0.0051778526798215065
1368.0, 0.0034875498114640088
1369.0, 0.0027850147974657216
1370.0, 0.003732291452300951
1371.0, 0.003463009626526049
1372.0, 0.0030901777053100425
1373.0, 0.005027444935693867
1374.0, 0.003149150297999805
1375.0, 0.0035338979938990727
1376.0, 0.004292201520148539
1377.0, 0.004302607776204103
1378.0, 0.0037698762825185044
1379.0, 0.0034461511015866737
1380.0, 0.0037764187531588245
1381.0, 0.0035783852631604005
1382.0, 0.0033308649070220723
1383.0, 0.00318852582373241
1384.0, 0.0031892665871534652
1385.0, 0.0032414024266614397
1386.0, 0.0031592416360752312
1387.0, 0.0027436565609438783
1388.0, 0.003285747378342788
1389.0, 0.003654690278314708
1390.0, 0.0036119443509493726
1391.0, 0.0030704118739170645
1392.0, 0.0025271687111914102
1393.0, 0.0029649313923994273
1394.0, 0.002171495594651723
1395.0, 0.0029973721349311746
1396.0, 0.002961168719920605
1397.0, 0.002633971428101113
1398.0, 0.0028706079363454754
1399.0, 0.0037778693859861364
1400.0, 0.004041294011527993
1401.0, 0.002582643362156465
1402.0, 0.0031863563158618614
1403.0, 0.0026994172099616045
1404.0, 0.0024146853596065795
1405.0, 0.00303991866110023
1406.0, 0.002628154570277842
1407.0, 0.002388188527165788
1408.0, 0.0028250798530327277
1409.0, 0.0030120035709557125
1410.0, 0.002719710969702468
1411.0, 0.002866516622723276
1412.0, 0.0038144316103258806
1413.0, 0.0035154160928003893
1414.0, 0.002721817350236922
1415.0, 0.0029074330195222025
1416.0, 0.0030616745048032074
1417.0, 0.0024031007339505236
1418.0, 0.0019575171255082915
1419.0, 0.0029772943281064527
1420.0, 0.0017916203116756565
1421.0, 0.0016271142969809564
1422.0, 0.002906020039170751
1423.0, 0.00291388442980723
1424.0, 0.0023991259521624684
1425.0, 0.002392616838366967
1426.0, 0.002302889438208022
1427.0, 0.0020825500744550926
1428.0, 0.0013151257349621132
1429.0, 0.002222939517213874
1430.0, 0.002009400130227633
1431.0, 0.0016687442274625271
1432.0, 0.002608559244328229
1433.0, 0.0024994948765153465
1434.0, 0.0033339615911374717
1435.0, 0.002602275264585787
1436.0, 0.00229938338146311
1437.0, 0.0019642834752500657
1438.0, 0.0021796862329222736
1439.0, 0.0032713754548792887
1440.0, 0.002244681915252361
1441.0, 0.003686637011410885
1442.0, 0.002936948428033737
1443.0, 0.0024990630681813574
1444.0, 0.0029397410848558915
1445.0, 0.003067571366836725
1446.0, 0.001741356520886426
1447.0, 0.001739796984991904
1448.0, 0.0026559701454656978
1449.0, 0.002422865111926545
1450.0, 0.0025247454107696706
1451.0, 0.002560597104034201
1452.0, 0.0019014913132037025
1453.0, 0.0011114730527054483
1454.0, 0.0033469632272062513
1455.0, 0.002023249730095319
1456.0, 0.001244655275577274
1457.0, 0.0022967721843393943
1458.0, 0.0026753503641683924
1459.0, 0.0017306652914627525
1460.0, 0.0024175272812778153
1461.0, 0.002351694097058124
1462.0, 0.0016778116749793836
1463.0, 0.002311123183483375
1464.0, 0.0023076397648323197
1465.0, 0.0019144711714924193
1466.0, 0.0019597672468575837
1467.0, 0.00221875637030447
1468.0, 0.0020929485141198286
1469.0, 0.0027254617185220337
1470.0, 0.0038813842029227184
1471.0, 0.0026334197643656525
1472.0, 0.001334340579978268
1473.0, 0.0021798133394270907
1474.0, 0.0028066526578244522
1475.0, 0.0019492721099861976
1476.0, 0.002236001070068104
1477.0, 0.0025448141710652126
1478.0, 0.0022892663827179657
1479.0, 0.0023714392073249696
1480.0, 0.0028747791096546274
1481.0, 0.00194763315497763
1482.0, 0.0008337508295018029
1483.0, 0.00151311048341625
1484.0, 0.0012416006451528162
1485.0, 0.0017028269925299427
1486.0, 0.002385959185757505
1487.0, 0.0020326974073003245
1488.0, 0.0008994094425176212
1489.0, 0.002718494594647137
1490.0, 0.0029415581636899647
1491.0, 0.0016213919512295873
1492.0, 0.0014380463343722908
1493.0, 0.0018279673501534394
1494.0, 0.0014699002520913449
1495.0, 0.0007022664871018787
1496.0, 0.0016385719683231596
1497.0, 0.0006152196062240072
1498.0, 0.00105634343853997
1499.0, 0.0011834931311255248
1500.0, 0.0007017738025656566
1501.0, 0.00040906636718716417
1502.0, 0.0009638222173917246
1503.0, 0.0010423665848559467
1504.0, 0.001489572714735895
1505.0, 0.00196252736471167
1506.0, 0.0024278707653765798
1507.0, 0.00158658181780226
1508.0, 0.0006927156125818138
1509.0, 0.0019343021703283566
1510.0, 0.0012979567824650375
1511.0, 0.0014178116300515773
1512.0, 0.0029342742812696046
1513.0, 0.0022480599137975083
1514.0, 0.0009480902731369036
1515.0, 0.0009347722960171684
1516.0, 0.0017086503484730962
1517.0, 3.850105796306334e-06
1518.0, 3.87780439915995e-07
1519, 0.0
1520, 0.0
1521, 0.0
1522, 0.0
1523, 0.0
1524, 0.0
1525, 0.0
1526, 0.0
1527, 0.0
1528, 0.0
1529, 0.0
1530, 0.0
1531, 0.0
1532, 0.0
1533, 0.0
1534, 0.0
1535, 0.0
1536, 0.0
1537, 0.0
1538, 0.0
1539, 0.0
1540, 0.0
1541, 0.0
1542, 0.0
1543, 0.0
1544, 0.0
1545, 0.0
1546, 0.0
1547, 0.0
1548, 0.0
1549, 0.0
1550, 0.0
1551, 0.0
1552, 0.0
1553, 0.0
1554, 0.0
1555, 0.0
1556, 0.0
1557, 0.0
1558, 0.0
1559, 0.0
1560, 0.0
1561, 0.0
1562, 0.0
1563, 0.0
1564, 0.0
1565, 0.0
1566, 0.0
1567, 0.0
1568, 0.0
1569, 0.0
1570, 0.0
1571, 0.0
1572, 0.0
1573, 0.0
1574, 0.0
1575, 0.0
1576, 0.0
1577, 0.0
1578, 0.0
1579, 0.0
1580, 0.0
1581, 0.0
1582, 0.0
1583, 0.0
1584, 0.0
1585, 0.0
1586, 0.0
1587, 0.0
1588, 0.0
1589, 0.0
1590, 0.0
1591, 0.0
1592, 0.0
1593, 0.0
1594, 0.0
1595, 0.0
1596, 0.0
1597, 0.0
1598, 0.0
1599, 0.0
