30, 0.0
31, 0.0
32, 0.0
33, 0.0
34, 0.0
35, 0.0
36, 0.0
37, 0.0
38, 0.0
39, 0.0
40, 0.0
41, 0.0
42, 0.0
43, 0.0
44, 0.0
45, 0.0
46, 0.0
47, 0.0
48, 0.0
49, 0.0
50, 0.0
51, 0.0
52, 0.0
53, 0.0
54, 0.0
55, 0.0
56, 0.0
57, 0.0
58, 0.0
59, 0.0
60, 0.0
61, 0.0
62, 0.0
63, 0.0
64, 0.0
65, 0.0
66, 0.0
67, 0.0
68, 0.0
69, 0.0
70, 0.0
71, 0.0
72, 0.0
73, 0.0
74, 0.0
75, 0.0
76, 0.0
77, 0.0
78, 0.0
79, 0.0
80, 0.0
81, 0.0
82, 0.0
83, 0.0
84, 0.0
85, 0.0
86, 0.0
87, 0.0
88, 0.0
89, 0.0
90, 0.0
91, 0.0
92.0, 0.0070584899219284705
93.0, 0.02208830909589501
94.0, 0.043798708298163756
95.0, 0.0601844245849552
96.0, 0.055471402817288934
97.0, 0.05534119576263812
98.0, 0.031257074679302804
99.0, 0.015113386055095141
100.0, 0.010128284207491097
101.0, 0.001114703477799826
102.0, 0.005631449876164197
103.0, 0.0029872802118353623
104.0, 0.010078700668586104
105.0, 0.01847389824402131
106.0, 0.03309959412500326
107.0, 0.05092832528309365
108.0, 0.061737532836080675
109.0, 0.06046946465885854
110.0, 0.07538141608827961
111.0, 0.08227002762226272
112.0, 0.08741108516883941
113.0, 0.09709477516877468
114.0, 0.10342984313428083
115.0, 0.11395657830533852
116.0, 0.11104482815611719
117.0, 0.0929141175761395
118.0, 0.07925039103821974
119.0, 0.06560345375045537
120.0, 0.05388798747706319
121.0, 0.044232641758656925
122.0, 0.03588648075566857
123.0, 0.03661993812859097
124.0, 0.029315262710851393
125.0, 0.01838821826515339
126.0, 0.015425593492259838
127.0, 0.015473916904007744
128.0, 0.016261702954322384
129.0, 0.013959006075636793
130.0, 0.008700110699386959
131.0, 0.007969293372953106
132.0, 0.00442102838802633
133.0, 0.0008489315979616364
134.0, 0.000936365917891147
135.0, 0.0036214851642148794
136.0, 0.0050379457128946585
137.0, 0.003988810537890176
138.0, 0.0007242586463821705
139.0, 0.003485398437111917
140.0, 0.0010607166102975674
141.0, 0.00013085221299399203
142.0, 0.0013978248476637996
143.0, 0.004945628420355039
144.0, 0.0013435972715681653
145.0, 0.001554475253327466
146.0, 0.0015956952293070346
147.0, 0.005759718260238064
148.0, 0.006445284583896495
149.0, 0.007058515633337701
150.0, 0.011068174849255274
151.0, 0.018802997953457416
152.0, 0.02992719713862954
153.0, 0.03296269895406138
154.0, 0.031300383065724295
155.0, 0.03302736401642199
156.0, 0.044084757085616766
157.0, 0.05430388918044519
158.0, 0.06082199627597905
159.0, 0.06623082646549021
160.0, 0.07550186708296378
161.0, 0.09383435158105558
162.0, 0.10133868554774592
163.0, 0.11499472773080581
164.0, 0.13485106625529766
165.0, 0.1473598252177081
166.0, 0.16475237887906277
167.0, 0.18404736878926148
168.0, 0.20072884425058982
169.0, 0.21515415814537958
170.0, 0.23925226750808862
171.0, 0.25793072032691017
172.0, 0.27618387432931146
173.0, 0.30098530371473126
174.0, 0.330708546181862
175.0, 0.34690777226476366
176.0, 0.36044011927125286
177.0, 0.3755419905328989
178.0, 0.3875015276865838
179.0, 0.3862467716960547
180.0, 0.38379508434331006
181.0, 0.37895956049263513
182.0, 0.3665705011768362
183.0, 0.34498852648025363
184.0, 0.32779408084209954
185.0, 0.31110337601079824
186.0, 0.2925009286393294
187.0, 0.27552778388248683
188.0, 0.2610404291197304
189.0, 0.24903966889814363
190.0, 0.24028566390118947
191.0, 0.23551619502600463
192.0, 0.2342653240449751
193.0, 0.23231178863061414
194.0, 0.23263962795888268
195.0, 0.23765963279080463
196.0, 0.2457602883025736
197.0, 0.25357855010863056
198.0, 0.2585047118408203
199.0, 0.2668258475089858
200.0, 0.28471778959018784
201.0, 0.29609668030315694
202.0, 0.30970489155740605
203.0, 0.32788969203683604
204.0, 0.3486787518151807
205.0, 0.3695105369826944
206.0, 0.39099532585792746
207.0, 0.41242581740067275
208.0, 0.434628246920847
209.0, 0.46028212463380924
210.0, 0.4910034808475249
211.0, 0.5194430686146215
212.0, 0.5464653253169539
213.0, 0.5746982537029889
214.0, 0.601854350393405
215.0, 0.617746700222415
216.0, 0.6367913896136126
217.0, 0.6565162183530424
218.0, 0.6589580393339183
219.0, 0.6640486873027295
220.0, 0.6607385518279066
221.0, 0.6437394895381715
222.0, 0.6143068894262871
223.0, 0.5857552599602792
224.0, 0.543809413558249
225.0, 0.5012884811396509
226.0, 0.465999086770899
227.0, 0.4347010567833944
228.0, 0.40477969106811396
229.0, 0.38248262568464264
230.0, 0.3633358756160499
231.0, 0.34109017595225183
232.0, 0.31740719532715755
233.0, 0.30263226697269646
234.0, 0.28354581773781423
235.0, 0.2583817920796847
236.0, 0.23754568909247892
237.0, 0.21316910738026948
238.0, 0.19116799728515624
239.0, 0.1718693589257247
240.0, 0.1560039141216625
241.0, 0.14974461361360003
242.0, 0.14016782581590675
243.0, 0.13575123478678036
244.0, 0.14059373080763168
245.0, 0.15220647544943758
246.0, 0.15986419319637768
247.0, 0.16988647159421258
248.0, 0.18671711806250382
249.0, 0.21160507803542192
250.0, 0.23645535229530307
251.0, 0.2634779375326379
252.0, 0.29027036369312326
253.0, 0.31271401256350156
254.0, 0.32844807212105137
255.0, 0.3468805725762828
256.0, 0.34261782117075296
257.0, 0.3355621286897349
258.0, 0.33099745152513926
259.0, 0.3003894962352173
260.0, 0.2760867148345449
261.0, 0.24890589947519973
262.0, 0.2187511722503239
263.0, 0.1905470598531283
264.0, 0.16837298457639904
265.0, 0.14383098271211883
266.0, 0.12133070204188756
267.0, 0.10409301878112964
268.0, 0.08929179764660729
269.0, 0.07079170443221722
270.0, 0.0567109004823564
271.0, 0.04557017433610555
272.0, 0.034774089050041694
273.0, 0.02837272942432085
274.0, 0.024080350002853648
275.0, 0.01800471927227591
276.0, 0.010950489546881294
277.0, 0.007427315030478145
278.0, 0.011606844703704138
279.0, 0.006420997429127408
280.0, 0.0015251993817885514
281.0, 0.0023642838067540273
282.0, 0.0005056928089308843
283.0, 0.0004949986534624742
284.0, 0.0005611743989671797
285.0, 0.000826048643064116
286.0, 0.0017669133773860523
287.0, 0.0022926612702956046
288.0, 0.0027469489105465066
289.0, 0.001886813973732354
290.0, 0.0003444859123432282
291.0, 0.0015198148318236512
292.0, 0.002007248009098773
293.0, 0.002973880159510511
294.0, 0.002924014882513167
295.0, 0.0040390439905413755
296.0, 0.004527638397294721
297.0, 0.0016836629534944026
298.0, 0.0010907178882401617
299.0, 0.002681585168483924
300.0, 0.0036002415741623584
301.0, 0.004415720114589085
302.0, 0.0040813058128964935
303.0, 0.007293607858108477
304.0, 0.00916385333276366
305.0, 0.004223989399762379
306.0, 0.00498542377285313
307.0, 0.007620514856483994
308.0, 0.007470837307143327
309.0, 0.005338333025623343
310.0, 0.00496055390923021
311.0, 0.004359553417508061
312.0, 0.0030006476462956172
313.0, 0.0035751180675230093
314.0, 0.005509382822054227
315.0, 0.002741520883260507
316.0, 0.005418373959191399
317.0, 0.005648774421155408
318.0, 0.005771309955347302
319.0, 0.007863451866219114
320.0, 0.0014273817467876143
321.0, 0.0021240609821267646
322.0, 0.00690782050654478
323.0, 0.008704371221907413
324.0, 0.006330387965018114
325.0, 0.00047785149659475864
326.0, 0.005397310663104819
327.0, 0.006298917147739597
328.0, 0.005301501764769327
329.0, 0.010386421817685568
330.0, 0.013499350524304872
331.0, 0.015678759284268307
332.0, 0.017677735712465344
333.0, 0.01892319046099899
334.0, 0.018116990231962626
335.0, 0.021610686418288574
336.0, 0.027270205646297084
337.0, 0.03266924824681782
338.0, 0.03786118027360899
339.0, 0.04595386049726919
340.0, 0.0497233948362847
341.0, 0.05040798519390506
342.0, 0.052585200444366764
343.0, 0.05877303328047292
344.0, 0.06353353800751431
345.0, 0.07510019366931477
346.0, 0.0829466991793605
347.0, 0.08525407311690399
348.0, 0.0901436795636044
349.0, 0.1001835371700533
350.0, 0.10330434341431044
351.0, 0.10874943210046507
352.0, 0.11881262673396335
353.0, 0.1267660885753916
354.0, 0.13910387478693995
355.0, 0.1476645650927479
356.0, 0.15553478114821784
357.0, 0.1650479043314431
358.0, 0.17422033427598627
359.0, 0.18322189983208764
360.0, 0.1919259874183563
361.0, 0.19998643003801578
362.0, 0.20792879988235063
363.0, 0.21751412208439655
364.0, 0.2282727232100042
365.0, 0.24122222943022256
366.0, 0.2517608014422392
367.0, 0.2579364012525519
368.0, 0.26316895902527315
369.0, 0.2728530641206125
370.0, 0.27554416868998655
371.0, 0.2791779192169738
372.0, 0.29238560350893733
373.0, 0.30653442076668513
374.0, 0.3121362952816038
375.0, 0.3216545063676918
376.0, 0.3326116439072663
377.0, 0.336473080801665
378.0, 0.3382029967100899
379.0, 0.3398483392059119
380.0, 0.33981288349426764
381.0, 0.3342660916745453
382.0, 0.3221861721200196
383.0, 0.31206005444368146
384.0, 0.30752845406490553
385.0, 0.30492155167945895
386.0, 0.2960473704181811
387.0, 0.2795470425112408
388.0, 0.2699617089407538
389.0, 0.257794175158365
390.0, 0.24481238955930454
391.0, 0.23450715764949706
392.0, 0.22713226746964776
393.0, 0.21873604853173237
394.0, 0.2219815964533054
395.0, 0.22371158320489004
396.0, 0.22508600990537786
397.0, 0.23394808269875625
398.0, 0.24669860346394565
399.0, 0.2475692771880546
400.0, 0.2547376361327866
401.0, 0.26867957392683356
402.0, 0.27857588840966957
403.0, 0.28648696028693826
404.0, 0.30267142309507644
405.0, 0.31545954359447853
406.0, 0.325582156837881
407.0, 0.33952546161703345
408.0, 0.3464893036440218
409.0, 0.35198658814182365
410.0, 0.35460331704690184
411.0, 0.35696973106058155
412.0, 0.35850190093444756
413.0, 0.34590957500672104
414.0, 0.33126710276251853
415.0, 0.3231844534187568
416.0, 0.3142956523701155
417.0, 0.29670582300220466
418.0, 0.27780032242971925
419.0, 0.25353228885686147
420.0, 0.2357711035338537
421.0, 0.22162449857334707
422.0, 0.204571457694341
423.0, 0.18885403516385507
424.0, 0.18109771071954958
425.0, 0.16821477794400105
426.0, 0.15587951295783012
427.0, 0.15204042859811973
428.0, 0.14930196096466483
429.0, 0.14603696813797698
430.0, 0.14599980230420284
431.0, 0.1438711757171296
432.0, 0.14006988576819243
433.0, 0.1466901049203375
434.0, 0.1419988598849576
435.0, 0.13286134954217335
436.0, 0.1253129083994906
437.0, 0.12438262034668585
438.0, 0.13199671097652832
439.0, 0.12447847168580788
440.0, 0.11506292088575866
441.0, 0.10668485613616918
442.0, 0.09921268263944295
443.0, 0.09374218795663362
444.0, 0.08129318990754274
445.0, 0.0696354084480136
446.0, 0.05976505354263954
447.0, 0.049678725221994714
448.0, 0.037858340113807405
449.0, 0.029641894590399405
450.0, 0.020933602925826744
451.0, 0.01710139191564693
452.0, 0.014910453799089039
453.0, 0.007279924885321446
454.0, 0.0020996532693179724
455.0, 0.0017209466242106893
456.0, 0.006096202426258003
457.0, 0.006772631245585065
458.0, 0.0021554746504115732
459.0, 0.0016375443227201094
460.0, 0.0015608884267624182
461.0, 0.005233245201771486
462.0, 0.008138892097245897
463.0, 0.012359984777122229
464.0, 0.022497557716131312
465.0, 0.033366768021640805
466.0, 0.04832498959278412
467.0, 0.06161501612181344
468.0, 0.07109464056336735
469.0, 0.085474405695426
470.0, 0.10012912702389933
471.0, 0.11118959318821321
472.0, 0.12082618717794347
473.0, 0.1337458654578488
474.0, 0.1481423134846197
475.0, 0.14485167999881612
476.0, 0.1541382863252653
477.0, 0.16070742025062199
478.0, 0.15966359781475387
479.0, 0.16003208459815835
480.0, 0.16451558768013602
481.0, 0.15372121962040286
482.0, 0.15484459318476212
483.0, 0.15827299905213094
484.0, 0.1507810390479808
485.0, 0.14600430822622676
486.0, 0.14972561747100485
487.0, 0.14151909458813233
488.0, 0.13498440121153174
489.0, 0.13525357806030433
490.0, 0.1296097666031543
491.0, 0.12113725819494034
492.0, 0.11140185218827178
493.0, 0.10239763276991075
494.0, 0.09628771189882188
495.0, 0.09174343941413209
496.0, 0.08239172989914118
497.0, 0.07438805238566627
498.0, 0.06922053346333422
499.0, 0.0658458011270448
500.0, 0.06240507942064412
501.0, 0.05710482605629382
502.0, 0.052514651275576266
503.0, 0.055777676369425766
504.0, 0.05361618262056118
505.0, 0.04516542473149132
506.0, 0.044313464137095034
507.0, 0.0479654352423783
508.0, 0.04681222858050672
509.0, 0.04537375509227689
510.0, 0.04630973572682018
511.0, 0.04592955518820137
512.0, 0.03956718821220749
513.0, 0.03449884272989717
514.0, 0.03400917666331659
515.0, 0.03035395583201291
516.0, 0.024675624681007084
517.0, 0.029518349701409787
518.0, 0.021681413544423475
519.0, 0.016801713568718263
520.0, 0.013697391169751388
521.0, 0.009640324294985365
522.0, 0.005324705675302801
523.0, 0.002055035814020888
524.0, 0.003514607471690973
525.0, 0.0016633147911802016
526.0, 0.002207290613334781
527.0, 0.005544122840757233
528.0, 0.013311683389778811
529.0, 0.01156810165767121
530.0, 0.013610363701900592
531.0, 0.01041950346225943
532.0, 0.006344409004732064
533.0, 0.013428742380635227
534.0, 0.010896483052157669
535.0, 0.006753985827059745
536.0, 0.006283601639585889
537.0, 0.0037726315328613473
538.0, 0.0014715106684069044
539.0, 0.001564932829411247
540.0, 0.002220161357954515
541.0, 0.012522950659003815
542.0, 0.015152633826761757
543.0, 0.01395635704775082
544.0, 0.023361886508033152
545.0, 0.03012375711149892
546.0, 0.042590660197547925
547.0, 0.05201712972186331
548.0, 0.056771673347148575
549.0, 0.06430516665467713
550.0, 0.082940260609986
551.0, 0.08950445016748307
552.0, 0.09986189612205279
553.0, 0.11481649895348453
554.0, 0.12879349746636604
555.0, 0.13918833156264707
556.0, 0.15106775025469954
557.0, 0.17294738312344465
558.0, 0.19802333246698278
559.0, 0.21958957076819857
560.0, 0.2380456645351138
561.0, 0.2596731573900504
562.0, 0.2859485972698868
563.0, 0.307786481238465
564.0, 0.33319478366203076
565.0, 0.36251651160532394
566.0, 0.38806322859546477
567.0, 0.40591641313238847
568.0, 0.4281480371157544
569.0, 0.44928743547545535
570.0, 0.459698345610335
571.0, 0.4640689023414345
572.0, 0.47239369082148075
573.0, 0.47057622792659454
574.0, 0.45730582705354944
575.0, 0.4397475021923728
576.0, 0.4233845779910582
577.0, 0.40904514548580956
578.0, 0.39288087208956635
579.0, 0.3691559913369654
580.0, 0.35288967334717497
581.0, 0.3372593214332392
582.0, 0.3216908133993157
583.0, 0.30769599554579175
584.0, 0.28311428266496447
585.0, 0.2683468823709772
586.0, 0.25183419268452195
587.0, 0.22950742041512995
588.0, 0.2054544917420814
589.0, 0.18597287767565965
590.0, 0.16898165293186052
591.0, 0.15638817995490042
592.0, 0.13691196718669424
593.0, 0.11753028024056891
594.0, 0.10325188877934145
595.0, 0.08859316347477518
596.0, 0.07840936225178013
597.0, 0.06779222610601533
598.0, 0.06238327207572858
599.0, 0.06008420384917582
600.0, 0.05484073230334819
601.0, 0.044946454659239375
602.0, 0.03546158119291207
603.0, 0.03277719385391637
604.0, 0.03196575682146022
605.0, 0.028117266354889942
606.0, 0.024303057911953137
607.0, 0.02738126340454322
608.0, 0.02045868629115321
609.0, 0.016998034743720886
610.0, 0.018749987219907647
611.0, 0.022108608439039976
612.0, 0.02347088173406389
613.0, 0.018489093987120165
614.0, 0.022083306727210584
615.0, 0.022553848399576255
616.0, 0.02112865443264865
617.0, 0.022547077971163988
618.0, 0.026158694816525073
619.0, 0.027615080582824785
620.0, 0.032905581830925595
621.0, 0.039152094454697355
622.0, 0.04385973404991616
623.0, 0.04896741216637342
624.0, 0.057908177112277644
625.0, 0.06641672030227676
626.0, 0.06608674159635711
627.0, 0.07327368562934598
628.0, 0.08336404155645842
629.0, 0.08869109411012939
630.0, 0.09468345851562644
631.0, 0.10733615274484416
632.0, 0.12274760390620501
633.0, 0.12461050086652219
634.0, 0.12598547675173868
635.0, 0.13538263367618314
636.0, 0.14211955456969974
637.0, 0.1477418672041494
638.0, 0.1526231169380027
639.0, 0.1537985639598109
640.0, 0.1521035372386985
641.0, 0.14810805455507656
642.0, 0.1399604175457545
643.0, 0.1312713855161928
644.0, 0.12563232989868972
645.0, 0.11581065748619104
646.0, 0.10576723182316375
647.0, 0.0986770429969881
648.0, 0.08980651975453731
649.0, 0.084682301225043
650.0, 0.07168458535411278
651.0, 0.06409530892334266
652.0, 0.06092920927830391
653.0, 0.05657639537777602
654.0, 0.05257028502276742
655.0, 0.04839129576763312
656.0, 0.034312711452951616
657.0, 0.026901302708166545
658.0, 0.024157314152513945
659.0, 0.019942081474213887
660.0, 0.017958041781290436
661.0, 0.019275090669189896
662.0, 0.010526598933572832
663.0, 0.008502063007107015
664.0, 0.009463823854897373
665.0, 0.008488514972632708
666.0, 0.010787021815918903
667.0, 0.010321016210057547
668.0, 0.006147754102593358
669.0, 0.005738093589173736
670.0, 0.0025065374575684507
671.0, 0.0013021515386505353
672.0, 0.006945421385948675
673.0, 0.00838647097825199
674.0, 0.004710500898788578
675.0, 0.0036846368105195263
676.0, 0.003990647321311476
677.0, 0.0033942224557608515
678.0, 0.002787407821444052
679.0, 0.006094388963465935
680.0, 0.00936115529584739
681.0, 0.012624295185666348
682.0, 0.007723265687868498
683.0, 0.0013658017360006402
684.0, 0.003599032336351155
685.0, 0.004685448355741648
686.0, 0.000664011058260138
687.0, 0.007126945997812469
688.0, 0.0066151626646413515
689.0, 0.003550746354371763
690.0, 0.006473526504775142
691.0, 0.00338745828417072
692.0, 0.003067929473018044
693.0, 0.002525466221252383
694.0, 0.005897806161763999
695.0, 0.003643822055574177
696.0, 0.0008046516660516424
697.0, 0.0014564714169149377
698.0, 0.003536857458562735
699.0, 0.005530747465106457
700.0, 0.0016557275117162716
701.0, 0.00023137277624040882
702.0, 0.0012797371930559267
703.0, 0.0007169560488436359
704.0, 0.0005436103016957743
705.0, 0.0007712315771907657
706.0, 0.0024562118089810504
707.0, 0.0017611509646813244
708.0, 0.001446652967344063
709.0, 0.005320186735814378
710.0, 0.008574743196661466
711.0, 0.010921311595119707
712.0, 0.00971746096413499
713.0, 0.014152172180839945
714.0, 0.013104535692376258
715.0, 0.007249037458068522
716.0, 0.015027600294980414
717.0, 0.011424733650250058
718.0, 0.018715759017199258
719.0, 0.020016385896975557
720.0, 0.02087590571335609
721.0, 0.02633835474352533
722.0, 0.03145244400246765
723.0, 0.034313974224835626
724.0, 0.03553663856898218
725.0, 0.03188419776525383
726.0, 0.0337387453753374
727.0, 0.03699546527263117
728.0, 0.03664053923333632
729.0, 0.04050342112378187
730.0, 0.03741109083912827
731.0, 0.031347986687968794
732.0, 0.030341382842019093
733.0, 0.03086225202893359
734.0, 0.026662485622924413
735.0, 0.020037566385093755
736.0, 0.0248497417929028
737.0, 0.015600911225078992
738.0, 0.01739776316296551
739.0, 0.021424095858414306
740.0, 0.01713470492541192
741.0, 0.010540315998219769
742.0, 0.009537317396431752
743.0, 0.002201973882529508
744.0, 0.01083771745365987
745.0, 0.011727620750121655
746.0, 0.005885071380352995
747.0, 0.003893785997205512
748.0, 0.008543979682409424
749.0, 0.016811796312253175
750.0, 0.014275570002929049
751.0, 0.015622542612021829
752.0, 0.01242797430323408
753.0, 0.0056447157643929715
754.0, 0.004129501425812461
755.0, 0.007784661203293131
756.0, 0.009436720551659134
757.0, 0.013183988142318128
758.0, 0.0077638282798136275
759.0, 0.0038504296301206135
760.0, 0.0050787809380000055
761.0, 0.006917961837402032
762.0, 0.008967533121152706
763.0, 0.008744900268841808
764.0, 0.009468071396222636
765.0, 0.008243553965665257
766.0, 0.004626606835837356
767.0, 0.0023559900636294434
768.0, 0.004918293962807142
769.0, 0.008709570436329049
770.0, 0.007446572268422103
771.0, 0.007154911725480269
772.0, 0.009592368045571677
773.0, 0.009479968034573934
774.0, 0.0056167616817148006
775.0, 0.004259378520227863
776.0, 0.007435137562136875
777.0, 0.002095264774513255
778.0, 0.000462392981386174
779.0, 0.0009889938487084996
780.0, 0.0028806535772615033
781.0, 0.0010085070045982496
782.0, 0.002856806860796843
783.0, 0.00848337097316899
784.0, 0.0049301228016393915
785.0, 0.004948976632954295
786.0, 0.002510337257992508
787.0, 0.001729696004009837
788.0, 0.010085642939483788
789.0, 0.009269194111666813
790.0, 0.005911499251209662
791.0, 0.004118728139342879
792.0, 0.0011538191902895091
793.0, 0.002609921044342612
794.0, 0.007474486208926991
795.0, 0.0044857970759565975
796.0, 0.002200679879476257
797.0, 0.011107361053421645
798.0, 0.010132744716107707
799.0, 0.012129262267527415
800.0, 0.014661063221687741
801.0, 0.012911945279404188
802.0, 0.011746818408087506
803.0, 0.013726311091359826
804.0, 0.012079077935527701
805.0, 0.01656020340954771
806.0, 0.02032117548665389
807.0, 0.021898910729135194
808.0, 0.023530850474606766
809.0, 0.022512150202517456
810.0, 0.014424656331019435
811.0, 0.012749448649624769
812.0, 0.011723230559803406
813.0, 0.01093076353228027
814.0, 0.010984086350435324
815.0, 0.01174381053173646
816.0, 0.011884988016104098
817.0, 0.010482227848136762
818.0, 0.010940867790868603
819.0, 0.017355547389661774
820.0, 0.01720860428894625
821.0, 0.012727482342973944
822.0, 0.01234403158795242
823.0, 0.014284238067965783
824.0, 0.008564944582652029
825.0, 0.006575926304891015
826.0, 0.00723349911507427
827.0, 0.006518402598406651
828.0, 0.003310776863878413
829.0, 0.0003828927963087967
830.0, 0.003249564804921859
831.0, 0.011487078323925561
832.0, 0.007472118523486879
833.0, 0.00960143639509312
834.0, 0.0055854844163250005
835.0, 0.0024669028338815064
836.0, 0.004900403830788561
837.0, 0.004224069073587114
838.0, 0.0017848340708310486
839.0, 0.005122409608505769
840.0, 0.005806190698214651
841.0, 0.005958782479159315
842.0, 0.006188747509943265
843.0, 0.0036464858359630983
844.0, 0.0017343474657636113
845.0, 0.005750277361332217
846.0, 0.0011477180913844049
847.0, 0.0010870918626034345
848.0, 0.006071860690113367
849.0, 0.002368424622097413
850.0, 0.0023157420596370344
851.0, 0.0001721281297317638
852.0, 0.00025538007485875617
853.0, 0.004707560411776658
854.0, 0.001647413324934135
855.0, 0.0015142197908535673
856.0, 0.0016724906552600745
857.0, 0.0029965232873276062
858.0, 0.005093599865342198
859.0, 0.003930920119579404
860.0, 0.0061030996726954174
861.0, 0.0065158839139859755
862.0, 0.008262072750058025
863.0, 0.010592208393649615
864.0, 0.00539617819988685
865.0, 0.0006636090369505602
866.0, 0.001016195679132932
867.0, 0.006254970845636982
868.0, 0.0028799195501898927
869.0, 0.003247517463281779
870.0, 0.004660356415334577
871.0, 0.006557158709757449
872.0, 0.0029754455385890004
873.0, 0.0022974665828624408
874.0, 0.006661790479671613
875.0, 0.0009543275144777125
876.0, 0.002714145991308487
877.0, 0.0028977530668253585
878.0, 0.0026748810690466434
879.0, 0.004771637392085283
880.0, 0.00932806961150701
881.0, 0.00938865685236563
882.0, 0.011867015781501084
883.0, 0.017110330999582177
884.0, 0.015767929728417854
885.0, 0.014692681028740905
886.0, 0.017862902577804075
887.0, 0.02534734847176747
888.0, 0.031957901672443285
889.0, 0.03444629886868622
890.0, 0.03965337104049081
891.0, 0.04419416581866732
892.0, 0.050830881505407634
893.0, 0.06159446467616896
894.0, 0.07002331380546405
895.0, 0.07452410921975985
896.0, 0.08124592780803573
897.0, 0.09503171915850556
898.0, 0.1042780353044079
899.0, 0.11328531850370788
900.0, 0.1362787151346769
901.0, 0.1533339613937276
902.0, 0.17019802776260615
903.0, 0.19799885960576227
904.0, 0.2295330059694872
905.0, 0.25500848498506995
906.0, 0.2811942485467232
907.0, 0.323927099709139
908.0, 0.3676650373997042
909.0, 0.4118499042964087
910.0, 0.4557143848306916
911.0, 0.5079348280608559
912.0, 0.5714129734577071
913.0, 0.6211936556518699
914.0, 0.6843876157902543
915.0, 0.751720167666327
916.0, 0.8137180889819836
917.0, 0.8686732949445829
918.0, 0.9173791169773869
919.0, 0.962534209328448
920.0, 0.9977571838588386
921.0, 0.9988059636474586
922.0, 0.997381545836465
923.0, 0.9671533082235849
924.0, 0.9226914089356987
925.0, 0.8773571414547758
926.0, 0.8272744938215759
927.0, 0.7679239677808064
928.0, 0.7081097639186121
929.0, 0.655786536355622
930.0, 0.6088185672585159
931.0, 0.5678140678070298
932.0, 0.537343363915647
933.0, 0.5217392148652049
934.0, 0.5019869510848692
935.0, 0.4719455869980827
936.0, 0.45127982540923306
937.0, 0.4410275806222112
938.0, 0.411024685389211
939.0, 0.3826619174942759
940.0, 0.3530101395264926
941.0, 0.32092066713616607
942.0, 0.28666417728039195
943.0, 0.2569747419695282
944.0, 0.23514463743806394
945.0, 0.20832161609288027
946.0, 0.18556851513776051
947.0, 0.16322273387721084
948.0, 0.14983699980730017
949.0, 0.13344022262765814
950.0, 0.11697181060201593
951.0, 0.10729927983458604
952.0, 0.10003924011091776
953.0, 0.09203722933489898
954.0, 0.08638933238603233
955.0, 0.07707061676197753
956.0, 0.07111966046812132
957.0, 0.06617001349768588
958.0, 0.06729649520181723
959.0, 0.07053669425623202
960.0, 0.06798371784116378
961.0, 0.06730349868396762
962.0, 0.0740910618168464
963.0, 0.07592442083969905
964.0, 0.0732328375248841
965.0, 0.07903538142573029
966.0, 0.08623027780250746
967.0, 0.09025330101446029
968.0, 0.09591560861874249
969.0, 0.10103302774388488
970.0, 0.10052228148734524
971.0, 0.1092027738114621
972.0, 0.10414654630547353
973.0, 0.10179335312728834
974.0, 0.1019315865302315
975.0, 0.10059958177366564
976.0, 0.09736930201149134
977.0, 0.09161227172022962
978.0, 0.08409442196579979
979.0, 0.07748127672297858
980.0, 0.07135293054853512
981.0, 0.0649698337914438
982.0, 0.0579459262089587
983.0, 0.050361202979144544
984.0, 0.04596783500717981
985.0, 0.04408884908353699
986.0, 0.039028318873661226
987.0, 0.035649627150366264
988.0, 0.024179487568894802
989.0, 0.024483601656077773
990.0, 0.01787406144250665
991.0, 0.012935547959098199
992.0, 0.012352913643010107
993.0, 0.010799198213915732
994.0, 0.006562438304351363
995.0, 0.0024114300328330813
996.0, 0.0030754902881167433
997.0, 0.0005550804053377236
998.0, 0.004648557957523652
999.0, 0.004796251024142235
1000.0, 0.0027926457868895516
1001.0, 0.0016106856465674686
1002.0, 0.004004144347129156
1003.0, 0.0011439744903465638
1004.0, 0.003926114691666887
1005.0, 0.002918776567782859
1006.0, 0.010827355416422322
1007.0, 0.006075576587193395
1008.0, 0.0006169602854409289
1009.0, 0.005783623188487813
1010.0, 0.009268941914259778
1011.0, 0.0042791342197318685
1012.0, 0.0015855284072201295
1013.0, 0.006191456016517653
1014.0, 0.011678060951131728
1015.0, 0.015716651749366733
1016.0, 0.007367340928239553
1017.0, 0.009038297979241132
1018.0, 0.012589978573121439
1019.0, 0.01494677097353903
1020.0, 0.01682059832846883
1021.0, 0.009923497392160233
1022.0, 0.019696708158231508
1023.0, 0.0207467547013114
1024.0, 0.017444482000907598
1025.0, 0.021072347970464558
1026.0, 0.02295967920844878
1027.0, 0.028064800495668518
1028.0, 0.02882378794089542
1029.0, 0.01934283975895016
1030.0, 0.014555705776143632
1031.0, 0.01603046824167138
1032.0, 0.007006655873900895
1033.0, 0.006328605912831661
1034.0, 0.006535848923586891
1035.0, 0.0023174850090914045
1036.0, 0.00220007597031907
1037.0, 0.007601438983566236
1038.0, 0.007272895950990181
1039.0, 0.001028954517899232
1040.0, 0.0005862733659970773
1041.0, 0.0014138055175322763
1042.0, 0.001259497453462135
1043.0, 0.0035594768098866155
1044.0, 0.0018495230649064462
1045.0, 0.0019118710729258983
1046.0, 0.0015319155187263243
1047.0, 0.0023456178445793122
1048.0, 0.002035314838798287
1049.0, 0.00026715142020704795
1050.0, 0.0020439186234643917
1051.0, 0.004705319525406992
1052.0, 0.003027273373036965
1053.0, 0.0013763635226147646
1054.0, 0.0034017772241799506
1055.0, 0.0015076673650586158
1056.0, 0.0019339441039472156
1057.0, 0.0037809880000260953
1058.0, 0.0039980672817685635
1059.0, 0.0023728076316897277
1060.0, 0.004514054007407876
1061.0, 0.003169169930564265
1062.0, 0.0022576158392098246
1063.0, 0.0012378987009605625
1064.0, 0.0012235195535142075
1065.0, 0.0003701961595673257
1066.0, 0.0025436644073472906
1067.0, 0.007079925286822704
1068.0, 0.007013338761812623
1069.0, 0.006395031031330412
1070.0, 0.011278626566479244
1071.0, 0.01721043488030248
1072.0, 0.01388171130306599
1073.0, 0.011909786644947929
1074.0, 0.014222846925374798
1075.0, 0.01623449582406544
1076.0, 0.018998143198578364
1077.0, 0.022264287781852153
1078.0, 0.018249491378278096
1079.0, 0.01899953192145025
1080.0, 0.027487099402756485
1081.0, 0.019610695081824243
1082.0, 0.01761115492476527
1083.0, 0.02657781651071037
1084.0, 0.030932569795096943
1085.0, 0.03047438839687455
1086.0, 0.035620946160116324
1087.0, 0.03845828452412886
1088.0, 0.03134972970271477
1089.0, 0.027169966991571957
1090.0, 0.021558518898048752
1091.0, 0.025452584307474945
1092.0, 0.027035851579560472
1093.0, 0.023594155589004105
1094.0, 0.02296964719145417
1095.0, 0.02177669245894795
1096.0, 0.019356136216093292
1097.0, 0.025087282300117735
1098.0, 0.02133772048698204
1099.0, 0.02172479743212992
1100.0, 0.027482876216688896
1101.0, 0.025031758197581334
1102.0, 0.027906109573584716
1103.0, 0.026308582758919466
1104.0, 0.02248462492305261
1105.0, 0.024175069350869317
1106.0, 0.027681868625046763
1107.0, 0.027887735448223278
1108.0, 0.025901650930314598
1109.0, 0.026127048107461744
1110.0, 0.03346791252579811
1111.0, 0.03536543885682175
1112.0, 0.03575580300818641
1113.0, 0.03149961804424862
1114.0, 0.025027409758532692
1115.0, 0.01995608031412027
1116.0, 0.018844623969800474
1117.0, 0.019957929950266576
1118.0, 0.01572463535364336
1119.0, 0.018496340960273056
1120.0, 0.007233148266236098
1121.0, 0.007601873084518569
1122.0, 0.006526321008644227
1123.0, 0.006290140511424112
1124.0, 0.0056427994575481595
1125.0, 0.004358819167424727
1126.0, 0.0036316301495571968
1127.0, 0.006707306341332602
1128.0, 0.009532065172941613
1129.0, 0.00028453141578322483
1130.0, 0.005210198268732119
1131.0, 0.0009336261786174332
1132.0, 0.001092699402208914
1133.0, 0.002627113082663775
1134.0, 0.004636422080449777
1135.0, 0.005067896145715308
1136.0, 0.005386524569536207
1137.0, 0.005506610066021589
1138.0, 0.00601121712248241
1139.0, 0.007096772910197945
1140.0, 0.005921199253215303
1141.0, 0.0013504795414593551
1142.0, 0.005626157107764244
1143.0, 0.0017947000362703862
1144.0, 0.007975187613595792
1145.0, 0.008144610278298514
1146.0, 0.0026816121131839027
1147.0, 0.0002897937799505292
1148.0, 0.001839312017123181
1149.0, 0.00609033473555203
1150.0, 0.0067535309273244705
1151.0, 0.00041463107936524484
1152.0, 0.0056529941876766595
1153.0, 0.011445626986088909
1154.0, 0.012385082956978925
1155.0, 0.012275069717633562
1156.0, 0.01361045939273687
1157.0, 0.010886724082479616
1158.0, 0.008768131192964598
1159.0, 0.010043825444802987
1160.0, 0.007908917798800551
1161.0, 0.005441830319500305
1162.0, 0.012303998697218628
1163.0, 0.008333133851975488
1164.0, 0.004000887567555867
1165.0, 0.00935898911628858
1166.0, 0.0020203745973949284
1167.0, 0.0011653085491291715
1168.0, 0.002712620047008617
1169.0, 0.003431104243940915
1170.0, 0.003686853859534053
1171.0, 0.0036897856585864325
1172.0, 0.0059314193028811284
1173.0, 0.0011127965728208095
1174.0, 0.005930429381405687
1175.0, 0.009431869476463307
1176.0, 0.007779610486233971
1177.0, 0.009227193061747789
1178.0, 0.011034031956194389
1179.0, 0.010948103484945506
1180.0, 0.0067188777952117175
1181.0, 0.0066556478160001075
1182.0, 0.010510957055850709
1183.0, 0.012195250696229206
1184.0, 0.019673990700926455
1185.0, 0.022481314626866488
1186.0, 0.02322726373628407
1187.0, 0.014089301150762557
1188.0, 0.014991131500862249
1189.0, 0.010178622282641664
1190.0, 0.011860697007613148
1191.0, 0.008977505183231848
1192.0, 0.010952480706330536
1193.0, 0.015152450011302976
1194.0, 0.007493697182426564
1195.0, 0.0010253599447538457
1196.0, 0.0017218293398815465
1197.0, 0.006037866911667985
1198.0, 0.0007697288006797136
1199.0, 0.0019072500926622092
1200.0, 0.00149960058393958
1201.0, 0.003551916719126348
1202.0, 0.0014592837136422376
1203.0, 0.002062157861904494
1204.0, 0.003293073270584523
1205.0, 0.00415648330501494
1206.0, 0.006835361144986684
1207.0, 0.0030552678916649662
1208.0, 0.002869956910298677
1209.0, 0.0033633944901575574
1210.0, 0.002246468763323635
1211.0, 0.008045158637621721
1212.0, 0.006677123055245772
1213.0, 0.008354188469176342
1214.0, 0.00665471447679532
1215.0, 0.007305049339599625
1216.0, 0.01109105187628017
1217.0, 0.012128254042080969
1218.0, 0.0120296368383411
1219.0, 0.014362286223183019
1220.0, 0.014010715094709261
1221.0, 0.010035603018896114
1222.0, 0.011174993230611758
1223.0, 0.008150831411482004
1224.0, 0.009585141460022047
1225.0, 0.01332420013795815
1226.0, 0.009179973140610878
1227.0, 0.00968923102832375
1228.0, 0.009691371010035721
1229.0, 0.008478877676376246
1230.0, 0.010441644750890119
1231.0, 0.011989427562584986
1232.0, 0.009692910443520258
1233.0, 0.006934794767963092
1234.0, 0.0049993283424701355
1235.0, 0.009130701277850095
1236.0, 0.010661305169259646
1237.0, 0.011402827533000169
1238.0, 0.008735089739326374
1239.0, 0.010919632131276068
1240.0, 0.007519366673547576
1241.0, 0.007815436643138909
1242.0, 0.008326821093348218
1243.0, 0.009770291717363705
1244.0, 0.013558234689370124
1245.0, 0.013570558678378971
1246.0, 0.0130349710839174
1247.0, 0.016878170387274887
1248.0, 0.01790710446281754
1249.0, 0.01612111551814439
1250.0, 0.016823378851294594
1251.0, 0.019968298712156003
1252.0, 0.025828400120024186
1253.0, 0.013793970499140848
1254.0, 0.012733864233275887
1255.0, 0.01567888816705365
1256.0, 0.010156187444053515
1257.0, 0.014054639379072748
1258.0, 0.02076326891360983
1259.0, 0.01313145270934323
1260.0, 0.014475566484095974
1261.0, 0.013935384076377679
1262.0, 0.019152045306984396
1263.0, 0.006212010004999451
1264.0, 0.007070587386861228
1265.0, 0.003992184007720416
1266.0, 0.0024021160874258
1267.0, 0.005496179029494841
1268.0, 0.009053588820301021
1269.0, 0.009449664129987987
1270.0, 0.0087725880656869
1271.0, 0.006564214449391536
1272.0, 0.0012448665513969503
1273.0, 0.0025511340123599226
1274.0, 0.00582303443590403
1275.0, 0.0033409537292786676
1276.0, 0.003485952174070985
1277.0, 0.003010263423135788
1278.0, 0.0016563785431627789
1279.0, 0.006169807679143676
1280.0, 0.0024604587617683784
1281.0, 0.00675836423813136
1282.0, 0.009341360572589325
1283.0, 0.0030832001774596354
1284.0, 0.0023732287241311064
1285.0, 0.0026292248228572085
1286.0, 0.0011260390395674148
1287.0, 0.006594056416401156
1288.0, 0.010867924764457058
1289.0, 0.01316399678904869
1290.0, 0.01016388884068983
1291.0, 0.009396073962191538
1292.0, 0.006767952794036078
1293.0, 0.0019470571303031369
1294.0, 0.007655747069425365
1295.0, 0.013913839483615657
1296.0, 0.003793590469178371
1297.0, 0.007795350243957694
1298.0, 0.0034242099859627317
1299.0, 0.00517637108029498
1300.0, 0.008521435771700097
1301.0, 0.0007963690018719804
1302, 0.0
1303, 0.0
1304, 0.0
1305, 0.0
1306, 0.0
1307, 0.0
1308, 0.0
1309, 0.0
1310, 0.0
1311, 0.0
1312, 0.0
1313, 0.0
1314, 0.0
1315, 0.0
1316, 0.0
1317, 0.0
1318, 0.0
1319, 0.0
1320, 0.0
1321, 0.0
1322, 0.0
1323, 0.0
1324, 0.0
1325, 0.0
1326, 0.0
1327, 0.0
1328, 0.0
1329, 0.0
1330, 0.0
1331, 0.0
1332, 0.0
1333, 0.0
1334, 0.0
1335, 0.0
1336, 0.0
1337, 0.0
1338, 0.0
1339, 0.0
1340, 0.0
1341, 0.0
1342, 0.0
1343, 0.0
1344, 0.0
1345, 0.0
1346, 0.0
1347, 0.0
1348, 0.0
1349, 0.0
1350, 0.0
1351, 0.0
1352, 0.0
1353, 0.0
1354, 0.0
1355, 0.0
1356, 0.0
1357, 0.0
1358, 0.0
1359, 0.0
1360, 0.0
1361, 0.0
1362, 0.0
1363, 0.0
1364, 0.0
1365, 0.0
1366, 0.0
1367, 0.0
1368, 0.0
1369, 0.0
1370, 0.0
1371, 0.0
1372, 0.0
1373, 0.0
1374, 0.0
1375, 0.0
1376, 0.0
1377, 0.0
1378, 0.0
1379, 0.0
1380, 0.0
1381, 0.0
1382, 0.0
1383, 0.0
1384, 0.0
1385, 0.0
1386, 0.0
1387, 0.0
1388, 0.0
1389, 0.0
1390, 0.0
1391, 0.0
1392, 0.0
1393, 0.0
1394, 0.0
1395, 0.0
1396, 0.0
1397, 0.0
1398, 0.0
1399, 0.0
1400, 0.0
1401, 0.0
1402, 0.0
1403, 0.0
1404, 0.0
1405, 0.0
1406, 0.0
1407, 0.0
1408, 0.0
1409, 0.0
1410, 0.0
1411, 0.0
1412, 0.0
1413, 0.0
1414, 0.0
1415, 0.0
1416, 0.0
1417, 0.0
1418, 0.0
1419, 0.0
1420, 0.0
1421, 0.0
1422, 0.0
1423, 0.0
1424, 0.0
1425, 0.0
1426, 0.0
1427, 0.0
1428, 0.0
1429, 0.0
1430, 0.0
1431, 0.0
1432, 0.0
1433, 0.0
1434, 0.0
1435, 0.0
1436, 0.0
1437, 0.0
1438, 0.0
1439, 0.0
1440, 0.0
1441, 0.0
1442, 0.0
1443, 0.0
1444, 0.0
1445, 0.0
1446, 0.0
1447, 0.0
1448, 0.0
1449, 0.0
1450, 0.0
1451, 0.0
1452, 0.0
1453, 0.0
1454, 0.0
1455, 0.0
1456, 0.0
1457, 0.0
1458, 0.0
1459, 0.0
1460, 0.0
1461, 0.0
1462, 0.0
1463, 0.0
1464, 0.0
1465, 0.0
1466, 0.0
1467, 0.0
1468, 0.0
1469, 0.0
1470, 0.0
1471, 0.0
1472, 0.0
1473, 0.0
1474, 0.0
1475, 0.0
1476, 0.0
1477, 0.0
1478, 0.0
1479, 0.0
1480, 0.0
1481, 0.0
1482, 0.0
1483, 0.0
1484, 0.0
1485, 0.0
1486, 0.0
1487, 0.0
1488, 0.0
1489, 0.0
1490, 0.0
1491, 0.0
1492, 0.0
1493, 0.0
1494, 0.0
1495, 0.0
1496, 0.0
1497, 0.0
1498, 0.0
1499, 0.0
1500, 0.0
1501, 0.0
1502, 0.0
1503, 0.0
1504, 0.0
1505, 0.0
1506, 0.0
1507, 0.0
1508, 0.0
1509, 0.0
1510, 0.0
1511, 0.0
1512, 0.0
1513, 0.0
1514, 0.0
1515, 0.0
1516, 0.0
1517, 0.0
1518, 0.0
1519, 0.0
1520, 0.0
1521, 0.0
1522, 0.0
1523, 0.0
1524, 0.0
1525, 0.0
1526, 0.0
1527, 0.0
1528, 0.0
1529, 0.0
1530, 0.0
1531, 0.0
1532, 0.0
1533, 0.0
1534, 0.0
1535, 0.0
1536, 0.0
1537, 0.0
1538, 0.0
1539, 0.0
1540, 0.0
1541, 0.0
1542, 0.0
1543, 0.0
1544, 0.0
1545, 0.0
1546, 0.0
1547, 0.0
1548, 0.0
1549, 0.0
1550, 0.0
1551, 0.0
1552, 0.0
1553, 0.0
1554, 0.0
1555, 0.0
1556, 0.0
1557, 0.0
1558, 0.0
1559, 0.0
1560, 0.0
1561, 0.0
1562, 0.0
1563, 0.0
1564, 0.0
1565, 0.0
1566, 0.0
1567, 0.0
1568, 0.0
1569, 0.0
1570, 0.0
1571, 0.0
1572, 0.0
1573, 0.0
1574, 0.0
1575, 0.0
1576, 0.0
1577, 0.0
1578, 0.0
1579, 0.0
1580, 0.0
1581, 0.0
1582, 0.0
1583, 0.0
1584, 0.0
1585, 0.0
1586, 0.0
1587, 0.0
1588, 0.0
1589, 0.0
1590, 0.0
1591, 0.0
1592, 0.0
1593, 0.0
1594, 0.0
1595, 0.0
1596, 0.0
1597, 0.0
1598, 0.0
1599, 0.0
