30, 0.0
31, 0.0
32, 0.0
33, 0.0
34, 0.0
35, 0.0
36, 0.0
37, 0.0
38, 0.0
39, 0.0
40, 0.0
41, 0.0
42, 0.0
43, 0.0
44, 0.0
45, 0.0
46, 0.0
47, 0.0
48, 0.0
49, 0.0
50, 0.0
51, 0.0
52, 0.0
53, 0.0
54, 0.0
55, 0.0
56, 0.0
57, 0.0
58, 0.0
59, 0.0
60, 0.0
61, 0.0
62, 0.0
63, 0.0
64, 0.0
65, 0.0
66, 0.0
67, 0.0
68, 0.0
69, 0.0
70, 0.0
71, 0.0
72, 0.0
73, 0.0
74, 0.0
75, 0.0
76, 0.0
77, 0.0
78, 0.0
79, 0.0
80, 0.0
81, 0.0
82, 0.0
83, 0.0
84, 0.0
85, 0.0
86, 0.0
87, 0.0
88, 0.0
89, 0.0
90, 0.0
91, 0.0
92, 0.0
93, 0.0
94, 0.0
95, 0.0
96, 0.0
97, 0.0
98, 0.0
99, 0.0
100, 0.0
101, 0.0
102, 0.0
103, 0.0
104, 0.0
105, 0.0
106, 0.0
107, 0.0
108, 0.0
109, 0.0
110, 0.0
111.0, 5.281355648459517e-06
112.0, 0.00018357731293326004
113.0, 0.0002059278646455322
114.0, 0.00026516767163759294
115.0, 0.000805923381679042
116.0, 0.001401131531138297
117.0, 0.001301153571289025
118.0, 0.001599510660971595
119.0, 0.0025933008360282672
120.0, 0.003245980422906138
121.0, 0.002166412454985356
122.0, 0.0009667070062668595
123.0, 0.0015168081765888223
124.0, 0.0017747165470521587
125.0, 0.0031241598343008953
126.0, 0.00341020187782843
127.0, 0.00237386922183755
128.0, 0.0012972807111340157
129.0, 0.0009676571669531279
130.0, 0.0011930052598960294
131.0, 0.0013891350522500481
132.0, 0.001113659656854319
133.0, 0.0010404914347201379
134.0, 0.00028292811940693453
135.0, 0.001053385711232604
136.0, 0.0005769397223040322
137.0, 0.0007467392515088157
138.0, 0.0003015540230919128
139.0, 0.0003058025168582491
140.0, 0.0005317864269708373
141.0, 0.0002913906328220199
142.0, 0.00012916742927603932
143.0, 0.0026963986481060875
144.0, 0.006425768439989592
145.0, 0.006000991954290913
146.0, 0.0055974955374083835
147.0, 0.006782969961090445
148.0, 0.009071679158777095
149.0, 0.01159792907877632
150.0, 0.01416552177780319
151.0, 0.01824488839028626
152.0, 0.021757849174353236
153.0, 0.02344282069008228
154.0, 0.027525133316905342
155.0, 0.032641904922112976
156.0, 0.03694567468019148
157.0, 0.04071949165592012
158.0, 0.046871320663711614
159.0, 0.05366616854634361
160.0, 0.06082774915606838
161.0, 0.06840024866140734
162.0, 0.07675749710271652
163.0, 0.0881396777057141
164.0, 0.0981440103647558
165.0, 0.10735493747036266
166.0, 0.11782270959213643
167.0, 0.12978752721213216
168.0, 0.14182540024960869
169.0, 0.15431019241852642
170.0, 0.1677356355246727
171.0, 0.18176935692527638
172.0, 0.19518300714674425
173.0, 0.2095110318547503
174.0, 0.22460045390543254
175.0, 0.2391026076409898
176.0, 0.2540610675775481
177.0, 0.2678839385255425
178.0, 0.2808764277782252
179.0, 0.29379737453651017
180.0, 0.30602248214754774
181.0, 0.315529932597623
182.0, 0.3211571769202363
183.0, 0.32333458091577943
184.0, 0.3230758606561828
185.0, 0.3204144083053892
186.0, 0.3137174295207778
187.0, 0.30293194728880873
188.0, 0.2889304206423391
189.0, 0.2743478347734269
190.0, 0.2566496587300206
191.0, 0.23652837235868626
192.0, 0.21553331705568043
193.0, 0.19500615448953562
194.0, 0.1749471862145404
195.0, 0.15570178031772117
196.0, 0.13812997883732908
197.0, 0.12345727566733805
198.0, 0.10978940036349052
199.0, 0.09773592894913703
200.0, 0.08675827726996815
201.0, 0.07637393926649048
202.0, 0.06861417258732226
203.0, 0.06123961751762956
204.0, 0.054139175910875845
205.0, 0.04764059397833881
206.0, 0.041675844332821774
207.0, 0.03759110216722487
208.0, 0.0334044500691691
209.0, 0.029076570578394124
210.0, 0.026256208682086026
211.0, 0.024491466940199276
212.0, 0.02111157741092316
213.0, 0.0177916979889199
214.0, 0.015722360279252858
215.0, 0.01236627467319425
216.0, 0.010367890491120685
217.0, 0.00791754925436653
218.0, 0.006055322227917233
219.0, 0.006466325257789512
220.0, 0.0035267380276593945
221.0, 0.002284253409344076
222.0, 0.002540173876693287
223.0, 0.002139671360022667
224.0, 0.0004679287495654168
225.0, 0.00032351843205206656
226.0, 0.00046994832699721385
227.0, 0.0004231222195841797
228.0, 0.0018067519814599588
229.0, 0.0004479527498148402
230.0, 3.488868125154222e-05
231.0, 0.0002537822144910411
232.0, 0.0003599530938548744
233.0, 0.0017700989416474598
234.0, 0.0012932157907411528
235.0, 0.00026760417382953557
236.0, 0.001570213375356814
237.0, 0.001976468507522928
238.0, 0.002460821556264276
239.0, 0.0034132696876135902
240.0, 0.0043357006797774345
241.0, 0.004667620697598033
242.0, 0.004374418244789615
243.0, 0.0036557959386784526
244.0, 0.0032858868327015297
245.0, 0.0037958102916526852
246.0, 0.005058814981233016
247.0, 0.004432944839313407
248.0, 0.004686217723880894
249.0, 0.005162988704364937
250.0, 0.005805141911377674
251.0, 0.008799544474050028
252.0, 0.007885560870743177
253.0, 0.0061712091867105676
254.0, 0.00633581170002118
255.0, 0.008170561527818223
256.0, 0.00971033436556801
257.0, 0.010518927704820722
258.0, 0.01220459864795497
259.0, 0.014390499893069366
260.0, 0.014965929998782178
261.0, 0.016762086519720366
262.0, 0.018171038409608514
263.0, 0.018433625951841354
264.0, 0.01852100597959214
265.0, 0.02103302795963027
266.0, 0.023482525938636672
267.0, 0.024082597210844183
268.0, 0.024161608444922482
269.0, 0.026330509414233445
270.0, 0.027707683198707502
271.0, 0.028040282904009374
272.0, 0.02770844349924356
273.0, 0.02738528658028843
274.0, 0.028611684504434076
275.0, 0.028137893993562386
276.0, 0.02766652751037438
277.0, 0.02696818507604349
278.0, 0.025287944094169724
279.0, 0.025980014175195493
280.0, 0.024107027359715563
281.0, 0.022512805936260444
282.0, 0.021966587900035712
283.0, 0.01993934307762985
284.0, 0.01994271533372038
285.0, 0.018318071035382005
286.0, 0.016089819683920828
287.0, 0.015160870608505336
288.0, 0.014993520776054136
289.0, 0.01589619782441071
290.0, 0.01502729531307988
291.0, 0.013857097706525325
292.0, 0.014353481679117926
293.0, 0.014211843397085342
294.0, 0.01438209895996258
295.0, 0.015022924138941043
296.0, 0.015584428839532611
297.0, 0.015340842190099083
298.0, 0.017575316312700102
299.0, 0.018202631796581936
300.0, 0.0185641672306708
301.0, 0.02004501851637933
302.0, 0.02152768973908007
303.0, 0.02250593828062412
304.0, 0.024032966023688537
305.0, 0.026091390436192654
306.0, 0.027229365912260575
307.0, 0.02599484176934172
308.0, 0.026056155789469806
309.0, 0.02845712828746248
310.0, 0.03082669711522621
311.0, 0.03162366018289225
312.0, 0.03370955235831986
313.0, 0.03534594073346892
314.0, 0.03776364640331283
315.0, 0.039890814386142906
316.0, 0.04015222991589559
317.0, 0.04202235894636423
318.0, 0.043093242033875975
319.0, 0.0430574984265425
320.0, 0.04213882918508655
321.0, 0.04016288332968505
322.0, 0.035910135532872006
323.0, 0.031208695077348667
324.0, 0.026507480499816376
325.0, 0.022161708417174065
326.0, 0.019895610300245885
327.0, 0.017783944980267398
328.0, 0.015946138604035265
329.0, 0.012973841477734413
330.0, 0.00847239126936115
331.0, 0.00815198718671707
332.0, 0.007953835741971062
333.0, 0.005854036980045543
334.0, 0.004114728989963635
335.0, 0.004536833960756124
336.0, 0.003142861861943391
337.0, 0.001669679065662979
338.0, 0.001253637689423701
339.0, 0.0015908927365210867
340.0, 0.0016584067472626598
341.0, 0.0003476682250371673
342.0, 0.0011944189721304686
343.0, 0.0012956807092345348
344.0, 0.0008448979696454542
345.0, 0.0010691918870033732
346.0, 0.0012363606387284715
347.0, 0.0010518564023238497
348.0, 0.0009525062067076268
349.0, 0.0008382319036987955
350.0, 0.0001971378498600516
351.0, 0.0003907998429348841
352.0, 0.0010899430344781169
353.0, 0.0011741416172349117
354.0, 0.0009688949696369723
355.0, 0.0009694294873728146
356.0, 0.0002913835355490646
357.0, 0.00028582925221616736
358.0, 0.00031619510083045154
359.0, 0.00023598396787618674
360.0, 0.0011226914224013477
361.0, 0.0014200505601496623
362.0, 0.002476901211725539
363.0, 0.0027515176509085564
364.0, 0.002072429956527186
365.0, 0.0027307781135855465
366.0, 0.003805516931931517
367.0, 0.004853336719630409
368.0, 0.005454441242435018
369.0, 0.005789691425051551
370.0, 0.006544755405190148
371.0, 0.007735434231083969
372.0, 0.007882120996172526
373.0, 0.008869784711570005
374.0, 0.010943798869648061
375.0, 0.011603014458784762
376.0, 0.012708181899015219
377.0, 0.014402145877816115
378.0, 0.01568417957758626
379.0, 0.016242734730316493
380.0, 0.017046416398569436
381.0, 0.019552355711389552
382.0, 0.021149818050544354
383.0, 0.021929857816401527
384.0, 0.02295284425503051
385.0, 0.02470208930430531
386.0, 0.02614768857314566
387.0, 0.026972466441938778
388.0, 0.02789949941397607
389.0, 0.029075591461269496
390.0, 0.02990370631794951
391.0, 0.03145803590971749
392.0, 0.03183974043437521
393.0, 0.03186439747918345
394.0, 0.03220853063074765
395.0, 0.03237991843973204
396.0, 0.0323448656565473
397.0, 0.03149159198005111
398.0, 0.029891139057283828
399.0, 0.028138308986976515
400.0, 0.026555010158726793
401.0, 0.02417469443681096
402.0, 0.022643268218652254
403.0, 0.020626786477096523
404.0, 0.017657086474376783
405.0, 0.01499325756305718
406.0, 0.013368431669925317
407.0, 0.012079266060287334
408.0, 0.010734549526346343
409.0, 0.009614639634688733
410.0, 0.008763015315535146
411.0, 0.006795741114964842
412.0, 0.005107370768015992
413.0, 0.004627586030953854
414.0, 0.004694066910322415
415.0, 0.0044476488424447114
416.0, 0.004191028033713849
417.0, 0.003619523509329374
418.0, 0.003545183979664595
419.0, 0.0025423119990356405
420.0, 0.0006686058351851871
421.0, 0.0016548094728021246
422.0, 0.0032828237513382176
423.0, 0.002806565899114452
424.0, 0.0015607346485378758
425.0, 0.0015016286072501385
426.0, 0.0026117709256330513
427.0, 0.002484927085613756
428.0, 0.003516809762302215
429.0, 0.004697564224455447
430.0, 0.0050570994220435405
431.0, 0.00485184349443849
432.0, 0.005018373108974276
433.0, 0.0052715102736246395
434.0, 0.005878029063769673
435.0, 0.006837931502420745
436.0, 0.007832684347590048
437.0, 0.008299157373032951
438.0, 0.009736287891354911
439.0, 0.010780597601897582
440.0, 0.0114496118494404
441.0, 0.012443948345188936
442.0, 0.013326978039492987
443.0, 0.014383869545892628
444.0, 0.0158139837612033
445.0, 0.016713242758432986
446.0, 0.01730589812603253
447.0, 0.018707470585865967
448.0, 0.019859273065715544
449.0, 0.020304810997770817
450.0, 0.020501317646299554
451.0, 0.021624093192435266
452.0, 0.023568719370564647
453.0, 0.022945927053382862
454.0, 0.02326110854079839
455.0, 0.024497465625982703
456.0, 0.02463486549182619
457.0, 0.023601773564966098
458.0, 0.023871350246220457
459.0, 0.02440536752066035
460.0, 0.025116473221425347
461.0, 0.024585406958036845
462.0, 0.022896043243386066
463.0, 0.021486942202056093
464.0, 0.021246996764680816
465.0, 0.019415461645696724
466.0, 0.01723170395797507
467.0, 0.015676779503434445
468.0, 0.014794897224855457
469.0, 0.014496450235034609
470.0, 0.013417202232717206
471.0, 0.012911861557854318
472.0, 0.012404757159262897
473.0, 0.011188960883856033
474.0, 0.009751756696599466
475.0, 0.009295228488794386
476.0, 0.009227546083618273
477.0, 0.008670011526599805
478.0, 0.007573429087804122
479.0, 0.006290039312950186
480.0, 0.005063418664042813
481.0, 0.004563778970771974
482.0, 0.004955366705406279
483.0, 0.0048128548921063325
484.0, 0.00399657035483533
485.0, 0.004510645810126261
486.0, 0.0034188895312474046
487.0, 0.0036507329331606584
488.0, 0.0034729113783169086
489.0, 0.002289493022138905
490.0, 0.0015422348397019588
491.0, 0.0023710878717546893
492.0, 0.0019202674949788418
493.0, 0.0011422273416143848
494.0, 0.0011820438442082728
495.0, 0.0015584669165418243
496.0, 0.0009652541688020839
497.0, 0.0010600702035954664
498.0, 0.0013574253446896358
499.0, 0.0011978141304392028
500.0, 0.0009271822361615167
501.0, 0.0012322834892597953
502.0, 0.0015092435770201896
503.0, 0.0001546464925460568
504.0, 0.00020314857461620976
505.0, 0.0009531966033054669
506.0, 0.0006680377646916038
507.0, 0.00033242088208768327
508.0, 6.729278652048148e-05
509.0, 0.0004138617072540969
510.0, 0.0007624293490343312
511.0, 0.000782290739505859
512.0, 0.0009785862850286869
513.0, 0.0011585625824687335
514.0, 0.00031783690458314016
515.0, 0.0017325344033740564
516.0, 0.0018206574293067232
517.0, 0.0005772519782900431
518.0, 0.001138180811910086
519.0, 0.000500241016233252
520.0, 0.00029682245252133776
521.0, 0.0010584987899039818
522.0, 0.0011611106251594907
523.0, 0.00013892103582939335
524.0, 2.525034281579107e-05
525.0, 2.4221284309267878e-05
526.0, 0.0005292867011767433
527.0, 0.00018380498431221234
528.0, 0.0002639132194753451
529.0, 2.5055139733431643e-05
530.0, 0.0002704057526337772
531.0, 0.0005300376937365361
532.0, 0.00046776533702833626
533.0, 0.0010041018310047785
534.0, 0.001098110111465829
535.0, 0.001549105524288308
536.0, 0.0002544739503225427
537.0, 6.837102399256126e-05
538.0, 0.00043910205085166167
539.0, 0.00014477317583953106
540.0, 0.0004199586509880235
541.0, 7.093603812049516e-05
542.0, 0.0008300456190074438
543.0, 0.00024049845020034712
544.0, 0.0004616396454414656
545.0, 0.0006494106321571962
546.0, 0.0003486462853550872
547.0, 0.0007331810439827031
548.0, 0.0012905016686152314
549.0, 0.0012428922765395755
550.0, 0.0014012509550724965
551.0, 0.002429721371476636
552.0, 0.0027834805971969617
553.0, 0.0010000583360070658
554.0, 0.0011901584067322967
555.0, 0.0017148533357231712
556.0, 0.002310914121364114
557.0, 0.0012957306661660036
558.0, 0.0003590082715400971
559.0, 0.001030548834793539
560.0, 0.002370613658127814
561.0, 0.0007743420304322669
562.0, 0.0012188557543230765
563.0, 0.0025669817369022656
564.0, 0.0014642607383989162
565.0, 0.00013970901255091881
566.0, 0.0013162070943696183
567.0, 0.0017547909030968675
568.0, 0.0011185356042007059
569.0, 0.0005899087771697857
570.0, 0.0007379904206815419
571.0, 0.0009988595638602386
572.0, 0.0006763673584414129
573.0, 0.00039232144890762787
574.0, 0.0008241944428020614
575.0, 0.0010523399357226678
576.0, 0.0002854932064318537
577.0, 0.0008429415535111201
578.0, 0.0006124379966496647
579.0, 0.0005393293311409207
580.0, 0.0009963255985034392
581.0, 0.001444755278554818
582.0, 0.0005198555976706205
583.0, 9.408754817405047e-05
584.0, 0.001002567572915245
585.0, 0.002079416075486567
586.0, 0.001603950535418529
587.0, 0.0013070918412495052
588.0, 0.001974376501987336
589.0, 0.0012318980233703835
590.0, 0.001845811755641888
591.0, 0.0009588302897242678
592.0, 0.0006437454261898754
593.0, 0.0011000529155947509
594.0, 0.001314384700271386
595.0, 0.0013861737141700786
596.0, 0.0013944332347655822
597.0, 0.0012686504815554586
598.0, 0.001021611394759115
599.0, 0.0011211461504877865
600.0, 0.001555963573120227
601.0, 0.0021342378383146965
602.0, 0.003160200786189247
603.0, 0.0022710018244119596
604.0, 0.0013220772832581436
605.0, 0.0027780229258380974
606.0, 0.0040970474062239255
607.0, 0.0027751639971559526
608.0, 0.0051946801568895085
609.0, 0.005189023932714573
610.0, 0.003951789184975443
611.0, 0.003083716955852025
612.0, 0.003219022420959011
613.0, 0.004033996836306478
614.0, 0.004021625620926898
615.0, 0.004072672350377565
616.0, 0.003632079104248671
617.0, 0.005110621011065552
618.0, 0.006547174817216186
619.0, 0.005097046956051562
620.0, 0.004083207806999635
621.0, 0.004389203191250199
622.0, 0.004314992521067392
623.0, 0.004152319175482952
624.0, 0.004323658244087092
625.0, 0.004411530750419592
626.0, 0.004049137174593675
627.0, 0.004332542785130153
628.0, 0.0039791979177191674
629.0, 0.004571196953795854
630.0, 0.005102127605427865
631.0, 0.004860281544723513
632.0, 0.004591016381492241
633.0, 0.003312526646000071
634.0, 0.003398761101543377
635.0, 0.003899594674725501
636.0, 0.0043888130232142926
637.0, 0.004454239014808431
638.0, 0.004057506104502146
639.0, 0.0036901438660369612
640.0, 0.002969252956094329
641.0, 0.0023962910302045546
642.0, 0.004389449671137235
643.0, 0.006561821245140628
644.0, 0.00585119031266477
645.0, 0.004429550546191522
646.0, 0.004210786147580986
647.0, 0.004077543768745472
648.0, 0.003548957597049903
649.0, 0.0027855969343584105
650.0, 0.002334395902244624
651.0, 0.002753457646147974
652.0, 0.003330685426973523
653.0, 0.0037599720645433814
654.0, 0.004481369000315803
655.0, 0.005104059037899351
656.0, 0.004579079066500146
657.0, 0.0035050312852846007
658.0, 0.0036074127533873845
659.0, 0.0033224830548173223
660.0, 0.0035206671143664056
661.0, 0.005570820918460104
662.0, 0.006081711549513499
663.0, 0.004773164960786446
664.0, 0.0043854415441836915
665.0, 0.004297708336142075
666.0, 0.003414329444709643
667.0, 0.0034567078091888243
668.0, 0.0039481960530316955
669.0, 0.0038611354545774034
670.0, 0.0031647005805488506
671.0, 0.002644482877211645
672.0, 0.002660405571769889
673.0, 0.003350275019927448
674.0, 0.0036037591559839894
675.0, 0.0038192602410662625
676.0, 0.0037154621170723363
677.0, 0.0032138384825002786
678.0, 0.003562640770333812
679.0, 0.0038002105501995626
680.0, 0.0036721511098640296
681.0, 0.0025970928105562966
682.0, 0.0025610880757077057
683.0, 0.0034147316757702187
684.0, 0.003671923800778105
685.0, 0.0036433399210854815
686.0, 0.0026575937399685857
687.0, 0.0032632199061856664
688.0, 0.002357796346922568
689.0, 0.001470805162340494
690.0, 0.002023487943446199
691.0, 0.002747410066451608
692.0, 0.0027790048419172736
693.0, 0.002380539935618864
694.0, 0.002451793697381326
695.0, 0.0029213275147876258
696.0, 0.0025446203255599657
697.0, 0.0018696513024323074
698.0, 0.002058865821375925
699.0, 0.0011989863752387788
700.0, 0.0014817465836494182
701.0, 0.001601620779347908
702.0, 0.0017494915844406351
703.0, 0.0013283314683467983
704.0, 0.001006569392926305
705.0, 0.001997633501246126
706.0, 0.0017456182026072953
707.0, 0.0012166215391110965
708.0, 0.0002650444163158951
709.0, 0.00038026915327480255
710.0, 0.001040626513536872
711.0, 0.0008454785409487014
712.0, 0.000511174877559831
713.0, 0.00047808546960751433
714.0, 0.0002647847014571314
715.0, 0.0002988727620981567
716.0, 0.0003473797597834309
717.0, 0.000593998464724615
718.0, 0.0009954163647205496
719.0, 0.0006902322654790879
720.0, 0.00027778834059202827
721.0, 0.0007170697099443988
722.0, 0.0007855311524399979
723.0, 0.0010458260006316476
724.0, 0.0010732657854462683
725.0, 0.0003525110823063094
726.0, 3.572435611884306e-05
727.0, 0.00015626601053597014
728.0, 5.663872726654378e-06
729.0, 0.0005054060263944305
730.0, 0.0010955290796879748
731.0, 0.0010752095299132623
732.0, 0.0005944780057525828
733.0, 0.00042885578054426893
734.0, 0.0006390316379825442
735.0, 0.0010590687596089192
736.0, 0.000538325856114423
737.0, 0.001237877042053686
738.0, 0.000984234654932943
739.0, 4.031079725381832e-05
740.0, 0.00026365993652942705
741.0, 0.0006330070379027802
742.0, 5.3014193245851413e-05
743.0, 0.00048511816543297617
744.0, 0.0008497894394604024
745.0, 0.001157264013808876
746.0, 0.0016229966940645372
747.0, 0.001764258106232433
748.0, 0.001515940215371598
749.0, 0.0028933491003259727
750.0, 0.004151476418467832
751.0, 0.004045026426843402
752.0, 0.00409739943771218
753.0, 0.005681821240773227
754.0, 0.007028040075205443
755.0, 0.006979361025904164
756.0, 0.009298053903343243
757.0, 0.010917247057923098
758.0, 0.011734920883128013
759.0, 0.01329734470086314
760.0, 0.015704603540134192
761.0, 0.0179232225444232
762.0, 0.019691029655400413
763.0, 0.02217085318278658
764.0, 0.022743629691805062
765.0, 0.025637210257701906
766.0, 0.02929067382384651
767.0, 0.03213140868032283
768.0, 0.03514535546150398
769.0, 0.038869477346132233
770.0, 0.04243663403821058
771.0, 0.04874797288678401
772.0, 0.05395231268538455
773.0, 0.057795193475235276
774.0, 0.06272805728493193
775.0, 0.0692514934827812
776.0, 0.07596229759109273
777.0, 0.0825995145117318
778.0, 0.09071125123180158
779.0, 0.09923721181085245
780.0, 0.10904433139768561
781.0, 0.11955647474893255
782.0, 0.13088462988314278
783.0, 0.142990295497204
784.0, 0.156326563384299
785.0, 0.1714009199225187
786.0, 0.1873803700709825
787.0, 0.2068453070078369
788.0, 0.22493282442717052
789.0, 0.24453167894517697
790.0, 0.26689526630492594
791.0, 0.29139834639332446
792.0, 0.3183634879674072
793.0, 0.3475027526875109
794.0, 0.3771969759387085
795.0, 0.41017575505294696
796.0, 0.44569285822986887
797.0, 0.483468661847502
798.0, 0.5217010485754657
799.0, 0.5615066092890184
800.0, 0.6046165818615311
801.0, 0.6478450319776715
802.0, 0.6930245389133785
803.0, 0.7377801118278557
804.0, 0.7820664707885467
805.0, 0.8280721912222432
806.0, 0.871428410212828
807.0, 0.9086456726512437
808.0, 0.9406059478838806
809.0, 0.967465431511678
810.0, 0.9854569692233439
811.0, 0.9971454275406019
812.0, 0.9999428972393812
813.0, 0.998305941730726
814.0, 0.9938689038344054
815.0, 0.9851496499397804
816.0, 0.9722293275631358
817.0, 0.9564953750537718
818.0, 0.932016604433287
819.0, 0.8980677489060763
820.0, 0.8558596716425728
821.0, 0.803807331130754
822.0, 0.7413027248630967
823.0, 0.6688874288635898
824.0, 0.5878032203707501
825.0, 0.5021541664826499
826.0, 0.42000872466665207
827.0, 0.34803799000800456
828.0, 0.2879386999663675
829.0, 0.23849098450118
830.0, 0.19815374944147882
831.0, 0.16626873232539044
832.0, 0.14025070253662145
833.0, 0.11810191277868286
834.0, 0.099305650627708
835.0, 0.08415247914778848
836.0, 0.07225697107399419
837.0, 0.06113624056787283
838.0, 0.05206417271019927
839.0, 0.045650310838924714
840.0, 0.03961924686510729
841.0, 0.03304838198751602
842.0, 0.028454699909250147
843.0, 0.02374323776438657
844.0, 0.019481383166233174
845.0, 0.015521553648544044
846.0, 0.013090582254249118
847.0, 0.011195715105874722
848.0, 0.008551393808584875
849.0, 0.0064191811141489094
850.0, 0.005469787207419451
851.0, 0.0040544165954018285
852.0, 0.002986217136185949
853.0, 0.0015553236167721975
854.0, 0.0009546064036495759
855.0, 0.000393120830310502
856.0, 0.001371692982599311
857.0, 0.0014041540806646832
858.0, 0.0015307503859792156
859.0, 0.0021195816174832613
860.0, 0.0021138690277533625
861.0, 0.002139976859312602
862.0, 0.0014555144577582887
863.0, 0.0005628705341240794
864.0, 9.177705915990064e-05
865.0, 0.0001694073858266184
866.0, 0.0002753292526721335
867.0, 0.0021735553309350664
868.0, 0.00267442879733984
869.0, 0.002204711528686253
870.0, 0.003953562551083259
871.0, 0.00572048274663528
872.0, 0.005998677556610139
873.0, 0.007392011163371362
874.0, 0.009838840021288821
875.0, 0.010428224249368174
876.0, 0.01228137229648117
877.0, 0.015016751115069676
878.0, 0.015832174152200514
879.0, 0.01940565346667493
880.0, 0.02265988490540562
881.0, 0.024088591561554476
882.0, 0.02641675496814351
883.0, 0.03022359100681444
884.0, 0.03315797404322093
885.0, 0.03660571929229138
886.0, 0.03862121409658316
887.0, 0.04210555368918476
888.0, 0.045656833657937594
889.0, 0.04908236428924451
890.0, 0.05240456384416503
891.0, 0.054557458405838435
892.0, 0.05685422174076399
893.0, 0.060150248356777604
894.0, 0.0623783784689555
895.0, 0.06214697490305845
896.0, 0.06132511248048484
897.0, 0.0589933190413267
898.0, 0.05632757292081106
899.0, 0.054277882063862
900.0, 0.05190195087140399
901.0, 0.04857745671400819
902.0, 0.04528127378744776
903.0, 0.04301791771337152
904.0, 0.039569089441820075
905.0, 0.037461318874580346
906.0, 0.0348733259197702
907.0, 0.03273411428527107
908.0, 0.0303729273036854
909.0, 0.027785447744373682
910.0, 0.025321632405208478
911.0, 0.022990258347788933
912.0, 0.020924072207329777
913.0, 0.018605040572011778
914.0, 0.016126524547143813
915.0, 0.014907426671149672
916.0, 0.014059313970516825
917.0, 0.012593230887424462
918.0, 0.010613314362250364
919.0, 0.009011381849366413
920.0, 0.007983542636769127
921.0, 0.006303506450599127
922.0, 0.005615436339308296
923.0, 0.005141525215582107
924.0, 0.00473146065525474
925.0, 0.003754177129508814
926.0, 0.003219441876978871
927.0, 0.0018491207003595964
928.0, 0.0007586198071326678
929.0, 0.0010578647830068808
930.0, 0.0012468411417889957
931.0, 0.0009058312727713955
932.0, 0.001071514803645525
933.0, 0.0007226943904378995
934.0, 0.0006556956498085187
935.0, 0.0004509416200144522
936.0, 0.00028401125489331487
937.0, 0.00047838208649821854
938.0, 0.0005756107975005178
939.0, 0.0005467934968622029
940.0, 0.0005454695099385565
941.0, 0.00022225360170419686
942.0, 0.0006610196246376659
943.0, 0.0009474266287495227
944.0, 0.0005104675802435733
945.0, 0.0010254068002091114
946.0, 0.0014871570878028522
947.0, 0.0011437125254389405
948.0, 0.00025252794477794566
949.0, 0.00031065195677218324
950.0, 0.0005469854967699542
951.0, 0.0017387657914665266
952.0, 0.001076094660442845
953.0, 0.00014127857553760873
954.0, 0.00018020177352543178
955.0, 0.0010966907045884893
956.0, 0.00122982710623812
957.0, 0.0010169132571105162
958.0, 0.0011417003339330818
959.0, 0.0012692038844110958
960.0, 0.0010294773935458487
961.0, 0.0009779403960843878
962.0, 0.0025460869567909606
963.0, 0.0024137936710449132
964.0, 0.0022226724296090065
965.0, 0.003147016933622275
966.0, 0.0028737753687067334
967.0, 0.0034300075682190847
968.0, 0.0035103587887719357
969.0, 0.002816091644781819
970.0, 0.003324162330478991
971.0, 0.003052078744275259
972.0, 0.0033645525959497447
973.0, 0.0037755505513101984
974.0, 0.005953903615035249
975.0, 0.006312348625810457
976.0, 0.007091102526173548
977.0, 0.0068784170439227035
978.0, 0.007163920061940708
979.0, 0.009000648728809015
980.0, 0.010074562661523536
981.0, 0.01078226040068596
982.0, 0.012968714877372592
983.0, 0.013617554459742776
984.0, 0.014651773922788013
985.0, 0.015462827823317154
986.0, 0.018720302629213793
987.0, 0.023098531892638326
988.0, 0.024724136750902213
989.0, 0.022488581570186267
990.0, 0.01761016246988614
991.0, 0.012473458274330612
992.0, 0.010130390324229402
993.0, 0.00906506426492712
994.0, 0.006361968025209839
995.0, 0.006536100334939505
996.0, 0.005992071131527768
997.0, 0.005571290413993182
998.0, 0.005335495568087927
999.0, 0.004487428485336965
1000.0, 0.0059233228538104485
1001.0, 0.00796068111450741
1002.0, 0.006680230612336989
1003.0, 0.0042109377042935155
1004.0, 0.004197892541914042
1005.0, 0.003854072980567092
1006.0, 0.0037349160143793133
1007.0, 0.004384400234676422
1008.0, 0.004571299821417511
1009.0, 0.004428760151186502
1010.0, 0.004047254349223407
1011.0, 0.003761194800701882
1012.0, 0.00419602697734891
1013.0, 0.004531223255951132
1014.0, 0.0037213419964274527
1015.0, 0.003972643268980895
1016.0, 0.004869155243696083
1017.0, 0.003988627003375061
1018.0, 0.0036299909790133335
1019.0, 0.0031710713782396316
1020.0, 0.0039029483505601177
1021.0, 0.004196048336727911
1022.0, 0.004216313529715069
1023.0, 0.0043882691910047955
1024.0, 0.0047069053416231715
1025.0, 0.005207982884927295
1026.0, 0.0049510919912605965
1027.0, 0.0050970750184810626
1028.0, 0.0052692377990219
1029.0, 0.005868247769625765
1030.0, 0.0042152380271237196
1031.0, 0.0045370845510714205
1032.0, 0.005235094641829346
1033.0, 0.004577519945001319
1034.0, 0.003385505418608103
1035.0, 0.00342701865248589
1036.0, 0.004506991130869782
1037.0, 0.0045475809482314515
1038.0, 0.0035521811630108086
1039.0, 0.00423249101730235
1040.0, 0.004546395403252489
1041.0, 0.0032646565171863843
1042.0, 0.003452832372025088
1043.0, 0.0037946864064310024
1044.0, 0.004353808016988311
1045.0, 0.004869826686985276
1046.0, 0.004663638074271409
1047.0, 0.003707615732631139
1048.0, 0.002932532852246882
1049.0, 0.002839386137160814
1050.0, 0.002841275715960057
1051.0, 0.002930282936290793
1052.0, 0.003319104158102194
1053.0, 0.0028283512666172697
1054.0, 0.0022448889531309396
1055.0, 0.0027230988403069765
1056.0, 0.0029091570509778685
1057.0, 0.002854308074163262
1058.0, 0.0025024905252892713
1059.0, 0.0021259174440908016
1060.0, 0.0025615041478651165
1061.0, 0.0024643038550350963
1062.0, 0.0014272542896533874
1063.0, 0.001951767083242799
1064.0, 0.0019193273891399828
1065.0, 0.0019313760874910275
1066.0, 0.0012299993520224661
1067.0, 0.0007922575563485825
1068.0, 0.0005754471454657046
1069.0, 0.0014009968615044531
1070.0, 0.0016632098765806886
1071.0, 0.0013350864778938131
1072.0, 0.00045259630508251626
1073.0, 0.001960717394413363
1074.0, 0.0036914745270589457
1075.0, 0.001703528253541759
1076.0, 0.00022740627650250602
1077.0, 0.0004524633146515927
1078.0, 0.0008822072297461379
1079.0, 0.0011475897108804826
1080.0, 0.0007477784166546243
1081.0, 0.0007354022078466837
1082.0, 0.0007644833257103618
1083.0, 0.0013988689930371854
1084.0, 0.00117060247879636
1085.0, 0.00031890041581773696
1086.0, 0.00027172631855454615
1087.0, 0.00024632501397330215
1088.0, 0.00018057713883438321
1089.0, 0.0007952879585708095
1090.0, 0.0011497455924385027
1091.0, 0.000904953637045014
1092.0, 0.0007062717660298902
1093.0, 0.0009443664182804995
1094.0, 0.000748105004211456
1095.0, 0.00012662596193413546
1096.0, 4.397776732794278e-05
1097.0, 0.00018675885722135952
1098.0, 7.362824565437216e-05
1099.0, 0.001374691967499479
1100.0, 0.001132381895706433
1101.0, 0.00020735665162047065
1102.0, 0.0006484653104169432
1103.0, 0.0010254927593669864
1104.0, 0.0012192691500580105
1105.0, 0.0007640394474991748
1106.0, 0.0008248107036960674
1107.0, 0.0005520853525751311
1108.0, 0.0012492061344416005
1109.0, 0.0007348603838646976
1110.0, 7.574512404612428e-05
1111.0, 0.0005205384176553319
1112.0, 0.0002349386755714937
1113.0, 0.00034551848779975215
1114.0, 0.0004990516358119259
1115.0, 0.001418476327095759
1116.0, 0.0038835605555402742
1117.0, 0.0027378576950756275
1118.0, 0.0009369290320433574
1119.0, 0.00030812414865188676
1120.0, 0.00011723917119081203
1121.0, 0.00045729663893752154
1122.0, 0.00016482202995359306
1123.0, 0.00012774097003504653
1124.0, 0.00013734121504544003
1125.0, 0.0011552984743953187
1126.0, 0.000736121400155073
1127.0, 5.745690771924311e-05
1128.0, 5.14315254783943e-05
1129.0, 0.000335031915649357
1130.0, 0.00032643987883142407
1131.0, 0.0007265950093372446
1132.0, 0.0016301517197915628
1133.0, 0.0015392771816667339
1134.0, 0.0006066626639407194
1135.0, 0.0012227280525769105
1136.0, 0.0009254366185536671
1137.0, 0.0004445029338252165
1138.0, 0.0006967962187496193
1139.0, 0.000773661666031032
1140.0, 0.0007696192637293255
1141.0, 0.0009977978429013652
1142.0, 0.0009642730062817452
1143.0, 0.001591417189808491
1144.0, 0.0015148580517266382
1145.0, 0.0012208873309463922
1146.0, 0.00075190110707799
1147.0, 0.0002259112172649283
1148.0, 0.0007313101850677657
1149.0, 0.0010470387445538187
1150.0, 0.0011158518725931216
1151.0, 0.002318788360441218
1152.0, 0.0021056757289425005
1153.0, 0.0020164722602767533
1154.0, 0.0018699841485202275
1155.0, 0.0008617101289628159
1156.0, 0.0023650228306570324
1157.0, 0.0012277377279779718
1158.0, 0.002091267022740978
1159.0, 0.0003624049729724746
1160.0, 0.000270607121447958
1161.0, 0.0006477080131521024
1162.0, 3.368234452801093e-05
1163.0, 0.00014186585957055563
1164.0, 0.0006734283433227118
1165.0, 0.0006239774616170098
1166.0, 0.0014838020555639694
1167.0, 0.0017107750529839795
1168.0, 0.0021448263918473287
1169.0, 0.0023484936335321036
1170.0, 0.0008352392854465233
1171.0, 0.0008515830694202262
1172.0, 0.0008484071102209553
1173.0, 0.0004954167600205133
1174.0, 0.0011647535780858356
1175.0, 0.0015662000879678797
1176.0, 0.0007053296046655808
1177.0, 0.0010665940506844657
1178.0, 0.001423612859066519
1179.0, 0.0010417843123061183
1180.0, 0.0002789177611039591
1181.0, 0.0002791669658124963
1182.0, 0.00015280130202385822
1183.0, 0.0006001541115959741
1184.0, 0.0004834579296864553
1185.0, 0.0004932706661688826
1186.0, 0.0015723332139691308
1187.0, 0.0017265646092876345
1188.0, 0.0009946024661389862
1189.0, 0.00011559822936485175
1190.0, 0.0007531733573342177
1191.0, 0.00019358188503786286
1192.0, 0.0008293805464035906
1193.0, 0.0011490528331640803
1194.0, 0.0008097723254852715
1195.0, 0.0009405489143918248
1196.0, 0.0008246996824904138
1197.0, 0.0006285036963430548
1198.0, 0.0004844380705502445
1199.0, 0.0004257279501772385
1200.0, 0.0008452934009882799
1201.0, 0.0009493676099144401
1202.0, 0.000884515330630407
1203.0, 0.0007490853954891653
1204.0, 0.0007653731382140197
1205.0, 0.0008172995430175599
1206.0, 0.000565494670971146
1207.0, 0.0006432280804851416
1208.0, 0.0010535702732984453
1209.0, 0.0020150179481342907
1210.0, 0.0015182931798825344
1211.0, 0.0016087334132458629
1212.0, 0.0010634304018027107
1213.0, 0.00080130467818696
1214.0, 0.0007748983788971435
1215.0, 0.0004347534907801201
1216.0, 0.0016958499217177123
1217.0, 0.0014171825917946032
1218.0, 0.0010944710374740272
1219.0, 0.0011460308227603877
1220.0, 0.000532944195702923
1221.0, 9.244174519270353e-05
1222.0, 0.00030199494888294513
1223.0, 0.00016052520152750693
1224.0, 0.00010613164380258682
1225.0, 0.0015227398108429379
1226.0, 0.003149412819460979
1227.0, 0.00251332334659416
1228.0, 0.002267544829569716
1229.0, 0.0023542331349268157
1230.0, 0.001012632596391133
1231.0, 0.0010242458685519075
1232.0, 0.0018312353692020345
1233.0, 0.0004056687609876004
1234.0, 0.00036437182523177245
1235.0, 0.0013391608216280506
1236.0, 0.0013152566962093433
1237.0, 0.0013364808891524658
1238.0, 0.0014619286348335917
1239.0, 0.0012070423945246046
1240.0, 0.00031251525969125664
1241.0, 9.511545457940325e-05
1242.0, 0.0009580319825698354
1243.0, 0.0006930465948320361
1244.0, 0.0008636123884128041
1245.0, 0.0012762787989790778
1246.0, 0.0011540233968319483
1247.0, 0.0008484933098869533
1248.0, 0.0010691460384305764
1249.0, 0.0025249129854216764
1250.0, 0.0017469565151033463
1251.0, 0.0007771549602238614
1252.0, 0.0005899399634383809
1253.0, 0.0006071168463647357
1254.0, 0.0008542522764017044
1255.0, 0.0014819937888589294
1256.0, 8.090892327767733e-05
1257.0, 9.638197145866935e-05
1258.0, 0.0003896984874018181
1259.0, 0.0012275772385219722
1260.0, 0.0015230784763329032
1261.0, 0.0013206666598731395
1262.0, 0.0011748294528922554
1263.0, 0.000632681702073578
1264.0, 0.0005439847695139747
1265.0, 0.0011435031801258597
1266.0, 0.0018830515381541377
1267.0, 0.0013136435520120933
1268.0, 0.0007596841863453301
1269.0, 0.0015954895977932136
1270.0, 0.001960343506740416
1271.0, 0.001361790440013041
1272.0, 0.0012041051119679063
1273.0, 0.0012396980550913523
1274.0, 0.0016348630093685624
1275.0, 0.0015720533343689116
1276.0, 0.0013663530673481365
1277.0, 0.0026466220297593104
1278.0, 0.0010757527197643728
1279.0, 0.0007093306924799565
1280.0, 7.392930652337866e-05
1281.0, 0.0017783270016031847
1282.0, 0.004624011493182892
1283.0, 0.000852776798838267
1284.0, 0.0004223347256394196
1285.0, 0.00010454335037487353
1286, 0.0
1287, 0.0
1288, 0.0
1289, 0.0
1290, 0.0
1291, 0.0
1292, 0.0
1293, 0.0
1294, 0.0
1295, 0.0
1296, 0.0
1297, 0.0
1298, 0.0
1299, 0.0
1300, 0.0
1301, 0.0
1302, 0.0
1303, 0.0
1304, 0.0
1305, 0.0
1306, 0.0
1307, 0.0
1308, 0.0
1309, 0.0
1310, 0.0
1311, 0.0
1312, 0.0
1313, 0.0
1314, 0.0
1315, 0.0
1316, 0.0
1317, 0.0
1318, 0.0
1319, 0.0
1320, 0.0
1321, 0.0
1322, 0.0
1323, 0.0
1324, 0.0
1325, 0.0
1326, 0.0
1327, 0.0
1328, 0.0
1329, 0.0
1330, 0.0
1331, 0.0
1332, 0.0
1333, 0.0
1334, 0.0
1335, 0.0
1336, 0.0
1337, 0.0
1338, 0.0
1339, 0.0
1340, 0.0
1341, 0.0
1342, 0.0
1343, 0.0
1344, 0.0
1345, 0.0
1346, 0.0
1347, 0.0
1348, 0.0
1349, 0.0
1350, 0.0
1351, 0.0
1352, 0.0
1353, 0.0
1354, 0.0
1355, 0.0
1356, 0.0
1357, 0.0
1358, 0.0
1359, 0.0
1360, 0.0
1361, 0.0
1362, 0.0
1363, 0.0
1364, 0.0
1365, 0.0
1366, 0.0
1367, 0.0
1368, 0.0
1369, 0.0
1370, 0.0
1371, 0.0
1372, 0.0
1373, 0.0
1374, 0.0
1375, 0.0
1376, 0.0
1377, 0.0
1378, 0.0
1379, 0.0
1380, 0.0
1381, 0.0
1382, 0.0
1383, 0.0
1384, 0.0
1385, 0.0
1386, 0.0
1387, 0.0
1388, 0.0
1389, 0.0
1390, 0.0
1391, 0.0
1392, 0.0
1393, 0.0
1394, 0.0
1395, 0.0
1396, 0.0
1397, 0.0
1398, 0.0
1399, 0.0
1400, 0.0
1401, 0.0
1402, 0.0
1403, 0.0
1404, 0.0
1405, 0.0
1406, 0.0
1407, 0.0
1408, 0.0
1409, 0.0
1410, 0.0
1411, 0.0
1412, 0.0
1413, 0.0
1414, 0.0
1415, 0.0
1416, 0.0
1417, 0.0
1418, 0.0
1419, 0.0
1420, 0.0
1421, 0.0
1422, 0.0
1423, 0.0
1424, 0.0
1425, 0.0
1426, 0.0
1427, 0.0
1428, 0.0
1429, 0.0
1430, 0.0
1431, 0.0
1432, 0.0
1433, 0.0
1434, 0.0
1435, 0.0
1436, 0.0
1437, 0.0
1438, 0.0
1439, 0.0
1440, 0.0
1441, 0.0
1442, 0.0
1443, 0.0
1444, 0.0
1445, 0.0
1446, 0.0
1447, 0.0
1448, 0.0
1449, 0.0
1450, 0.0
1451, 0.0
1452, 0.0
1453, 0.0
1454, 0.0
1455, 0.0
1456, 0.0
1457, 0.0
1458, 0.0
1459, 0.0
1460, 0.0
1461, 0.0
1462, 0.0
1463, 0.0
1464, 0.0
1465, 0.0
1466, 0.0
1467, 0.0
1468, 0.0
1469, 0.0
1470, 0.0
1471, 0.0
1472, 0.0
1473, 0.0
1474, 0.0
1475, 0.0
1476, 0.0
1477, 0.0
1478, 0.0
1479, 0.0
1480, 0.0
1481, 0.0
1482, 0.0
1483, 0.0
1484, 0.0
1485, 0.0
1486, 0.0
1487, 0.0
1488, 0.0
1489, 0.0
1490, 0.0
1491, 0.0
1492, 0.0
1493, 0.0
1494, 0.0
1495, 0.0
1496, 0.0
1497, 0.0
1498, 0.0
1499, 0.0
1500, 0.0
1501, 0.0
1502, 0.0
1503, 0.0
1504, 0.0
1505, 0.0
1506, 0.0
1507, 0.0
1508, 0.0
1509, 0.0
1510, 0.0
1511, 0.0
1512, 0.0
1513, 0.0
1514, 0.0
1515, 0.0
1516, 0.0
1517, 0.0
1518, 0.0
1519, 0.0
1520, 0.0
1521, 0.0
1522, 0.0
1523, 0.0
1524, 0.0
1525, 0.0
1526, 0.0
1527, 0.0
1528, 0.0
1529, 0.0
1530, 0.0
1531, 0.0
1532, 0.0
1533, 0.0
1534, 0.0
1535, 0.0
1536, 0.0
1537, 0.0
1538, 0.0
1539, 0.0
1540, 0.0
1541, 0.0
1542, 0.0
1543, 0.0
1544, 0.0
1545, 0.0
1546, 0.0
1547, 0.0
1548, 0.0
1549, 0.0
1550, 0.0
1551, 0.0
1552, 0.0
1553, 0.0
1554, 0.0
1555, 0.0
1556, 0.0
1557, 0.0
1558, 0.0
1559, 0.0
1560, 0.0
1561, 0.0
1562, 0.0
1563, 0.0
1564, 0.0
1565, 0.0
1566, 0.0
1567, 0.0
1568, 0.0
1569, 0.0
1570, 0.0
1571, 0.0
1572, 0.0
1573, 0.0
1574, 0.0
1575, 0.0
1576, 0.0
1577, 0.0
1578, 0.0
1579, 0.0
1580, 0.0
1581, 0.0
1582, 0.0
1583, 0.0
1584, 0.0
1585, 0.0
1586, 0.0
1587, 0.0
1588, 0.0
1589, 0.0
1590, 0.0
1591, 0.0
1592, 0.0
1593, 0.0
1594, 0.0
1595, 0.0
1596, 0.0
1597, 0.0
1598, 0.0
1599, 0.0
