30, 0.0
31, 0.0
32, 0.0
33, 0.0
34, 0.0
35, 0.0
36, 0.0
37, 0.0
38, 0.0
39, 0.0
40, 0.0
41, 0.0
42, 0.0
43, 0.0
44, 0.0
45, 0.0
46, 0.0
47, 0.0
48, 0.0
49, 0.0
50, 0.0
51, 0.0
52, 0.0
53, 0.0
54, 0.0
55, 0.0
56, 0.0
57, 0.0
58, 0.0
59, 0.0
60, 0.0
61, 0.0
62, 0.0
63, 0.0
64, 0.0
65, 0.0
66, 0.0
67, 0.0
68, 0.0
69, 0.0
70, 0.0
71, 0.0
72, 0.0
73, 0.0
74, 0.0
75, 0.0
76, 0.0
77, 0.0
78, 0.0
79, 0.0
80, 0.0
81, 0.0
82, 0.0
83, 0.0
84, 0.0
85, 0.0
86, 0.0
87, 0.0
88, 0.0
89, 0.0
90, 0.0
91, 0.0
92, 0.0
93, 0.0
94, 0.0
95, 0.0
96, 0.0
97, 0.0
98, 0.0
99, 0.0
100, 0.0
101, 0.0
102, 0.0
103, 0.0
104, 0.0
105, 0.0
106, 0.0
107, 0.0
108, 0.0
109, 0.0
110, 0.0
111, 0.0
112, 0.0
113.0, 8.511586640398923e-07
114.0, 8.519254736471059e-06
115.0, 0.0005050036464236904
116.0, 0.00037812535854337944
117.0, 0.00026876993091285134
118.0, 0.0007204331749201216
119.0, 0.00046569524007623875
120.0, 0.000498878214225235
121.0, 0.0006549484785841862
122.0, 0.0009278713211154508
123.0, 0.0012588720645042432
124.0, 0.00142593833069174
125.0, 0.0016605113520024991
126.0, 0.0021522580843507705
127.0, 0.00282224481781692
128.0, 0.0035478816281195066
129.0, 0.004180685415861698
130.0, 0.004512462629656582
131.0, 0.005255885728901625
132.0, 0.0057012275945224076
133.0, 0.005624990960603217
134.0, 0.005342510345762157
135.0, 0.006764919149909378
136.0, 0.005913484068859809
137.0, 0.005251606503777169
138.0, 0.005172871314721611
139.0, 0.005048440097962406
140.0, 0.005515457926505477
141.0, 0.005203123750063178
142.0, 0.005369733988424169
143.0, 0.005642980382499403
144.0, 0.005473131958682606
145.0, 0.005814125578081791
146.0, 0.006183101658226458
147.0, 0.006164416454277454
148.0, 0.00606572559723568
149.0, 0.006056910239544381
150.0, 0.005692065532970337
151.0, 0.0056285789889816825
152.0, 0.005406645238597004
153.0, 0.0050530328274053056
154.0, 0.004485004455908758
155.0, 0.0034594159523317243
156.0, 0.0030131642683796727
157.0, 0.0021411345218102164
158.0, 0.0021381299027225633
159.0, 0.0024433832481124264
160.0, 0.001571095222052284
161.0, 0.0017568378950458886
162.0, 0.0007425806088351633
163.0, 0.0006081807187401966
164.0, 0.0012519698854347252
165.0, 0.0017155778540408114
166.0, 0.00064049909963881
167.0, 0.0008376937685678309
168.0, 0.0006535426044724238
169.0, 0.00030867505123030283
170.0, 0.00015220535751800794
171.0, 0.0002180848540715645
172.0, 0.00010179828207327075
173.0, 0.00010886220735398868
174.0, 0.00011243636578688333
175.0, 7.271707802055623e-05
176.0, 6.151653763839624e-05
177.0, 0.0003392408452285119
178.0, 0.0005454892494100869
179.0, 0.0005742962051539109
180.0, 0.0004042331365580812
181.0, 0.00011185164829407307
182.0, 6.401318913386213e-05
183.0, 0.0002367437666616722
184.0, 0.0002540012764679707
185.0, 0.0005602695894339695
186.0, 0.0011543618446799302
187.0, 0.0007097537488323419
188.0, 0.0016539420936336033
189.0, 0.0021316238910030856
190.0, 0.002263388035659578
191.0, 0.0024957162144285346
192.0, 0.003379190154203254
193.0, 0.0035631168640053354
194.0, 0.003996759583028287
195.0, 0.004274745730509879
196.0, 0.0047797058913656406
197.0, 0.005930650067115622
198.0, 0.006788882617257405
199.0, 0.007371361982196586
200.0, 0.00844185386644988
201.0, 0.009821207045586687
202.0, 0.010861570901754524
203.0, 0.010406299958255252
204.0, 0.011754491478279127
205.0, 0.011842992163285665
206.0, 0.011909911751529122
207.0, 0.01203561745840592
208.0, 0.011498541237725843
209.0, 0.010826854743544518
210.0, 0.010354267583704268
211.0, 0.00979860522510984
212.0, 0.00936356486164341
213.0, 0.009230020616495489
214.0, 0.009145415184959009
215.0, 0.008756741967040517
216.0, 0.008455840951019769
217.0, 0.009173223748472422
218.0, 0.010102295003986992
219.0, 0.009023535364955973
220.0, 0.011227504043556491
221.0, 0.012448587572675234
222.0, 0.013199171669792675
223.0, 0.014624828758420609
224.0, 0.01755109049465174
225.0, 0.020741426486715127
226.0, 0.024957876758461398
227.0, 0.030397189111704675
228.0, 0.03573637204511403
229.0, 0.04044987880857795
230.0, 0.045342228885727365
231.0, 0.05254664024108738
232.0, 0.06162214754527746
233.0, 0.07073892313304674
234.0, 0.07908296364530962
235.0, 0.08635826805278
236.0, 0.09214317399244484
237.0, 0.09495486432782876
238.0, 0.09165503166261041
239.0, 0.08445657573143138
240.0, 0.07449924922263834
241.0, 0.06044669556610997
242.0, 0.047315811186782686
243.0, 0.036984844850565746
244.0, 0.02842086263280557
245.0, 0.02147278881573782
246.0, 0.01644783698780717
247.0, 0.014027797066721323
248.0, 0.012401846517787881
249.0, 0.012309259200629885
250.0, 0.012143503562867966
251.0, 0.011734063528014291
252.0, 0.012941575202236183
253.0, 0.01352305431023699
254.0, 0.014487601076590572
255.0, 0.01509540446918338
256.0, 0.015205205713938573
257.0, 0.015164902064534292
258.0, 0.016071700707293014
259.0, 0.01594572856567041
260.0, 0.01656084103148514
261.0, 0.015872639914534182
262.0, 0.014109079851643527
263.0, 0.013889622383925777
264.0, 0.014668430940792973
265.0, 0.015114435651422042
266.0, 0.016197981500456423
267.0, 0.017290831190288167
268.0, 0.018246479144691335
269.0, 0.0212160913740254
270.0, 0.022967605556805448
271.0, 0.02505114149055605
272.0, 0.027216461888778753
273.0, 0.028905816068715926
274.0, 0.029500786664094506
275.0, 0.028770985704712603
276.0, 0.028983588426124838
277.0, 0.026660696348559765
278.0, 0.023070452836694757
279.0, 0.019330782218833824
280.0, 0.01495719788139575
281.0, 0.011998544469759148
282.0, 0.009030414569495921
283.0, 0.006817476135077026
284.0, 0.005347258020554382
285.0, 0.004469620157034596
286.0, 0.004810043203884567
287.0, 0.005013471966200001
288.0, 0.004926186142678854
289.0, 0.005786566868190995
290.0, 0.0072145705647877
291.0, 0.007812663067470796
292.0, 0.010018009834716755
293.0, 0.011122685461477768
294.0, 0.012947173738075985
295.0, 0.015003433513014003
296.0, 0.016558936795436296
297.0, 0.01741087605707237
298.0, 0.020063898193270344
299.0, 0.020319057613122832
300.0, 0.020111408100375372
301.0, 0.01980780966630662
302.0, 0.0190609567763277
303.0, 0.017528351718457243
304.0, 0.016120183162118773
305.0, 0.01407968577155813
306.0, 0.012746683534410165
307.0, 0.012319116704363363
308.0, 0.012209524912108423
309.0, 0.013224249318884261
310.0, 0.014304953100620936
311.0, 0.016216755745844583
312.0, 0.018838897675624446
313.0, 0.021992892419253163
314.0, 0.025617789432231457
315.0, 0.029495700951859088
316.0, 0.034076279856591674
317.0, 0.0400362432820888
318.0, 0.046459717726967976
319.0, 0.05167059406298007
320.0, 0.053719586705012916
321.0, 0.05920876721335041
322.0, 0.06201162424168784
323.0, 0.06469216107207458
324.0, 0.06660765997378527
325.0, 0.06679769035326673
326.0, 0.06824333927289906
327.0, 0.07262146639106407
328.0, 0.07753177715979309
329.0, 0.08277986413413396
330.0, 0.08930363362515949
331.0, 0.09815745615676821
332.0, 0.10774148553469709
333.0, 0.11914335658059982
334.0, 0.1307706071543407
335.0, 0.14460551310328407
336.0, 0.15973561647880372
337.0, 0.1730145042209526
338.0, 0.18942098076655678
339.0, 0.20063632120955632
340.0, 0.2121968533281794
341.0, 0.21858149331572713
342.0, 0.21647247337370212
343.0, 0.2084353152290493
344.0, 0.193824480437062
345.0, 0.17572929809621124
346.0, 0.15439202635182345
347.0, 0.13365217510265093
348.0, 0.11468684850977288
349.0, 0.09287958793188797
350.0, 0.07851524307507124
351.0, 0.06653503016496638
352.0, 0.056059065155602154
353.0, 0.047254096415922715
354.0, 0.04040802700519668
355.0, 0.035237929188113574
356.0, 0.030109993125678733
357.0, 0.027141373263780053
358.0, 0.024625258731079434
359.0, 0.022187668012869897
360.0, 0.02004417685830394
361.0, 0.018167524332539306
362.0, 0.01666923854983243
363.0, 0.015431655925994247
364.0, 0.014369568436428596
365.0, 0.013563936743400578
366.0, 0.013052294455394874
367.0, 0.01249056062726565
368.0, 0.012467266729013582
369.0, 0.012559831463736197
370.0, 0.012270439777868698
371.0, 0.01218710435260996
372.0, 0.013007752947997176
373.0, 0.013652408167712063
374.0, 0.015584052036082912
375.0, 0.016175231893705164
376.0, 0.016824929325857843
377.0, 0.018373274645596346
378.0, 0.0204992511013295
379.0, 0.020861198591605446
380.0, 0.021592605293760787
381.0, 0.022444598197435967
382.0, 0.022647561976544023
383.0, 0.021826959008432973
384.0, 0.02015914626806908
385.0, 0.018604898962646894
386.0, 0.016270106049163215
387.0, 0.01442173669974275
388.0, 0.012849319656980582
389.0, 0.011345760698568049
390.0, 0.009889191193031558
391.0, 0.008829453432177167
392.0, 0.007869674821533083
393.0, 0.007004675074227155
394.0, 0.006760596233682888
395.0, 0.00666263995418316
396.0, 0.0061676167951440165
397.0, 0.006681051155758098
398.0, 0.006287108539345471
399.0, 0.006188029378127866
400.0, 0.0052758046295387495
401.0, 0.0047646553121822935
402.0, 0.005720420756630777
403.0, 0.00459947612462354
404.0, 0.004895830750474873
405.0, 0.004880495608495516
406.0, 0.0041298273447740825
407.0, 0.003666513612630176
408.0, 0.004176726309384881
409.0, 0.0036862040060814433
410.0, 0.002734623094453019
411.0, 0.0025906022051534906
412.0, 0.0028088733956308184
413.0, 0.003111554389363396
414.0, 0.0031845747214868667
415.0, 0.0024902244244119883
416.0, 0.0022556458130188863
417.0, 0.0026595387601434377
418.0, 0.002169104916215533
419.0, 0.001349724171738908
420.0, 0.0010855345205117316
421.0, 0.0012744274378698594
422.0, 0.0003785957615162716
423.0, 0.0005617253381575961
424.0, 0.000651104538592015
425.0, 0.0004729489999833237
426.0, 0.00030588285070963376
427.0, 0.0005045060866538692
428.0, 0.00024333309846481956
429.0, 0.0003322706974514841
430.0, 0.00040227922027329414
431.0, 0.0004621789159920386
432.0, 0.0004826540221513879
433.0, 0.000365155305874647
434.0, 0.00032803460895124755
435.0, 0.00047970156264743935
436.0, 0.0005467461823634804
437.0, 0.00042875426010539745
438.0, 0.00028178185323198235
439.0, 0.00034903676974309527
440.0, 0.00049928166300314
441.0, 0.0005394440959573876
442.0, 0.0004287167461347711
443.0, 0.000605507816457563
444.0, 0.0007154207401987967
445.0, 0.0003227782048650538
446.0, 2.8413243856532434e-05
447.0, 0.001387510054812436
448.0, 0.0019498843905546089
449.0, 0.0018824771119987697
450.0, 0.0015042284604190282
451.0, 0.0013981192544532174
452.0, 0.0022932198831597497
453.0, 0.002195046478753681
454.0, 0.0027047712842168804
455.0, 0.0032256560452775637
456.0, 0.0034344091828128424
457.0, 0.00347216941843597
458.0, 0.0037670747260752165
459.0, 0.0037048208150207125
460.0, 0.003844161826586254
461.0, 0.003762824272552545
462.0, 0.003659765797696796
463.0, 0.003830228722931923
464.0, 0.0043106189889718215
465.0, 0.004303589385066718
466.0, 0.004634165057064993
467.0, 0.005412756604296022
468.0, 0.005773175670046951
469.0, 0.006130516742721974
470.0, 0.006755511894647547
471.0, 0.006480927709053147
472.0, 0.006761674689546388
473.0, 0.006529714275192806
474.0, 0.005944966628984896
475.0, 0.005004345786753993
476.0, 0.004083568602329672
477.0, 0.0036806784605535573
478.0, 0.002054208114879698
479.0, 0.0013009410669977278
480.0, 0.0009823434466997422
481.0, 0.0007528690751660903
482.0, 0.00069071934625573
483.0, 0.0008787114251964514
484.0, 0.000554185807902474
485.0, 0.0004919960712698587
486.0, 0.0003997888935402173
487.0, 0.00023415123295938476
488.0, 0.00019371359760472214
489.0, 0.0005009966207056273
490.0, 0.0011343725978125619
491.0, 0.0007930003150884676
492.0, 0.0006933165675437204
493.0, 0.0005513113140244771
494.0, 0.0005734634879533316
495.0, 0.0006885153360843854
496.0, 0.0005556470988139553
497.0, 4.8959036384684873e-05
498.0, 0.00030559337395603557
499.0, 0.00046813691759990515
500.0, 0.000663437145784095
501.0, 0.0007683233092437667
502.0, 0.0006333642721143258
503.0, 0.0003406341762475708
504.0, 0.0003209702609746805
505.0, 0.0009511694859232598
506.0, 0.0004963909115328406
507.0, 0.0002942350416730209
508.0, 0.0005706681241106249
509.0, 0.0004209704445963222
510.0, 0.001065538574507551
511.0, 0.00020526646377158104
512.0, 0.00042889246065959126
513.0, 0.0011941394162891734
514.0, 0.001471932317875874
515.0, 0.0012062302486274203
516.0, 0.0019048747820259212
517.0, 0.0018619737059939563
518.0, 0.0019802639669775227
519.0, 0.0026549966741584905
520.0, 0.00284740185861102
521.0, 0.0031354813491218055
522.0, 0.004487073450766931
523.0, 0.004018160648295245
524.0, 0.004389515864344434
525.0, 0.005350726266234822
526.0, 0.006155141920000003
527.0, 0.006762954872531285
528.0, 0.007333173779844995
529.0, 0.007916700445892967
530.0, 0.008956963939655824
531.0, 0.010122606017771749
532.0, 0.011243987748647521
533.0, 0.012702485282199152
534.0, 0.0146532409959203
535.0, 0.0170198502541991
536.0, 0.019661393568273473
537.0, 0.021664178496391892
538.0, 0.02364111103650024
539.0, 0.02411673881045879
540.0, 0.0241791824427891
541.0, 0.023898592722737547
542.0, 0.021981842937761106
543.0, 0.01877998483822215
544.0, 0.016787738629086276
545.0, 0.015513748697236256
546.0, 0.013377425268527547
547.0, 0.011559126424947101
548.0, 0.011233379739458559
549.0, 0.01149803631741126
550.0, 0.01064778211090596
551.0, 0.00989517915409844
552.0, 0.009693288353650846
553.0, 0.00907280577706707
554.0, 0.00839919195608853
555.0, 0.008072091105296808
556.0, 0.006662079957073621
557.0, 0.007248922086987007
558.0, 0.00705427988182093
559.0, 0.006495286918810095
560.0, 0.005986390809665765
561.0, 0.005656406386511626
562.0, 0.005390137019573409
563.0, 0.005141727714802827
564.0, 0.005339110821228777
565.0, 0.005125775475344854
566.0, 0.005264259818217247
567.0, 0.005549226591152984
568.0, 0.005404864801093165
569.0, 0.0046897944885407545
570.0, 0.005154867932379112
571.0, 0.0055302348606596965
572.0, 0.005827522959782588
573.0, 0.0062211251931719525
574.0, 0.006438966862588457
575.0, 0.006443795375458098
576.0, 0.006711953180478777
577.0, 0.007131245809674715
578.0, 0.007411032815569706
579.0, 0.007095133278601352
580.0, 0.0065400141862109245
581.0, 0.006320088520912404
582.0, 0.006467272978060815
583.0, 0.006199655232767653
584.0, 0.006327537046061573
585.0, 0.00605083190429124
586.0, 0.005449623388955477
587.0, 0.005009614087411561
588.0, 0.0047492314768276655
589.0, 0.004646775824422868
590.0, 0.005107608810065297
591.0, 0.004789972440459544
592.0, 0.004787431251197994
593.0, 0.005056453776506495
594.0, 0.004800922202155451
595.0, 0.004753060966715903
596.0, 0.005255571406428369
597.0, 0.003829832337606925
598.0, 0.004141756281460533
599.0, 0.0044270091066159305
600.0, 0.004862133081226932
601.0, 0.005148866497708034
602.0, 0.005063373006339383
603.0, 0.004844062252483883
604.0, 0.005319304565030763
605.0, 0.005323809713599018
606.0, 0.004909968732505644
607.0, 0.005060117210247206
608.0, 0.005473118884821797
609.0, 0.005724918778905229
610.0, 0.0057341787360943135
611.0, 0.005860701864223495
612.0, 0.005633974618105542
613.0, 0.006313714972587531
614.0, 0.006591852721856702
615.0, 0.006834689186152874
616.0, 0.0068651671342080415
617.0, 0.006697621205414515
618.0, 0.007843832491552509
619.0, 0.0075858275334634365
620.0, 0.00847486761967909
621.0, 0.009289663719879533
622.0, 0.009421048512291745
623.0, 0.009171140970751807
624.0, 0.009256906717133698
625.0, 0.010005465575509779
626.0, 0.011042756118225984
627.0, 0.011872462212704403
628.0, 0.01188626907703718
629.0, 0.011667944746166675
630.0, 0.012206651209674603
631.0, 0.013748157578010527
632.0, 0.014993558095377913
633.0, 0.014147039810988572
634.0, 0.016122227155587043
635.0, 0.01793701170486224
636.0, 0.018401115391954975
637.0, 0.018384590534340464
638.0, 0.019344182825229157
639.0, 0.021608772611093025
640.0, 0.023133036775561684
641.0, 0.025316870022031132
642.0, 0.028078046786707958
643.0, 0.030293518646429707
644.0, 0.032981449876488135
645.0, 0.036784343829184864
646.0, 0.041086605475771344
647.0, 0.04738258816403576
648.0, 0.052799313629921574
649.0, 0.06015819534210438
650.0, 0.06840188476833466
651.0, 0.07826803495274655
652.0, 0.09119317431987514
653.0, 0.10785710233458509
654.0, 0.12677823605269103
655.0, 0.14583441299286118
656.0, 0.17020599850275772
657.0, 0.19611010464108478
658.0, 0.22333511460802732
659.0, 0.2517139805729058
660.0, 0.278247781100305
661.0, 0.29659054232349286
662.0, 0.3127406824664989
663.0, 0.3188687782055756
664.0, 0.3141335829772791
665.0, 0.3033571105312111
666.0, 0.28471745839812834
667.0, 0.2594719427594455
668.0, 0.23830896434820018
669.0, 0.21996828875000046
670.0, 0.20928160616412905
671.0, 0.1998740935366731
672.0, 0.2010880790126444
673.0, 0.20729333564649316
674.0, 0.2163802296664199
675.0, 0.2341553977782067
676.0, 0.2561469108159983
677.0, 0.28707218806560847
678.0, 0.31921922195827956
679.0, 0.35376533691110007
680.0, 0.38778423695138964
681.0, 0.4218254788176245
682.0, 0.4544902317720856
683.0, 0.47504722299280006
684.0, 0.48495500483996645
685.0, 0.4815506748468849
686.0, 0.46487868924842557
687.0, 0.4309550728711677
688.0, 0.3877259803870514
689.0, 0.3404260279668926
690.0, 0.28712286869559084
691.0, 0.2435714766328016
692.0, 0.2001095890890631
693.0, 0.168529876320957
694.0, 0.14122997840043558
695.0, 0.11772342454593086
696.0, 0.09921616247451336
697.0, 0.08510131097865518
698.0, 0.0724208740826206
699.0, 0.06329670225083071
700.0, 0.055013195977194965
701.0, 0.04892003183372869
702.0, 0.04271835664140529
703.0, 0.037912395496165596
704.0, 0.03514671098379933
705.0, 0.03195554140612563
706.0, 0.029129673671844623
707.0, 0.025624699461931414
708.0, 0.024363359598978892
709.0, 0.022066641400121177
710.0, 0.019645453250312132
711.0, 0.018578147890202124
712.0, 0.01824251131890523
713.0, 0.015731907250045727
714.0, 0.014017196238340792
715.0, 0.013312197104781116
716.0, 0.012219632908941434
717.0, 0.011549858845021218
718.0, 0.011025689412879852
719.0, 0.010450012707362774
720.0, 0.01011199343804498
721.0, 0.009696796710940765
722.0, 0.008558320994588442
723.0, 0.007889622950679142
724.0, 0.00741964952692182
725.0, 0.007181915902450134
726.0, 0.007073706118630592
727.0, 0.006799691069856886
728.0, 0.006139347372056604
729.0, 0.005639907037156956
730.0, 0.005063580081342756
731.0, 0.004758402894539312
732.0, 0.0045324354008627315
733.0, 0.0044522269416067605
734.0, 0.004324147546865909
735.0, 0.004119064660119364
736.0, 0.004358126892605763
737.0, 0.003904911603515961
738.0, 0.0037346534239722897
739.0, 0.0035159778711587376
740.0, 0.0035589904701504296
741.0, 0.0030714250748559435
742.0, 0.002573480061874111
743.0, 0.0030114717027584156
744.0, 0.002711426940861786
745.0, 0.002586683818602801
746.0, 0.0034430869810617762
747.0, 0.00322340378767915
748.0, 0.0027467818062706408
749.0, 0.0025094743334768076
750.0, 0.002331114581341223
751.0, 0.0018405501207134243
752.0, 0.001273305142502369
753.0, 0.0009758544511395866
754.0, 0.0014394427077500586
755.0, 0.001373644332678874
756.0, 0.001021259720184695
757.0, 0.001210334381099032
758.0, 0.0018735884016801512
759.0, 0.0017538562690775352
760.0, 0.0002174397328919891
761.0, 0.0022421543122443347
762.0, 0.0010127346243665545
763.0, 0.0007272044123361242
764.0, 0.001159482949156595
765.0, 0.000950631090453612
766.0, 0.0003769964108388525
767.0, 0.0008844229611915107
768.0, 0.00012216321929137786
769.0, 0.0009386579911014545
770.0, 0.0007050229899985162
771.0, 0.0006879756549152832
772.0, 0.000714623225031074
773.0, 0.0006415084137476859
774.0, 0.0004194850440029532
775.0, 0.00011686243567351972
776.0, 0.0004742057138228865
777.0, 0.0001165301566521144
778.0, 0.00033931369245844713
779.0, 0.00021957506497537898
780.0, 0.0002930870496259301
781.0, 0.0005212751679324006
782.0, 0.0005696417609276627
783.0, 0.0003779297032626699
784.0, 4.379468832274019e-05
785.0, 0.0004233875870743477
786.0, 0.0002697473940337559
787.0, 0.0005823338045862486
788.0, 0.0005033310846151963
789.0, 0.0003262060047754173
790.0, 0.00043851415963474583
791.0, 0.0005622795169753028
792.0, 0.0007014848767821636
793.0, 0.0002426792281125874
794.0, 8.063216104215107e-05
795.0, 0.0002978131002024841
796.0, 0.0004334343507923784
797.0, 0.0003236465888071374
798.0, 0.00039042882422746315
799.0, 0.0008687429439870978
800.0, 0.0007397103231925384
801.0, 0.0005819750770103995
802.0, 0.0002795085059490035
803.0, 0.0003791519010859978
804.0, 0.0003115144236804689
805.0, 0.00043870515149763395
806.0, 0.0005600166539519036
807.0, 0.0002440661371884735
808.0, 0.00010454217233259733
809.0, 0.00022837345128915563
810.0, 0.000312336175352346
811.0, 0.0007892361184075509
812.0, 0.000867829183432485
813.0, 0.0005029953816423834
814.0, 0.00026823960712577937
815.0, 0.00034550113760182334
816.0, 0.00019497848910051904
817.0, 0.00033208017082629875
818.0, 0.0001648422853040843
819.0, 0.0006044898682743107
820.0, 0.0009867466857728234
821.0, 0.0010732509993168187
822.0, 0.0010051700752972052
823.0, 0.0007937820379515892
824.0, 0.0003686517142611289
825.0, 0.00025388404584676156
826.0, 0.00024406304796133725
827.0, 0.0004375789251749572
828.0, 0.0005336289423032932
829.0, 0.00033314498213039714
830.0, 0.0002139364281383688
831.0, 0.0005006108368068909
832.0, 0.0007801386868295929
833.0, 0.00018810875580641383
834.0, 0.00013375224649072332
835.0, 0.0007915369382425809
836.0, 0.0006908619070646333
837.0, 0.0006254937761739918
838.0, 0.0004897773739666758
839.0, 0.00043816250214004945
840.0, 0.0005820308810584285
841.0, 0.0006179763547700897
842.0, 0.00036946108197066915
843.0, 0.001336930397213545
844.0, 0.0009625428040692262
845.0, 0.0002807667374393798
846.0, 0.0005460907412594892
847.0, 0.001108722565958227
848.0, 0.0012385929980046734
849.0, 0.0009627564298325347
850.0, 0.00073614305879882
851.0, 0.0014074745086196572
852.0, 0.000355886148789744
853.0, 0.000759646430942119
854.0, 0.001104234163158585
855.0, 0.0016359806548227383
856.0, 0.0018742947994895886
857.0, 0.001600782507128586
858.0, 0.0015779946613688127
859.0, 0.0023609381454069225
860.0, 0.0022464330757100684
861.0, 0.0012176814643245718
862.0, 0.0016911455757740242
863.0, 0.0016939760896126034
864.0, 0.0014023641239203474
865.0, 0.0011940113184336488
866.0, 0.0008213122556437293
867.0, 0.00031514268221425186
868.0, 0.0014347706368057806
869.0, 0.0015593783974011685
870.0, 0.0010523846038878164
871.0, 0.00031449588427364154
872.0, 0.000741609634044881
873.0, 0.001184022971186074
874.0, 0.0010789477761502886
875.0, 0.0009310714256215158
876.0, 0.0008250850392250999
877.0, 0.0007670559941425632
878.0, 0.0009552785465478243
879.0, 0.0006864548257346482
880.0, 0.000845217658544005
881.0, 0.0009308256725037073
882.0, 0.0007903287185889191
883.0, 0.0006803687613065722
884.0, 0.0007410648535638204
885.0, 0.0006271339806921518
886.0, 2.371198445567707e-05
887.0, 0.0013143075116046426
888.0, 0.0006314389431146399
889.0, 0.0008863630995256024
890.0, 0.0016846849544825066
891.0, 0.001818511142697883
892.0, 0.0016423554451542614
893.0, 0.0020342488364829903
894.0, 0.0019073869871884903
895.0, 0.000943626114063298
896.0, 0.002293142805156071
897.0, 0.0014322122984756235
898.0, 0.0014106010458613293
899.0, 0.0017117047291359683
900.0, 0.001523550715923178
901.0, 0.0014727759144222122
902.0, 0.0019519427540722462
903.0, 0.0013621478014359438
904.0, 0.0018210967678102949
905.0, 0.0025567340589497606
906.0, 0.002260409828633986
907.0, 0.002705879679776652
908.0, 0.0027022279276964606
909.0, 0.002765327505097748
910.0, 0.0035633445142773633
911.0, 0.0042799523189304975
912.0, 0.00387684767515675
913.0, 0.005202217043421371
914.0, 0.004643885559793164
915.0, 0.005465360880143805
916.0, 0.0055574505653716135
917.0, 0.005714549860934387
918.0, 0.006533133529515418
919.0, 0.007919957980991689
920.0, 0.009175175815796395
921.0, 0.009768990013256868
922.0, 0.010962571994022195
923.0, 0.011653034349674646
924.0, 0.01412628811600641
925.0, 0.016275464759168856
926.0, 0.017237666600694923
927.0, 0.019741382025190227
928.0, 0.022634843688924676
929.0, 0.025106737828147194
930.0, 0.02950531220675646
931.0, 0.03281730403994462
932.0, 0.03703827191501907
933.0, 0.04045735726490632
934.0, 0.04489820373345052
935.0, 0.049572696942760106
936.0, 0.052224969454798896
937.0, 0.052968192297351696
938.0, 0.05282725528536831
939.0, 0.05173774778257874
940.0, 0.049117598595068965
941.0, 0.045896070600119
942.0, 0.04416804124980116
943.0, 0.03787261655049294
944.0, 0.035348228126054614
945.0, 0.03210378205620055
946.0, 0.028679846620235067
947.0, 0.026031783182140406
948.0, 0.023721062467525544
949.0, 0.02205205918767933
950.0, 0.020017077657637355
951.0, 0.0185206610633625
952.0, 0.01629924187802863
953.0, 0.015924631401196807
954.0, 0.014883883950383607
955.0, 0.013650390074940011
956.0, 0.013516836576220704
957.0, 0.013410471342687517
958.0, 0.012353435083039018
959.0, 0.013371840106733123
960.0, 0.012388849355503748
961.0, 0.012431913116278488
962.0, 0.011440337885504146
963.0, 0.012173696451684432
964.0, 0.012484360672450276
965.0, 0.013020884136016478
966.0, 0.01342062818403355
967.0, 0.013250999961194155
968.0, 0.01362188945220557
969.0, 0.013645298407604787
970.0, 0.01489846416007551
971.0, 0.014118079592546358
972.0, 0.015187805352291806
973.0, 0.016821748364950657
974.0, 0.01769373763285302
975.0, 0.01762470850294017
976.0, 0.018274472564180508
977.0, 0.020092752755760758
978.0, 0.02088597976105467
979.0, 0.022233764319459923
980.0, 0.023927675471585506
981.0, 0.02520590669614585
982.0, 0.02739744173007997
983.0, 0.030195752107194468
984.0, 0.03262456292709763
985.0, 0.035178896074561435
986.0, 0.03820904477873276
987.0, 0.04187792292047204
988.0, 0.04685003153572357
989.0, 0.05071019113508712
990.0, 0.056493257228581104
991.0, 0.06308355498472741
992.0, 0.07253243460056542
993.0, 0.08470134767004875
994.0, 0.09747552959835265
995.0, 0.11191667944549387
996.0, 0.12911239861304222
997.0, 0.14955564697679177
998.0, 0.17573457033879883
999.0, 0.20754608426710017
1000.0, 0.24757156181675047
1001.0, 0.2970378820687343
1002.0, 0.35960679127702794
1003.0, 0.433216591049544
1004.0, 0.5206067039272457
1005.0, 0.6189859053681699
1006.0, 0.7244147701368794
1007.0, 0.8277647029728544
1008.0, 0.9120534722632022
1009.0, 0.9782083867117761
1010.0, 0.9991015921654902
1011.0, 0.9812581214805307
1012.0, 0.9209401859852018
1013.0, 0.8277376995516438
1014.0, 0.7199973666822709
1015.0, 0.6110967833938323
1016.0, 0.5118805774463507
1017.0, 0.4308664134819391
1018.0, 0.36898304126252784
1019.0, 0.31993807771822214
1020.0, 0.28447227954113424
1021.0, 0.2573942380569059
1022.0, 0.23804928439082473
1023.0, 0.22357793016723507
1024.0, 0.21064032037062666
1025.0, 0.2022680864961474
1026.0, 0.19546507925733012
1027.0, 0.18827539713018057
1028.0, 0.18387535151273374
1029.0, 0.1758076490999065
1030.0, 0.16768746935182804
1031.0, 0.16011659221574437
1032.0, 0.15040426679217964
1033.0, 0.14008283955644743
1034.0, 0.13018373744023773
1035.0, 0.11951635506965677
1036.0, 0.10856707659599243
1037.0, 0.09935212073808303
1038.0, 0.09120007437054627
1039.0, 0.0808878459815248
1040.0, 0.07320879389163529
1041.0, 0.0667157260233352
1042.0, 0.06164419724945398
1043.0, 0.05491753187383956
1044.0, 0.04991133747645242
1045.0, 0.04572633851499476
1046.0, 0.04080957640583542
1047.0, 0.03597968865073233
1048.0, 0.03267896595527541
1049.0, 0.030006224109404234
1050.0, 0.0262305686399504
1051.0, 0.025009415530150708
1052.0, 0.022305845336379235
1053.0, 0.020555078851560653
1054.0, 0.01914621209652424
1055.0, 0.018688604261231968
1056.0, 0.017563309144677783
1057.0, 0.015660078523489232
1058.0, 0.014501733517487212
1059.0, 0.01418223272855021
1060.0, 0.013107496443060598
1061.0, 0.012480540224322862
1062.0, 0.010602017551568874
1063.0, 0.010566170785027485
1064.0, 0.009501023578022261
1065.0, 0.00928829061182279
1066.0, 0.008034536289369898
1067.0, 0.007528855810882507
1068.0, 0.00751426341382214
1069.0, 0.007279181424644363
1070.0, 0.007148191799416521
1071.0, 0.006798052387003705
1072.0, 0.00646043820601046
1073.0, 0.005465403162647197
1074.0, 0.00605505199575882
1075.0, 0.005258525457600596
1076.0, 0.005265175918404689
1077.0, 0.004868853755111041
1078.0, 0.004004350688044445
1079.0, 0.00409830894123352
1080.0, 0.004308826838783632
1081.0, 0.0033388765104860048
1082.0, 0.003154493188641844
1083.0, 0.0034188573398025736
1084.0, 0.0029308441508156466
1085.0, 0.0026777891286492717
1086.0, 0.0029035276798894455
1087.0, 0.0029775171852851083
1088.0, 0.003007208054741778
1089.0, 0.0023169209172341923
1090.0, 0.0018178141515779243
1091.0, 0.0017056863123257936
1092.0, 0.0014107879008160116
1093.0, 0.0015922434945142584
1094.0, 0.0022156559987081266
1095.0, 0.002094996973784377
1096.0, 0.002564230002186712
1097.0, 0.0033001453990668403
1098.0, 0.002483581029616716
1099.0, 0.002499524992540363
1100.0, 0.0022292909068605473
1101.0, 0.0018838064367343358
1102.0, 0.0016923033253570259
1103.0, 0.0013930726270568751
1104.0, 0.0014595113989393743
1105.0, 0.002263119545459226
1106.0, 0.0025704292840304107
1107.0, 0.003106260063061229
1108.0, 0.002495290291277443
1109.0, 0.001992677331913463
1110.0, 0.001727645859957872
1111.0, 0.0021363489857371717
1112.0, 0.0025471384346726546
1113.0, 0.00240111547338502
1114.0, 0.0020674458141385042
1115.0, 0.002070815336463284
1116.0, 0.002197477482519239
1117.0, 0.0022656621259503863
1118.0, 0.0023930464193573364
1119.0, 0.002503649621731074
1120.0, 0.002765242662414972
1121.0, 0.002998401407126298
1122.0, 0.003271450891501124
1123.0, 0.0030030186866519043
1124.0, 0.002631445878377946
1125.0, 0.00236955508405655
1126.0, 0.002341639752048497
1127.0, 0.002459591296657254
1128.0, 0.0018020830847532538
1129.0, 0.0023933336970679707
1130.0, 0.0022885582227987577
1131.0, 0.0024816345635540293
1132.0, 0.00212907794757755
1133.0, 0.0015693902766616666
1134.0, 0.0019322919906592962
1135.0, 0.002290812568854252
1136.0, 0.0023054843530042053
1137.0, 0.0025469250794413934
1138.0, 0.0027342775420957136
1139.0, 0.002267516195518282
1140.0, 0.002270345736637051
1141.0, 0.00165565699068578
1142.0, 0.0020295912449004067
1143.0, 0.0021696716691145604
1144.0, 0.00179415722892854
1145.0, 0.0018955015926980989
1146.0, 0.0013223446445332356
1147.0, 0.0008690550382839131
1148.0, 0.0008835499934319099
1149.0, 0.000988134192096163
1150.0, 0.0008614552226251489
1151.0, 0.0007494331546980325
1152.0, 0.0011122393843746685
1153.0, 0.0006090207099163079
1154.0, 0.0006013158010082538
1155.0, 0.0013189630213181053
1156.0, 0.0007946498535499932
1157.0, 0.0008367660258208238
1158.0, 0.0010895611650144786
1159.0, 0.0008755745068646575
1160.0, 0.0010097736244429585
1161.0, 0.000985372884617643
1162.0, 0.00042551715454872
1163.0, 0.0005982266705248027
1164.0, 0.0012478223700955885
1165.0, 0.00043091726073559604
1166.0, 0.0010022022752595198
1167.0, 0.0004155175928983177
1168.0, 0.0004957361109762227
1169.0, 0.0011258754370594365
1170.0, 0.0011994680851265787
1171.0, 0.0008622096611666936
1172.0, 0.001107194545597106
1173.0, 0.0010920465902336538
1174.0, 0.0006114279225197478
1175.0, 0.0006350434016029155
1176.0, 0.0008078966397643337
1177.0, 0.0005112544109165413
1178.0, 0.00024601182082469665
1179.0, 0.0009315403520992252
1180.0, 0.00012980077693823864
1181.0, 1.2445692682148292e-05
1182.0, 5.1720541842139285e-05
1183.0, 0.0002050085393882617
1184.0, 0.000553923155886931
1185.0, 0.0008699165651220682
1186.0, 0.0006104878008064952
1187.0, 0.0005938651758407301
1188.0, 0.0010582503376428249
1189.0, 0.00013836594349817742
1190.0, 8.170514505190552e-05
1191.0, 0.00035998445106983674
1192.0, 0.00112469762790451
1193.0, 0.0011088975297045892
1194.0, 0.0006094973860736872
1195.0, 0.0008202421262274591
1196.0, 0.0008889509098857164
1197.0, 0.0005642623573757331
1198.0, 0.0005190670174369006
1199.0, 0.0004635503393500041
1200.0, 0.0002175538999385184
1201.0, 0.0003013331590407099
1202.0, 0.00032471658894080103
1203.0, 0.00022693204490594686
1204.0, 0.0002886963714558249
1205.0, 0.0008648922038424491
1206.0, 0.00039583453223736016
1207.0, 7.235896639878542e-05
1208.0, 0.0005920592033692993
1209.0, 0.0006037348702961512
1210.0, 0.0002651704568249115
1211.0, 0.00011495932745448233
1212.0, 0.00025255422837111466
1213.0, 0.0002833564825557214
1214.0, 0.0001245975946501739
1215.0, 0.00023399094547111462
1216.0, 0.00026975504982761496
1217.0, 0.00016863093325915015
1218.0, 1.689777718626551e-05
1219.0, 0.0002810549424888438
1220.0, 0.0005750061475925135
1221.0, 0.0002989495652081277
1222.0, 0.00035988790546030843
1223.0, 0.0002356870679818286
1224.0, 0.000193150380682345
1225.0, 0.00028093483654340317
1226.0, 0.00019649375773172074
1227.0, 3.9564974863634204e-05
1228.0, 0.00013896555212349705
1229.0, 0.00028841377356444433
1230.0, 0.00014611477858671857
1231.0, 0.0003862980479311959
1232.0, 0.00017863360936691664
1233.0, 0.0006590847482805052
1234.0, 0.0003730331278121964
1235.0, 0.00015249006553244554
1236.0, 0.0002561383366494745
1237.0, 0.00023587482289074303
1238.0, 0.0001045533443601108
1239.0, 0.00016354677444993225
1240.0, 0.0002873726198106768
1241.0, 0.0001824449916995329
1242.0, 1.1618310367744295e-05
1243.0, 4.4854744900579466e-05
1244.0, 0.00027897217887266847
1245.0, 0.0005929709704032447
1246.0, 0.0007308423193824765
1247.0, 0.0005645394135978356
1248.0, 0.0006795910896706183
1249.0, 0.0008201177115776589
1250.0, 0.0008597607496862835
1251.0, 0.000918945608053606
1252.0, 0.0008316376419427784
1253.0, 0.0007340129535378708
1254.0, 0.0008603526966473158
1255.0, 0.0008192464632185482
1256.0, 0.0003424972171014667
1257.0, 0.00029920295865633475
1258.0, 0.0005342996340648213
1259.0, 0.0007587415608180807
1260.0, 0.0005286135533945762
1261.0, 0.0005721944683131304
1262.0, 0.0005921800263630172
1263.0, 0.0001770573003187404
1264.0, 0.0006450448524546741
1265.0, 0.0006716920588408886
1266.0, 0.0007501338393624302
1267.0, 0.0009137028732803448
1268.0, 0.0009812974198102305
1269.0, 0.0010347028983899468
1270.0, 0.000978866239205198
1271.0, 0.000853270310348677
1272.0, 0.0005085847352910778
1273.0, 0.0016856093115540389
1274.0, 0.00044537396274938856
1275.0, 0.0012117229338869135
1276.0, 0.0012041670893027556
1277.0, 0.00166070602115788
1278.0, 0.0009624403991734
1279.0, 0.001219398446233916
1280.0, 0.0010756137268559671
1281.0, 0.0010243183381931202
1282.0, 0.0015855042880320075
1283.0, 0.0016671512178747132
1284.0, 0.001311426721323084
1285.0, 0.0013461964895239925
1286.0, 0.0008388075209944268
1287.0, 0.0014977578378712587
1288.0, 0.0023625649369442216
1289.0, 0.0017324526662222414
1290.0, 0.0023250205259406167
1291.0, 0.0023419542898652653
1292.0, 0.002449885765285652
1293.0, 0.0024558139803414246
1294.0, 0.0024435382740739904
1295.0, 0.0022475855973147626
1296.0, 0.0024285733145477284
1297.0, 0.0023655978570007916
1298.0, 0.002304888688933812
1299.0, 0.002377855940437527
1300.0, 0.001893859295378703
1301.0, 0.002036974228153262
1302.0, 0.0020114281163609482
1303.0, 0.001686544219377042
1304.0, 0.001539951709140378
1305.0, 0.001328220069744764
1306.0, 0.002186851990602207
1307.0, 0.0019382596587106953
1308.0, 0.0019612857881219346
1309.0, 0.0015567414077984204
1310.0, 0.0015283421750889538
1311.0, 0.0023241579100405497
1312.0, 0.002434795967166298
1313.0, 0.002266402138491371
1314.0, 0.002505048407139372
1315.0, 0.0024736682354247266
1316.0, 0.0023332832960267966
1317.0, 0.0022063699140842065
1318.0, 0.0023666823856525786
1319.0, 0.0018103294787676935
1320.0, 0.002292984644814352
1321.0, 0.0013895961718660725
1322.0, 0.0014481681579900315
1323.0, 0.00204419198775225
1324.0, 0.0018317309728632944
1325.0, 0.0014414252070224537
1326.0, 0.0013675026759804086
1327.0, 0.0013736288771888233
1328.0, 0.0016210327493488663
1329.0, 0.0017875240920450588
1330.0, 0.0016760568019046004
1331.0, 0.0017009875782496027
1332.0, 0.001568821975341101
1333.0, 0.0011257364432961396
1334.0, 0.0018462640102329666
1335.0, 0.001327377860601218
1336.0, 0.001337951043143938
1337.0, 0.0018251626343549273
1338.0, 0.0010029592819366235
1339.0, 0.0016655594856728087
1340.0, 0.0012961769486657636
1341.0, 0.002210285691599069
1342.0, 0.0018887330963871431
1343.0, 0.0016905188539088547
1344.0, 0.0014543182584997724
1345.0, 0.0015325667075387227
1346.0, 0.0016034365472306666
1347.0, 0.0014971298028617294
1348.0, 0.0017867922728216873
1349.0, 0.0015045019735232285
1350.0, 0.0018409907145882178
1351.0, 0.0018084273654577164
1352.0, 0.0017139138487033447
1353.0, 0.0015753646340890696
1354.0, 0.0016354704725080216
1355.0, 0.002610931970033211
1356.0, 0.0018355042565832988
1357.0, 0.0016676575370129427
1358.0, 0.0016958875431283523
1359.0, 0.0025167723247751443
1360.0, 0.002855758401231112
1361.0, 0.0025606690895081156
1362.0, 0.0019669313997811746
1363.0, 0.0017079247645712067
1364.0, 0.0016276296762117346
1365.0, 0.0016231960457760526
1366.0, 0.0022931411670376206
1367.0, 0.0020456976774669636
1368.0, 0.0028849704314616266
1369.0, 0.0015138641496072198
1370.0, 0.0017040498553097649
1371.0, 0.0017469075401371687
1372.0, 0.0012100469447348906
1373.0, 0.0017036715048704236
1374.0, 0.0017330609824856198
1375.0, 0.0016582403380595817
1376.0, 0.0015930500660147138
1377.0, 0.0019968072167077058
1378.0, 0.0020656781470774757
1379.0, 0.0017832964206887856
1380.0, 0.0017389606196254812
1381.0, 0.0015960891417057972
1382.0, 0.00128339785225782
1383.0, 0.0012281964716114875
1384.0, 0.0010361112289827502
1385.0, 0.0012181407618088362
1386.0, 0.001231020404153515
1387.0, 0.0014808035715446572
1388.0, 0.0012073281425337371
1389.0, 0.0012109342859347651
1390.0, 0.001081809505547811
1391.0, 0.001023103182560412
1392.0, 0.0012273776398723064
1393.0, 0.001248751960535973
1394.0, 0.0010026444373799688
1395.0, 0.0006388088801256
1396.0, 0.0009505253630603482
1397.0, 0.0009693040539375539
1398.0, 0.0007314135060198802
1399.0, 0.0011060944996566864
1400.0, 0.00135375778827132
1401.0, 0.0009445499192756547
1402.0, 0.0008110543846498288
1403.0, 0.0008110727631645679
1404.0, 0.0010725991395508648
1405.0, 0.0004966655611773525
1406.0, 0.000912593291759111
1407.0, 0.0006208284213185454
1408.0, 0.0005890677972694724
1409.0, 0.0010231865533215044
1410.0, 0.0006628453514711484
1411.0, 0.0007080724393461501
1412.0, 0.0006818446914385402
1413.0, 0.0007387780394475678
1414.0, 0.001067811380824416
1415.0, 0.0014772862163205543
1416.0, 0.0013041721285897271
1417.0, 0.0016042501853433379
1418.0, 0.0019629611612270587
1419.0, 0.0017633870547667583
1420.0, 0.0015447500742757304
1421.0, 0.0010470918018387334
1422.0, 0.001188099003491794
1423.0, 0.0014998975568357724
1424.0, 0.0007365194887072957
1425.0, 0.0008860356651077436
1426.0, 0.0005900900961644006
1427.0, 0.0012587125953411086
1428.0, 0.0011575750752778108
1429.0, 0.0017112104515585162
1430.0, 0.0013468600654921524
1431.0, 0.0013774781626475724
1432.0, 0.0012289407590138233
1433.0, 0.0010234112271418235
1434.0, 0.0013410290592651966
1435.0, 0.0013252069838399767
1436.0, 0.0005529527773444774
1437.0, 0.0006803202100071368
1438.0, 0.0016534514578900163
1439.0, 0.001526590744615133
1440.0, 0.0010020233097625814
1441.0, 0.0012469262622467156
1442.0, 0.0010059013257132845
1443.0, 0.0014399704554158997
1444.0, 0.0006256459304865942
1445.0, 0.000986581108173828
1446.0, 0.000781279018025159
1447.0, 0.0019253461188741044
1448.0, 0.0018930578623990815
1449.0, 0.0013579275829216073
1450.0, 0.002209300782680365
1451.0, 0.0019773940665729494
1452.0, 0.0015555385660146154
1453.0, 0.001222044890906532
1454.0, 0.0013545420958062588
1455.0, 0.0014131482613443072
1456.0, 0.0013193553905562305
1457.0, 0.0010003070563514998
1458.0, 0.000788368375201637
1459.0, 0.0007154784415215585
1460.0, 0.0007975385332333117
1461.0, 0.000854586852442101
1462.0, 0.0007242088660067242
1463.0, 0.0009768147318156735
1464.0, 0.0011952059832241154
1465.0, 0.0022250644269157242
1466.0, 0.0011361306399334076
1467.0, 0.0017984414637479652
1468.0, 0.0011156111118290606
1469.0, 0.001219582955414604
1470.0, 0.0009678337216544699
1471.0, 0.0013780149843440467
1472.0, 0.0014342742921506363
1473.0, 0.0006791746071169681
1474.0, 0.0012809588575283962
1475.0, 0.0015145932603747175
1476.0, 0.0010143063400906839
1477.0, 0.000952605352271833
1478.0, 0.0010064462599372545
1479.0, 0.000604688956616997
1480.0, 0.0006070769538482528
1481.0, 0.0008948005223988286
1482.0, 0.000778266104610493
1483.0, 0.0008647430126533052
1484.0, 0.001343090153655566
1485.0, 0.0011623286035984648
1486.0, 0.00046296316557937757
1487.0, 0.00047714533120322527
1488.0, 0.0006041378209319874
1489.0, 0.0012048553040738797
1490.0, 0.0010465403601408406
1491.0, 0.0009631458210244754
1492.0, 0.0010977299532798507
1493.0, 0.0002617628814270699
1494.0, 0.0008380226280984555
1495.0, 0.0005124621860145326
1496.0, 0.001057430521477361
1497.0, 0.0010599475317714419
1498.0, 0.0009427255047225252
1499.0, 0.0008806598248696056
1500.0, 0.0010666056386989464
1501.0, 0.0012636916571255464
1502.0, 0.0005911915860445508
1503.0, 0.00011445674330672276
1504.0, 0.0005695116362521973
1505.0, 0.0006368176975712175
1506.0, 0.00029286150561657096
1507.0, 0.0004557519410048099
1508.0, 0.0005667330733051773
1509.0, 0.0006153527762901541
1510.0, 0.0007421532779619287
1511.0, 0.00031526081059094234
1512.0, 0.00045282848555734467
1513.0, 0.0003963340502312377
1514.0, 0.0008568512784373188
1515.0, 0.00022258473609030905
1516.0, 0.0005782671347885431
1517.0, 0.00045041303009823617
1518.0, 8.31710853332956e-05
1519.0, 0.00014706215655579754
1520.0, 0.00011789785469538495
1521.0, 0.00011579506799608597
1522.0, 0.00031076881716032915
1523.0, 0.0007916532330679219
1524.0, 0.0011440345070120493
1525.0, 0.0015299550438420161
1526.0, 0.0010770538153855136
1527.0, 0.00040861956355757044
1528.0, 0.0008893700413838967
1529.0, 0.001751225851394073
1530.0, 0.0015627736097068598
1531.0, 0.0005845861263779296
1532.0, 0.00010872217339589596
1533.0, 0.0006599082426966014
1534.0, 0.0009929668416971537
1535.0, 0.0005634936210436403
1536.0, 0.0009568636126477295
1537.0, 0.0006573899948820461
1538.0, 0.00032933663876398946
1539.0, 0.0009521972241450793
1540.0, 0.0013340271253387784
1541.0, 0.0011760022930252844
1542.0, 0.0010306647375075621
1543.0, 0.0010297201047479285
1544.0, 0.0008697395002720363
1545.0, 0.001150692745543455
1546.0, 0.0008942914602370717
1547.0, 0.0008831996079892529
1548.0, 0.000480419883110263
1549.0, 0.0006641948667702584
1550.0, 0.0005055403073000872
1551.0, 0.00045055210010887443
1552.0, 0.0007600868205734892
1553.0, 0.0006734669454508598
1554.0, 0.001067870655696126
1555.0, 0.0008676825845066258
1556.0, 0.000790541517893074
1557.0, 0.0009842569517731655
1558.0, 0.0008501032365121168
1559.0, 0.0007299911280326793
1560.0, 0.0007119789222729289
1561.0, 0.00042969465987143267
1562.0, 0.00022491597544898267
1563.0, 0.0004333569566254843
1564, 0.0
1565, 0.0
1566, 0.0
1567, 0.0
1568, 0.0
1569, 0.0
1570, 0.0
1571, 0.0
1572, 0.0
1573, 0.0
1574, 0.0
1575, 0.0
1576, 0.0
1577, 0.0
1578, 0.0
1579, 0.0
1580, 0.0
1581, 0.0
1582, 0.0
1583, 0.0
1584, 0.0
1585, 0.0
1586, 0.0
1587, 0.0
1588, 0.0
1589, 0.0
1590, 0.0
1591, 0.0
1592, 0.0
1593, 0.0
1594, 0.0
1595, 0.0
1596, 0.0
1597, 0.0
1598, 0.0
1599, 0.0
