30, 0.0
31, 0.0
32, 0.0
33, 0.0
34, 0.0
35, 0.0
36, 0.0
37, 0.0
38, 0.0
39, 0.0
40, 0.0
41, 0.0
42, 0.0
43, 0.0
44, 0.0
45, 0.0
46, 0.0
47, 0.0
48, 0.0
49, 0.0
50, 0.0
51, 0.0
52, 0.0
53, 0.0
54, 0.0
55, 0.0
56, 0.0
57, 0.0
58, 0.0
59, 0.0
60, 0.0
61, 0.0
62, 0.0
63, 0.0
64, 0.0
65, 0.0
66, 0.0
67, 0.0
68, 0.0
69, 0.0
70, 0.0
71, 0.0
72, 0.0
73, 0.0
74, 0.0
75, 0.0
76, 0.0
77, 0.0
78, 0.0
79, 0.0
80, 0.0
81, 0.0
82, 0.0
83, 0.0
84, 0.0
85, 0.0
86, 0.0
87, 0.0
88, 0.0
89, 0.0
90, 0.0
91, 0.0
92, 0.0
93, 0.0
94, 0.0
95, 0.0
96, 0.0
97, 0.0
98, 0.0
99, 0.0
100, 0.0
101, 0.0
102, 0.0
103, 0.0
104, 0.0
105, 0.0
106, 0.0
107, 0.0
108, 0.0
109, 0.0
110, 0.0
111, 0.0
112, 0.0
113, 0.0
114, 0.0
115, 0.0
116.0, 0.00014308063298964385
117.0, 0.0011964617635780103
118.0, 0.004199980719960425
119.0, 0.010961628797199809
120.0, 0.018032668252198344
121.0, 0.028420946387489855
122.0, 0.04292647830448496
123.0, 0.06183055101674042
124.0, 0.08545026248442755
125.0, 0.11581517444556186
126.0, 0.14899231310123343
127.0, 0.18628563104023535
128.0, 0.22408355501615043
129.0, 0.2513264313523954
130.0, 0.25491276669162466
131.0, 0.2376570860490497
132.0, 0.20452723744391688
133.0, 0.1632666706327444
134.0, 0.12375054117885861
135.0, 0.09506556168943038
136.0, 0.07369670361116301
137.0, 0.05881035208962072
138.0, 0.048987336117527466
139.0, 0.042458068022102766
140.0, 0.039240094720673746
141.0, 0.03358250920358667
142.0, 0.03133232024544749
143.0, 0.029589331864628785
144.0, 0.024641773025357052
145.0, 0.02150665840115603
146.0, 0.02196425875725647
147.0, 0.021822169699018467
148.0, 0.020623829185968574
149.0, 0.018886302094312718
150.0, 0.017928705745917203
151.0, 0.017977573738755463
152.0, 0.01394836618203923
153.0, 0.009097444027951368
154.0, 0.0057072615585657795
155.0, 0.004009765736276807
156.0, 0.0017435719281067106
157.0, 0.001008719882450759
158.0, 0.0009854008686272285
159.0, 0.0008558212051075234
160.0, 0.0003731379755731465
161.0, 0.0053346423609137005
162.0, 0.009264595786598589
163.0, 0.01646994038571042
164.0, 0.025730025426692067
165.0, 0.03352637458193784
166.0, 0.034768733030497614
167.0, 0.02764583908524783
168.0, 0.02064174871176333
169.0, 0.014840581938707733
170.0, 0.010177096023920841
171.0, 0.006517183729714465
172.0, 0.003236276193969082
173.0, 0.0020325032938374277
174.0, 0.0013962190301371718
175.0, 0.000875396431467784
176.0, 0.0011409264016727504
177.0, 0.0015440511885902288
178.0, 0.0030900677878669424
179.0, 0.00499675371853742
180.0, 0.006224484206508839
181.0, 0.006388623247420911
182.0, 0.00928047631833407
183.0, 0.012983186564316723
184.0, 0.016825610371128615
185.0, 0.021081749278050132
186.0, 0.026176309120702186
187.0, 0.03251244989806219
188.0, 0.04170692032279463
189.0, 0.05027480629452765
190.0, 0.05643479421331968
191.0, 0.05882691876108932
192.0, 0.056725500102885434
193.0, 0.05286371256134507
194.0, 0.047678605757814546
195.0, 0.04398316981407183
196.0, 0.04122148558443828
197.0, 0.03794169509070345
198.0, 0.035406018780380744
199.0, 0.03513187600981722
200.0, 0.03601165300529578
201.0, 0.03561802959970747
202.0, 0.033285093972667046
203.0, 0.031829316557468644
204.0, 0.02193476101787715
205.0, 0.013877713791857706
206.0, 0.007265871363986939
207.0, 0.002548567305974279
208.0, 0.0007279848698717733
209.0, 0.001520682845839326
210.0, 0.001685277328946849
211.0, 0.0009436902417872619
212.0, 0.00014072026206643674
213.0, 0.00019201106559783214
214.0, 0.0013077971929706072
215.0, 0.0031886884640560226
216.0, 0.004350989976805723
217.0, 0.006147429766911558
218.0, 0.009327685298322695
219.0, 0.013751242968043455
220.0, 0.019780364912009657
221.0, 0.02594600224176979
222.0, 0.034735188148923415
223.0, 0.04532039618129644
224.0, 0.05609194513073426
225.0, 0.06780558902252035
226.0, 0.08358262213945408
227.0, 0.09969013020434436
228.0, 0.11952723419808137
229.0, 0.14466857253364143
230.0, 0.17332225384617825
231.0, 0.20658199552661266
232.0, 0.24616688641752926
233.0, 0.28024017952645636
234.0, 0.3064820773164561
235.0, 0.32615478816815924
236.0, 0.3344111883811018
237.0, 0.3107164022473335
238.0, 0.27829019137172445
239.0, 0.2399423102494516
240.0, 0.1985261972142539
241.0, 0.15993611115934114
242.0, 0.13042646968861404
243.0, 0.10278258252015517
244.0, 0.08005769768893391
245.0, 0.06218620842601378
246.0, 0.04757267045371332
247.0, 0.035295147550675636
248.0, 0.02744565650832962
249.0, 0.020533246170119885
250.0, 0.015056594214125342
251.0, 0.010938719596949847
252.0, 0.006929027037892348
253.0, 0.00458590154881543
254.0, 0.002606920991425914
255.0, 0.0015392516975787393
256.0, 0.0008805077096408786
257.0, 0.0014493944844982051
258.0, 0.010224821675861404
259.0, 0.006365236303620063
260.0, 0.004784122344046791
261.0, 0.002926015027420981
262.0, 0.0009151134338168957
263.0, 0.0025951567618944303
264.0, 0.005347442000880074
265.0, 0.006906411035556098
266.0, 0.006886937704715416
267.0, 0.005360476807031483
268.0, 0.0034874059243558825
269.0, 0.004482564396776413
270.0, 0.005320228797003276
271.0, 0.0049532296244742735
272.0, 0.004338781703832448
273.0, 0.003905005040760752
274.0, 0.0035706508399200765
275.0, 0.0030940357273012606
276.0, 0.003412036929991229
277.0, 0.003183630944699256
278.0, 0.0018894916511130277
279.0, 0.0003434644622379886
280.0, 0.0008570480132262701
281.0, 0.00021241938040969337
282.0, 0.001126458023909332
283.0, 0.001227301261372922
284.0, 0.002391213265324194
285.0, 0.006207657904133565
286.0, 0.007422223255161293
287.0, 0.010027354746778313
288.0, 0.014229755188324422
289.0, 0.018682870210265715
290.0, 0.023000378771415673
291.0, 0.027694756909135497
292.0, 0.032531345185443615
293.0, 0.04031658454453426
294.0, 0.047244257075189575
295.0, 0.05352708630939944
296.0, 0.05976465130000092
297.0, 0.06570101324272885
298.0, 0.06825287637849424
299.0, 0.06422327034669933
300.0, 0.06161118002674317
301.0, 0.061157700732448916
302.0, 0.06051234111366931
303.0, 0.05812111796687102
304.0, 0.05783145816173001
305.0, 0.05981266757712432
306.0, 0.06264206355826034
307.0, 0.06562294764088007
308.0, 0.06823920471989625
309.0, 0.06668815134904564
310.0, 0.07062990218234896
311.0, 0.07476412984914606
312.0, 0.07920883677641502
313.0, 0.08586171863354967
314.0, 0.09683726997610434
315.0, 0.10335580966937878
316.0, 0.11592214989448074
317.0, 0.12807434467117562
318.0, 0.13807027253714654
319.0, 0.145618600350493
320.0, 0.15044705877358247
321.0, 0.15131431643265042
322.0, 0.15235658748254816
323.0, 0.1550536130118363
324.0, 0.16109371462576202
325.0, 0.17150233344983287
326.0, 0.18544974020679436
327.0, 0.20948994720971822
328.0, 0.2449904728119528
329.0, 0.27420486824521223
330.0, 0.30444203869944514
331.0, 0.3540595435486774
332.0, 0.40393628272891097
333.0, 0.4739525820430279
334.0, 0.551590161288304
335.0, 0.6354566184036192
336.0, 0.7226576378272059
337.0, 0.8075109505714598
338.0, 0.8808172150769316
339.0, 0.9472824774139789
340.0, 0.9861592367402168
341.0, 0.9768398825011662
342.0, 0.923037411653192
343.0, 0.8566383800778495
344.0, 0.7694293415184382
345.0, 0.6744778273162906
346.0, 0.587338362221596
347.0, 0.5078492817364463
348.0, 0.43581463446056457
349.0, 0.3782211028928244
350.0, 0.3293233045730373
351.0, 0.28860016245044046
352.0, 0.2592573027544897
353.0, 0.23593407790290563
354.0, 0.21473274419430635
355.0, 0.2017545689556009
356.0, 0.1898887189949934
357.0, 0.17781875898390603
358.0, 0.16506310691347192
359.0, 0.1537643961264045
360.0, 0.14485912403708337
361.0, 0.13334076192905336
362.0, 0.12498021067086257
363.0, 0.11715673523408558
364.0, 0.1110672053583941
365.0, 0.10724385711262122
366.0, 0.10583788924617159
367.0, 0.10731243100459595
368.0, 0.10724760947380906
369.0, 0.11113841593761349
370.0, 0.11573686232779815
371.0, 0.12064572396305838
372.0, 0.126936114819886
373.0, 0.13372731267573318
374.0, 0.1468847129576495
375.0, 0.15640353898093035
376.0, 0.16588000722413854
377.0, 0.1738264521407174
378.0, 0.17655229169956857
379.0, 0.17608148358985068
380.0, 0.17124812529507125
381.0, 0.16635753083034316
382.0, 0.16231457084044507
383.0, 0.15930980472170803
384.0, 0.15794232603899197
385.0, 0.16176721494895824
386.0, 0.16745341267359495
387.0, 0.17840273293014813
388.0, 0.19212127200845855
389.0, 0.2087467780934351
390.0, 0.22990372371037274
391.0, 0.25519538069330866
392.0, 0.2782302329023355
393.0, 0.3054562130318107
394.0, 0.3344334380083721
395.0, 0.36095826886840443
396.0, 0.38232054440828506
397.0, 0.4023835680219168
398.0, 0.41868480981512357
399.0, 0.4221090818341481
400.0, 0.42094527060737025
401.0, 0.41802381629188257
402.0, 0.4109182499054515
403.0, 0.3941036965186725
404.0, 0.37622823283002227
405.0, 0.3626923409686311
406.0, 0.3451922646878138
407.0, 0.3273155303266574
408.0, 0.31368264418579067
409.0, 0.2946751564073321
410.0, 0.27988600780098855
411.0, 0.267790649693248
412.0, 0.2543698684218289
413.0, 0.24140880754035973
414.0, 0.230970032634623
415.0, 0.21991501330309374
416.0, 0.20585425787334896
417.0, 0.19510974834881858
418.0, 0.18632342622972345
419.0, 0.17718693615301728
420.0, 0.16590406376876926
421.0, 0.1522308098303478
422.0, 0.13515577392355665
423.0, 0.11862499933306381
424.0, 0.10605359130591308
425.0, 0.09328360660518495
426.0, 0.07915156178017965
427.0, 0.06905812614999958
428.0, 0.06201072712793771
429.0, 0.05866276081466085
430.0, 0.056485787638573225
431.0, 0.05467873895722726
432.0, 0.05461845467556336
433.0, 0.058573809721104535
434.0, 0.06295531612253602
435.0, 0.06454337404024466
436.0, 0.07124920329606264
437.0, 0.07883440996154063
438.0, 0.08346802514980563
439.0, 0.08420974359085001
440.0, 0.0836353523311123
441.0, 0.07971560848572096
442.0, 0.07352175588007494
443.0, 0.06512605088940693
444.0, 0.055433286479926194
445.0, 0.04539850614331925
446.0, 0.03481106851424266
447.0, 0.03024374890699185
448.0, 0.024779650213867386
449.0, 0.021827464229595132
450.0, 0.02000613813252591
451.0, 0.017609648389754533
452.0, 0.015990575733998775
453.0, 0.01733940874940305
454.0, 0.017960073579552642
455.0, 0.01684313903187203
456.0, 0.0169144030609457
457.0, 0.019143873209023752
458.0, 0.02106582331874749
459.0, 0.02067339491796061
460.0, 0.02282556244469105
461.0, 0.02229081954019857
462.0, 0.022098595167644074
463.0, 0.02255290786173912
464.0, 0.02187123545989531
465.0, 0.02146843912307366
466.0, 0.01887017601656888
467.0, 0.018615381397774272
468.0, 0.016765881277948473
469.0, 0.012754150559586926
470.0, 0.009046525138815157
471.0, 0.009487040128225262
472.0, 0.006897312670309091
473.0, 0.006761374105553741
474.0, 0.007125990719616519
475.0, 0.006187915751921047
476.0, 0.004435612483835185
477.0, 0.003953956390505602
478.0, 0.00033583555848895326
479.0, 0.000744320078874333
480.0, 0.0008736105440568507
481.0, 0.0013542518190076322
482.0, 0.001642837228079253
483.0, 0.0007578546301670762
484.0, 7.794709360797085e-05
485.0, 0.0004771920604462759
486.0, 0.0007018195370293305
487.0, 0.0014769645989464294
488.0, 0.0021780728549180427
489.0, 0.0027593166151151753
490.0, 0.00448334089748858
491.0, 0.0036440495971768253
492.0, 0.0036859974596305683
493.0, 0.003136225815976337
494.0, 0.0023570486173888437
495.0, 0.001949313041455483
496.0, 0.0020805095741004945
497.0, 0.0018348118758912348
498.0, 0.001968030633609568
499.0, 0.0012332620449798815
500.0, 0.0007192642908707479
501.0, 0.0010451302163310484
502.0, 0.0018350584277328954
503.0, 0.001820183197755045
504.0, 0.00315180231127815
505.0, 0.004516398728874395
506.0, 0.005701343984231003
507.0, 0.009759261806366328
508.0, 0.015224952042270748
509.0, 0.018272454753550608
510.0, 0.02447029301561435
511.0, 0.031545133900473185
512.0, 0.039914313395702825
513.0, 0.0499394542809067
514.0, 0.06041929771754628
515.0, 0.07131260589618166
516.0, 0.08500362092043477
517.0, 0.09562991096879454
518.0, 0.10635932752426132
519.0, 0.11326255155261392
520.0, 0.11926117711445408
521.0, 0.1255800628579283
522.0, 0.12963215054991556
523.0, 0.12539340792834355
524.0, 0.12647802474610248
525.0, 0.1318705339707577
526.0, 0.1212480200949892
527.0, 0.10542610265786327
528.0, 0.09585329387190086
529.0, 0.0871764914640516
530.0, 0.08213036494130922
531.0, 0.0814568413748047
532.0, 0.07905292783035174
533.0, 0.08162824915508934
534.0, 0.08869735458197348
535.0, 0.09620348898571092
536.0, 0.10570698869578163
537.0, 0.11162538737273395
538.0, 0.11525308859471863
539.0, 0.11466719492637269
540.0, 0.1117886349372714
541.0, 0.109173959329617
542.0, 0.10756938250167138
543.0, 0.10294130166737167
544.0, 0.10325353959265832
545.0, 0.1001371863777436
546.0, 0.09958833314609168
547.0, 0.10090948101616043
548.0, 0.10025871910965091
549.0, 0.0955436812521976
550.0, 0.09313051666487374
551.0, 0.08481973107957602
552.0, 0.07367631394840839
553.0, 0.06401482850130906
554.0, 0.05650924829142599
555.0, 0.048794317095793516
556.0, 0.03831508524316528
557.0, 0.032772250511519746
558.0, 0.02851777730940482
559.0, 0.0237319249847824
560.0, 0.02099657146292803
561.0, 0.01986137618840901
562.0, 0.017445665219663547
563.0, 0.014465836942923768
564.0, 0.014206228427763866
565.0, 0.014159165571366372
566.0, 0.01368861460557336
567.0, 0.013767594915222923
568.0, 0.014704320702973027
569.0, 0.015238084263485463
570.0, 0.013332852057169824
571.0, 0.014741473386190208
572.0, 0.014352993294155212
573.0, 0.01340695477659471
574.0, 0.013066942032930537
575.0, 0.013629664519471424
576.0, 0.014118289722865687
577.0, 0.011275932258661482
578.0, 0.013174956980065383
579.0, 0.010788997170349708
580.0, 0.008199912796675453
581.0, 0.007548831637813193
582.0, 0.007992145084949656
583.0, 0.007379995032909561
584.0, 0.008289927300049892
585.0, 0.007320747039654699
586.0, 0.00834267994425513
587.0, 0.008555513894429479
588.0, 0.007591291441148595
589.0, 0.006976093746236488
590.0, 0.007409317072748455
591.0, 0.007166992294638519
592.0, 0.0074539100847163964
593.0, 0.007036905888049187
594.0, 0.006066241071834195
595.0, 0.004914867023745693
596.0, 0.003979799138395664
597.0, 0.003657125205446688
598.0, 0.0031864243403079352
599.0, 0.002954850209584424
600.0, 0.002967192051190817
601.0, 0.0028478577123135233
602.0, 0.002670928748580888
603.0, 0.002459572313643392
604.0, 0.0013712266385855361
605.0, 0.00038588884269184813
606.0, 0.0011226139493172131
607.0, 0.0017423752459690828
608.0, 0.001199432827219134
609.0, 0.0005797422350663682
610.0, 0.00097909901705284
611.0, 0.00041445512024962226
612.0, 0.0006429610596616674
613.0, 0.001385697100265004
614.0, 0.001839067977983736
615.0, 0.0029271718407272683
616.0, 0.0042196014384915746
617.0, 0.005140737932251581
618.0, 0.007382751315637265
619.0, 0.011027601393693204
620.0, 0.010770018464524479
621.0, 0.012196080933937549
622.0, 0.01524479777841559
623.0, 0.018195029748867445
624.0, 0.02014552689904994
625.0, 0.02261117002880437
626.0, 0.02709851347320496
627.0, 0.02658592740869052
628.0, 0.025342526998451062
629.0, 0.02416926278116701
630.0, 0.021679742929103612
631.0, 0.018401746059409876
632.0, 0.018912656612449872
633.0, 0.018727795183725013
634.0, 0.018938963365113477
635.0, 0.02071551725461849
636.0, 0.022196659189417045
637.0, 0.023753679425973867
638.0, 0.026878530395064867
639.0, 0.03194399055325568
640.0, 0.03597989039869983
641.0, 0.039557327987624305
642.0, 0.045330017868545396
643.0, 0.052563200613543914
644.0, 0.05916769167622064
645.0, 0.06661537689682963
646.0, 0.0788310919765147
647.0, 0.089134497895274
648.0, 0.09926231626689583
649.0, 0.11414079411922756
650.0, 0.13178824458197333
651.0, 0.15299412698375453
652.0, 0.17780449174917176
653.0, 0.2058720536344542
654.0, 0.2408276937747384
655.0, 0.2782063216431701
656.0, 0.3211591350083677
657.0, 0.37075793435549653
658.0, 0.42070923989902104
659.0, 0.4676941066198159
660.0, 0.50996995987152
661.0, 0.5407416381145449
662.0, 0.5489953156778721
663.0, 0.5311077226549014
664.0, 0.5015705419097841
665.0, 0.4616331303330712
666.0, 0.41557124484563013
667.0, 0.3723594146932947
668.0, 0.3408915870786159
669.0, 0.31490821107337036
670.0, 0.30180453706702454
671.0, 0.29738941499301724
672.0, 0.2994581987135368
673.0, 0.31108099009279244
674.0, 0.3328594909582728
675.0, 0.36118616589264785
676.0, 0.39589549683576103
677.0, 0.4525070826269069
678.0, 0.5008770855912705
679.0, 0.540691575468017
680.0, 0.5816266360019903
681.0, 0.6206115964847307
682.0, 0.6463451825006168
683.0, 0.6549836181987037
684.0, 0.6400638209607572
685.0, 0.593975857431006
686.0, 0.5394108379266618
687.0, 0.477765171532691
688.0, 0.41072854947839427
689.0, 0.3460765848333913
690.0, 0.2935486022838487
691.0, 0.24675059270789285
692.0, 0.2047337642458973
693.0, 0.1724299563778114
694.0, 0.14722386175555374
695.0, 0.12645250163927046
696.0, 0.10739997672240306
697.0, 0.0901115975254947
698.0, 0.07959925151081944
699.0, 0.07123657179334404
700.0, 0.06367446663048887
701.0, 0.05579716095553808
702.0, 0.04854203701738407
703.0, 0.044808206690755616
704.0, 0.04281916676226187
705.0, 0.036791381382584566
706.0, 0.03245243526981387
707.0, 0.028368231123584508
708.0, 0.02513980060206393
709.0, 0.022920052399847887
710.0, 0.02114626014885362
711.0, 0.019782127146005704
712.0, 0.01879842231493642
713.0, 0.017389857445397897
714.0, 0.01696164613707526
715.0, 0.015428127271111126
716.0, 0.014698260370380044
717.0, 0.014135591292241172
718.0, 0.012423695124113055
719.0, 0.013362584003198641
720.0, 0.02123480373295571
721.0, 0.026189177223318403
722.0, 0.0316547687117045
723.0, 0.029513730846915952
724.0, 0.01686807003412724
725.0, 0.009755173807294267
726.0, 0.009304189127384777
727.0, 0.009885294200446088
728.0, 0.011510072508416192
729.0, 0.009691411839271157
730.0, 0.01198269220601654
731.0, 0.01245901748095046
732.0, 0.0141755029604374
733.0, 0.01620611415463474
734.0, 0.017546576693972717
735.0, 0.018298157036422482
736.0, 0.019046382426062308
737.0, 0.020999119792018163
738.0, 0.022356606112443295
739.0, 0.02434676426578994
740.0, 0.02419002764825394
741.0, 0.025140453357700824
742.0, 0.02710281671249554
743.0, 0.02681221542991101
744.0, 0.026577760055712538
745.0, 0.03062771821560855
746.0, 0.034362307797208766
747.0, 0.037336932625767316
748.0, 0.04071164076272174
749.0, 0.04470289104617922
750.0, 0.04816515724537403
751.0, 0.049501164304895186
752.0, 0.04831893609248891
753.0, 0.04277512524379312
754.0, 0.03524947506710248
755.0, 0.02928722089338093
756.0, 0.02255402711850893
757.0, 0.0172184800935347
758.0, 0.014002118660758338
759.0, 0.010131863302878494
760.0, 0.008202727814618204
761.0, 0.0062365939930006465
762.0, 0.005182204031828454
763.0, 0.0046542079703070375
764.0, 0.003268100730651026
765.0, 0.001585706799150591
766.0, 0.001021442283427655
767.0, 0.0016627328180439434
768.0, 0.0009653006737686384
769.0, 0.0018480205675065523
770.0, 0.0012589682533857723
771.0, 0.0010108165929962045
772.0, 0.0008566839842117832
773.0, 0.0005609429840707069
774.0, 0.00023183551570059703
775.0, 0.0005467680534775535
776.0, 0.0034162392886766327
777.0, 0.005407611635230794
778.0, 0.0026213026748931048
779.0, 0.002751491884787571
780.0, 0.001946445491171711
781.0, 0.0023747157168127787
782.0, 0.004764889478406957
783.0, 0.004318788959871011
784.0, 0.0028495963425300905
785.0, 0.0015781283776753817
786.0, 0.003537423949508982
787.0, 0.0034525354822726342
788.0, 0.0025394040972485277
789.0, 0.002703491906902892
790.0, 0.0033305129008011224
791.0, 0.0029363328207786454
792.0, 0.0044406852993842
793.0, 0.0008558842800644154
794.0, 0.0034725850264114007
795.0, 0.002017557347360794
796.0, 0.0007159239854908509
797.0, 0.0017528288553248844
798.0, 0.0026034736198246745
799.0, 0.0007847518023431706
800.0, 0.0004751496384405359
801.0, 0.0015701725897239475
802.0, 0.0004558917468546149
803.0, 0.0005252426277386389
804.0, 0.0003494660144247425
805.0, 0.0006845916816938574
806.0, 0.0011604837975495502
807.0, 0.0008601850171082005
808.0, 0.001155168915433177
809.0, 0.0025516548153772943
810.0, 0.0007774076351917937
811.0, 0.0008842966906740263
812.0, 0.0013997614953074995
813.0, 0.001603322735331679
814.0, 0.0014379477141556705
815.0, 0.0012581260113310089
816.0, 0.001340666869701336
817.0, 0.000916816255965432
818.0, 0.0013501214169219572
819.0, 0.00173434109624522
820.0, 0.0021335189860204958
821.0, 0.0021098533759428407
822.0, 0.002445795754531245
823.0, 0.0023628564583014263
824.0, 0.0007487984788275827
825.0, 0.0018529127012505366
826.0, 0.003806378123574569
827.0, 0.0024909149285297235
828.0, 0.0040750950986630265
829.0, 0.004499095568140858
830.0, 0.004469368187044512
831.0, 0.00456918889860611
832.0, 0.00399472889082762
833.0, 0.003365397913639739
834.0, 0.005021267174258963
835.0, 0.00446902619185713
836.0, 0.004839170823936465
837.0, 0.007247814473107115
838.0, 0.007371410514945379
839.0, 0.006807718532842868
840.0, 0.008584647448681409
841.0, 0.011142738635850514
842.0, 0.010964217114341509
843.0, 0.01343763564390084
844.0, 0.013829252646556758
845.0, 0.015105494975221675
846.0, 0.0172186464404544
847.0, 0.018396576426445307
848.0, 0.021021699997258978
849.0, 0.026388146694079025
850.0, 0.028903998491719353
851.0, 0.03191401725554829
852.0, 0.038537908902051284
853.0, 0.04556755351126432
854.0, 0.052173408933492454
855.0, 0.05889539952855937
856.0, 0.06517584229700711
857.0, 0.07027924365314259
858.0, 0.07431924803060941
859.0, 0.07759394169805765
860.0, 0.07776617619870053
861.0, 0.07570758623486028
862.0, 0.07375421173138343
863.0, 0.06951377778024112
864.0, 0.06418328626784561
865.0, 0.05873140102575493
866.0, 0.053392551185802176
867.0, 0.04827286806944194
868.0, 0.042459768089648006
869.0, 0.03957793335577191
870.0, 0.034680528582970646
871.0, 0.0317213940250852
872.0, 0.027876188249441807
873.0, 0.024602415392188135
874.0, 0.022963394092472215
875.0, 0.02165613981371091
876.0, 0.0196016528386215
877.0, 0.019451051146076485
878.0, 0.019718478023936854
879.0, 0.01750536807830092
880.0, 0.02144281935306204
881.0, 0.020371110207791195
882.0, 0.018142778472295992
883.0, 0.016291128130139113
884.0, 0.013098494933316334
885.0, 0.015173921184771922
886.0, 0.015635172135166086
887.0, 0.011068233635251442
888.0, 0.01693562588788302
889.0, 0.016740267693745724
890.0, 0.0185160490476888
891.0, 0.020808406357447053
892.0, 0.02172548352666969
893.0, 0.023376050731335016
894.0, 0.02441165710017453
895.0, 0.025801440773989433
896.0, 0.026514619435894348
897.0, 0.02784972004213969
898.0, 0.027375338266484195
899.0, 0.02746107363595854
900.0, 0.027141383472053835
901.0, 0.025911321427293278
902.0, 0.027194322840680105
903.0, 0.0329418001002107
904.0, 0.02556499637360164
905.0, 0.02588281002367586
906.0, 0.01882234370488795
907.0, 0.018560800216894196
908.0, 0.02025547734195239
909.0, 0.0208905055256502
910.0, 0.02074560322846827
911.0, 0.020679490384636526
912.0, 0.020611803307859115
913.0, 0.018457636329725118
914.0, 0.02166750700886823
915.0, 0.021033850231015346
916.0, 0.02341776287487315
917.0, 0.02621149097608672
918.0, 0.029299084331571325
919.0, 0.032530298644352564
920.0, 0.037018740106035
921.0, 0.045257400749044656
922.0, 0.05075332158034994
923.0, 0.060429892205896486
924.0, 0.06931153717309328
925.0, 0.077803673440613
926.0, 0.08516610029006874
927.0, 0.089645629388544
928.0, 0.09357106703837179
929.0, 0.09739406062734286
930.0, 0.09813935070118614
931.0, 0.10079113706700073
932.0, 0.10058488219818415
933.0, 0.10386742045558006
934.0, 0.10076529520156396
935.0, 0.10070859003818695
936.0, 0.10293992759723034
937.0, 0.10340550472393464
938.0, 0.10232570147494896
939.0, 0.10085549283400531
940.0, 0.09436579312093679
941.0, 0.09028745734706953
942.0, 0.08659696935000957
943.0, 0.08041679713797259
944.0, 0.07500300101142299
945.0, 0.07208284931236426
946.0, 0.06686803060538749
947.0, 0.05910754838165322
948.0, 0.052955593490384145
949.0, 0.04918794786275183
950.0, 0.04575786895407149
951.0, 0.042999059795506424
952.0, 0.037025984305392785
953.0, 0.033505519784759394
954.0, 0.031393998672300166
955.0, 0.030026197294374554
956.0, 0.029187532919725995
957.0, 0.027042203989990323
958.0, 0.023079908680120127
959.0, 0.021743928827767395
960.0, 0.018518459611712834
961.0, 0.017741595647931048
962.0, 0.01881414050901679
963.0, 0.01712204069701705
964.0, 0.015950226003336676
965.0, 0.013866223579437667
966.0, 0.013516944548988557
967.0, 0.014888504476465277
968.0, 0.012257559948874933
969.0, 0.011789690958090977
970.0, 0.01460432396532429
971.0, 0.01326525717507395
972.0, 0.01216280292701894
973.0, 0.011522830860524792
974.0, 0.011368546946929462
975.0, 0.011981866497519575
976.0, 0.013923807191744256
977.0, 0.016250793825282255
978.0, 0.017067648229281352
979.0, 0.01954232144524146
980.0, 0.021608597237645813
981.0, 0.022799749361065876
982.0, 0.0272079273730823
983.0, 0.030520109990459125
984.0, 0.03351225680190918
985.0, 0.03948949194293837
986.0, 0.04613586816555556
987.0, 0.050168062153687305
988.0, 0.056113980564727536
989.0, 0.06349505347582964
990.0, 0.07230652233714613
991.0, 0.0825810262388982
992.0, 0.09296802635045134
993.0, 0.10903159890417154
994.0, 0.12842758903037735
995.0, 0.14927476461183295
996.0, 0.17260189763737668
997.0, 0.19970888237493478
998.0, 0.23004908381530087
999.0, 0.26380943914613086
1000.0, 0.3049828526143249
1001.0, 0.3454251377003175
1002.0, 0.3895636170046026
1003.0, 0.4359179727710087
1004.0, 0.4810006323407528
1005.0, 0.5303296351677965
1006.0, 0.581567145886685
1007.0, 0.6242121854127523
1008.0, 0.657072054345608
1009.0, 0.6817986939265266
1010.0, 0.6838208317885812
1011.0, 0.6790749000150439
1012.0, 0.672943310151369
1013.0, 0.6596697384560806
1014.0, 0.6526107419288997
1015.0, 0.6505953415160941
1016.0, 0.6530258629061992
1017.0, 0.6600430755027828
1018.0, 0.6654919702868332
1019.0, 0.6789912654408413
1020.0, 0.6776266467964427
1021.0, 0.6811329455444999
1022.0, 0.6831420090798453
1023.0, 0.6813209425417767
1024.0, 0.6793313917769517
1025.0, 0.6753308750656932
1026.0, 0.6689127399102862
1027.0, 0.6603469654966637
1028.0, 0.6485174747362564
1029.0, 0.6352156727637683
1030.0, 0.6142788114315261
1031.0, 0.5867347792898886
1032.0, 0.5595841057939817
1033.0, 0.5264482930787249
1034.0, 0.48343070535181126
1035.0, 0.44663011540945763
1036.0, 0.41196137497695884
1037.0, 0.3740475124678724
1038.0, 0.3400219024439251
1039.0, 0.3101365448965395
1040.0, 0.2788834418559009
1041.0, 0.2562307950516368
1042.0, 0.22982260097953405
1043.0, 0.2048812845569671
1044.0, 0.1896569642980774
1045.0, 0.1713275123960803
1046.0, 0.15343341003464822
1047.0, 0.13901115631256752
1048.0, 0.12710589957767005
1049.0, 0.11898687050555501
1050.0, 0.11045086343356852
1051.0, 0.09787015422363987
1052.0, 0.09512681009795654
1053.0, 0.08929343224985738
1054.0, 0.08141384562663057
1055.0, 0.07443200156189546
1056.0, 0.06864803017591646
1057.0, 0.06388656470211013
1058.0, 0.05873060307245386
1059.0, 0.0532715664522388
1060.0, 0.04944773881518471
1061.0, 0.043359547640043995
1062.0, 0.03739211001019763
1063.0, 0.03637648878908575
1064.0, 0.03208905363176882
1065.0, 0.02930609979098532
1066.0, 0.02622677485088024
1067.0, 0.024630275533460092
1068.0, 0.022687753435936958
1069.0, 0.020183530888526875
1070.0, 0.0195757422136289
1071.0, 0.020220164649480864
1072.0, 0.021217225117036543
1073.0, 0.017818115656583446
1074.0, 0.022771652248078318
1075.0, 0.01636442592110031
1076.0, 0.017068257197248606
1077.0, 0.015559175032469499
1078.0, 0.01420777215341786
1079.0, 0.015482631847075037
1080.0, 0.016931676163217644
1081.0, 0.017267662424947886
1082.0, 0.0184073928640409
1083.0, 0.017934998386160424
1084.0, 0.01759645282883231
1085.0, 0.01294661590434819
1086.0, 0.014450842102673268
1087.0, 0.012824594339271177
1088.0, 0.012566581503921476
1089.0, 0.01194070376366811
1090.0, 0.012341724586167472
1091.0, 0.011459461330309203
1092.0, 0.00877708462486306
1093.0, 0.010104230467395147
1094.0, 0.0070712871384448085
1095.0, 0.009383211240202053
1096.0, 0.007364537144818728
1097.0, 0.009616047464977368
1098.0, 0.007870205529270997
1099.0, 0.009383961321246793
1100.0, 0.009226906996797478
1101.0, 0.007798112662802293
1102.0, 0.006467453542871617
1103.0, 0.005598448626108368
1104.0, 0.006125863925389388
1105.0, 0.006004001785404257
1106.0, 0.007178506560469314
1107.0, 0.0071309633477752606
1108.0, 0.009912162436528517
1109.0, 0.0068121939844395015
1110.0, 0.009138029984931682
1111.0, 0.00893020367633484
1112.0, 0.007191787940148392
1113.0, 0.008599984710292751
1114.0, 0.010153842392527332
1115.0, 0.0093208152767888
1116.0, 0.011301816996021008
1117.0, 0.008412801037357904
1118.0, 0.00994482071974136
1119.0, 0.007395541097725212
1120.0, 0.00866230212123804
1121.0, 0.007741961318116141
1122.0, 0.009210014991227315
1123.0, 0.009690402343967936
1124.0, 0.008695747327925323
1125.0, 0.008212950526441033
1126.0, 0.008061107182162932
1127.0, 0.006777020406562411
1128.0, 0.005567885813417718
1129.0, 0.0054110100051765276
1130.0, 0.007208584771658701
1131.0, 0.005798472745531062
1132.0, 0.005177153152470789
1133.0, 0.003386015668642018
1134.0, 0.003018979966892174
1135.0, 0.004634794495508485
1136.0, 0.005338706231671665
1137.0, 0.0033588706081356065
1138.0, 0.0019297504121460365
1139.0, 0.003237163882296127
1140.0, 0.0015982641487614368
1141.0, 0.0011796947540845782
1142.0, 0.0009568665620194396
1143.0, 0.001437416398934385
1144.0, 0.0008490800174285567
1145.0, 0.000982105454215658
1146.0, 0.0020957890208086506
1147.0, 0.001817835852770478
1148.0, 0.0007102707119829619
1149.0, 0.00033858451633148517
1150.0, 0.0009160252350688811
1151.0, 0.0015043298920199286
1152.0, 0.0010243223040828369
1153.0, 0.001184574585060015
1154.0, 0.0018486571017338458
1155.0, 0.0009524137786617746
1156.0, 0.0007879706629596774
1157.0, 0.0015046701280764716
1158.0, 0.0006646703867729829
1159.0, 0.00122933377682771
1160.0, 0.0017708845901358069
1161.0, 0.0017218449894388789
1162.0, 0.0014684059986987347
1163.0, 0.0005949131497830103
1164.0, 0.0008086171619880932
1165.0, 0.0017002693233102593
1166.0, 0.0033645960313985705
1167.0, 0.0012806062591001533
1168.0, 0.0014490344224837434
1169.0, 0.001664792290469123
1170.0, 0.002218403546358224
1171.0, 0.0033794364967502776
1172.0, 0.0038660088488399057
1173.0, 0.0026908870777285093
1174.0, 0.002259149283253464
1175.0, 0.0031094051274173427
1176.0, 0.001636227280597382
1177.0, 0.0008655746959736984
1178.0, 0.0030398466553561284
1179.0, 0.0022873472968500726
1180.0, 0.0013057493011952494
1181.0, 0.0018937195010807176
1182.0, 0.0014243180325826219
1183.0, 0.0009927634177278126
1184.0, 0.0024718177352480997
1185.0, 0.0023032931877946076
1186.0, 0.0007935240392056115
1187.0, 0.00045478539529983684
1188.0, 0.0007431547822343931
1189.0, 0.001212793203504954
1190.0, 0.001774530956368486
1191.0, 0.0008372152418981722
1192.0, 0.001112011229462945
1193.0, 0.002951442413588359
1194.0, 0.0022068967455996904
1195.0, 0.0007387833904652862
1196.0, 0.001855541099906033
1197.0, 0.0018535781962261437
1198.0, 0.0018684772010060004
1199.0, 0.002037558061361522
1200.0, 0.0012694907034397195
1201.0, 0.0008157598944937761
1202.0, 0.0009851639176855676
1203.0, 0.0011597582422478842
1204.0, 0.0008971300921235261
1205.0, 0.0031121471482257546
1206.0, 0.001278405167226774
1207.0, 0.002076928120485705
1208.0, 0.001775789761400007
1209.0, 0.0006564878984954563
1210.0, 0.0006953644861760822
1211.0, 0.000563808472777435
1212.0, 0.0002560053247061445
1213.0, 0.0007889374537197816
1214.0, 0.0021581186610216156
1215.0, 0.0031230082990455514
1216.0, 0.0006556396776950949
1217.0, 0.0009324775864788579
1218.0, 0.00017014575020805227
1219.0, 0.0014850897829979924
1220.0, 0.0007645431720448351
1221.0, 0.0007849490423833066
1222.0, 0.0007104702395042655
1223.0, 0.00026686242812336714
1224.0, 0.0007554160979570434
1225.0, 0.0011920090813621964
1226.0, 0.000931133753689284
1227.0, 0.0006613602876992177
1228.0, 0.0006209685329058519
1229.0, 0.0009960405819134782
1230.0, 0.0004668375394139034
1231.0, 0.000863829534332091
1232.0, 0.002679940224879532
1233.0, 0.0030498980671700283
1234.0, 0.0015341013204330806
1235.0, 0.0035151693843553373
1236.0, 0.003057574586353644
1237.0, 0.005737034931968295
1238.0, 0.0048944397165547405
1239.0, 0.004011349643429891
1240.0, 0.005321091294452831
1241.0, 0.0038436532048586216
1242.0, 0.0030542683869738156
1243.0, 0.003701782839309013
1244.0, 0.003851063240128855
1245.0, 0.004682104548043994
1246.0, 0.005191869637993086
1247.0, 0.007163531324891517
1248.0, 0.005212807816233724
1249.0, 0.006370576742260822
1250.0, 0.004907811546296021
1251.0, 0.004631368056661791
1252.0, 0.0047964623939060185
1253.0, 0.005425707950372231
1254.0, 0.006193460713442993
1255.0, 0.005998957618183606
1256.0, 0.006263516743545082
1257.0, 0.006589281058437611
1258.0, 0.00796495128565438
1259.0, 0.006041045325860724
1260.0, 0.007779345260399204
1261.0, 0.009916452647486576
1262.0, 0.013528951393310396
1263.0, 0.009647031253853768
1264.0, 0.01045065687639608
1265.0, 0.011819467658591053
1266.0, 0.011482424474278425
1267.0, 0.012405351183639878
1268.0, 0.013770630883428852
1269.0, 0.012931706676058292
1270.0, 0.012536790064366279
1271.0, 0.014420560186302377
1272.0, 0.012922904964542922
1273.0, 0.015025641865853196
1274.0, 0.013806951058005114
1275.0, 0.017029121910796634
1276.0, 0.014200445849134779
1277.0, 0.014802867548391807
1278.0, 0.013096078411212523
1279.0, 0.011197198874638542
1280.0, 0.009994921784553168
1281.0, 0.01149050532035614
1282.0, 0.014499852639647468
1283.0, 0.01445618783782667
1284.0, 0.016596163242042265
1285.0, 0.020962741445455835
1286.0, 0.009832706958832165
1287.0, 0.010552199616830755
1288.0, 0.01848056453962096
1289.0, 0.015182944005960108
1290.0, 0.015497013705279308
1291.0, 0.012096487539067642
1292.0, 0.016793795406907387
1293.0, 0.018142186167171004
1294.0, 0.017435093226141438
1295.0, 0.016118450037693605
1296.0, 0.015517158649612948
1297.0, 0.015553868789519774
1298.0, 0.01413517863599165
1299.0, 0.012909293597433084
1300.0, 0.014444836819371372
1301.0, 0.014540820307915588
1302.0, 0.014317452819244618
1303.0, 0.01579910608908968
1304.0, 0.014874284259422279
1305.0, 0.0152791518827416
1306.0, 0.01741292475610358
1307.0, 0.017913066249739873
1308.0, 0.018152965373972835
1309.0, 0.019770551091573007
1310.0, 0.020737051185224103
1311.0, 0.021579779937088366
1312.0, 0.020018560748779737
1313.0, 0.019246018598673895
1314.0, 0.020595944288724008
1315.0, 0.02016905578316435
1316.0, 0.019731781584525796
1317.0, 0.021935713954407143
1318.0, 0.02352404042404138
1319.0, 0.01746933801930656
1320.0, 0.01633693179667599
1321.0, 0.01799105649935342
1322.0, 0.012381965474599977
1323.0, 0.01653097575297917
1324.0, 0.016374090376888358
1325.0, 0.014245016405944114
1326.0, 0.012349611472260432
1327.0, 0.010001834503997244
1328.0, 0.008432853193531854
1329.0, 0.007229271538616141
1330.0, 0.006585217122571776
1331.0, 0.006173766497665684
1332.0, 0.004541323395424471
1333.0, 0.005743778662409593
1334.0, 0.006275274310318268
1335.0, 0.005251878760050575
1336.0, 0.003537999414929088
1337.0, 0.004895958682562419
1338.0, 0.003981112889611619
1339.0, 0.005681271007401361
1340.0, 0.007171340310254965
1341.0, 0.006473252384782818
1342.0, 0.0060643428097522795
1343.0, 0.004541770696306621
1344.0, 0.0031907184815330404
1345.0, 0.00360491058598199
1346.0, 0.00423860222481333
1347.0, 0.004495406867528185
1348.0, 0.005201027914546696
1349.0, 0.005026517132288691
1350.0, 0.004598739941081663
1351.0, 0.005004080924658849
1352.0, 0.006425119352375539
1353.0, 0.005761219822880438
1354.0, 0.005248139711437073
1355.0, 0.0031381530824222256
1356.0, 0.002089135442741305
1357.0, 0.0029165575552638472
1358.0, 0.0025605193864864286
1359.0, 0.003541550094610619
1360.0, 0.0028253486416347697
1361.0, 0.0028020594209793837
1362.0, 0.0033103219086388557
1363.0, 0.0047853034575670635
1364.0, 0.005486480275963857
1365.0, 0.0042841650558343315
1366.0, 0.005582544126730968
1367.0, 0.003606825983090917
1368.0, 0.006321962523500231
1369.0, 0.007314035311320347
1370.0, 0.006391463305680134
1371.0, 0.0074956952015480804
1372.0, 0.006737193290867253
1373.0, 0.005857623745556743
1374.0, 0.005995721193802337
1375.0, 0.003657731995798272
1376.0, 0.005336100261615533
1377.0, 0.006548986495477075
1378.0, 0.007919451470886914
1379.0, 0.007209418947179329
1380.0, 0.00680486903988789
1381.0, 0.008282834990411644
1382.0, 0.008384772849242885
1383.0, 0.00807364218897672
1384.0, 0.008414023736014428
1385.0, 0.006814255074237067
1386.0, 0.007603760763441196
1387.0, 0.008302612089768537
1388.0, 0.006738982637747279
1389.0, 0.007140363278044903
1390.0, 0.0037710800349448855
1391.0, 0.005633435414232231
1392.0, 0.0055933090962982605
1393.0, 0.004467925198196427
1394.0, 0.005473395050334343
1395.0, 0.004232586112270798
1396.0, 0.004134338378323366
1397.0, 0.00463371221942791
1398.0, 0.004576644164847372
1399.0, 0.003891085616229983
1400.0, 0.0029377778260363486
1401.0, 0.0036365677999950895
1402.0, 0.005176089365826817
1403.0, 0.004932982321326511
1404.0, 0.00597746617193841
1405.0, 0.005429845736303863
1406.0, 0.005359072058350036
1407.0, 0.005835083708746589
1408.0, 0.006914534024013626
1409.0, 0.005712184464339728
1410.0, 0.006263157338662316
1411.0, 0.005610212564413594
1412.0, 0.0033522155417083656
1413.0, 0.005075141588585982
1414.0, 0.003946449664296637
1415.0, 0.004643541149450376
1416.0, 0.0052966548266216995
1417.0, 0.004254290978479643
1418.0, 0.0044153521668331445
1419.0, 0.004387321338215833
1420.0, 0.0030617614573933646
1421.0, 0.0040136021680378196
1422.0, 0.005597189914538608
1423.0, 0.004723734178640414
1424.0, 0.0024561078720781726
1425.0, 0.004601627762509934
1426.0, 0.005304686549841191
1427.0, 0.002719797746030313
1428.0, 0.006915275454282119
1429.0, 0.006762242303707401
1430.0, 0.007545464194050041
1431.0, 0.009746145442148645
1432.0, 0.008330312328211298
1433.0, 0.009494163911488912
1434.0, 0.012778381988441563
1435.0, 0.01409267243567322
1436.0, 0.01575788424836665
1437.0, 0.017994771927375083
1438.0, 0.020339158776167925
1439.0, 0.01996905267831936
1440.0, 0.019142064091081764
1441.0, 0.02329357941932237
1442.0, 0.025547202534828263
1443.0, 0.02942432331554655
1444.0, 0.02910289191212806
1445.0, 0.029522669462304522
1446.0, 0.03230905850905444
1447.0, 0.030456569898328657
1448.0, 0.0325920923163823
1449.0, 0.034514606121152105
1450.0, 0.03630225925706418
1451.0, 0.03689882168039081
1452.0, 0.03547728574555921
1453.0, 0.036211367527105284
1454.0, 0.0374945930145091
1455.0, 0.03693868288664561
1456.0, 0.03704503067593528
1457.0, 0.0350977337709249
1458.0, 0.03478682138125939
1459.0, 0.034386512223058344
1460.0, 0.03142903501517475
1461.0, 0.03086283547827871
1462.0, 0.03080790134179731
1463.0, 0.028635336339427213
1464.0, 0.027668617311560496
1465.0, 0.02556708842072811
1466.0, 0.025183674345748763
1467.0, 0.023799508760674045
1468.0, 0.015232243299023401
1469.0, 0.015249613917208606
1470.0, 0.015584570262544825
1471.0, 0.016210352462753257
1472.0, 0.015427034690374434
1473.0, 0.01659984240256098
1474.0, 0.016124056425953597
1475.0, 0.013480423513866777
1476.0, 0.01316215359977579
1477.0, 0.012209473770839984
1478.0, 0.010428647501729811
1479.0, 0.011465824646186855
1480.0, 0.012283462250272431
1481.0, 0.011987382416379061
1482.0, 0.011856588022638294
1483.0, 0.011357085157795526
1484.0, 0.01044391789922291
1485.0, 0.009123693825863876
1486.0, 0.009120009271027336
1487.0, 0.0071539294399705555
1488.0, 0.004550185920882372
1489.0, 0.006388202873645145
1490.0, 0.004264984174673936
1491.0, 0.0050324975395325214
1492.0, 0.0051833372433493455
1493.0, 0.000847719440172401
1494.0, 0.003634081537007621
1495.0, 0.003829998932934702
1496.0, 0.0015197725819784292
1497.0, 0.0004613498327797218
1498.0, 0.0022799850223181655
1499.0, 0.0018516268374128334
1500.0, 0.0014046915439687895
1501.0, 0.0018032199134881105
1502.0, 0.0015661215018246703
1503.0, 0.0009040025589329238
1504.0, 0.0005998246438851811
1505.0, 0.0005865182574852492
1506.0, 0.0007125380373572148
1507.0, 0.0007226022514915701
1508.0, 0.000491837761041682
1509.0, 0.0012529498472064163
1510.0, 0.0026861990395401192
1511.0, 0.0014256570569651339
1512.0, 0.0005327205633925535
1513.0, 0.0011692275015462317
1514.0, 0.0042090116591443115
1515.0, 0.0005550372461288682
1516.0, 0.0007086475596379596
1517.0, 0.003890571758435063
1518.0, 0.0002893582236299778
1519.0, 0.0002657073765538768
1520.0, 0.0019107793248094899
1521.0, 0.0008000948904985547
1522.0, 0.0024453757049199836
1523.0, 0.002396365612341102
1524.0, 0.0022547786245326624
1525.0, 0.002018200531902147
1526.0, 0.0026601183490250597
1527.0, 0.0025873498219931667
1528.0, 0.003110169393984794
1529.0, 0.002788177490157788
1530.0, 0.0018368055339460453
1531.0, 0.002180208547252793
1532.0, 0.0025828784857207777
1533.0, 0.0025133163979293824
1534.0, 0.003091436880913968
1535.0, 0.0035745028132151664
1536.0, 0.0032182054489174445
1537.0, 0.0036825587817896606
1538.0, 0.003502671941254582
1539.0, 0.004485172760609271
1540.0, 0.004565153765508739
1541.0, 0.0017440892829495677
1542.0, 0.0031253325382151545
1543.0, 0.0023289485684194478
1544.0, 0.0036951958171218906
1545.0, 0.00394821372721546
1546.0, 0.002626579755117686
1547.0, 0.004753307014869781
1548.0, 0.002565946644376012
1549.0, 0.0023679963734951504
1550.0, 0.0007324088787043129
1551.0, 0.002480400372164772
1552.0, 0.0039598198949997955
1553.0, 0.004093961655494074
1554.0, 0.004173057443502698
1555.0, 0.0036057946369458106
1556.0, 0.002796508625811886
1557.0, 0.002442828672443788
1558.0, 0.0022205628539531544
1559.0, 0.002853795788838908
1560.0, 0.0022281255725553504
1561.0, 4.6795556391316986e-05
1562.0, 0.0008896425607756859
1563.0, 0.0016087787295937165
1564, 0.0
1565, 0.0
1566, 0.0
1567, 0.0
1568, 0.0
1569, 0.0
1570, 0.0
1571, 0.0
1572, 0.0
1573, 0.0
1574, 0.0
1575, 0.0
1576, 0.0
1577, 0.0
1578, 0.0
1579, 0.0
1580, 0.0
1581, 0.0
1582, 0.0
1583, 0.0
1584, 0.0
1585, 0.0
1586, 0.0
1587, 0.0
1588, 0.0
1589, 0.0
1590, 0.0
1591, 0.0
1592, 0.0
1593, 0.0
1594, 0.0
1595, 0.0
1596, 0.0
1597, 0.0
1598, 0.0
1599, 0.0
