30, 0.0
31, 0.0
32, 0.0
33, 0.0
34, 0.0
35, 0.0
36, 0.0
37, 0.0
38, 0.0
39, 0.0
40, 0.0
41, 0.0
42, 0.0
43, 0.0
44, 0.0
45, 0.0
46, 0.0
47, 0.0
48, 0.0
49, 0.0
50, 0.0
51, 0.0
52, 0.0
53, 0.0
54, 0.0
55, 0.0
56, 0.0
57, 0.0
58, 0.0
59, 0.0
60, 0.0
61, 0.0
62, 0.0
63, 0.0
64, 0.0
65, 0.0
66, 0.0
67, 0.0
68, 0.0
69, 0.0
70, 0.0
71, 0.0
72, 0.0
73, 0.0
74, 0.0
75, 0.0
76, 0.0
77, 0.0
78, 0.0
79, 0.0
80, 0.0
81, 0.0
82, 0.0
83, 0.0
84, 0.0
85, 0.0
86, 0.0
87, 0.0
88, 0.0
89, 0.0
90, 0.0
91, 0.0
92, 0.0
93, 0.0
94, 0.0
95, 0.0
96, 0.0
97, 0.0
98, 0.0
99, 0.0
100, 0.0
101, 0.0
102, 0.0
103, 0.0
104, 0.0
105, 0.0
106, 0.0
107, 0.0
108, 0.0
109, 0.0
110, 0.0
111, 0.0
112, 0.0
113, 0.0
114, 0.0
115, 0.0
116, 0.0
117, 0.0
118, 0.0
119, 0.0
120, 0.0
121, 0.0
122, 0.0
123, 0.0
124, 0.0
125, 0.0
126, 0.0
127, 0.0
128, 0.0
129, 0.0
130, 0.0
131, 0.0
132, 0.0
133, 0.0
134, 0.0
135, 0.0
136, 0.0
137, 0.0
138, 0.0
139, 0.0
140, 0.0
141, 0.0
142, 0.0
143, 0.0
144, 0.0
145, 0.0
146, 0.0
147, 0.0
148, 0.0
149, 0.0
150, 0.0
151, 0.0
152, 0.0
153, 0.0
154, 0.0
155, 0.0
156, 0.0
157, 0.0
158, 0.0
159, 0.0
160, 0.0
161, 0.0
162, 0.0
163, 0.0
164, 0.0
165, 0.0
166, 0.0
167, 0.0
168, 0.0
169, 0.0
170, 0.0
171, 0.0
172, 0.0
173, 0.0
174, 0.0
175, 0.0
176, 0.0
177, 0.0
178, 0.0
179, 0.0
180, 0.0
181, 0.0
182, 0.0
183, 0.0
184, 0.0
185, 0.0
186, 0.0
187, 0.0
188, 0.0
189, 0.0
190, 0.0
191, 0.0
192, 0.0
193, 0.0
194.0, 0.003355998119239255
195.0, 0.004122854848601436
196.0, 0.004294652660259776
197.0, 0.0023451877239557745
198.0, 0.0005736569040615456
199.0, 0.0008381819717056318
200.0, 0.005414740739027621
201.0, 0.0120808583279404
202.0, 0.02138855289942312
203.0, 0.033684624116556545
204.0, 0.0433352610966856
205.0, 0.05281677455298599
206.0, 0.05959898825414373
207.0, 0.0642024214883461
208.0, 0.06883256796724574
209.0, 0.06773143613062091
210.0, 0.06486317536189319
211.0, 0.06121263853512106
212.0, 0.05687842380761118
213.0, 0.052727487026606894
214.0, 0.05030956782412948
215.0, 0.04883445602220545
216.0, 0.048384968440660835
217.0, 0.049911348572840936
218.0, 0.05249822770746759
219.0, 0.055927890469627005
220.0, 0.060447765537297436
221.0, 0.06583691179011704
222.0, 0.06910310200451639
223.0, 0.07598742345935121
224.0, 0.08276875666939666
225.0, 0.0885316378600699
226.0, 0.0966734739638124
227.0, 0.10322863019527086
228.0, 0.10944826241634187
229.0, 0.11618600344736259
230.0, 0.12289441082298173
231.0, 0.12660990179666615
232.0, 0.1325562525354424
233.0, 0.1404014408445927
234.0, 0.1491280722535858
235.0, 0.1585863088664555
236.0, 0.16908950531995107
237.0, 0.1790746448711157
238.0, 0.18920646843920827
239.0, 0.2000745629394754
240.0, 0.20990827074330154
241.0, 0.2203338565220468
242.0, 0.2286064779764402
243.0, 0.23406417089004822
244.0, 0.2379903916082435
245.0, 0.23894779494221616
246.0, 0.23792520425021835
247.0, 0.2351163999855307
248.0, 0.23021767502575485
249.0, 0.22269047710518505
250.0, 0.2116784052541576
251.0, 0.19946377024763995
252.0, 0.18772049662505083
253.0, 0.17483062378487274
254.0, 0.1638198419723547
255.0, 0.15009579223527206
256.0, 0.1353595959672371
257.0, 0.1216992878467222
258.0, 0.1058893143702466
259.0, 0.09458851359544619
260.0, 0.08400645031095909
261.0, 0.07274183895665039
262.0, 0.06229687212501228
263.0, 0.05428347198178531
264.0, 0.047077938544727506
265.0, 0.040331860440692105
266.0, 0.03425432510299935
267.0, 0.029270865732058015
268.0, 0.024714586485423254
269.0, 0.020410614672544486
270.0, 0.016738379669515132
271.0, 0.013891504776838107
272.0, 0.010543506145594928
273.0, 0.007694909999206274
274.0, 0.006008097684699892
275.0, 0.00485659249003101
276.0, 0.0026305175906927835
277.0, 0.0014236284085570685
278.0, 0.00036665501215800916
279.0, 0.0009342240821030803
280.0, 0.0018485365477757833
281.0, 0.0032575322717553782
282.0, 0.003837806536886655
283.0, 0.004199327266285123
284.0, 0.004507450389389403
285.0, 0.004322056019381354
286.0, 0.004039093810624331
287.0, 0.003992552981164528
288.0, 0.0036281593468236967
289.0, 0.0027599343745875167
290.0, 0.0023735503389040354
291.0, 0.00311766495970831
292.0, 0.0021167815912895363
293.0, 0.0005588839438085504
294.0, 0.0003797451269172767
295.0, 0.0010852029118280375
296.0, 0.0023639614229990624
297.0, 0.003674729003810829
298.0, 0.00511757145708843
299.0, 0.006338983797272669
300.0, 0.007520760151800886
301.0, 0.00999129174408306
302.0, 0.012724863176387236
303.0, 0.015090012263425883
304.0, 0.017910234368707024
305.0, 0.020776568579725912
306.0, 0.023657214092218045
307.0, 0.026951815547884863
308.0, 0.030618549193697536
309.0, 0.03356168362017352
310.0, 0.03712163087020378
311.0, 0.041039720306163034
312.0, 0.04463074195623246
313.0, 0.047484388570153815
314.0, 0.04956051949067109
315.0, 0.053806099922009056
316.0, 0.05643344786502226
317.0, 0.05725907303997088
318.0, 0.06076470186962413
319.0, 0.06224282119074966
320.0, 0.06447106962493736
321.0, 0.06738175748908455
322.0, 0.06993936248477245
323.0, 0.07201729486672416
324.0, 0.07273128269308508
325.0, 0.07367050226661445
326.0, 0.07484117529123117
327.0, 0.07550607949731693
328.0, 0.07530369508341272
329.0, 0.07894452654504185
330.0, 0.08046387939739569
331.0, 0.07983860025342489
332.0, 0.08148356765882012
333.0, 0.08286811991027972
334.0, 0.0837602087608263
335.0, 0.08349429217232497
336.0, 0.08254556630919109
337.0, 0.08279984480515942
338.0, 0.0842040006319383
339.0, 0.08422459133944342
340.0, 0.08277059113128424
341.0, 0.08147225753506303
342.0, 0.08270975987883974
343.0, 0.08248153977861906
344.0, 0.08109871563406988
345.0, 0.0800542859001801
346.0, 0.08038927397782619
347.0, 0.08114912613057516
348.0, 0.08144072700204173
349.0, 0.08224350081573956
350.0, 0.08297130483911529
351.0, 0.08323992757242195
352.0, 0.08676505115649508
353.0, 0.08844689440526304
354.0, 0.08991406558205016
355.0, 0.09242391742161443
356.0, 0.09518365641611236
357.0, 0.09700253335698927
358.0, 0.10103426843944494
359.0, 0.10479304819733481
360.0, 0.10747058578783478
361.0, 0.11118830471161147
362.0, 0.11628265271213997
363.0, 0.1232108138662182
364.0, 0.13009135020351226
365.0, 0.13660259557034496
366.0, 0.14465644959988516
367.0, 0.15417179763145727
368.0, 0.16196256495066097
369.0, 0.16848853163878846
370.0, 0.17502017673271927
371.0, 0.18245588496394843
372.0, 0.1879070951947138
373.0, 0.19155825669299353
374.0, 0.1935445227911309
375.0, 0.19279054891726602
376.0, 0.18675758691821817
377.0, 0.17999093392443657
378.0, 0.17184186417518604
379.0, 0.1622260487228812
380.0, 0.1514909646313412
381.0, 0.139167943824571
382.0, 0.1289838396182123
383.0, 0.11912852447715892
384.0, 0.10889365421243881
385.0, 0.0993311563825838
386.0, 0.09241131330725368
387.0, 0.08599462887446856
388.0, 0.08024982568864616
389.0, 0.07496244094296431
390.0, 0.06969103286808437
391.0, 0.06476301116199923
392.0, 0.059617284555781316
393.0, 0.0545341911556984
394.0, 0.04978592929383047
395.0, 0.04563773092070454
396.0, 0.04312369941126918
397.0, 0.03857013667312925
398.0, 0.03546026435619518
399.0, 0.03349389557617568
400.0, 0.030390317797297305
401.0, 0.02794017184561113
402.0, 0.02573549652386953
403.0, 0.023298086917106223
404.0, 0.021242832307966555
405.0, 0.020121852037155247
406.0, 0.018018548546202353
407.0, 0.01571673550991784
408.0, 0.014453910854638626
409.0, 0.013645173435869646
410.0, 0.012068413716200979
411.0, 0.010599548941598215
412.0, 0.009945382171102914
413.0, 0.008987375450402459
414.0, 0.007454121832826207
415.0, 0.00585531467642316
416.0, 0.00426076650328303
417.0, 0.0033901167090191445
418.0, 0.002672378393172044
419.0, 0.0018592871899721002
420.0, 0.0011632572482286206
421.0, 0.0008510463725153147
422.0, 0.00048709272106679596
423.0, 0.0006665116720490261
424.0, 0.0002576625318437687
425.0, 0.0006228027852565497
426.0, 0.0008735148386244948
427.0, 0.0009224024366764936
428.0, 0.00041558609801204446
429.0, 0.00033003485172139566
430.0, 0.0010548249393374054
431.0, 0.0024477274545738168
432.0, 0.0038368185551242574
433.0, 0.0056406712472211
434.0, 0.007863408879962112
435.0, 0.01022719917048279
436.0, 0.012678306640326492
437.0, 0.016123634124867964
438.0, 0.0203563572994007
439.0, 0.024965964656201548
440.0, 0.029309612608952
441.0, 0.032952519312655686
442.0, 0.03848795817068447
443.0, 0.04449713993583341
444.0, 0.05049930549486691
445.0, 0.05713078007308046
446.0, 0.0653885563037512
447.0, 0.07490269596721004
448.0, 0.08420755269500485
449.0, 0.09255019598010418
450.0, 0.09962733962767775
451.0, 0.10539567016535109
452.0, 0.10853903964978273
453.0, 0.10895145175573326
454.0, 0.10401731841983054
455.0, 0.09442822141270366
456.0, 0.08426774581337537
457.0, 0.07354769496557724
458.0, 0.06304600609119344
459.0, 0.05458141461331634
460.0, 0.04731810206803467
461.0, 0.04014712750337518
462.0, 0.03549195397079842
463.0, 0.030372948019207972
464.0, 0.026473027720449245
465.0, 0.02344748192947745
466.0, 0.020506513097937683
467.0, 0.019090947287029893
468.0, 0.016839252194037358
469.0, 0.014723914621588261
470.0, 0.013725126330948812
471.0, 0.013564770383595178
472.0, 0.01243167841907333
473.0, 0.010973135394771898
474.0, 0.009596512092384548
475.0, 0.008471750403092974
476.0, 0.007894511191454784
477.0, 0.00781327636770216
478.0, 0.006556983197230917
479.0, 0.004990767329941063
480.0, 0.00468086052527952
481.0, 0.0042956927061744195
482.0, 0.0020901959458992387
483.0, 0.002369160658320259
484.0, 0.002107810093655972
485.0, 0.001356035746349197
486.0, 0.0005726737674788085
487.0, 0.00024385909126483867
488.0, 0.0011170580126827461
489.0, 0.0007645029497379464
490.0, 0.000845457569973133
491.0, 0.001066674481185689
492.0, 0.0009491415750563646
493.0, 0.0012330235980097886
494.0, 0.0014639200312612296
495.0, 0.002063302238644578
496.0, 0.002102878679382499
497.0, 0.0012811942590457658
498.0, 0.0005806704516847566
499.0, 0.0010057722434831504
500.0, 0.00018336898462508283
501.0, 0.0012450059137283328
502.0, 0.0010447723386065122
503.0, 0.0010776569103888344
504.0, 0.0009337166739978831
505.0, 0.0009301212468404649
506.0, 0.0007966746057616212
507.0, 0.0003295139747882319
508.0, 9.108336717377165e-05
509.0, 0.0005151929088819991
510.0, 0.001190908996277818
511.0, 0.0009323270539129281
512.0, 0.000436685786866834
513.0, 0.0002800768921457727
514.0, 0.00029419246910874705
515.0, 0.00040118385980385994
516.0, 0.0007502599322237579
517.0, 0.0006123655090680654
518.0, 0.0005102318464093523
519.0, 0.0007321351335038077
520.0, 0.00013178308660970165
521.0, 5.5938816037499474e-05
522.0, 5.277365135312359e-05
523.0, 0.0008628708924641334
524.0, 0.001886440040733905
525.0, 0.0016772523528828603
526.0, 0.001180788525229191
527.0, 0.0018896471846267953
528.0, 0.0020872993814148835
529.0, 0.0019139878826694692
530.0, 0.002231208662029452
531.0, 0.0018960061616346985
532.0, 0.0030822478214059643
533.0, 0.003871921298075737
534.0, 0.0048002598243751604
535.0, 0.0060919854179091225
536.0, 0.00655935320016051
537.0, 0.006999719332659704
538.0, 0.0072753095387673265
539.0, 0.008128127708774567
540.0, 0.009209454344430119
541.0, 0.009962638768066074
542.0, 0.011293836760150828
543.0, 0.012508668048385185
544.0, 0.013651386657579442
545.0, 0.015245746724989597
546.0, 0.017168235335999333
547.0, 0.018827246574338704
548.0, 0.020677106124881037
549.0, 0.02349178967650632
550.0, 0.02590158891066252
551.0, 0.02805170309297047
552.0, 0.03119732861379104
553.0, 0.03541487500545845
554.0, 0.03829628134625742
555.0, 0.04263616729787882
556.0, 0.047692584299502724
557.0, 0.05267864014203119
558.0, 0.058849016025320014
559.0, 0.0661909841946559
560.0, 0.07282682292118163
561.0, 0.08008620193354996
562.0, 0.08845962321491421
563.0, 0.0975786852612198
564.0, 0.10724635543903668
565.0, 0.11726637734210688
566.0, 0.12846511283525067
567.0, 0.1402998493162302
568.0, 0.15215955264157763
569.0, 0.16409725177433607
570.0, 0.17632454422071647
571.0, 0.18956339988728768
572.0, 0.20021843631342617
573.0, 0.2100447510365279
574.0, 0.21899230778342435
575.0, 0.2231896496777699
576.0, 0.22598180155462963
577.0, 0.22512046992031706
578.0, 0.22006448553540384
579.0, 0.21084940059463742
580.0, 0.19888694116469144
581.0, 0.1863134040479373
582.0, 0.17022144091232866
583.0, 0.15580462757799066
584.0, 0.14128512366900717
585.0, 0.1260802232633185
586.0, 0.11271541732080839
587.0, 0.1014981483153074
588.0, 0.09003782632370301
589.0, 0.08054300556830171
590.0, 0.07251917905265852
591.0, 0.0649294997089724
592.0, 0.05811271093218095
593.0, 0.052129937537051675
594.0, 0.046229079146756835
595.0, 0.04295147084945789
596.0, 0.03956460608917239
597.0, 0.03423978634259255
598.0, 0.03099903690481794
599.0, 0.029293384690946098
600.0, 0.026124828563654924
601.0, 0.023343127368617676
602.0, 0.021658798914592065
603.0, 0.02005271591421786
604.0, 0.017996840327376733
605.0, 0.01697444367805799
606.0, 0.01523639664503712
607.0, 0.01458967677631143
608.0, 0.01452034171143724
609.0, 0.012719302392138046
610.0, 0.011318303047185922
611.0, 0.011652061433083852
612.0, 0.012501710932215972
613.0, 0.012935840610478212
614.0, 0.012081138397841282
615.0, 0.009812878290566325
616.0, 0.009649866937261513
617.0, 0.00996907487100157
618.0, 0.00951420458361991
619.0, 0.00913286468061045
620.0, 0.0093544207830231
621.0, 0.009372858863068125
622.0, 0.009872600960069236
623.0, 0.01105591970585669
624.0, 0.01163990040000847
625.0, 0.011984754497074705
626.0, 0.012383353691148043
627.0, 0.012155128316237268
628.0, 0.013856678676719079
629.0, 0.015240613007644586
630.0, 0.016547865716178837
631.0, 0.017600858690225575
632.0, 0.018512499576595114
633.0, 0.020343229143226206
634.0, 0.021770668659810626
635.0, 0.02263794981900096
636.0, 0.02349474799840074
637.0, 0.024181987181203058
638.0, 0.02444644102815052
639.0, 0.024762508734304967
640.0, 0.02566425465849972
641.0, 0.024475539489102013
642.0, 0.02283002664285025
643.0, 0.02145039604062488
644.0, 0.019613213289313047
645.0, 0.017321623907343722
646.0, 0.016395987809346
647.0, 0.01401263012992341
648.0, 0.011169778634965166
649.0, 0.009409385852040084
650.0, 0.008661029072951574
651.0, 0.007259173117797765
652.0, 0.0055865844844910865
653.0, 0.004000460433894424
654.0, 0.004336888739182792
655.0, 0.004406521516450848
656.0, 0.0023528813260793933
657.0, 0.0012858282432808797
658.0, 0.000403161883552746
659.0, 0.00029925550008864195
660.0, 0.0004713012788339669
661.0, 0.0008994562632735831
662.0, 0.0016302657699870985
663.0, 0.0011879214324888477
664.0, 0.0008261904764115409
665.0, 0.0018756107484691911
666.0, 0.002253367846680662
667.0, 0.002121450131731337
668.0, 0.002078997444295543
669.0, 0.0013827277351886685
670.0, 0.0015503137189784905
671.0, 0.001652061292604837
672.0, 0.0013082280400556533
673.0, 0.00034588491474412666
674.0, 0.000547867847180553
675.0, 7.203915429960884e-05
676.0, 0.0013523854463023824
677.0, 0.0023092050772396556
678.0, 0.0035121351676277715
679.0, 0.0041798414776103715
680.0, 0.004279949796333228
681.0, 0.00520074039480297
682.0, 0.006296058530965446
683.0, 0.007079616844837694
684.0, 0.008606342663144747
685.0, 0.010461449354363363
686.0, 0.011913630066222694
687.0, 0.013215424431180508
688.0, 0.015507479127839003
689.0, 0.017267989360083447
690.0, 0.019639036584138316
691.0, 0.022513835194079075
692.0, 0.025347743165211427
693.0, 0.02789337941098616
694.0, 0.030310648633453566
695.0, 0.0338862649790149
696.0, 0.03805276177928148
697.0, 0.04228180865137537
698.0, 0.04695354454960858
699.0, 0.05230051330011345
700.0, 0.0581306750759869
701.0, 0.06569608301091026
702.0, 0.07091480606633527
703.0, 0.07885181659919008
704.0, 0.08821104394093726
705.0, 0.09730454025456134
706.0, 0.10841718745788613
707.0, 0.12304962926510545
708.0, 0.13395774970215352
709.0, 0.14745488116484287
710.0, 0.1635679855010818
711.0, 0.18066320960243654
712.0, 0.19976878573267007
713.0, 0.22236746685317724
714.0, 0.24438199556204007
715.0, 0.26931500747459275
716.0, 0.2987483708557638
717.0, 0.33011445336247086
718.0, 0.36309065771595983
719.0, 0.4018466532036401
720.0, 0.44110003787241175
721.0, 0.48205471647906056
722.0, 0.5261722069244147
723.0, 0.5722397912687748
724.0, 0.6189887515523297
725.0, 0.6667723968013255
726.0, 0.714809284030066
727.0, 0.7646176910688854
728.0, 0.8131338954554701
729.0, 0.8609606419399123
730.0, 0.9051540355323019
731.0, 0.9429782774407428
732.0, 0.9759611558252571
733.0, 0.9965000950594707
734.0, 0.9985315121286794
735.0, 0.9817410095291134
736.0, 0.9456960864838624
737.0, 0.8913756043854687
738.0, 0.8225931953081729
739.0, 0.7447140316162741
740.0, 0.6627178329267019
741.0, 0.578696918500302
742.0, 0.5009330054833508
743.0, 0.43213652744833814
744.0, 0.37079215759819434
745.0, 0.3182217041435896
746.0, 0.27307839275610146
747.0, 0.23447783273982478
748.0, 0.20098934845748367
749.0, 0.17152359179251875
750.0, 0.14582950348777643
751.0, 0.12482618483589597
752.0, 0.10830896554979136
753.0, 0.09202252870495473
754.0, 0.07871757543784638
755.0, 0.06697091297538561
756.0, 0.05676851072620292
757.0, 0.04861473866224081
758.0, 0.04099265426867157
759.0, 0.035021704608623194
760.0, 0.029838223621708716
761.0, 0.024380645226555506
762.0, 0.020093428875357193
763.0, 0.017209227431834093
764.0, 0.01437048875008633
765.0, 0.011352565809049595
766.0, 0.007899774886853757
767.0, 0.005406557710379089
768.0, 0.0035762482625934524
769.0, 0.0018623390701280793
770.0, 0.00048364556114983075
771.0, 0.00030948440192398645
772.0, 0.0013272552055886915
773.0, 0.0018904201709598859
774.0, 0.0027486197497154892
775.0, 0.0026504727943638473
776.0, 0.0018929663941563903
777.0, 0.0016474421412697147
778.0, 0.0018839977378145745
779.0, 0.0006868308060630597
780.0, 0.0006309126308423691
781.0, 0.0017681201923141574
782.0, 0.0038789261298115994
783.0, 0.006245047865594874
784.0, 0.008298606160566518
785.0, 0.011786497766835328
786.0, 0.015827874139640607
787.0, 0.01852659649420697
788.0, 0.023033316902269646
789.0, 0.028653057282477228
790.0, 0.03440495022244612
791.0, 0.04081899237181976
792.0, 0.04850393791346295
793.0, 0.055743871102353466
794.0, 0.0649765926460382
795.0, 0.0755602967305477
796.0, 0.08681255348217982
797.0, 0.09939955778424006
798.0, 0.11406928499030226
799.0, 0.13045975177741279
800.0, 0.1481605740503429
801.0, 0.16774628244580111
802.0, 0.18751172966290297
803.0, 0.20901691107260714
804.0, 0.23251593682709715
805.0, 0.2567226595615404
806.0, 0.28264800475112284
807.0, 0.30769813160234405
808.0, 0.33357830949606015
809.0, 0.3594292281804214
810.0, 0.3805484906754646
811.0, 0.3961002943878595
812.0, 0.40908679035350376
813.0, 0.420366142954386
814.0, 0.42571143369277226
815.0, 0.4264046778519784
816.0, 0.4213266290352781
817.0, 0.409426247945238
818.0, 0.3916423207488689
819.0, 0.3701499355573479
820.0, 0.3461571970995081
821.0, 0.3199031888210723
822.0, 0.29118453075252204
823.0, 0.2617230641989011
824.0, 0.23454495613249352
825.0, 0.20941081709481213
826.0, 0.1851473589721188
827.0, 0.16376754831726767
828.0, 0.14448807131711514
829.0, 0.1283850487701238
830.0, 0.11469562035061262
831.0, 0.10212287124858155
832.0, 0.09055419985477858
833.0, 0.08078740991954458
834.0, 0.0727038828648049
835.0, 0.06591732458435545
836.0, 0.058544790181591616
837.0, 0.0526939881394528
838.0, 0.048006458165134366
839.0, 0.0431679591144447
840.0, 0.03829405282599233
841.0, 0.034510391783492314
842.0, 0.03191252696838398
843.0, 0.028174561496365432
844.0, 0.025474451305502088
845.0, 0.02279518518019598
846.0, 0.02000028062931422
847.0, 0.017774430201493774
848.0, 0.015743601762141
849.0, 0.013831799625791473
850.0, 0.011796618087456483
851.0, 0.00993505721537834
852.0, 0.008487543491126591
853.0, 0.00738387589623931
854.0, 0.0063215291507642485
855.0, 0.005124660869951691
856.0, 0.004203812338294978
857.0, 0.0029155269223126164
858.0, 0.002314588162155748
859.0, 0.0018418023314622932
860.0, 0.001143002811653405
861.0, 0.0004526306281292123
862.0, 0.0002967822656864646
863.0, 0.0007386494981745221
864.0, 8.010396166733671e-05
865.0, 5.969217973883914e-05
866.0, 3.4282170394875e-05
867.0, 8.402282762084045e-05
868.0, 0.00024842920958015736
869.0, 0.00031990167995871735
870.0, 0.0001936913172973969
871.0, 0.0004129310392537829
872.0, 0.0006440715275837755
873.0, 0.0005189561221843917
874.0, 0.0009384084625955679
875.0, 0.0006810303286325194
876.0, 0.0003699830893567802
877.0, 0.0008545803648719298
878.0, 0.00038650821691010753
879.0, 0.0009498608789030795
880.0, 0.0006718074311054244
881.0, 0.00020617384789695803
882.0, 3.349572482069559e-05
883.0, 0.0003777254102411483
884.0, 0.0006852929924814015
885.0, 0.0005233242310346416
886.0, 0.0007429636381980527
887.0, 0.0010605326502157444
888.0, 0.0010187158102606378
889.0, 0.001675617144703807
890.0, 0.0020062165171801333
891.0, 0.002088633357958998
892.0, 0.002528354384682335
893.0, 0.002476003650451599
894.0, 0.001813859864154968
895.0, 0.0028227971650857473
896.0, 0.0026901283604329495
897.0, 0.0026109690687284087
898.0, 0.002756988181948746
899.0, 0.0026747104920704185
900.0, 0.0025546646057106642
901.0, 0.0026031792897651413
902.0, 0.0018926766972731592
903.0, 0.002519038009461728
904.0, 0.002446730087115008
905.0, 0.0022597767933044016
906.0, 0.0024889459387894973
907.0, 0.0026117437443975294
908.0, 0.002188964016713623
909.0, 0.0014214442561061654
910.0, 0.0014041620444671095
911.0, 0.0014958377613650841
912.0, 0.0018444741560654807
913.0, 0.0020450837569868266
914.0, 0.0018608246154848715
915.0, 0.0015212743837673974
916.0, 0.001431517979279982
917.0, 0.0017159873696628947
918.0, 0.0013472749040536753
919.0, 0.0014248364447418602
920.0, 0.001422741942781934
921.0, 0.0015153757265483824
922.0, 0.0017253093396881335
923.0, 0.0019186214679865533
924.0, 0.002092426954563547
925.0, 0.00205784031742882
926.0, 0.001246212200519029
927.0, 0.0014717003728887258
928.0, 0.001613417512894158
929.0, 0.0013479695905715368
930.0, 0.0015078961920445661
931.0, 0.0018649148385865447
932.0, 0.0013385174689119726
933.0, 0.0008926772224925269
934.0, 0.0011248983254692857
935.0, 0.000891241725751969
936.0, 0.0007971799879552256
937.0, 0.0003295588202608345
938.0, 0.00010896060010154654
939.0, 0.0005811032694812992
940.0, 0.0007269548076777935
941.0, 6.030100196763159e-05
942.0, 0.00023178403478659257
943.0, 0.0002536658218671763
944.0, 0.0002900989073434912
945.0, 0.0002688104211806032
946.0, 0.00016880834063827234
947.0, 0.00026259572834357357
948.0, 0.0006490532696113785
949.0, 0.0008307984937793711
950.0, 0.00031723897325523434
951.0, 0.0005283297139337853
952.0, 0.00010788817185352433
953.0, 0.00011816408016186287
954.0, 0.0003128659490388765
955.0, 0.00044071426622157087
956.0, 0.00046832141871427463
957.0, 0.00023148900992804846
958.0, 0.00020508085109004342
959.0, 3.411748842565891e-05
960.0, 1.5210886123148078e-05
961.0, 0.00035721150062281053
962.0, 0.000511650269666588
963.0, 0.0011822254804019709
964.0, 0.0020253927889196505
965.0, 0.0011427385795479835
966.0, 0.001384705654520196
967.0, 0.0008252033523244864
968.0, 0.0008318466794021702
969.0, 0.0008925467224486139
970.0, 0.0009973245073342186
971.0, 0.0008067654222955431
972.0, 0.0005498615811634867
973.0, 0.0008220712246176722
974.0, 0.0008379745509735982
975.0, 0.0006509331839885536
976.0, 0.0007551212473374697
977.0, 0.0007294853074534748
978.0, 0.0007816835606179169
979.0, 0.0007822262598657178
980.0, 0.0007315390664686228
981.0, 0.0007808589508114059
982.0, 0.0007534365329668925
983.0, 0.0005561496049769037
984.0, 0.0003017527908456323
985.0, 0.0008151440079368958
986.0, 0.0006250759620981354
987.0, 0.0003938414378052947
988.0, 0.0002651728335218218
989.0, 5.057303148028056e-05
990.0, 0.00016577872707309736
991.0, 0.0007524948800755669
992.0, 0.0007640660942467946
993.0, 0.0006045188512871833
994.0, 0.0002226023697705467
995.0, 0.00047711717172382965
996.0, 0.0009426523218130455
997.0, 0.0009758330960361918
998.0, 0.0006742683092767738
999.0, 0.00040821799163634525
1000.0, 0.0003441235149440495
1001.0, 0.000503779017521341
1002.0, 0.00088375275946906
1003.0, 0.0007697658854476951
1004.0, 0.0008401272992965727
1005.0, 0.0007496688664624285
1006.0, 0.0008151780519096313
1007.0, 0.001152843654575773
1008.0, 0.0009669933113011989
1009.0, 0.0012057224711785393
1010.0, 0.0008310070676871447
1011.0, 0.001117561221239676
1012.0, 0.0007894640726208593
1013.0, 0.0008251745470422787
1014.0, 0.0012556912161929433
1015.0, 0.0012793086746575148
1016.0, 0.0008055123926697536
1017.0, 0.0006307936559122379
1018.0, 0.0013482917491869921
1019.0, 0.0012037177403610496
1020.0, 0.0009428293811561287
1021.0, 0.0010683283741407597
1022.0, 0.000903829340699463
1023.0, 0.00096485100094418
1024.0, 0.0011795228795834663
1025.0, 0.0011512565882368327
1026.0, 0.001253032382307679
1027.0, 0.0011129551669237072
1028.0, 0.0011682111844316667
1029.0, 0.0013925187330052651
1030.0, 0.0012797402486342654
1031.0, 0.0011525263322883369
1032.0, 0.0010710114860558006
1033.0, 0.0010188516458280808
1034.0, 0.0009060523611383095
1035.0, 0.0007474986864371915
1036.0, 0.0010091113659697851
1037.0, 0.0007903283605206246
1038.0, 0.0008546216948926126
1039.0, 0.0005044742069396066
1040.0, 0.0007630386612987477
1041.0, 0.0007906167130984882
1042.0, 0.0004656501853939948
1043.0, 0.0005602256964459306
1044.0, 0.0009203735548825372
1045.0, 0.0006974584756056941
1046.0, 0.0009366694438109057
1047.0, 0.001009463948585188
1048.0, 0.0010604544474634473
1049.0, 0.0005204329518716701
1050.0, 0.0007005601752615324
1051.0, 0.0005537216985452582
1052.0, 0.00016908833609376902
1053.0, 0.00041305463131377626
1054.0, 0.0003194436992099756
1055.0, 0.00036645842885038056
1056.0, 0.0001204616749037091
1057.0, 9.71266247229117e-05
1058.0, 0.0007054275575166186
1059.0, 0.00024408903123218092
1060.0, 0.00011020095678504699
1061.0, 0.00014868746018431415
1062.0, 0.00020217328944062277
1063.0, 0.0005647371785852923
1064.0, 0.00027283929108155863
1065.0, 0.00027615412698376733
1066.0, 0.00022740763857687074
1067.0, 4.293821791484157e-05
1068.0, 0.00016412141912221955
1069.0, 0.0001497698290966191
1070.0, 0.0004822841134850337
1071.0, 0.00037519815483206057
1072.0, 0.00011090050724251393
1073.0, 0.0005721179688025576
1074.0, 9.41837652105735e-05
1075.0, 0.0002445002059574757
1076.0, 0.0001293596266966068
1077.0, 0.00011939263580695722
1078.0, 0.00016479467117771403
1079.0, 0.000294441436140716
1080.0, 0.00046130324851317687
1081.0, 0.0001705928983149416
1082.0, 2.189751433028103e-05
1083.0, 0.00016250454464422927
1084.0, 0.0003223398303453104
1085.0, 0.0002826172617800963
1086.0, 0.00048748843533230434
1087.0, 0.00028214180188979157
1088.0, 0.00015731567641355288
1089.0, 0.00021805646935939247
1090.0, 0.0004979487453767173
1091.0, 0.0009096737269135132
1092.0, 0.0005468641961657257
1093.0, 0.00034872936394200705
1094.0, 0.0004322122188084332
1095.0, 2.637880676451956e-05
1096.0, 0.0006889028731572752
1097.0, 0.0006620937898283541
1098.0, 0.00010263002985152336
1099.0, 7.730237672208228e-05
1100.0, 0.00036166861274028396
1101.0, 0.00040526541058672746
1102.0, 0.0004739680114650317
1103.0, 0.0006755810893057536
1104.0, 0.0004097263138338661
1105.0, 0.00017697808604796267
1106.0, 0.00014988798513564057
1107.0, 0.00031997153337421497
1108.0, 0.0005493942228490687
1109.0, 0.0002795981860237907
1110.0, 0.0003485427960199244
1111.0, 0.0005272502775372309
1112.0, 0.0003484923988192784
1113.0, 0.0002882881069847359
1114.0, 0.0006087119217898392
1115.0, 0.0005827110980676226
1116.0, 0.00020331704991158607
1117.0, 0.00039862035274380685
1118.0, 0.00025598597238887815
1119.0, 0.0003610935831844331
1120.0, 0.0004295528317732914
1121.0, 0.0003939452109241127
1122.0, 0.00037502277287659977
1123.0, 0.00023330645285239568
1124.0, 7.82632052819202e-05
1125.0, 0.00046831242162196425
1126.0, 0.00033184928790233516
1127.0, 3.751977806820079e-05
1128.0, 0.0002328344841317889
1129.0, 0.0005760836333509435
1130.0, 0.0008145996030833554
1131.0, 0.0006702679342151346
1132.0, 0.0004914250494194345
1133.0, 0.0005534563508103809
1134.0, 0.0005508645607784436
1135.0, 0.00029817266205293583
1136.0, 0.00028212771204595314
1137.0, 0.0007605026966661159
1138.0, 0.0006895708451522457
1139.0, 0.0007536298810528761
1140.0, 0.000341541454490181
1141.0, 0.00047016734707690407
1142.0, 0.0007168798644381797
1143.0, 0.0005299117910365214
1144.0, 0.0004589284806308721
1145.0, 0.0006113782009913907
1146.0, 0.0004080144751914902
1147.0, 0.0003200817703530168
1148.0, 0.0008531204906006189
1149.0, 0.0009749161614587084
1150.0, 0.0008667646571858531
1151.0, 0.0006998584353589831
1152.0, 0.0012223384077677223
1153.0, 0.0008992263438870377
1154.0, 0.00039491734016586905
1155.0, 0.0003810786007639715
1156.0, 0.0006876851992144881
1157.0, 0.0010951028230211516
1158.0, 0.0006046574733250493
1159.0, 0.0006881244822968237
1160.0, 0.0003807297085589461
1161.0, 0.0004035132754484695
1162.0, 0.0005615960007184916
1163.0, 0.0009998809765227273
1164.0, 0.0010832192691676453
1165.0, 0.000833588456992637
1166.0, 0.0006155069518824074
1167.0, 0.0006644372435822585
1168.0, 0.0007361703532511732
1169.0, 0.00048782585943539194
1170.0, 0.0006433820855299997
1171.0, 0.00045520396250177126
1172.0, 0.00039426416439798336
1173.0, 0.0009933049621740468
1174.0, 0.0009697907879580744
1175.0, 0.000686648270688006
1176.0, 0.0009705150508844882
1177.0, 0.0010996641169105298
1178.0, 0.0007810374631034894
1179.0, 0.00046472872252555986
1180.0, 0.00048797129747120844
1181.0, 0.0009723618177155634
1182.0, 0.0008530181000053489
1183.0, 0.0009089518703907718
1184.0, 0.0009184656495151538
1185.0, 0.0009243248509934064
1186.0, 0.0007403967438396178
1187.0, 0.00039400565903259196
1188.0, 0.0002808808611307734
1189.0, 0.0005476662150039069
1190.0, 0.0005238328719758786
1191.0, 0.0003124499066280231
1192.0, 0.00045702648225788713
1193.0, 0.0002653189401498175
1194.0, 0.00045031182847304804
1195.0, 0.0004049046653627765
1196.0, 0.00037879724882510077
1197.0, 0.00016012670280993323
1198.0, 0.00014911974208519483
1199.0, 0.0004923704054007153
1200.0, 0.0010124657016808627
1201.0, 0.0005000366626647761
1202.0, 0.00022736365429824776
1203.0, 0.0005903539305792333
1204.0, 0.0006143167456656767
1205.0, 0.0010627400357456026
1206.0, 0.00048576533046743953
1207.0, 4.4338176938664656e-05
1208.0, 0.00025841434466423937
1209.0, 0.0004342517980667676
1210.0, 0.0006718119288879209
1211.0, 0.0004135094079754554
1212.0, 0.00030430753673002243
1213.0, 0.00042549065536091917
1214.0, 0.0006380918531847016
1215.0, 0.00047085887860565085
1216.0, 0.0003254008216711397
1217.0, 0.0006827395778828759
1218.0, 0.0004333582214878056
1219.0, 0.0005819655920333309
1220.0, 0.00031117148714108166
1221.0, 0.00011432173343544011
1222.0, 0.0003708117599282004
1223.0, 0.0015133484400218745
1224.0, 0.0013465470246149312
1225.0, 0.0006489961151365933
1226.0, 0.0003121969018063175
1227.0, 0.00021972945292563997
1228.0, 0.0001984894702205259
1229.0, 0.000321650827693862
1230.0, 0.0003235695618781156
1231.0, 0.0002169700291726996
1232.0, 7.635735297520602e-05
1233.0, 0.0007978431527634902
1234.0, 0.0007165244057655997
1235.0, 8.706326362774565e-05
1236.0, 4.57940730423747e-05
1237.0, 0.0001775876383847078
1238.0, 0.0003187925597333881
1239.0, 9.998271642232231e-05
1240.0, 5.766918772541215e-05
1241.0, 7.598174880036585e-05
1242.0, 0.00023297021176324446
1243.0, 0.0003409106335132421
1244.0, 0.0002664273878570753
1245.0, 0.00021187994251465258
1246.0, 0.0001532842282333529
1247.0, 0.0002737296698249885
1248.0, 0.0002319656499054566
1249.0, 0.0003391712948441251
1250.0, 0.0003951784780400722
1251.0, 0.0006019061328653156
1252.0, 0.0005406431673893628
1253.0, 0.0004008090213653948
1254.0, 0.0003872419040968134
1255.0, 0.00028966035872156186
1256.0, 0.00040524575828942364
1257.0, 0.0006502067744141574
1258.0, 0.00030278999365638886
1259.0, 0.00018833801832864218
1260.0, 0.000489288533004318
1261.0, 0.0007307016688410054
1262.0, 0.0009098977033371185
1263.0, 0.0010250047583000327
1264.0, 0.0006848077513548575
1265.0, 0.0007490472108152265
1266.0, 0.0007056865716184075
1267.0, 0.00044030480387365593
1268.0, 0.00045900864967561583
1269.0, 0.0006532968713817171
1270.0, 0.0008143197940462865
1271.0, 0.0006487552688196494
1272.0, 0.00026348025792018414
1273.0, 0.00025540002518918665
1274.0, 0.00019739071446843792
1275.0, 0.00038956833934967176
1276.0, 0.0005292815420515349
1277.0, 0.00018416346097709557
1278.0, 3.676390277962095e-05
1279.0, 0.00044184463982851005
1280.0, 0.00030513118493880466
1281.0, 0.000581201569610487
1282.0, 0.00027356176798316303
1283.0, 0.00016454019983023157
1284.0, 0.00046099438228544174
1285.0, 0.000410700788915511
1286.0, 0.0006065139922822722
1287.0, 0.0009400517439189277
1288.0, 0.0006056075102192044
1289.0, 0.00026736727290362924
1290.0, 0.00023666760670730042
1291.0, 0.001384304796319752
1292.0, 0.0009771132255761137
1293.0, 0.000173944383487312
1294.0, 0.00022103313157672945
1295.0, 0.00040000324353077797
1296.0, 9.078754187548383e-05
1297.0, 0.00015596839675886118
1298.0, 0.00015621728996786395
1299.0, 9.767788580459419e-05
1300.0, 0.00012143243308941959
1301.0, 1.2607007861827678e-05
1302, 0.0
1303, 0.0
1304, 0.0
1305, 0.0
1306, 0.0
1307, 0.0
1308, 0.0
1309, 0.0
1310, 0.0
1311, 0.0
1312, 0.0
1313, 0.0
1314, 0.0
1315, 0.0
1316, 0.0
1317, 0.0
1318, 0.0
1319, 0.0
1320, 0.0
1321, 0.0
1322, 0.0
1323, 0.0
1324, 0.0
1325, 0.0
1326, 0.0
1327, 0.0
1328, 0.0
1329, 0.0
1330, 0.0
1331, 0.0
1332, 0.0
1333, 0.0
1334, 0.0
1335, 0.0
1336, 0.0
1337, 0.0
1338, 0.0
1339, 0.0
1340, 0.0
1341, 0.0
1342, 0.0
1343, 0.0
1344, 0.0
1345, 0.0
1346, 0.0
1347, 0.0
1348, 0.0
1349, 0.0
1350, 0.0
1351, 0.0
1352, 0.0
1353, 0.0
1354, 0.0
1355, 0.0
1356, 0.0
1357, 0.0
1358, 0.0
1359, 0.0
1360, 0.0
1361, 0.0
1362, 0.0
1363, 0.0
1364, 0.0
1365, 0.0
1366, 0.0
1367, 0.0
1368, 0.0
1369, 0.0
1370, 0.0
1371, 0.0
1372, 0.0
1373, 0.0
1374, 0.0
1375, 0.0
1376, 0.0
1377, 0.0
1378, 0.0
1379, 0.0
1380, 0.0
1381, 0.0
1382, 0.0
1383, 0.0
1384, 0.0
1385, 0.0
1386, 0.0
1387, 0.0
1388, 0.0
1389, 0.0
1390, 0.0
1391, 0.0
1392, 0.0
1393, 0.0
1394, 0.0
1395, 0.0
1396, 0.0
1397, 0.0
1398, 0.0
1399, 0.0
1400, 0.0
1401, 0.0
1402, 0.0
1403, 0.0
1404, 0.0
1405, 0.0
1406, 0.0
1407, 0.0
1408, 0.0
1409, 0.0
1410, 0.0
1411, 0.0
1412, 0.0
1413, 0.0
1414, 0.0
1415, 0.0
1416, 0.0
1417, 0.0
1418, 0.0
1419, 0.0
1420, 0.0
1421, 0.0
1422, 0.0
1423, 0.0
1424, 0.0
1425, 0.0
1426, 0.0
1427, 0.0
1428, 0.0
1429, 0.0
1430, 0.0
1431, 0.0
1432, 0.0
1433, 0.0
1434, 0.0
1435, 0.0
1436, 0.0
1437, 0.0
1438, 0.0
1439, 0.0
1440, 0.0
1441, 0.0
1442, 0.0
1443, 0.0
1444, 0.0
1445, 0.0
1446, 0.0
1447, 0.0
1448, 0.0
1449, 0.0
1450, 0.0
1451, 0.0
1452, 0.0
1453, 0.0
1454, 0.0
1455, 0.0
1456, 0.0
1457, 0.0
1458, 0.0
1459, 0.0
1460, 0.0
1461, 0.0
1462, 0.0
1463, 0.0
1464, 0.0
1465, 0.0
1466, 0.0
1467, 0.0
1468, 0.0
1469, 0.0
1470, 0.0
1471, 0.0
1472, 0.0
1473, 0.0
1474, 0.0
1475, 0.0
1476, 0.0
1477, 0.0
1478, 0.0
1479, 0.0
1480, 0.0
1481, 0.0
1482, 0.0
1483, 0.0
1484, 0.0
1485, 0.0
1486, 0.0
1487, 0.0
1488, 0.0
1489, 0.0
1490, 0.0
1491, 0.0
1492, 0.0
1493, 0.0
1494, 0.0
1495, 0.0
1496, 0.0
1497, 0.0
1498, 0.0
1499, 0.0
1500, 0.0
1501, 0.0
1502, 0.0
1503, 0.0
1504, 0.0
1505, 0.0
1506, 0.0
1507, 0.0
1508, 0.0
1509, 0.0
1510, 0.0
1511, 0.0
1512, 0.0
1513, 0.0
1514, 0.0
1515, 0.0
1516, 0.0
1517, 0.0
1518, 0.0
1519, 0.0
1520, 0.0
1521, 0.0
1522, 0.0
1523, 0.0
1524, 0.0
1525, 0.0
1526, 0.0
1527, 0.0
1528, 0.0
1529, 0.0
1530, 0.0
1531, 0.0
1532, 0.0
1533, 0.0
1534, 0.0
1535, 0.0
1536, 0.0
1537, 0.0
1538, 0.0
1539, 0.0
1540, 0.0
1541, 0.0
1542, 0.0
1543, 0.0
1544, 0.0
1545, 0.0
1546, 0.0
1547, 0.0
1548, 0.0
1549, 0.0
1550, 0.0
1551, 0.0
1552, 0.0
1553, 0.0
1554, 0.0
1555, 0.0
1556, 0.0
1557, 0.0
1558, 0.0
1559, 0.0
1560, 0.0
1561, 0.0
1562, 0.0
1563, 0.0
1564, 0.0
1565, 0.0
1566, 0.0
1567, 0.0
1568, 0.0
1569, 0.0
1570, 0.0
1571, 0.0
1572, 0.0
1573, 0.0
1574, 0.0
1575, 0.0
1576, 0.0
1577, 0.0
1578, 0.0
1579, 0.0
1580, 0.0
1581, 0.0
1582, 0.0
1583, 0.0
1584, 0.0
1585, 0.0
1586, 0.0
1587, 0.0
1588, 0.0
1589, 0.0
1590, 0.0
1591, 0.0
1592, 0.0
1593, 0.0
1594, 0.0
1595, 0.0
1596, 0.0
1597, 0.0
1598, 0.0
1599, 0.0
