30, 0.0
31, 0.0
32, 0.0
33, 0.0
34, 0.0
35, 0.0
36, 0.0
37, 0.0
38, 0.0
39, 0.0
40, 0.0
41, 0.0
42, 0.0
43, 0.0
44, 0.0
45, 0.0
46, 0.0
47, 0.0
48, 0.0
49, 0.0
50, 0.0
51, 0.0
52, 0.0
53, 0.0
54, 0.0
55, 0.0
56, 0.0
57, 0.0
58, 0.0
59, 0.0
60, 0.0
61, 0.0
62, 0.0
63, 0.0
64, 0.0
65, 0.0
66, 0.0
67, 0.0
68, 0.0
69, 0.0
70, 0.0
71, 0.0
72, 0.0
73, 0.0
74, 0.0
75, 0.0
76, 0.0
77, 0.0
78, 0.0
79, 0.0
80, 0.0
81, 0.0
82, 0.0
83, 0.0
84, 0.0
85, 0.0
86, 0.0
87, 0.0
88, 0.0
89, 0.0
90, 0.0
91, 0.0
92, 0.0
93, 0.0
94, 0.0
95, 0.0
96, 0.0
97, 0.0
98, 0.0
99, 0.0
100, 0.0
101, 0.0
102, 0.0
103, 0.0
104, 0.0
105, 0.0
106, 0.0
107, 0.0
108, 0.0
109, 0.0
110, 0.0
111, 0.0
112, 0.0
113, 0.0
114, 0.0
115, 0.0
116, 0.0
117, 0.0
118, 0.0
119, 0.0
120, 0.0
121, 0.0
122, 0.0
123, 0.0
124, 0.0
125, 0.0
126, 0.0
127, 0.0
128, 0.0
129, 0.0
130, 0.0
131, 0.0
132, 0.0
133, 0.0
134, 0.0
135, 0.0
136, 0.0
137, 0.0
138, 0.0
139, 0.0
140, 0.0
141, 0.0
142, 0.0
143, 0.0
144, 0.0
145, 0.0
146, 0.0
147, 0.0
148, 0.0
149, 0.0
150, 0.0
151, 0.0
152, 0.0
153.0, 0.0016204282295748241
154.0, 0.005630594035033513
155.0, 0.0011784343863519367
156.0, 0.008921664397855297
157.0, 0.01832909990725267
158.0, 0.029431200681301083
159.0, 0.046329955646291936
160.0, 0.06992088460075045
161.0, 0.09447921623676629
162.0, 0.12143163397775356
163.0, 0.14484295332887837
164.0, 0.1599863549497756
165.0, 0.16699947046114297
166.0, 0.16093296000380242
167.0, 0.15228414162188303
168.0, 0.15153916032907253
169.0, 0.15827722990388643
170.0, 0.15055862267606904
171.0, 0.14501546281849936
172.0, 0.13831030238000647
173.0, 0.12797370994771873
174.0, 0.12038700287294728
175.0, 0.1087727132629964
176.0, 0.10558059955136387
177.0, 0.10745488208192788
178.0, 0.10502764783360825
179.0, 0.11230957988752234
180.0, 0.12293647477030428
181.0, 0.13709835686924346
182.0, 0.15459840680121897
183.0, 0.1707953605627493
184.0, 0.18273573138398858
185.0, 0.19845406918243022
186.0, 0.20292425394392044
187.0, 0.1849522633610057
188.0, 0.18266938137067618
189.0, 0.16357146605307998
190.0, 0.14237505292078403
191.0, 0.12453469815275381
192.0, 0.09143420913532986
193.0, 0.07575557976991831
194.0, 0.0688908739389794
195.0, 0.06635964526393749
196.0, 0.06601476152592597
197.0, 0.05639642518854899
198.0, 0.05023143326861495
199.0, 0.05294702773739345
200.0, 0.06028100818525104
201.0, 0.06153853523966752
202.0, 0.06624882728204833
203.0, 0.07900533893298145
204.0, 0.09443683851418491
205.0, 0.10552299505118427
206.0, 0.11551008769031548
207.0, 0.13093369261189733
208.0, 0.14475054954479274
209.0, 0.15196562801878835
210.0, 0.15668860340197427
211.0, 0.16015046968095278
212.0, 0.15315685634534687
213.0, 0.14504465589834387
214.0, 0.14137135658470748
215.0, 0.1276002409052447
216.0, 0.10698128232029429
217.0, 0.08895780522620987
218.0, 0.07603912333552126
219.0, 0.06469971846842118
220.0, 0.050158397663352304
221.0, 0.04228812714531514
222.0, 0.032697992668988755
223.0, 0.020289051948696023
224.0, 0.016788913191946236
225.0, 0.015501824475133208
226.0, 0.010328738535654502
227.0, 0.0044680875583800565
228.0, 0.002603658638254144
229.0, 0.004606666435823535
230.0, 0.0003162497881172696
231.0, 0.004946433162722549
232.0, 0.007084838178262536
233.0, 0.005616120227731903
234.0, 0.00463566622083155
235.0, 0.005984513103639595
236.0, 0.005330496710892967
237.0, 0.001744004513434003
238.0, 0.001908213692918912
239.0, 0.0026205845088663514
240.0, 0.001261080635323924
241.0, 0.00019159938038574572
242.0, 0.0011497034997364724
243.0, 0.0007998781578119347
244.0, 0.0028916572580031698
245.0, 0.00818584288598706
246.0, 0.015947717341876614
247.0, 0.022229414755520597
248.0, 0.027277872472240002
249.0, 0.03158771895770554
250.0, 0.03649663604716786
251.0, 0.03911658679642132
252.0, 0.03465416232674279
253.0, 0.036532161047257455
254.0, 0.035899760780078845
255.0, 0.02989085465589735
256.0, 0.022476584165858928
257.0, 0.0190186619033523
258.0, 0.011835198502398486
259.0, 0.009445525825278812
260.0, 0.00960649470661457
261.0, 0.005960076678781162
262.0, 0.0011750937183793706
263.0, 0.0031647495327169414
264.0, 0.002398782034988549
265.0, 0.0016373353761112812
266.0, 0.005904176926018737
267.0, 0.0017349102958940535
268.0, 0.0081511976915568
269.0, 0.015429258314480788
270.0, 0.01717096226426715
271.0, 0.0175693233481507
272.0, 0.014872905409330617
273.0, 0.011339426700605993
274.0, 0.00993669633667912
275.0, 0.013935498282565338
276.0, 0.02304887815049711
277.0, 0.02266340735810739
278.0, 0.021122541041496815
279.0, 0.024417848071348783
280.0, 0.028392921344007116
281.0, 0.024293561164285424
282.0, 0.020433349009902995
283.0, 0.02017674443452171
284.0, 0.01866669663892622
285.0, 0.014000539198429491
286.0, 0.019089210871607434
287.0, 0.015575306632405372
288.0, 0.014210040044606548
289.0, 0.014780139092352235
290.0, 0.010552014027047599
291.0, 0.012809726865553286
292.0, 0.01282954355575718
293.0, 0.013964816914904846
294.0, 0.015439069122853746
295.0, 0.012160053164628063
296.0, 0.013751492689599002
297.0, 0.013304516197095776
298.0, 0.012807795330325444
299.0, 0.015268939430658782
300.0, 0.020576469056121236
301.0, 0.025137503178622043
302.0, 0.02746910633726532
303.0, 0.028365434961602706
304.0, 0.027839125482324045
305.0, 0.025547300288968462
306.0, 0.030052370239508484
307.0, 0.03362019035739059
308.0, 0.027652361979910355
309.0, 0.01562038608514613
310.0, 0.01736679778553678
311.0, 0.020601405053632758
312.0, 0.01940115993188747
313.0, 0.015093161674924421
314.0, 0.010851404406013995
315.0, 0.008473093744270493
316.0, 0.007237082004668932
317.0, 0.006566104137104299
318.0, 0.01082295042468645
319.0, 0.015526788038984196
320.0, 0.004629577100587542
321.0, 0.002071038176229925
322.0, 0.0024156072206552026
323.0, 0.00441736813844268
324.0, 0.0019075811749747341
325.0, 0.00898136006011701
326.0, 0.002202749258427075
327.0, 0.0006323794392368018
328.0, 0.001419896317777976
329.0, 0.007114336816331995
330.0, 0.011493710944373623
331.0, 0.013724488290408517
332.0, 0.007967251292830671
333.0, 0.0014831754373278772
334.0, 0.00025920260842051204
335.0, 0.0015730473514900503
336.0, 0.0008968706552273532
337.0, 0.004675353159445316
338.0, 0.0047179852000364935
339.0, 0.0024596259501135174
340.0, 0.0058670609108162405
341.0, 0.0017698618350706322
342.0, 0.0014497289967345902
343.0, 0.007941508643981143
344.0, 0.00914432906148326
345.0, 0.004713755421968496
346.0, 0.005281231120049988
347.0, 0.006565764774561205
348.0, 0.00853924205928582
349.0, 0.010407899477171764
350.0, 0.008490621303917265
351.0, 0.011472252360990046
352.0, 0.014060720452414908
353.0, 0.01487247674225876
354.0, 0.013175489320994454
355.0, 0.009612095435737513
356.0, 0.01548538245581041
357.0, 0.014724753304556458
358.0, 0.01194868777237176
359.0, 0.011581028875672814
360.0, 0.011461852966816653
361.0, 0.014978945093753481
362.0, 0.01700185146400681
363.0, 0.018896586070027196
364.0, 0.021740157662742628
365.0, 0.024422427946144125
366.0, 0.01898395970910775
367.0, 0.02211130998509586
368.0, 0.026717454488893996
369.0, 0.029439351426613195
370.0, 0.03230441020589669
371.0, 0.03408650382892119
372.0, 0.0368153221836704
373.0, 0.039990805446284174
374.0, 0.043613076011008244
375.0, 0.045681186179707255
376.0, 0.0440738752074091
377.0, 0.060403220116886674
378.0, 0.060151035237506804
379.0, 0.0592122610576688
380.0, 0.0730838391025122
381.0, 0.0804871906062141
382.0, 0.09358017884018749
383.0, 0.10821113192219589
384.0, 0.11216219849035533
385.0, 0.11156033182982453
386.0, 0.13343430442141968
387.0, 0.1663581175354661
388.0, 0.17464454034156565
389.0, 0.18547265008370836
390.0, 0.20468847760693432
391.0, 0.21978086109902883
392.0, 0.24914886708588324
393.0, 0.27514134316808603
394.0, 0.2936312430238941
395.0, 0.3116415316189336
396.0, 0.3320578575441046
397.0, 0.34744552891532227
398.0, 0.3603047474091939
399.0, 0.3685146101290909
400.0, 0.3723731479307909
401.0, 0.3721843860860699
402.0, 0.36865512213374085
403.0, 0.34534284412242533
404.0, 0.31921106683807543
405.0, 0.2827232690170047
406.0, 0.2495720360443086
407.0, 0.23204725346343058
408.0, 0.20381066769264994
409.0, 0.17848797989308876
410.0, 0.16018038517417207
411.0, 0.14097282240121545
412.0, 0.11808039981254159
413.0, 0.10035535674225636
414.0, 0.09476331948167696
415.0, 0.08528227045093664
416.0, 0.07593845052319947
417.0, 0.06709543760348054
418.0, 0.052556272802170144
419.0, 0.04791179548152445
420.0, 0.04063369641089355
421.0, 0.037813705376867277
422.0, 0.0413622738606184
423.0, 0.04356656921338859
424.0, 0.034956073555802686
425.0, 0.03237983090432385
426.0, 0.03227035660242488
427.0, 0.03195967271868707
428.0, 0.027859574755667426
429.0, 0.016981716223602242
430.0, 0.02201296885764944
431.0, 0.02501483514024567
432.0, 0.0241751544519538
433.0, 0.022983102854009837
434.0, 0.022718615499775333
435.0, 0.019618916290077556
436.0, 0.01441612443905132
437.0, 0.011854629782913585
438.0, 0.012310384879053485
439.0, 0.011740170084516294
440.0, 0.007084197828671819
441.0, 0.009772941575026202
442.0, 0.008839777859449957
443.0, 0.008093687105855382
444.0, 0.00943002122740273
445.0, 0.010617509976245892
446.0, 0.010102340833173459
447.0, 0.014014318617441388
448.0, 0.01126818782910746
449.0, 0.006320696119212608
450.0, 0.007848166483468304
451.0, 0.015351072845228408
452.0, 0.015401193230781351
453.0, 0.009373260701216777
454.0, 0.0019686478428863215
455.0, 0.0030319312919794656
456.0, 0.007733093754486749
457.0, 0.018297433176463995
458.0, 0.007821312318352371
459.0, 0.005080442785517322
460.0, 0.008104070977618059
461.0, 0.005767049054945452
462.0, 0.005140313051382929
463.0, 0.0020367991177945833
464.0, 0.0010283362943888147
465.0, 0.00033525864531888953
466.0, 0.0037853899309177696
467.0, 0.01174298056814127
468.0, 0.012743241628934098
469.0, 0.004769472462109262
470.0, 0.005322037886310214
471.0, 0.0036932725358924915
472.0, 0.0030388568693076315
473.0, 0.01082309921133199
474.0, 0.0030260684686738127
475.0, 0.00753709052228515
476.0, 0.0072619368258248565
477.0, 0.006893787366407169
478.0, 0.011183472023905646
479.0, 0.012613134795609294
480.0, 0.003724045232573427
481.0, 0.0028132494831516453
482.0, 0.0047747498138489535
483.0, 0.010644178414451276
484.0, 0.006657264820136439
485.0, 0.006905841312979058
486.0, 0.005161202989425701
487.0, 0.003302909399279541
488.0, 0.008612092895610188
489.0, 0.011827169161902087
490.0, 0.0069015374723609925
491.0, 0.00965310687458035
492.0, 0.009977839888462502
493.0, 0.010227824743992139
494.0, 0.013500679296530219
495.0, 0.011483139270202088
496.0, 0.00254640550613475
497.0, 0.010127548462698616
498.0, 0.006441131635687752
499.0, 0.006510002643756952
500.0, 0.010474393152786879
501.0, 0.010107707675900095
502.0, 0.0027312872959002776
503.0, 0.002969218488779025
504.0, 0.00693958934199519
505.0, 0.01077428681966411
506.0, 0.011320360466681376
507.0, 0.009468078503656273
508.0, 0.007339725668910107
509.0, 0.001276003481891828
510.0, 0.010097825200010405
511.0, 0.01343349279169792
512.0, 0.010170300326328728
513.0, 0.006437462393537351
514.0, 0.0029865041449203423
515.0, 0.005256621037123086
516.0, 0.007080241111752598
517.0, 0.009965660420622989
518.0, 0.009524362967448992
519.0, 0.0073567103085061146
520.0, 0.00973981112573931
521.0, 0.012006003720353904
522.0, 0.010156132538089602
523.0, 0.006660906704909164
524.0, 0.00798343609575461
525.0, 0.01214969038760588
526.0, 0.010142001973737179
527.0, 0.010871750788466599
528.0, 0.008455480180152944
529.0, 0.007831242428275998
530.0, 0.00878878697515022
531.0, 0.0078088785146126485
532.0, 0.003584276538858063
533.0, 0.0006446566922316085
534.0, 0.004259818120280555
535.0, 0.004874021550908646
536.0, 0.003810918308030448
537.0, 0.007462317714551572
538.0, 0.013877220499149825
539.0, 0.011938342711669441
540.0, 0.009817621629404642
541.0, 0.006335195449558674
542.0, 0.009688339653115122
543.0, 0.015666314962927527
544.0, 0.012866911168771554
545.0, 0.014486697934024247
546.0, 0.009752065535596393
547.0, 0.013786850636369882
548.0, 0.01147943474852028
549.0, 0.00325544469935653
550.0, 0.010507956403205135
551.0, 0.008168048693572632
552.0, 0.008089499724480486
553.0, 0.013822633122735885
554.0, 0.01659345370792365
555.0, 0.0152255069886052
556.0, 0.015048824886267154
557.0, 0.012366519504821639
558.0, 0.003241918593182174
559.0, 0.008210277653292651
560.0, 0.01056617821915193
561.0, 0.004506932944138574
562.0, 0.005501053297034138
563.0, 0.007352765577571127
564.0, 0.008423671178244992
565.0, 0.008904112615001252
566.0, 0.0040183744091121815
567.0, 0.0014876179390480374
568.0, 0.0016101626481835802
569.0, 0.0017155057825245673
570.0, 0.008566157647105232
571.0, 0.005493375196165286
572.0, 0.010540004014355167
573.0, 0.005929948837593937
574.0, 0.008345451601357221
575.0, 0.012058304073974664
576.0, 0.005423608776207468
577.0, 0.005685919104453107
578.0, 0.009110681018270393
579.0, 0.0091043918951192
580.0, 0.00882964671899776
581.0, 0.015059050878545468
582.0, 0.017616267841474936
583.0, 0.0066236486663081035
584.0, 0.0028314931348744606
585.0, 0.006479424068119068
586.0, 0.007801857956747828
587.0, 0.0068293490894732085
588.0, 0.01259643672130158
589.0, 0.009195103214807456
590.0, 0.004693846126678797
591.0, 0.004986416404491658
592.0, 0.007019678015054331
593.0, 0.007147883868082093
594.0, 0.0061069912415200375
595.0, 0.004933737633353359
596.0, 0.009450136629827344
597.0, 0.013387578141088553
598.0, 0.010145513825754158
599.0, 0.005004983750974379
600.0, 0.0054086562012112815
601.0, 0.008787556335382423
602.0, 0.006757960825299395
603.0, 0.0053757903508711334
604.0, 0.011105762100823067
605.0, 0.014392604306949571
606.0, 0.01014268733783271
607.0, 0.005054374230620019
608.0, 0.0015954802603245512
609.0, 0.002439009694339932
610.0, 0.0022776272891620237
611.0, 0.004996495870099432
612.0, 0.007804650132395534
613.0, 0.005688004439233885
614.0, 0.00330767710062554
615.0, 0.00465247748483499
616.0, 0.012868044548536784
617.0, 0.01145247500004361
618.0, 0.006700628738031188
619.0, 0.006813326530488397
620.0, 0.006866586277779054
621.0, 0.008463559597532973
622.0, 0.007446187277888844
623.0, 0.005106992968442711
624.0, 0.006474133583283096
625.0, 0.00794869259143243
626.0, 0.005926936546770546
627.0, 0.0042984814501185655
628.0, 0.0039886764150454624
629.0, 0.0018229182698544137
630.0, 0.0006747490064898885
631.0, 0.001073332734511706
632.0, 0.004310695711252425
633.0, 0.0054648938667190726
634.0, 0.0055494898995847195
635.0, 0.002031687481864341
636.0, 0.008672185576562205
637.0, 0.006226704117956197
638.0, 0.0044229303333853005
639.0, 0.005284566923606816
640.0, 0.0020266856008643594
641.0, 0.006419323252482157
642.0, 0.001447498504166538
643.0, 0.0011221259253318024
644.0, 0.006366448016290803
645.0, 0.003466938716864784
646.0, 0.003670749986960595
647.0, 0.0006836006885380571
648.0, 0.0029397714261917307
649.0, 0.0009523372979005869
650.0, 0.00038355107889346597
651.0, 0.0008042691342172449
652.0, 0.0012434860762115091
653.0, 0.0034468632251027746
654.0, 0.0016666587511007692
655.0, 0.004368586509852302
656.0, 0.0031810217295309804
657.0, 0.0018994269713297424
658.0, 0.00391489786265033
659.0, 0.005254991126183925
660.0, 0.0033005656622658724
661.0, 0.0011002639635438669
662.0, 0.0004906164284317968
663.0, 0.0034450684810349197
664.0, 0.008417020045765099
665.0, 0.008534092185722106
666.0, 0.007006032909780921
667.0, 0.0058491396396067675
668.0, 0.000746302339710896
669.0, 0.003551968983392148
670.0, 0.008523164069350352
671.0, 0.011397429586725252
672.0, 0.0106174065942455
673.0, 0.010199110302424232
674.0, 0.013667888847735126
675.0, 0.0196441555189188
676.0, 0.023812523319097906
677.0, 0.03416885285541995
678.0, 0.03343386281484302
679.0, 0.03900900046780524
680.0, 0.046120503693091855
681.0, 0.047201323219286315
682.0, 0.04885657029680012
683.0, 0.05332727505332856
684.0, 0.04460359261399319
685.0, 0.04167352831746048
686.0, 0.03829195441451357
687.0, 0.03533002719268468
688.0, 0.033800352355826194
689.0, 0.032435503232875404
690.0, 0.03438684750213202
691.0, 0.025987936536175905
692.0, 0.02480486133938828
693.0, 0.02801450739334752
694.0, 0.03479391326715971
695.0, 0.03877696764449167
696.0, 0.034120962886144246
697.0, 0.030681822403305876
698.0, 0.022724411884267423
699.0, 0.017781015967510815
700.0, 0.00905753252488364
701.0, 0.003680860150995762
702.0, 0.005488416261840775
703.0, 0.01122116645448549
704.0, 0.012135206350706435
705.0, 0.004603360377770932
706.0, 0.0014334239220624432
707.0, 0.008058717449035862
708.0, 0.009737216120705319
709.0, 0.008316965726181635
710.0, 0.0061645844871732625
711.0, 0.003042066400411553
712.0, 0.0014916337050780413
713.0, 0.004526559356570073
714.0, 0.009328388601579416
715.0, 0.009760582378222804
716.0, 0.01218524363741775
717.0, 0.01460356159029805
718.0, 0.01321501937735077
719.0, 0.011575210365726014
720.0, 0.01545757571581751
721.0, 0.020626543800677587
722.0, 0.022811674829405815
723.0, 0.030924295073412943
724.0, 0.04216953197396834
725.0, 0.049857535775718144
726.0, 0.058628581377476396
727.0, 0.07386497076845726
728.0, 0.0906415717580825
729.0, 0.11018728680647423
730.0, 0.13585892245703127
731.0, 0.17005647721836042
732.0, 0.20801959933024292
733.0, 0.24742709791701384
734.0, 0.29181898318942556
735.0, 0.33294294852477085
736.0, 0.37151048311928203
737.0, 0.40309075493506197
738.0, 0.4412812867221616
739.0, 0.47407736590450905
740.0, 0.4882051433174567
741.0, 0.4734821281679573
742.0, 0.4199491373601781
743.0, 0.3419463202149395
744.0, 0.26679727407779386
745.0, 0.20255001278378043
746.0, 0.1476222524856807
747.0, 0.11741992232363793
748.0, 0.10622738324536034
749.0, 0.0893341088625263
750.0, 0.0779115439238029
751.0, 0.06482831611278334
752.0, 0.05837716180469149
753.0, 0.050487092684576566
754.0, 0.04882631532235189
755.0, 0.046288083536703016
756.0, 0.03941132365561056
757.0, 0.03686050535229572
758.0, 0.033498634507835405
759.0, 0.030795850027923507
760.0, 0.032561395183550945
761.0, 0.03276792852913418
762.0, 0.02639073821542859
763.0, 0.02297345991551212
764.0, 0.021946025732772448
765.0, 0.018251754465505303
766.0, 0.022807012674323123
767.0, 0.01626328374239641
768.0, 0.0072316689409248815
769.0, 0.0016077097149791225
770.0, 0.009633805947670361
771.0, 0.017706694381975058
772.0, 0.016295750170439632
773.0, 0.013488188320226892
774.0, 0.012437295578875802
775.0, 0.01058986961224694
776.0, 0.01658129702677535
777.0, 0.008567797051458163
778.0, 0.00785828884899225
779.0, 0.015387841028610232
780.0, 0.01504888547787649
781.0, 0.011029866411600562
782.0, 0.02117544691125356
783.0, 0.017381248451380213
784.0, 0.007713987046990107
785.0, 0.009012500454193065
786.0, 0.0122329282051551
787.0, 0.016736575050186626
788.0, 0.017913146774774145
789.0, 0.014713697022770375
790.0, 0.015538067753245656
791.0, 0.013350623909526895
792.0, 0.005087789555430483
793.0, 0.002247213350298363
794.0, 0.0016543117494028298
795.0, 0.006561585863433986
796.0, 0.00650953027137845
797.0, 0.0002606635392502233
798.0, 0.00319620371086454
799.0, 0.005843916066912113
800.0, 0.0028145790028190265
801.0, 0.007247908759098926
802.0, 0.002457384752414499
803.0, 0.0052870764350246065
804.0, 0.006705753764156892
805.0, 0.002287379111059684
806.0, 0.0028991149942316293
807.0, 0.001229818583292187
808.0, 0.008278396583289653
809.0, 0.007904943240130555
810.0, 0.006737153127393652
811.0, 0.006260262552185977
812.0, 0.0067599429718352075
813.0, 0.009288902456645548
814.0, 0.008227543314535209
815.0, 0.0008928691754869487
816.0, 0.004455898246345275
817.0, 0.0010544192851653146
818.0, 0.003372238779812015
819.0, 0.004142281950259875
820.0, 0.00756328043040381
821.0, 0.009866803475178798
822.0, 0.009769386204988585
823.0, 0.009445483210181458
824.0, 0.00736196610170883
825.0, 0.004881712887690721
826.0, 0.004484548999225266
827.0, 0.007106859083797718
828.0, 0.00918773601818212
829.0, 0.0027278697242512067
830.0, 0.004678533894848483
831.0, 0.011492492669765072
832.0, 0.007776646087254106
833.0, 0.004744225078395768
834.0, 0.005938566647107611
835.0, 0.004938353807571692
836.0, 0.014543103224898253
837.0, 0.01620735446012549
838.0, 0.0160844744568155
839.0, 0.013843095343361768
840.0, 0.014058779447600134
841.0, 0.02179235715928591
842.0, 0.02748544497638266
843.0, 0.036121670139871685
844.0, 0.042084957316864215
845.0, 0.05253730783325352
846.0, 0.062081126809588806
847.0, 0.07189299786608058
848.0, 0.0641709527032744
849.0, 0.04984153341172419
850.0, 0.040220520417566186
851.0, 0.023097801089006324
852.0, 0.013965931253029843
853.0, 0.01964630486060181
854.0, 0.008664436925671823
855.0, 0.007920574968260265
856.0, 0.007136022996766723
857.0, 0.010105511146131252
858.0, 0.013220794418940815
859.0, 0.009278985183907053
860.0, 0.007193086939303834
861.0, 0.004530850129635449
862.0, 0.0026796395636554163
863.0, 0.008704809343190938
864.0, 0.009008065922659089
865.0, 0.008363978864996123
866.0, 0.007536257870432455
867.0, 0.005291381235050865
868.0, 0.004203676993944477
869.0, 0.008875780801457532
870.0, 0.018635180008179902
871.0, 0.020283116319632696
872.0, 0.019533535469856395
873.0, 0.0267817868107781
874.0, 0.037668336076847136
875.0, 0.04143375157950604
876.0, 0.04850040038873553
877.0, 0.053621059430132824
878.0, 0.046905333191069196
879.0, 0.03472423724894525
880.0, 0.02056237640975139
881.0, 0.01405280517055681
882.0, 0.0026961356046771075
883.0, 0.0031027350517253
884.0, 0.009308566443602072
885.0, 0.010758213412065754
886.0, 0.006299274984100117
887.0, 0.0026012063244106823
888.0, 0.0049136526769082475
889.0, 0.008804695726660431
890.0, 0.0029866794424407454
891.0, 0.00017877347651305765
892.0, 0.003088017174979976
893.0, 0.0028682118441328594
894.0, 0.0045486392898544175
895.0, 0.010205221340900896
896.0, 0.015128453811228147
897.0, 0.00972441398468546
898.0, 0.0035570498054791344
899.0, 0.013815753506437094
900.0, 0.00764361138970495
901.0, 0.001863548998843593
902.0, 0.011034210865806401
903.0, 0.007883534733375752
904.0, 0.0074091247421801745
905.0, 0.012105644583887805
906.0, 0.006236623452200229
907.0, 0.0020478706112987896
908.0, 0.0011426720594493972
909.0, 0.0018562297929161872
910.0, 0.005533984156450495
911.0, 0.012175495361430845
912.0, 0.014719027829195267
913.0, 0.009499386847642052
914.0, 0.003946377049571451
915.0, 0.0011044457770093747
916.0, 0.007539411242239285
917.0, 0.008699424693848223
918.0, 0.0052347783984873966
919.0, 0.011134894917695884
920.0, 0.005808136164761626
921.0, 0.0023059123539739797
922.0, 0.0015840829528669745
923.0, 0.004968818912285348
924.0, 0.004665775130466648
925.0, 0.007091376157272432
926.0, 0.01078122087283028
927.0, 0.00623251710206091
928.0, 0.0013101391334876685
929.0, 0.002563888862161718
930.0, 0.0006920819858533456
931.0, 0.0011540567277339984
932.0, 0.010973743909773216
933.0, 0.015609150203641814
934.0, 0.014830593425211074
935.0, 0.014885290467191484
936.0, 0.01166047963096716
937.0, 0.004403225866925396
938.0, 0.0058931574720061854
939.0, 0.012461102003414552
940.0, 0.010262533454751192
941.0, 0.0060335105167182825
942.0, 0.008563383462903197
943.0, 0.01033108029529279
944.0, 0.007769741116109454
945.0, 0.006126757303063729
946.0, 0.013263372191939744
947.0, 0.00981209549720171
948.0, 0.007366479352867451
949.0, 0.015724883584509623
950.0, 0.018489286392872162
951.0, 0.008600170769824892
952.0, 0.007170513565347061
953.0, 0.011503690275871222
954.0, 0.011005368945740328
955.0, 0.004407877525549698
956.0, 0.0008871900199601773
957.0, 0.005608718067107615
958.0, 0.010822487300538289
959.0, 0.014433048495440458
960.0, 0.016239876589510083
961.0, 0.014608670303972414
962.0, 0.012951118008878807
963.0, 0.0136787372256473
964.0, 0.007851772160502757
965.0, 0.011308444659562362
966.0, 0.016933011332436656
967.0, 0.0112354738355906
968.0, 0.004243299895206876
969.0, 0.010366420644737188
970.0, 0.008510575925598566
971.0, 0.006442002297670496
972.0, 0.007815582401974374
973.0, 0.010896407226514474
974.0, 0.014955038348097926
975.0, 0.013103147197159347
976.0, 0.00850673726867948
977.0, 0.012247446055070462
978.0, 0.013960002271132154
979.0, 0.014875266027236243
980.0, 0.010963735455145722
981.0, 0.012069082548048386
982.0, 0.0070575450558285555
983.0, 0.0027308292878417276
984.0, 0.01315711161947411
985.0, 0.01890884906034598
986.0, 0.009782915877319973
987.0, 0.00843451954658336
988.0, 0.009058656968686846
989.0, 0.010523370368306988
990.0, 0.013277258333397936
991.0, 0.003478593559586701
992.0, 0.009890546948805813
993.0, 0.0024791944026769006
994.0, 0.0006625395102648981
995.0, 0.0044634004470776555
996.0, 0.014282751231509615
997.0, 0.017934103588079064
998.0, 0.011321026235730254
999.0, 0.003575823862648966
1000.0, 0.006513901754172724
1001.0, 0.008091015595368976
1002.0, 0.004574822811921737
1003.0, 0.005768054528803729
1004.0, 0.013830637503269419
1005.0, 0.015718296957452388
1006.0, 0.01598500095076759
1007.0, 0.00927491783457798
1008.0, 0.008834398326735255
1009.0, 0.010754422876113093
1010.0, 0.01024812325965949
1011.0, 0.014352941923940212
1012.0, 0.016727034289148797
1013.0, 0.01444655122727554
1014.0, 0.013015209058012758
1015.0, 0.014044783762277213
1016.0, 0.007396461296929365
1017.0, 0.0055344635006646815
1018.0, 0.01100103390761136
1019.0, 0.002976828503561708
1020.0, 0.002923408939187512
1021.0, 0.008968782059708885
1022.0, 0.00834050583143529
1023.0, 0.003025431063726508
1024.0, 0.0006520502417953549
1025.0, 0.0011822557929203623
1026.0, 0.005246829112613753
1027.0, 0.0011848286724920084
1028.0, 0.009899178501204387
1029.0, 0.007920368364528795
1030.0, 0.013383847584331227
1031.0, 0.018716729000975343
1032.0, 0.020580817476895965
1033.0, 0.010502194779141286
1034.0, 0.00658518709373339
1035.0, 0.015325245956256795
1036.0, 0.022259399892455643
1037.0, 0.020089551530702725
1038.0, 0.02490193694991645
1039.0, 0.041209949218253175
1040.0, 0.026856008115453876
1041.0, 0.03569193466779326
1042.0, 0.027934138497879044
1043.0, 0.031579261420649
1044.0, 0.025003807481177764
1045.0, 0.034205243704189696
1046.0, 0.03509763332224908
1047.0, 0.03533732264911935
1048.0, 0.039183736922723506
1049.0, 0.04755877124466073
1050.0, 0.05247913545332453
1051.0, 0.053041133461811094
1052.0, 0.06028615270644839
1053.0, 0.0711773857380075
1054.0, 0.07407737154091885
1055.0, 0.1105563751317478
1056.0, 0.15453207586705592
1057.0, 0.1984355146028014
1058.0, 0.26205936505382044
1059.0, 0.362232992788422
1060.0, 0.47901470943745456
1061.0, 0.6175602403162305
1062.0, 0.7513294237115111
1063.0, 0.8980209207316265
1064.0, 0.9960604420665476
1065.0, 0.946681304500459
1066.0, 0.7469974867472401
1067.0, 0.5002833075862667
1068.0, 0.3197161904371554
1069.0, 0.208077042119273
1070.0, 0.14591546106604047
1071.0, 0.1083780167565701
1072.0, 0.08401824957641313
1073.0, 0.06505182553260404
1074.0, 0.055932753074899685
1075.0, 0.03702479376187957
1076.0, 0.03908962749132618
1077.0, 0.03337180039068137
1078.0, 0.03241612350679905
1079.0, 0.02599718365287368
1080.0, 0.014622761678100282
1081.0, 0.016783301263696707
1082.0, 0.019634600174844745
1083.0, 0.016752423793039404
1084.0, 0.02214118014813071
1085.0, 0.01666073403322868
1086.0, 0.0028405262061806332
1087.0, 0.008515532806636956
1088.0, 0.02273934487928376
1089.0, 0.004961612947821572
1090.0, 0.005438040131620329
1091.0, 0.008985156480863635
1092.0, 0.005117995865572698
1093.0, 0.016941995262672233
1094.0, 0.012718028930562468
1095.0, 0.00558316778433713
1096.0, 0.006797095851310863
1097.0, 0.005857460610252963
1098.0, 0.006714069274381184
1099.0, 0.003800528484413021
1100.0, 0.003930600294283113
1101.0, 0.009913373709155257
1102.0, 0.007680245059183985
1103.0, 0.0023557501083603864
1104.0, 0.010037583469441834
1105.0, 0.006123171074388638
1106.0, 0.003104735919258134
1107.0, 0.0009233424345916441
1108.0, 0.0027863589149381553
1109.0, 0.004361901868463124
1110.0, 0.007750135487209564
1111.0, 0.007438991243935704
1112.0, 0.004222966375226919
1113.0, 0.004300763747368493
1114.0, 0.009222195266162643
1115.0, 0.009281155472761147
1116.0, 0.0037350819820350764
1117.0, 0.004620542626727274
1118.0, 0.004727964367789739
1119.0, 0.015185460360220941
1120.0, 0.006886342588733148
1121.0, 0.0034091779581289735
1122.0, 0.00013900278423848716
1123.0, 0.00012857543790971022
1124.0, 0.0006390594910741167
1125.0, 0.006858101350631186
1126.0, 0.00877493003823887
1127.0, 0.005852487607933574
1128.0, 0.004796021824610493
1129.0, 0.001596945800763038
1130.0, 0.002757147308263969
1131.0, 0.005587910783766539
1132.0, 0.009605188041227435
1133.0, 0.006268271723566002
1134.0, 0.008558940165207985
1135.0, 0.006497797656036837
1136.0, 0.0025275751789113174
1137.0, 0.009675323104302521
1138.0, 0.01274022448183993
1139.0, 0.009421126382982082
1140.0, 0.0018584331482501418
1141.0, 0.003124220546141289
1142.0, 0.012312519578089985
1143.0, 0.006898688012304734
1144.0, 0.00227078887122984
1145.0, 0.00441929481102952
1146.0, 0.007640534724322302
1147.0, 0.008318392613422952
1148.0, 0.008287812265491619
1149.0, 0.007856589588090147
1150.0, 0.003865810803233438
1151.0, 0.0017554633712236773
1152.0, 0.0019472522899235479
1153.0, 0.004176816343948273
1154.0, 0.011444808437240757
1155.0, 0.012307556157479053
1156.0, 0.010047410627382798
1157.0, 0.009025075050300535
1158.0, 0.013371875763592974
1159.0, 0.016236345010971855
1160.0, 0.003100004213198815
1161.0, 0.0009465950092782801
1162.0, 0.0055171021327855
1163.0, 0.016235486768809242
1164.0, 0.013112828973543196
1165.0, 0.0053953929478346655
1166.0, 0.009143921349757394
1167.0, 0.01038655586582785
1168.0, 0.009739634578976591
1169.0, 0.009661406412994317
1170.0, 0.009303783344010929
1171.0, 0.014535031150743763
1172.0, 0.012447874127824146
1173.0, 0.006282324624297608
1174.0, 0.010371885594269457
1175.0, 0.015278975468362386
1176.0, 0.014760642411390643
1177.0, 0.015520676571634664
1178.0, 0.013269341957881021
1179.0, 0.011135301570847998
1180.0, 0.011922042680959765
1181.0, 0.011854393977657135
1182.0, 0.012658664227452293
1183.0, 0.01660559734115986
1184.0, 0.014970498387232294
1185.0, 0.013303581740321684
1186.0, 0.005016079369177673
1187.0, 0.01605543728479713
1188.0, 0.015941214962109512
1189.0, 0.013963704903443314
1190.0, 0.007762339501285311
1191.0, 0.013945668657388444
1192.0, 0.01384364661424361
1193.0, 0.013837939890074941
1194.0, 0.016114025115453873
1195.0, 0.014502272133608558
1196.0, 0.013163888202898027
1197.0, 0.013967189832363738
1198.0, 0.013793136229444164
1199.0, 0.01238104351447979
1200.0, 0.016287094070677945
1201.0, 0.018976683976570922
1202.0, 0.009213746575495568
1203.0, 0.004528328449601139
1204.0, 0.010432186641535893
1205.0, 0.007783314177756736
1206.0, 0.010201182465144353
1207.0, 0.0017108048492340084
1208.0, 0.008043068302553247
1209.0, 0.017159337138072245
1210.0, 0.015076681435292368
1211.0, 0.0017829382785467473
1212.0, 0.01213781638203491
1213.0, 0.012423092466915845
1214.0, 0.01445783057957764
1215.0, 0.01876346811878609
1216.0, 0.011194896363608993
1217.0, 0.016707752588602468
1218.0, 0.015849006455439785
1219.0, 0.011089694417253089
1220.0, 0.018698139020761784
1221.0, 0.017188627187201693
1222.0, 0.013723551913355472
1223.0, 0.016214751269968644
1224.0, 0.01723360690947631
1225.0, 0.013414214208102094
1226.0, 0.01031838469310271
1227.0, 0.014512335417538777
1228.0, 0.015515472858170131
1229.0, 0.014948764044684907
1230.0, 0.014890299010712319
1231.0, 0.009561108006043532
1232.0, 0.016075741343436638
1233.0, 0.013961725918615735
1234.0, 0.002652680800786491
1235.0, 0.016598321197821557
1236.0, 0.010805687606477267
1237.0, 0.0014980186798367427
1238.0, 0.00308013383907187
1239.0, 0.0018178131199692797
1240.0, 0.013705404648758152
1241.0, 0.004041881343121824
1242.0, 0.008701646500509374
1243.0, 0.01989738925335041
1244.0, 0.024949947592125717
1245.0, 0.02006856124394313
1246.0, 0.01823605109970329
1247.0, 0.026737229741381482
1248.0, 0.031892233884970596
1249.0, 0.029541900708867027
1250.0, 0.01745993344673583
1251.0, 0.014278445058271666
1252.0, 0.01378589928672307
1253.0, 0.010591637320156815
1254.0, 0.017934063199039615
1255.0, 0.015901068047578126
1256.0, 0.009319052642899898
1257.0, 0.0030642314540761896
1258.0, 0.00269710009068368
1259.0, 0.008379339052474845
1260.0, 0.00563250262341041
1261.0, 0.001921064662656402
1262.0, 0.0007523608494147662
1263, 0.0
1264, 0.0
1265, 0.0
1266, 0.0
1267, 0.0
1268, 0.0
1269, 0.0
1270, 0.0
1271, 0.0
1272, 0.0
1273, 0.0
1274, 0.0
1275, 0.0
1276, 0.0
1277, 0.0
1278, 0.0
1279, 0.0
1280, 0.0
1281, 0.0
1282, 0.0
1283, 0.0
1284, 0.0
1285, 0.0
1286, 0.0
1287, 0.0
1288, 0.0
1289, 0.0
1290, 0.0
1291, 0.0
1292, 0.0
1293, 0.0
1294, 0.0
1295, 0.0
1296, 0.0
1297, 0.0
1298, 0.0
1299, 0.0
1300, 0.0
1301, 0.0
1302, 0.0
1303, 0.0
1304, 0.0
1305, 0.0
1306, 0.0
1307, 0.0
1308, 0.0
1309, 0.0
1310, 0.0
1311, 0.0
1312, 0.0
1313, 0.0
1314, 0.0
1315, 0.0
1316, 0.0
1317, 0.0
1318, 0.0
1319, 0.0
1320, 0.0
1321, 0.0
1322, 0.0
1323, 0.0
1324, 0.0
1325, 0.0
1326, 0.0
1327, 0.0
1328, 0.0
1329, 0.0
1330, 0.0
1331, 0.0
1332, 0.0
1333, 0.0
1334, 0.0
1335, 0.0
1336, 0.0
1337, 0.0
1338, 0.0
1339, 0.0
1340, 0.0
1341, 0.0
1342, 0.0
1343, 0.0
1344, 0.0
1345, 0.0
1346, 0.0
1347, 0.0
1348, 0.0
1349, 0.0
1350, 0.0
1351, 0.0
1352, 0.0
1353, 0.0
1354, 0.0
1355, 0.0
1356, 0.0
1357, 0.0
1358, 0.0
1359, 0.0
1360, 0.0
1361, 0.0
1362, 0.0
1363, 0.0
1364, 0.0
1365, 0.0
1366, 0.0
1367, 0.0
1368, 0.0
1369, 0.0
1370, 0.0
1371, 0.0
1372, 0.0
1373, 0.0
1374, 0.0
1375, 0.0
1376, 0.0
1377, 0.0
1378, 0.0
1379, 0.0
1380, 0.0
1381, 0.0
1382, 0.0
1383, 0.0
1384, 0.0
1385, 0.0
1386, 0.0
1387, 0.0
1388, 0.0
1389, 0.0
1390, 0.0
1391, 0.0
1392, 0.0
1393, 0.0
1394, 0.0
1395, 0.0
1396, 0.0
1397, 0.0
1398, 0.0
1399, 0.0
1400, 0.0
1401, 0.0
1402, 0.0
1403, 0.0
1404, 0.0
1405, 0.0
1406, 0.0
1407, 0.0
1408, 0.0
1409, 0.0
1410, 0.0
1411, 0.0
1412, 0.0
1413, 0.0
1414, 0.0
1415, 0.0
1416, 0.0
1417, 0.0
1418, 0.0
1419, 0.0
1420, 0.0
1421, 0.0
1422, 0.0
1423, 0.0
1424, 0.0
1425, 0.0
1426, 0.0
1427, 0.0
1428, 0.0
1429, 0.0
1430, 0.0
1431, 0.0
1432, 0.0
1433, 0.0
1434, 0.0
1435, 0.0
1436, 0.0
1437, 0.0
1438, 0.0
1439, 0.0
1440, 0.0
1441, 0.0
1442, 0.0
1443, 0.0
1444, 0.0
1445, 0.0
1446, 0.0
1447, 0.0
1448, 0.0
1449, 0.0
1450, 0.0
1451, 0.0
1452, 0.0
1453, 0.0
1454, 0.0
1455, 0.0
1456, 0.0
1457, 0.0
1458, 0.0
1459, 0.0
1460, 0.0
1461, 0.0
1462, 0.0
1463, 0.0
1464, 0.0
1465, 0.0
1466, 0.0
1467, 0.0
1468, 0.0
1469, 0.0
1470, 0.0
1471, 0.0
1472, 0.0
1473, 0.0
1474, 0.0
1475, 0.0
1476, 0.0
1477, 0.0
1478, 0.0
1479, 0.0
1480, 0.0
1481, 0.0
1482, 0.0
1483, 0.0
1484, 0.0
1485, 0.0
1486, 0.0
1487, 0.0
1488, 0.0
1489, 0.0
1490, 0.0
1491, 0.0
1492, 0.0
1493, 0.0
1494, 0.0
1495, 0.0
1496, 0.0
1497, 0.0
1498, 0.0
1499, 0.0
1500, 0.0
1501, 0.0
1502, 0.0
1503, 0.0
1504, 0.0
1505, 0.0
1506, 0.0
1507, 0.0
1508, 0.0
1509, 0.0
1510, 0.0
1511, 0.0
1512, 0.0
1513, 0.0
1514, 0.0
1515, 0.0
1516, 0.0
1517, 0.0
1518, 0.0
1519, 0.0
1520, 0.0
1521, 0.0
1522, 0.0
1523, 0.0
1524, 0.0
1525, 0.0
1526, 0.0
1527, 0.0
1528, 0.0
1529, 0.0
1530, 0.0
1531, 0.0
1532, 0.0
1533, 0.0
1534, 0.0
1535, 0.0
1536, 0.0
1537, 0.0
1538, 0.0
1539, 0.0
1540, 0.0
1541, 0.0
1542, 0.0
1543, 0.0
1544, 0.0
1545, 0.0
1546, 0.0
1547, 0.0
1548, 0.0
1549, 0.0
1550, 0.0
1551, 0.0
1552, 0.0
1553, 0.0
1554, 0.0
1555, 0.0
1556, 0.0
1557, 0.0
1558, 0.0
1559, 0.0
1560, 0.0
1561, 0.0
1562, 0.0
1563, 0.0
1564, 0.0
1565, 0.0
1566, 0.0
1567, 0.0
1568, 0.0
1569, 0.0
1570, 0.0
1571, 0.0
1572, 0.0
1573, 0.0
1574, 0.0
1575, 0.0
1576, 0.0
1577, 0.0
1578, 0.0
1579, 0.0
1580, 0.0
1581, 0.0
1582, 0.0
1583, 0.0
1584, 0.0
1585, 0.0
1586, 0.0
1587, 0.0
1588, 0.0
1589, 0.0
1590, 0.0
1591, 0.0
1592, 0.0
1593, 0.0
1594, 0.0
1595, 0.0
1596, 0.0
1597, 0.0
1598, 0.0
1599, 0.0
