30, 0.0
31, 0.0
32, 0.0
33, 0.0
34, 0.0
35, 0.0
36, 0.0
37, 0.0
38, 0.0
39, 0.0
40, 0.0
41, 0.0
42, 0.0
43, 0.0
44, 0.0
45, 0.0
46, 0.0
47, 0.0
48, 0.0
49, 0.0
50, 0.0
51, 0.0
52, 0.0
53, 0.0
54, 0.0
55, 0.0
56, 0.0
57, 0.0
58, 0.0
59, 0.0
60, 0.0
61, 0.0
62, 0.0
63, 0.0
64, 0.0
65, 0.0
66, 0.0
67, 0.0
68, 0.0
69, 0.0
70, 0.0
71, 0.0
72, 0.0
73, 0.0
74, 0.0
75, 0.0
76, 0.0
77, 0.0
78, 0.0
79, 0.0
80, 0.0
81, 0.0
82, 0.0
83, 0.0
84, 0.0
85, 0.0
86, 0.0
87, 0.0
88, 0.0
89, 0.0
90, 0.0
91, 0.0
92, 0.0
93, 0.0
94, 0.0
95, 0.0
96, 0.0
97, 0.0
98, 0.0
99, 0.0
100, 0.0
101, 0.0
102, 0.0
103, 0.0
104, 0.0
105, 0.0
106, 0.0
107, 0.0
108, 0.0
109, 0.0
110, 0.0
111, 0.0
112, 0.0
113, 0.0
114, 0.0
115, 0.0
116, 0.0
117, 0.0
118, 0.0
119, 0.0
120, 0.0
121, 0.0
122, 0.0
123, 0.0
124, 0.0
125, 0.0
126, 0.0
127, 0.0
128, 0.0
129, 0.0
130, 0.0
131, 0.0
132, 0.0
133, 0.0
134, 0.0
135, 0.0
136, 0.0
137, 0.0
138, 0.0
139, 0.0
140, 0.0
141, 0.0
142, 0.0
143, 0.0
144, 0.0
145, 0.0
146, 0.0
147, 0.0
148, 0.0
149, 0.0
150, 0.0
151, 0.0
152, 0.0
153, 0.0
154, 0.0
155, 0.0
156, 0.0
157, 0.0
158.0, 0.0009263246204715995
159.0, 0.001609957674268789
160.0, 0.0003481892878249664
161.0, 0.0012937286485947823
162.0, 0.0060589560863455695
163.0, 0.011631600465360605
164.0, 0.021052540334305533
165.0, 0.034501616524135185
166.0, 0.04269103298012425
167.0, 0.06341388929452121
168.0, 0.08083663518670939
169.0, 0.1014227283423149
170.0, 0.12638530011177035
171.0, 0.15193442729926687
172.0, 0.18148841381988154
173.0, 0.210607717848607
174.0, 0.23947558976589045
175.0, 0.2655627296055458
176.0, 0.28844980855050506
177.0, 0.3162844829226222
178.0, 0.3332601942396485
179.0, 0.3441255752022677
180.0, 0.34847607933530583
181.0, 0.3471340300886192
182.0, 0.34230879664942077
183.0, 0.33383830747709653
184.0, 0.31996228636889734
185.0, 0.30687404487749925
186.0, 0.2948839495254465
187.0, 0.283179561459045
188.0, 0.2747494829339522
189.0, 0.26909869865906366
190.0, 0.26464550244875745
191.0, 0.2573871763704201
192.0, 0.24797993047779107
193.0, 0.24191727597797988
194.0, 0.23526842813097026
195.0, 0.2222199595643781
196.0, 0.21188657284594073
197.0, 0.20150765206829246
198.0, 0.18597843518601534
199.0, 0.16735273139584358
200.0, 0.15641833241770078
201.0, 0.146206928934973
202.0, 0.13520535630067118
203.0, 0.12466274918541284
204.0, 0.11784646298780566
205.0, 0.11328908616436684
206.0, 0.10708385508423371
207.0, 0.10538086826931901
208.0, 0.1046159883833163
209.0, 0.10162797984312372
210.0, 0.10403379645636496
211.0, 0.10085302158052892
212.0, 0.10051294765267176
213.0, 0.09875122432103033
214.0, 0.09616250178833564
215.0, 0.09722053887693835
216.0, 0.09418094369234713
217.0, 0.09107031550391528
218.0, 0.08992601755323926
219.0, 0.0895320876566794
220.0, 0.08980379167530954
221.0, 0.09504015794742444
222.0, 0.09937920451439294
223.0, 0.10263699190419319
224.0, 0.10623036855609132
225.0, 0.11253147209193456
226.0, 0.12318076350503791
227.0, 0.13268355107240473
228.0, 0.14419201341945684
229.0, 0.15554501336152382
230.0, 0.16586742001935462
231.0, 0.17657251397089507
232.0, 0.19167933150099778
233.0, 0.20037295245418446
234.0, 0.20902679238122013
235.0, 0.22220658588166162
236.0, 0.234739980973691
237.0, 0.2423335555718993
238.0, 0.25975479123671014
239.0, 0.27426639388044155
240.0, 0.28869164705962164
241.0, 0.3029473856603676
242.0, 0.31775925929036064
243.0, 0.33416805947817196
244.0, 0.3462285820859447
245.0, 0.3606307189630333
246.0, 0.3751376393404262
247.0, 0.39058438117315236
248.0, 0.40790276587814384
249.0, 0.4265992111527586
250.0, 0.45094970248366084
251.0, 0.4800378596579702
252.0, 0.5134472919696579
253.0, 0.5488034168940737
254.0, 0.5840246783695183
255.0, 0.6227982867704714
256.0, 0.663010500399807
257.0, 0.699210203214503
258.0, 0.7313059290973826
259.0, 0.7575244048630031
260.0, 0.7735074881533266
261.0, 0.7696566006336224
262.0, 0.7479797077704643
263.0, 0.7114048688633637
264.0, 0.6640756307128696
265.0, 0.6100044068769427
266.0, 0.5512618660397764
267.0, 0.49188181432254524
268.0, 0.4373739890751225
269.0, 0.38103433254187763
270.0, 0.3295507388665985
271.0, 0.29084945414060503
272.0, 0.25188437148053894
273.0, 0.21616597235267734
274.0, 0.18783042227128113
275.0, 0.1645395947464883
276.0, 0.1442662824925601
277.0, 0.12637515744958638
278.0, 0.11355751866244619
279.0, 0.10347481612928157
280.0, 0.09358139707792566
281.0, 0.08448814886476635
282.0, 0.07669396485516494
283.0, 0.06962835270751755
284.0, 0.06358340293335682
285.0, 0.05776496349371525
286.0, 0.052348442663757336
287.0, 0.04723941015768531
288.0, 0.04303594614510915
289.0, 0.04214027306125498
290.0, 0.04075514374960402
291.0, 0.03863947810513599
292.0, 0.03709931141162964
293.0, 0.035183034741257245
294.0, 0.03216900957892192
295.0, 0.03351544597054771
296.0, 0.03009008410303513
297.0, 0.028598384266020634
298.0, 0.027450142818995504
299.0, 0.025324832229177925
300.0, 0.02242480512354037
301.0, 0.022435519943435685
302.0, 0.022517829416708678
303.0, 0.021420075117706584
304.0, 0.01977410475380836
305.0, 0.017049772477114866
306.0, 0.011629907585992845
307.0, 0.011544221658269953
308.0, 0.007749793328998819
309.0, 0.007982924301639625
310.0, 0.008977085993136777
311.0, 0.007177795810272185
312.0, 0.004177461850130291
313.0, 0.005276146944511024
314.0, 0.0023393227476434884
315.0, 0.0011321329670498116
316.0, 0.0011715131772543287
317.0, 0.0008226122294425323
318.0, 0.0018825885717203396
319.0, 0.00035718317255427595
320.0, 0.001851871716148768
321.0, 0.003598906553054036
322.0, 0.004739348748684538
323.0, 0.005521432373605491
324.0, 0.005820518912956388
325.0, 0.006004097646544678
326.0, 0.0050069362402185005
327.0, 0.004696320587363303
328.0, 0.0045071459827575495
329.0, 0.00290269611263808
330.0, 0.001782535881302468
331.0, 0.002328692183031863
332.0, 0.005066067313856158
333.0, 0.006304832498018746
334.0, 0.004931646360618366
335.0, 0.003431121702580087
336.0, 0.009741477550681776
337.0, 0.0069190299144007514
338.0, 0.007528580578148004
339.0, 0.007111036679880038
340.0, 0.005882094140678165
341.0, 0.009155369982396118
342.0, 0.01068417377972574
343.0, 0.0070398617782267275
344.0, 0.007731648857439005
345.0, 0.009846964918062412
346.0, 0.010563356346765966
347.0, 0.009872964455361661
348.0, 0.008606247694615241
349.0, 0.007447237011505334
350.0, 0.0058946843038039706
351.0, 0.0056078171604484195
352.0, 0.006048172118067603
353.0, 0.004258090792113134
354.0, 0.0050798627951295595
355.0, 0.002007297538999148
356.0, 0.0022720299579579253
357.0, 0.0031966810966883217
358.0, 0.0026392255339952576
359.0, 0.0022986425284931087
360.0, 0.004138831786495157
361.0, 0.0031615257737039795
362.0, 0.0039262199013417225
363.0, 0.005628949793630806
364.0, 0.0071953314429253085
365.0, 0.00896729698761059
366.0, 0.009865153218156916
367.0, 0.011680234451060017
368.0, 0.0142346876968306
369.0, 0.017369944439021852
370.0, 0.02018184953399201
371.0, 0.021099756733014483
372.0, 0.02142586046519389
373.0, 0.02668624524339569
374.0, 0.029395142737127303
375.0, 0.030700437767146666
376.0, 0.03158898527915039
377.0, 0.030565251556243594
378.0, 0.033778640636079785
379.0, 0.03595305902485069
380.0, 0.03832554214477431
381.0, 0.04164402713045119
382.0, 0.04554752041534194
383.0, 0.04878326663847465
384.0, 0.05325486871256908
385.0, 0.05514606288337962
386.0, 0.05786058705272108
387.0, 0.059860977957978886
388.0, 0.06148749157876891
389.0, 0.06572753114086571
390.0, 0.07005931116752348
391.0, 0.07087908507573695
392.0, 0.07304934858314698
393.0, 0.07634161984841867
394.0, 0.07987161059638902
395.0, 0.08313470321303054
396.0, 0.08578874478619883
397.0, 0.08752413499568289
398.0, 0.09026611605903034
399.0, 0.09361980911173755
400.0, 0.09601572491695924
401.0, 0.09636705929108663
402.0, 0.09929315771339384
403.0, 0.095380693187027
404.0, 0.09738210041168714
405.0, 0.09883408266513923
406.0, 0.09652193189975788
407.0, 0.09185421627851627
408.0, 0.08693427689609005
409.0, 0.08437632378587427
410.0, 0.08099710541105476
411.0, 0.07723724819815546
412.0, 0.07361908211850447
413.0, 0.06989834551125039
414.0, 0.06402435274053302
415.0, 0.0589690638993884
416.0, 0.053306685452443305
417.0, 0.050290324582612504
418.0, 0.04767617214918506
419.0, 0.042760927267718345
420.0, 0.03814979739929283
421.0, 0.039248803222895055
422.0, 0.0370730819446513
423.0, 0.035027064101426336
424.0, 0.03360865626367223
425.0, 0.032607842996204686
426.0, 0.03249549270424962
427.0, 0.03260221637710474
428.0, 0.030717586502528853
429.0, 0.02992334111855547
430.0, 0.03132944975903008
431.0, 0.03302682760604928
432.0, 0.03136378859257313
433.0, 0.0316957440135637
434.0, 0.033529706823036895
435.0, 0.0326005150434298
436.0, 0.030988393935307886
437.0, 0.03106206813867393
438.0, 0.03312672095492141
439.0, 0.03219215202454633
440.0, 0.03567945774268781
441.0, 0.03583348352440648
442.0, 0.032715373483742975
443.0, 0.030707172171878797
444.0, 0.032675721310020105
445.0, 0.031272269256685685
446.0, 0.02787298391917903
447.0, 0.027436581707296757
448.0, 0.02761481682028379
449.0, 0.028804348769410248
450.0, 0.03062650292309253
451.0, 0.029589002652025447
452.0, 0.03188348889104278
453.0, 0.03374814736698781
454.0, 0.032228053825659034
455.0, 0.031908452642839445
456.0, 0.034217620505171104
457.0, 0.03466822120526443
458.0, 0.031133133534087365
459.0, 0.030127850892468853
460.0, 0.030440525705268204
461.0, 0.031238877155051425
462.0, 0.031798121291652943
463.0, 0.031751786823612634
464.0, 0.03153109389703472
465.0, 0.03220599696550802
466.0, 0.03129221350761018
467.0, 0.030613794237322047
468.0, 0.03047148438756101
469.0, 0.029798901701869045
470.0, 0.02703313991149096
471.0, 0.02784749196109623
472.0, 0.026597754230883928
473.0, 0.027016604725371016
474.0, 0.028031478143383786
475.0, 0.028188571020776255
476.0, 0.02762132991591184
477.0, 0.028590748282949403
478.0, 0.02663726335943744
479.0, 0.026300146831045895
480.0, 0.02407727186916759
481.0, 0.021905447794355132
482.0, 0.023025169161129046
483.0, 0.02140122232251164
484.0, 0.014778772022970427
485.0, 0.0152962370500611
486.0, 0.013673399393386933
487.0, 0.010665350147885274
488.0, 0.008341096433504605
489.0, 0.004457640102072873
490.0, 0.0019221050296957375
491.0, 0.004048245741085964
492.0, 0.0027317330918612387
493.0, 0.0014160470332828822
494.0, 0.0013763959483148892
495.0, 0.0007220433107768243
496.0, 0.0005348970393655671
497.0, 0.00044576980040327864
498.0, 0.0035119089121698173
499.0, 0.0063534892869798005
500.0, 0.0071653391837609316
501.0, 0.006010129508936541
502.0, 0.004426789742690151
503.0, 0.004546803013938932
504.0, 0.0031612931613766025
505.0, 0.0012717745890243569
506.0, 0.0005876013476397725
507.0, 0.000983731703920687
508.0, 0.0015193247453178
509.0, 0.005671047009868148
510.0, 0.008947408393232723
511.0, 0.008287392392405522
512.0, 0.007370972408941923
513.0, 0.009429421289865713
514.0, 0.013112227937307716
515.0, 0.011507427325218046
516.0, 0.015592554820440837
517.0, 0.015371986820310931
518.0, 0.015565650000027567
519.0, 0.016180026396767053
520.0, 0.017159523920723264
521.0, 0.018730199542302765
522.0, 0.019205676887163344
523.0, 0.020052277908903324
524.0, 0.020740222935384054
525.0, 0.019987972456550766
526.0, 0.02041057601430024
527.0, 0.022445622641671988
528.0, 0.021690273145175472
529.0, 0.024030088760328
530.0, 0.022938154416669007
531.0, 0.023257705692778866
532.0, 0.022110007159914794
533.0, 0.021026463508896188
534.0, 0.022837358589337036
535.0, 0.022583264432374985
536.0, 0.02205506801354556
537.0, 0.021421407256773325
538.0, 0.022064546787422857
539.0, 0.023567699703650493
540.0, 0.024434956121777828
541.0, 0.023640794053121625
542.0, 0.024985708924720795
543.0, 0.025610390070902316
544.0, 0.02758834430813305
545.0, 0.029773676482496843
546.0, 0.032037789492675675
547.0, 0.03471684062383369
548.0, 0.03770559432599733
549.0, 0.041801096793015954
550.0, 0.04584940722442891
551.0, 0.049697540308141296
552.0, 0.054515961625026185
553.0, 0.05922861338190996
554.0, 0.06237938612116589
555.0, 0.06712907469138862
556.0, 0.06841825552480016
557.0, 0.0707292693731371
558.0, 0.07210187095230634
559.0, 0.0724741591982307
560.0, 0.0731318470106048
561.0, 0.07556134207377761
562.0, 0.07892320889467494
563.0, 0.07844675503705743
564.0, 0.07718296997905794
565.0, 0.0746437392210012
566.0, 0.07115085382015979
567.0, 0.06736425025271725
568.0, 0.06349630401648618
569.0, 0.058400251132517476
570.0, 0.053455794524772324
571.0, 0.04829458196639976
572.0, 0.04302387351789513
573.0, 0.03867077741009161
574.0, 0.03550688389458835
575.0, 0.03135636903310255
576.0, 0.028212346796342828
577.0, 0.02624750369412787
578.0, 0.023949688118888045
579.0, 0.023094776811919678
580.0, 0.021485407295086367
581.0, 0.01697795868935441
582.0, 0.017898816557827518
583.0, 0.016642448359258627
584.0, 0.014096210911714686
585.0, 0.010973075210932121
586.0, 0.010240879681149666
587.0, 0.011786659312908447
588.0, 0.012679450489824638
589.0, 0.013626779679767692
590.0, 0.011739366150931836
591.0, 0.01216607890695476
592.0, 0.012481440761577712
593.0, 0.01272577428492928
594.0, 0.013031414862426911
595.0, 0.01295743662002381
596.0, 0.014614550173944167
597.0, 0.014177267508746939
598.0, 0.017021100266516875
599.0, 0.018975256844386716
600.0, 0.018675470169400517
601.0, 0.01886844942349914
602.0, 0.023250963105232926
603.0, 0.0222604084779453
604.0, 0.02694973343809403
605.0, 0.026535228957835996
606.0, 0.025801033243573863
607.0, 0.026262369825883897
608.0, 0.026968768561391767
609.0, 0.027187391265509786
610.0, 0.028789427753980534
611.0, 0.029340785973222042
612.0, 0.03198770727994786
613.0, 0.033968332513769434
614.0, 0.03583768089076728
615.0, 0.038020666229988793
616.0, 0.038283120609187385
617.0, 0.03965467730654445
618.0, 0.03927723718769354
619.0, 0.038814986036721136
620.0, 0.03823051034359264
621.0, 0.039113395310393394
622.0, 0.04085269451576454
623.0, 0.039431302204941836
624.0, 0.041100780254699994
625.0, 0.04470776819068369
626.0, 0.04618943115111716
627.0, 0.04700539375841488
628.0, 0.04842480884573397
629.0, 0.050335733261422475
630.0, 0.051046225163447305
631.0, 0.04763600175656319
632.0, 0.04843900590769611
633.0, 0.04771129501322981
634.0, 0.0487561988767652
635.0, 0.0488470246439109
636.0, 0.04618721057089776
637.0, 0.045105277913644215
638.0, 0.048483082992863025
639.0, 0.04441076820212239
640.0, 0.04174735754449266
641.0, 0.035533521600953306
642.0, 0.03240342903593801
643.0, 0.03298640094273202
644.0, 0.027411549889675525
645.0, 0.02896630868801559
646.0, 0.027696649544930563
647.0, 0.02615327366066285
648.0, 0.02636088222903743
649.0, 0.02736469621066902
650.0, 0.028087041362663153
651.0, 0.028803753585596267
652.0, 0.030015788867405004
653.0, 0.03170620336714557
654.0, 0.03266917037834565
655.0, 0.034264709089654406
656.0, 0.03633452722969308
657.0, 0.03833405866642346
658.0, 0.04006627691274993
659.0, 0.04186637830281447
660.0, 0.04347578890312739
661.0, 0.04493767066547617
662.0, 0.046466903692952914
663.0, 0.04771132060330271
664.0, 0.048797044174084536
665.0, 0.05000013225108871
666.0, 0.050888802788646784
667.0, 0.052310600280359484
668.0, 0.0535021089956572
669.0, 0.054845335428046066
670.0, 0.055792302224104764
671.0, 0.05806866561913772
672.0, 0.062165565923441246
673.0, 0.06491759382646571
674.0, 0.07105816931496105
675.0, 0.07454733755369858
676.0, 0.07214965052704445
677.0, 0.0761831332493107
678.0, 0.08376046973848893
679.0, 0.08891272413702025
680.0, 0.09405264616138834
681.0, 0.10802570376639813
682.0, 0.11502314714405974
683.0, 0.12192760168274314
684.0, 0.13134488274456324
685.0, 0.14179170413276376
686.0, 0.15321117285771668
687.0, 0.16664092161527277
688.0, 0.17903101032380464
689.0, 0.19134069565721737
690.0, 0.210215036261589
691.0, 0.22786750900773106
692.0, 0.24778643178001064
693.0, 0.2698413940154981
694.0, 0.29303346322242735
695.0, 0.32123015618976253
696.0, 0.35223544637992843
697.0, 0.38614960433781914
698.0, 0.4265741469602002
699.0, 0.4708786652001097
700.0, 0.516116336380476
701.0, 0.5643579711085855
702.0, 0.6208753132536956
703.0, 0.6818155176603885
704.0, 0.748113409354311
705.0, 0.8095911388289803
706.0, 0.8681530902243136
707.0, 0.9231759084798323
708.0, 0.9689258077623302
709.0, 0.9964176085851625
710.0, 0.999077679694539
711.0, 0.9860872528570641
712.0, 0.9390259397210086
713.0, 0.8724354246549861
714.0, 0.7974848412163517
715.0, 0.7183314209895203
716.0, 0.6362791213616892
717.0, 0.5550850601466578
718.0, 0.4836949141448565
719.0, 0.418248498672654
720.0, 0.3621381222179303
721.0, 0.3150172307602845
722.0, 0.27321918290145686
723.0, 0.2384591679567797
724.0, 0.2130800182975119
725.0, 0.19058962901889043
726.0, 0.1663743591838561
727.0, 0.15219409295625547
728.0, 0.1372494289044731
729.0, 0.1259696493898582
730.0, 0.1155642243948311
731.0, 0.1054121148611644
732.0, 0.0993579892898571
733.0, 0.09154455914149456
734.0, 0.088623477494178
735.0, 0.08372570046799233
736.0, 0.08311779619487733
737.0, 0.0843372866055857
738.0, 0.08362806175429707
739.0, 0.08240580719948815
740.0, 0.08651345418495157
741.0, 0.08322172248247486
742.0, 0.08618235990086086
743.0, 0.08973360022851376
744.0, 0.08998814664311476
745.0, 0.09098277981824167
746.0, 0.09377124634059592
747.0, 0.09555903733590429
748.0, 0.09739104866459507
749.0, 0.10117546751249648
750.0, 0.10383815852780924
751.0, 0.1008088627268429
752.0, 0.10010556219597352
753.0, 0.09892141660285021
754.0, 0.09493405824739329
755.0, 0.0919052518152609
756.0, 0.08761305576424132
757.0, 0.08373903050235272
758.0, 0.07970441339858317
759.0, 0.07743718089801466
760.0, 0.07292747387819105
761.0, 0.06716188750370633
762.0, 0.06307507554929515
763.0, 0.05997927202000445
764.0, 0.05414549368542285
765.0, 0.053208787184475484
766.0, 0.04809679207062276
767.0, 0.041334887464821585
768.0, 0.03912312895922892
769.0, 0.03789655141281962
770.0, 0.0340066359391387
771.0, 0.03473658876393443
772.0, 0.03204904057595885
773.0, 0.0311139732187954
774.0, 0.02941263023078818
775.0, 0.026984358237095375
776.0, 0.024931543565569828
777.0, 0.02423888672840275
778.0, 0.024932771922425028
779.0, 0.02558653026062915
780.0, 0.02231808943503261
781.0, 0.02542104467950532
782.0, 0.02899694175721504
783.0, 0.026610853781780578
784.0, 0.023590369569588616
785.0, 0.023791987668004135
786.0, 0.024700285223872322
787.0, 0.022848895080182684
788.0, 0.02389776037067816
789.0, 0.023419067991425062
790.0, 0.023235187348884634
791.0, 0.0204917638162128
792.0, 0.017402144560128972
793.0, 0.016504487707658468
794.0, 0.017056176032022835
795.0, 0.01582851097058019
796.0, 0.01680650908291362
797.0, 0.011824758648974584
798.0, 0.012247259782672819
799.0, 0.011459114493305245
800.0, 0.007441936386830703
801.0, 0.004986342497756529
802.0, 0.007047604976523081
803.0, 0.005654930072970441
804.0, 0.0036045273917546953
805.0, 0.004442107164848313
806.0, 0.0035434742807268086
807.0, 0.0022058236951864366
808.0, 0.001414118295442747
809.0, 0.0012388634947907966
810.0, 0.0010230645842400877
811.0, 0.000405478232886789
812.0, 0.002962080419576185
813.0, 0.001723039072223903
814.0, 0.0017291397719084384
815.0, 0.0036569940432870716
816.0, 0.0033570728246506863
817.0, 0.002971435431087377
818.0, 0.004096914429257716
819.0, 0.0008733414064165381
820.0, 0.007475470957382687
821.0, 0.0010610785030602168
822.0, 0.003712625976895389
823.0, 0.0020948264794362187
824.0, 0.0011666856875420775
825.0, 0.0014591080679410872
826.0, 0.0012439359752200823
827.0, 0.002754129766821568
828.0, 0.00029104236847207234
829.0, 0.0026389128733988465
830.0, 0.0011805046280157056
831.0, 0.0005537243770468725
832.0, 0.000416077748891416
833.0, 0.0011237299446696586
834.0, 0.003158119222742207
835.0, 0.005065422077775218
836.0, 0.003296658553298812
837.0, 0.0018759260363886976
838.0, 0.002351542733717512
839.0, 0.0022865915029244674
840.0, 0.003118282252271869
841.0, 0.003646317824128873
842.0, 0.002651613180016081
843.0, 0.0010013358948417787
844.0, 0.0007145238857612767
845.0, 0.0001322456849076541
846.0, 2.895318845913227e-05
847.0, 0.00034456476308452027
848.0, 0.0006030347376730476
849.0, 0.0006162966148299336
850.0, 0.0006162763690469466
851.0, 0.0007020435544750499
852.0, 0.0006545691131699737
853.0, 0.001173588852831183
854.0, 0.00415591641058857
855.0, 0.003633077598078396
856.0, 0.0018120091836063062
857.0, 0.0018521883481407157
858.0, 0.0017550108492747525
859.0, 0.0005430603874159614
860.0, 0.0004837733891340601
861.0, 0.0015500367147207005
862.0, 0.001848871305277855
863.0, 0.004222932508233645
864.0, 0.006740444422837862
865.0, 0.0030518015693601795
866.0, 0.0006637485796442731
867.0, 0.0014331974609359931
868.0, 0.001595901860632719
869.0, 0.0012926976495396315
870.0, 0.0023317959020978697
871.0, 0.00043933283731193253
872.0, 0.0018490126722212176
873.0, 0.0028570458987307273
874.0, 0.0028139006809089684
875.0, 0.0022283085494021887
876.0, 0.002179696380570785
877.0, 0.002862304746169816
878.0, 0.0022870702560251308
879.0, 0.0002571801616376478
880.0, 0.0004920242488697742
881.0, 0.002049324582447237
882.0, 0.0016803278079993188
883.0, 0.0012938836722860968
884.0, 0.00179565829692782
885.0, 0.0019426808665872972
886.0, 0.0013228006498194516
887.0, 0.0032664781816822775
888.0, 0.0009808984558958343
889.0, 0.0028724251835416884
890.0, 0.001271092120590755
891.0, 0.0018456231821598992
892.0, 0.0020498606254908645
893.0, 0.0010035791728230403
894.0, 0.0009735397836503366
895.0, 0.0018643624946640927
896.0, 0.0007102793610939166
897.0, 0.0037317706027359962
898.0, 0.004058938541432202
899.0, 0.002938293704645786
900.0, 0.0016687503821157627
901.0, 0.0008189315794918071
902.0, 0.0007356021663234055
903.0, 0.002419001871397649
904.0, 0.006357373195342758
905.0, 0.006205336319343524
906.0, 0.003781027459358053
907.0, 0.005617833138476973
908.0, 0.005839874057696702
909.0, 0.006166361341554593
910.0, 0.006358726584309046
911.0, 0.00617765768801598
912.0, 0.005735128050815453
913.0, 0.003770017220898084
914.0, 0.005648448692866672
915.0, 0.003140377671160814
916.0, 0.006075071298387633
917.0, 0.005975166979092881
918.0, 0.006297028755726082
919.0, 0.005844172078856535
920.0, 0.005316921132053552
921.0, 0.006947926482648035
922.0, 0.005845141519686183
923.0, 0.005269605509484393
924.0, 0.006089518413125056
925.0, 0.004606909265748409
926.0, 0.007987841480312986
927.0, 0.009330284992227334
928.0, 0.00947179138535149
929.0, 0.009430231118991508
930.0, 0.008394263451468884
931.0, 0.009983302725497994
932.0, 0.006215977647667775
933.0, 0.007570086221720885
934.0, 0.011812889399009449
935.0, 0.007188817527771144
936.0, 0.0076230205698882446
937.0, 0.008770671593462991
938.0, 0.007084218187036039
939.0, 0.0068285185102949985
940.0, 0.0074255641355158546
941.0, 0.010474134428935012
942.0, 0.01195592334824549
943.0, 0.011881475025888183
944.0, 0.01385339318993502
945.0, 0.015691666278138085
946.0, 0.015202675098721925
947.0, 0.01236186999129845
948.0, 0.009782906010086492
949.0, 0.010617393546152057
950.0, 0.013644443928997817
951.0, 0.013099193731191441
952.0, 0.013637563916853675
953.0, 0.011154969815980305
954.0, 0.015050459437267816
955.0, 0.015980250074456886
956.0, 0.015827448690174228
957.0, 0.01797022123521631
958.0, 0.01789472971161377
959.0, 0.022235890256849116
960.0, 0.018989946242587555
961.0, 0.015882540780195426
962.0, 0.017433085062867254
963.0, 0.017378833991932588
964.0, 0.017989008171052166
965.0, 0.01858562991801212
966.0, 0.01741041367811723
967.0, 0.016292155508738825
968.0, 0.01851888635389142
969.0, 0.0176617343639295
970.0, 0.024128162664337736
971.0, 0.019164586613235605
972.0, 0.020517934847998923
973.0, 0.02181887868578558
974.0, 0.025454581049075505
975.0, 0.027900941157584676
976.0, 0.026172987207981786
977.0, 0.025702997804638496
978.0, 0.025457814436110678
979.0, 0.027304890885668214
980.0, 0.024857382893047612
981.0, 0.023846277964192846
982.0, 0.02653206154507249
983.0, 0.02846638771253242
984.0, 0.028397598555274652
985.0, 0.027740255468493274
986.0, 0.0281527020708094
987.0, 0.030314499759899027
988.0, 0.031672888259438696
989.0, 0.033043316070777776
990.0, 0.030007087038114146
991.0, 0.033897460968799364
992.0, 0.03127096371675965
993.0, 0.031875033657338465
994.0, 0.03337719725874485
995.0, 0.0305589479606472
996.0, 0.029177312779121767
997.0, 0.03298688528793206
998.0, 0.033742221001373
999.0, 0.037296817862631
1000.0, 0.03571937357584182
1001.0, 0.03760765623110528
1002.0, 0.03822417562843955
1003.0, 0.037334034952416904
1004.0, 0.036476389283779845
1005.0, 0.03604920638945718
1006.0, 0.03578876864120962
1007.0, 0.036150694992070326
1008.0, 0.037367000120762044
1009.0, 0.03792131801702731
1010.0, 0.03755292332615622
1011.0, 0.038249046133887334
1012.0, 0.038674225358013875
1013.0, 0.040128472231397386
1014.0, 0.041752741140152
1015.0, 0.04220416375919465
1016.0, 0.042189224501072695
1017.0, 0.04114695081272037
1018.0, 0.041444942980636855
1019.0, 0.03992543103184461
1020.0, 0.04015665616437463
1021.0, 0.0419549874979689
1022.0, 0.040711072226092535
1023.0, 0.04117719609433504
1024.0, 0.042873912677722364
1025.0, 0.043179886972841745
1026.0, 0.04369623950574045
1027.0, 0.042703719090042
1028.0, 0.044316635117501404
1029.0, 0.0420935234760997
1030.0, 0.04227052373027185
1031.0, 0.042340131323884506
1032.0, 0.043625748059216395
1033.0, 0.04234583703358091
1034.0, 0.04099684516470988
1035.0, 0.04348694077128693
1036.0, 0.04721250972762102
1037.0, 0.048564002738493164
1038.0, 0.053285447829579835
1039.0, 0.050236279325593505
1040.0, 0.056478034055733234
1041.0, 0.060150018100149416
1042.0, 0.06503578480631604
1043.0, 0.068376203768912
1044.0, 0.07116562468863358
1045.0, 0.07552819988472664
1046.0, 0.08073585461941528
1047.0, 0.0856339393062544
1048.0, 0.08975267799951529
1049.0, 0.09207387953807745
1050.0, 0.09922944599871919
1051.0, 0.10211731692892795
1052.0, 0.1070860517155131
1053.0, 0.11292939919282896
1054.0, 0.11722931763764557
1055.0, 0.12022406317877792
1056.0, 0.12494861764632774
1057.0, 0.13014195874089515
1058.0, 0.1262861115640019
1059.0, 0.13418292377514743
1060.0, 0.13278859458581874
1061.0, 0.13033105620749078
1062.0, 0.126095938662247
1063.0, 0.1243981174230022
1064.0, 0.12092533847564406
1065.0, 0.11751461948691588
1066.0, 0.11452511152748938
1067.0, 0.1097771780525503
1068.0, 0.10748976512148196
1069.0, 0.1059496323960787
1070.0, 0.10631694395206177
1071.0, 0.10422665756901195
1072.0, 0.10231389434945658
1073.0, 0.10029514527279837
1074.0, 0.09602201362504874
1075.0, 0.09626664499769445
1076.0, 0.0955367520617942
1077.0, 0.09176766285481087
1078.0, 0.09303450289414956
1079.0, 0.09309034764565177
1080.0, 0.09396849609203618
1081.0, 0.09813471702086755
1082.0, 0.09724974570662075
1083.0, 0.10303452841946355
1084.0, 0.10315858175692044
1085.0, 0.10669659733573962
1086.0, 0.11072888021876741
1087.0, 0.10638334900436944
1088.0, 0.09767694936101466
1089.0, 0.09589841585927114
1090.0, 0.09541499953016644
1091.0, 0.09065598990346455
1092.0, 0.09242324765066005
1093.0, 0.09180014540480474
1094.0, 0.09233567048927108
1095.0, 0.09266133899516138
1096.0, 0.09270540943685696
1097.0, 0.09219013604464567
1098.0, 0.09226649259391127
1099.0, 0.09521342965533464
1100.0, 0.09889425488736195
1101.0, 0.09669946859034481
1102.0, 0.10021943502392804
1103.0, 0.10322717591026129
1104.0, 0.10305980075427866
1105.0, 0.10866622128715199
1106.0, 0.1093547085275817
1107.0, 0.11085577435364764
1108.0, 0.11565949462868867
1109.0, 0.11964265149734754
1110.0, 0.12045861691456146
1111.0, 0.12030659587821978
1112.0, 0.1212294613666661
1113.0, 0.12785391766917203
1114.0, 0.13396810291911568
1115.0, 0.13434913083532535
1116.0, 0.13953305680970257
1117.0, 0.13958727011289054
1118.0, 0.14497483346549445
1119.0, 0.15056155855503953
1120.0, 0.1523910131780588
1121.0, 0.1559213015253212
1122.0, 0.16435355807564944
1123.0, 0.17214923254984626
1124.0, 0.17871754010300273
1125.0, 0.17800938984873807
1126.0, 0.17923379299191827
1127.0, 0.18621041588577267
1128.0, 0.19390549603075216
1129.0, 0.19810100465516833
1130.0, 0.20347460760030595
1131.0, 0.20895677542208643
1132.0, 0.21223946196855992
1133.0, 0.21442802891163912
1134.0, 0.21573473524887984
1135.0, 0.2130387682291184
1136.0, 0.2098399672735059
1137.0, 0.20239897828122552
1138.0, 0.19688804679970714
1139.0, 0.18580024069554446
1140.0, 0.17462282389231412
1141.0, 0.16291242422441504
1142.0, 0.14701523213126266
1143.0, 0.1293482944830487
1144.0, 0.1119035498602574
1145.0, 0.09450423009124237
1146.0, 0.07874075249967784
1147.0, 0.06535382586972051
1148.0, 0.054063381997639895
1149.0, 0.048842908938713514
1150.0, 0.04185256494988582
1151.0, 0.03531392235976185
1152.0, 0.03095709862839358
1153.0, 0.026617562825613384
1154.0, 0.023018789239430387
1155.0, 0.020177184225742807
1156.0, 0.017825248889555403
1157.0, 0.01572047847719123
1158.0, 0.013083795875523394
1159.0, 0.010283080240196567
1160.0, 0.008445462537336447
1161.0, 0.009850118826513005
1162.0, 0.010219434320902745
1163.0, 0.008377206438194498
1164.0, 0.005936354908465335
1165.0, 0.007462822242636282
1166.0, 0.007749848254602596
1167.0, 0.00845323121031579
1168.0, 0.007534135449193135
1169.0, 0.005601514348578283
1170.0, 0.00695448095967315
1171.0, 0.0030304470374067386
1172.0, 0.006636641917629402
1173.0, 0.0030170583078900355
1174.0, 0.0038116113960806543
1175.0, 0.0014825093274245522
1176.0, 0.0034915432661124734
1177.0, 0.004923761491530374
1178.0, 0.003339767157104544
1179.0, 0.002112018292421838
1180.0, 0.00122464292219409
1181.0, 0.0010110560653622527
1182.0, 0.002010568338401865
1183.0, 0.0008904265718918907
1184.0, 0.0026717896325839678
1185.0, 0.003717216454451078
1186.0, 0.0025734473557105274
1187.0, 0.001785217912017609
1188.0, 0.0012572198340213441
1189.0, 0.0007554979550886429
1190.0, 0.0005621425246251911
1191.0, 0.0003452484534956684
1192.0, 0.0004672830018502993
1193.0, 0.0017367644532309042
1194.0, 0.003060485045932396
1195.0, 0.0026855749034658235
1196.0, 0.0017223968452841478
1197.0, 0.0003564849756556139
1198.0, 0.0002952056251662255
1199.0, 0.0007924559237896014
1200.0, 0.000728872612438223
1201.0, 0.00030528958417009856
1202.0, 0.0008908953590171812
1203.0, 0.0019708777825954253
1204.0, 0.003107432157485398
1205.0, 0.002319039606956742
1206.0, 0.0020692974170268426
1207.0, 0.004245957729735959
1208.0, 0.004196205722900053
1209.0, 0.0013907799318071492
1210.0, 0.0034248103245252573
1211.0, 0.00042092028533664247
1212.0, 0.0005229756830024837
1213.0, 0.0021004026114592633
1214.0, 0.0018002928111939343
1215.0, 0.002095478924104447
1216.0, 0.002458889529501002
1217.0, 0.0027935395094267697
1218.0, 0.0023198842989439953
1219.0, 0.0022869567083453894
1220.0, 0.002177244573560575
1221.0, 0.0012596242515047417
1222.0, 0.002719753251580289
1223.0, 0.0012990149564147278
1224.0, 0.0023716986209494253
1225.0, 0.0027748366668066326
1226.0, 0.004837416856666986
1227.0, 0.004944218940157083
1228.0, 0.005331404605443336
1229.0, 0.00533089139937198
1230.0, 0.005018884642561857
1231.0, 0.004107324832562605
1232.0, 0.00258285857039804
1233.0, 0.0009895969144487083
1234.0, 0.00012097818052717827
1235.0, 0.0012266605138565817
1236.0, 0.004582861545834185
1237.0, 0.004996464294887931
1238.0, 0.0005649544261656608
1239.0, 0.00256992366469121
1240.0, 0.00048805607131580206
1241.0, 0.0014767887504213613
1242.0, 0.004150286162393319
1243.0, 0.0017170528151863064
1244.0, 0.0015568109603352842
1245.0, 0.0014475932470520369
1246.0, 0.0015164308427384073
1247.0, 0.0028509767490266535
1248.0, 0.0028700816255868965
1249.0, 0.0027094857763458086
1250.0, 0.002904806252092363
1251.0, 0.0006455743007876805
1252.0, 0.0006316724998808774
1253.0, 0.0005403145672635863
1254.0, 0.0005883158862200125
1255.0, 0.0008439950573449586
1256.0, 0.001571306674191189
1257.0, 0.0032069296243323565
1258.0, 0.005519976266976354
1259.0, 0.005836336798240615
1260.0, 0.00296289136824859
1261.0, 0.002282596493837925
1262.0, 0.004013129075827388
1263.0, 0.0024606828806534578
1264.0, 0.0036564158353737347
1265.0, 0.003357787644006407
1266.0, 0.0017000596817636406
1267.0, 0.0007374123095437109
1268.0, 0.0013886057508636937
1269.0, 0.0020596952144727736
1270.0, 0.000821796278358608
1271.0, 0.003244769964952437
1272.0, 0.003400586535614729
1273.0, 0.0021121880662909264
1274.0, 0.0018926377104656015
1275.0, 0.0016971228007626284
1276.0, 0.0012455669724388146
1277.0, 0.001574772641332072
1278.0, 0.0012456540314189253
1279.0, 0.0006093270879716701
1280.0, 0.003012574068480771
1281.0, 0.00482345686424435
1282.0, 0.005816687793397943
1283.0, 0.002021531172478647
1284.0, 0.0010999975484298078
1285.0, 0.007295062052825007
1286.0, 0.003591341577287695
1287.0, 0.0051956148130746956
1288.0, 0.00673111256894161
1289.0, 0.0032618145798193102
1290.0, 0.0017840701852526815
1291.0, 0.003465490738234746
1292.0, 0.004778557665635822
1293.0, 0.006457124537959793
1294.0, 0.0033245066600781584
1295.0, 0.005412686460340354
1296.0, 0.0014815029588520878
1297.0, 0.0038021293598909005
1298.0, 0.006820630894979593
1299.0, 0.0068976306482319465
1300.0, 0.0016289755815707277
1301.0, 0.001985154334222682
1302.0, 0.002404465136442293
1303.0, 0.0020634836920786267
1304.0, 0.004347393312850281
1305.0, 0.006655338081859493
1306.0, 0.005198928398823687
1307.0, 0.004135711966376451
1308.0, 0.006130707068627163
1309.0, 0.0063643131607797575
1310.0, 0.010765698059806128
1311.0, 0.009435261861091795
1312.0, 0.004846835628650269
1313.0, 0.0046092132057709975
1314.0, 0.007609192893324242
1315.0, 0.004557116435287699
1316.0, 0.0050454221068598135
1317.0, 0.0057726379091296316
1318.0, 0.006237501605479148
1319.0, 0.006375981301450172
1320.0, 0.005053114085391493
1321.0, 0.0030594554389639355
1322.0, 0.003565957305983612
1323.0, 0.00521984202309929
1324.0, 0.005063077598556358
1325.0, 0.006183343517442749
1326.0, 0.006790176756548979
1327.0, 0.007790400810754319
1328.0, 0.01029586796697335
1329.0, 0.008899659876714695
1330.0, 0.010393126964362075
1331.0, 0.010513347684798354
1332.0, 0.009978513398699674
1333.0, 0.009288035999678885
1334.0, 0.009363260748285536
1335.0, 0.007458272290621793
1336.0, 0.006836611221737767
1337.0, 0.008329870798488239
1338.0, 0.007776543794007944
1339.0, 0.0069663760045323275
1340.0, 0.008145330031724907
1341.0, 0.007551739262654324
1342.0, 0.007079968132256913
1343.0, 0.005913376988683862
1344.0, 0.008275113088829701
1345.0, 0.009708186401242143
1346.0, 0.005240429931171178
1347.0, 0.006513292723778395
1348.0, 0.006781074701209364
1349.0, 0.004356624281576748
1350.0, 0.005738818048849999
1351.0, 0.005206836465792201
1352.0, 0.006800732842030105
1353.0, 0.007983859266677249
1354.0, 0.007537906573010595
1355.0, 0.007654180389864661
1356.0, 0.007482763210810774
1357.0, 0.007501943061755755
1358.0, 0.008076699633466071
1359.0, 0.0057350782696272435
1360.0, 0.008060850480285778
1361.0, 0.012776443865745106
1362.0, 0.007281128763085578
1363.0, 0.004662007536258048
1364.0, 0.008711201053553514
1365.0, 0.011186719705330087
1366.0, 0.006253456493169869
1367.0, 0.008555611326436827
1368.0, 0.0037222239834498218
1369.0, 0.006723727275561392
1370.0, 0.008111115950228051
1371.0, 0.008605549692490303
1372.0, 0.008780328333786858
1373.0, 0.008700869393373986
1374.0, 0.010047762923593178
1375.0, 0.010428587216949094
1376.0, 0.008123783172107038
1377.0, 0.00645558439128661
1378.0, 0.005697375331547603
1379.0, 0.00729965834947034
1380.0, 0.008092950166216454
1381.0, 0.00868924589813117
1382.0, 0.004382007022593899
1383.0, 0.0071763688157223575
1384.0, 0.007599506504790525
1385.0, 0.005222724466168101
1386.0, 0.0056346936924412715
1387.0, 0.005088204821379085
1388.0, 0.005719338953174092
1389.0, 0.005821876284103348
1390.0, 0.00553656393822011
1391.0, 0.005649298386970228
1392.0, 0.0056231920177556355
1393.0, 0.005434968174535498
1394.0, 0.005672522282009065
1395.0, 0.005772247976627287
1396.0, 0.005055339088539578
1397.0, 0.004355541265418183
1398.0, 0.003963921627895544
1399.0, 0.004544282164490345
1400.0, 0.008115239552331469
1401.0, 0.011245467185406996
1402.0, 0.007216948928444721
1403.0, 0.009056338429241877
1404.0, 0.005471545919935767
1405.0, 0.005521449077434717
1406.0, 0.002511045064686508
1407.0, 0.00249136453279332
1408.0, 0.002623360349961274
1409.0, 0.004081783876150245
1410.0, 0.004662670518286773
1411.0, 0.006380358630561776
1412.0, 0.00908496645239425
1413.0, 0.006185544468069755
1414.0, 0.0018063867806620037
1415.0, 0.0038826010928535914
1416.0, 0.007093837236367279
1417.0, 0.008371637096713066
1418.0, 0.0026234993512518766
1419.0, 0.007981845825793815
1420.0, 0.007524112463428574
1421.0, 0.005958236247615235
1422.0, 0.008115648759594531
1423.0, 0.006679439536178022
1424.0, 0.003979620479043168
1425.0, 0.006475624023103987
1426.0, 0.006401307904443259
1427.0, 0.007214512749000354
1428.0, 0.008829188287243451
1429.0, 0.006279268317111569
1430.0, 0.008497547599521062
1431.0, 0.009261205537581295
1432.0, 0.008812588359140193
1433.0, 0.006319833266532895
1434.0, 0.005425603968198623
1435.0, 0.007045131430025275
1436.0, 0.007548549418482846
1437.0, 0.009952042175265487
1438.0, 0.007001111812382355
1439.0, 0.006264215454472528
1440.0, 0.011011690769970404
1441.0, 0.00882583128769639
1442.0, 0.004685733648075294
1443.0, 0.010738744194315404
1444.0, 0.009142081709054324
1445.0, 0.008075047828663187
1446.0, 0.008873589658531751
1447.0, 0.008288546368634778
1448.0, 0.006187174932136275
1449.0, 0.005425566195262978
1450.0, 0.006378717709672013
1451.0, 0.0071908198218836985
1452.0, 0.006507100406332414
1453.0, 0.008134700204163648
1454.0, 0.006587212671648829
1455.0, 0.006226629525712977
1456.0, 0.006124127336073047
1457.0, 0.0067145224498827176
1458.0, 0.007904778099328243
1459.0, 0.005886525303474564
1460.0, 0.007481370406130006
1461.0, 0.007574530218850046
1462.0, 0.006713846140290457
1463.0, 0.006355251240105587
1464.0, 0.0048683818482155635
1465.0, 0.0042660067072364406
1466.0, 0.004836977832931744
1467.0, 0.00674986442774496
1468.0, 0.00591132176632946
1469.0, 0.0072541414130029985
1470.0, 0.008352746160023882
1471.0, 0.006383600298352181
1472.0, 0.0026527938030030777
1473.0, 0.006070330736975221
1474.0, 0.006498736957951544
1475.0, 0.0061761791483619715
1476.0, 0.007559882537847968
1477.0, 0.006610483693353407
1478.0, 0.004922591422568419
1479.0, 0.0021986296509410408
1480.0, 0.0008033793848363517
1481.0, 0.005888468061004445
1482.0, 0.007425004307612107
1483.0, 0.0046111441056561914
1484.0, 0.008317228186781307
1485.0, 0.007538944357168038
1486.0, 0.004058075612984957
1487.0, 0.005746217850414374
1488.0, 0.004535389587184387
1489.0, 0.006236142412207078
1490.0, 0.0036189925331296707
1491.0, 0.006552663759737039
1492.0, 0.008469418934872715
1493.0, 0.003273755620203477
1494.0, 0.005668773362194555
1495.0, 0.0026498852596699863
1496.0, 0.005612675146522198
1497.0, 0.0022590832460787106
1498.0, 0.0009164065276201153
1499.0, 0.0024819017600141895
1500.0, 0.004567954161418436
1501.0, 0.006914019105109703
1502.0, 0.007249718586399296
1503.0, 0.004394817584237103
1504.0, 0.004080868308953501
1505.0, 0.002700317401436882
1506.0, 0.0020995396912914955
1507.0, 0.0034495067216579133
1508.0, 0.005610037535016919
1509.0, 0.005512770918256762
1510.0, 0.005238146897107775
1511.0, 0.007758626928803158
1512.0, 0.006378716344086277
1513.0, 0.004434884699000691
1514.0, 0.003992670538524901
1515.0, 0.0017031738390851795
1516.0, 0.005273709026090817
1517.0, 0.0026506124688480126
1518.0, 0.0020166226853702007
1519.0, 0.0037504656234491965
1520.0, 0.009282297127673731
1521.0, 0.006281697586699093
1522.0, 0.0029686665796246703
1523.0, 0.009608165433489635
1524.0, 0.002968951274604877
1525.0, 0.004740179125389681
1526.0, 0.008949572220856376
1527.0, 0.0062837688903747
1528.0, 0.0024490374962899833
1529.0, 0.0035289131158654473
1530.0, 0.004371114619204537
1531.0, 0.002358311764603359
1532.0, 0.0064152268005606885
1533.0, 0.004406537236632882
1534.0, 0.007658023181411765
1535.0, 0.006130969293548063
1536.0, 0.0034241677840847968
1537.0, 0.005035612146346085
1538.0, 0.007451263768290368
1539.0, 0.007850958606993605
1540.0, 0.005236891235704352
1541.0, 0.0030868298277437114
1542.0, 0.0036354292282381622
1543.0, 0.005486304626213835
1544.0, 0.006470063793071027
1545.0, 0.005297933846474234
1546.0, 0.0042637184246536765
1547.0, 0.0007621606096186833
1548.0, 0.002516045426911311
1549.0, 0.003319315627542108
1550.0, 0.0024915793097987403
1551.0, 0.004179778511970129
1552.0, 0.0071744588031669955
1553.0, 0.004580821345984816
1554.0, 0.00737062160886966
1555.0, 0.004215297384603433
1556.0, 0.006161067463961356
1557.0, 0.006301443407096473
1558.0, 0.007128287600115912
1559.0, 0.002567658976027736
1560.0, 0.003735563541687462
1561.0, 0.0007361866589185306
1562.0, 0.0006079123406031403
1563.0, 0.003779291067223559
1564.0, 0.0038734807532085215
1565.0, 0.0029342415142724326
1566.0, 0.0028595174269973604
1567.0, 0.002771263262112439
1568.0, 0.0008755193654639199
1569.0, 0.0013442004186339086
1570.0, 0.0007725767450829704
1571, 0.0
1572, 0.0
1573, 0.0
1574, 0.0
1575, 0.0
1576, 0.0
1577, 0.0
1578, 0.0
1579, 0.0
1580, 0.0
1581, 0.0
1582, 0.0
1583, 0.0
1584, 0.0
1585, 0.0
1586, 0.0
1587, 0.0
1588, 0.0
1589, 0.0
1590, 0.0
1591, 0.0
1592, 0.0
1593, 0.0
1594, 0.0
1595, 0.0
1596, 0.0
1597, 0.0
1598, 0.0
1599, 0.0
