30, 0.0
31, 0.0
32, 0.0
33, 0.0
34, 0.0
35, 0.0
36, 0.0
37, 0.0
38, 0.0
39, 0.0
40, 0.0
41, 0.0
42, 0.0
43, 0.0
44, 0.0
45, 0.0
46, 0.0
47, 0.0
48, 0.0
49, 0.0
50, 0.0
51, 0.0
52, 0.0
53, 0.0
54, 0.0
55, 0.0
56, 0.0
57, 0.0
58, 0.0
59, 0.0
60, 0.0
61, 0.0
62, 0.0
63, 0.0
64, 0.0
65, 0.0
66, 0.0
67, 0.0
68, 0.0
69, 0.0
70, 0.0
71, 0.0
72, 0.0
73, 0.0
74, 0.0
75, 0.0
76, 0.0
77, 0.0
78, 0.0
79, 0.0
80, 0.0
81, 0.0
82, 0.0
83, 0.0
84, 0.0
85, 0.0
86, 0.0
87, 0.0
88, 0.0
89, 0.0
90, 0.0
91, 0.0
92, 0.0
93, 0.0
94, 0.0
95, 0.0
96, 0.0
97, 0.0
98, 0.0
99, 0.0
100, 0.0
101, 0.0
102, 0.0
103, 0.0
104, 0.0
105, 0.0
106, 0.0
107, 0.0
108, 0.0
109, 0.0
110, 0.0
111, 0.0
112, 0.0
113, 0.0
114, 0.0
115, 0.0
116, 0.0
117, 0.0
118, 0.0
119.0, 0.00015689391407587938
120.0, 0.0005859045704069273
121.0, 0.0018403403246790714
122.0, 0.006139381312443955
123.0, 0.02017628218506479
124.0, 0.014531463081245092
125.0, 0.008849233355606438
126.0, 0.004777629475719643
127.0, 0.0037968752771154915
128.0, 0.008439829683554834
129.0, 0.01572954000475815
130.0, 0.030022725827422915
131.0, 0.037914843368762594
132.0, 0.04157789527032822
133.0, 0.05059183225871387
134.0, 0.06724749708798133
135.0, 0.07695924025984438
136.0, 0.08242978608507398
137.0, 0.09639870132897503
138.0, 0.12325981579665532
139.0, 0.1430961108470116
140.0, 0.15764751897892473
141.0, 0.16391695343736976
142.0, 0.16198220113515086
143.0, 0.15840147177247577
144.0, 0.16347240181270106
145.0, 0.14904846909050934
146.0, 0.1406295410780465
147.0, 0.12800822731122496
148.0, 0.11434146885144136
149.0, 0.10513388113415187
150.0, 0.09213386895578185
151.0, 0.08043859581316729
152.0, 0.06912616939437394
153.0, 0.060921370099101785
154.0, 0.053237259426132444
155.0, 0.034807198498133574
156.0, 0.039590898384112116
157.0, 0.0343624790722583
158.0, 0.024449293695777263
159.0, 0.018282316534541182
160.0, 0.02127811950753652
161.0, 0.0059221593839035745
162.0, 0.011589788379285194
163.0, 0.01627603125068875
164.0, 0.020416181139365594
165.0, 0.025222501564158416
166.0, 0.021845532465703806
167.0, 0.01535857719940024
168.0, 0.014056324021886267
169.0, 0.015172751375956502
170.0, 0.01977897272035643
171.0, 0.030320052994464358
172.0, 0.02068698168573105
173.0, 0.01631005155697257
174.0, 0.02550466552818831
175.0, 0.036252283035714115
176.0, 0.03836455762732146
177.0, 0.04668975771904346
178.0, 0.04720532352494479
179.0, 0.055092336983706566
180.0, 0.059229336651112484
181.0, 0.06017961698547101
182.0, 0.0713144309079834
183.0, 0.08248202649324839
184.0, 0.09701905147541856
185.0, 0.1135155948079228
186.0, 0.13022531214557842
187.0, 0.14623452301414913
188.0, 0.16389643400432988
189.0, 0.17807094257126874
190.0, 0.18851973525666052
191.0, 0.19567473113521688
192.0, 0.20096477984758593
193.0, 0.20657691203577955
194.0, 0.21309879610748483
195.0, 0.2179945384157455
196.0, 0.22885997490776447
197.0, 0.23846119891566833
198.0, 0.24056584520068908
199.0, 0.25082526922948906
200.0, 0.25723330163234065
201.0, 0.26137364618748815
202.0, 0.2576713155759428
203.0, 0.2477855217549573
204.0, 0.2409447372033036
205.0, 0.23833663430043486
206.0, 0.2330069593588414
207.0, 0.2265293433903603
208.0, 0.22137573213185183
209.0, 0.21720809045806014
210.0, 0.20496517976873307
211.0, 0.1944617618831233
212.0, 0.18527345935434447
213.0, 0.16937964486449164
214.0, 0.15119416632889351
215.0, 0.14318627594081312
216.0, 0.12395387503849582
217.0, 0.11126168717128836
218.0, 0.09880317979834428
219.0, 0.08912325576509385
220.0, 0.08174528074951977
221.0, 0.06482147431391243
222.0, 0.06347157894775417
223.0, 0.05588351510989558
224.0, 0.04707755958601016
225.0, 0.04118092466683086
226.0, 0.0388563477095261
227.0, 0.02807870543093836
228.0, 0.021864342245688548
229.0, 0.018379923510795797
230.0, 0.016077238184239395
231.0, 0.012232361764739644
232.0, 0.003056106686140205
233.0, 0.0028799401230889445
234.0, 0.003161587145539636
235.0, 0.0036797683403182254
236.0, 0.005030971424924513
237.0, 0.007455018420676303
238.0, 0.008681020920633675
239.0, 0.008769332819197902
240.0, 0.006419620240948904
241.0, 0.005756445593427268
242.0, 0.005488286335175236
243.0, 0.0005125609926622684
244.0, 0.005852680338131026
245.0, 0.0035250210161891396
246.0, 0.0014323140060071373
247.0, 0.002590072684104656
248.0, 0.006169699072232529
249.0, 0.006624255502124921
250.0, 0.00498276088588396
251.0, 0.011000100493442121
252.0, 0.010968653399143845
253.0, 0.008347794923565598
254.0, 0.013224844172135267
255.0, 0.020686102418156816
256.0, 0.021660386625013614
257.0, 0.04031835723624088
258.0, 0.062013505160749716
259.0, 0.07073562406767853
260.0, 0.05797247181765317
261.0, 0.04483725158683625
262.0, 0.03887795845992472
263.0, 0.044522381051222096
264.0, 0.05470448496917873
265.0, 0.06137938344476624
266.0, 0.061842243987774624
267.0, 0.06259356515450916
268.0, 0.06699589521010997
269.0, 0.06843267010763134
270.0, 0.07144571229762776
271.0, 0.08078253003043159
272.0, 0.08014988723982355
273.0, 0.08694875123862487
274.0, 0.09107262598069221
275.0, 0.0929043611659642
276.0, 0.09175464835939898
277.0, 0.08835931634682027
278.0, 0.10892624368645974
279.0, 0.09865918157538706
280.0, 0.10939629229636258
281.0, 0.11724680849531406
282.0, 0.11170405680218291
283.0, 0.12240632289706986
284.0, 0.12982919823448114
285.0, 0.13493259017745976
286.0, 0.14095903003395993
287.0, 0.1461594499565027
288.0, 0.1477581411410067
289.0, 0.14499941376514938
290.0, 0.1566551115475395
291.0, 0.1566300329657507
292.0, 0.16109681793244643
293.0, 0.16809366652861812
294.0, 0.1690591226511508
295.0, 0.1751318425157325
296.0, 0.17575642995730326
297.0, 0.1852537252358178
298.0, 0.1909542810397788
299.0, 0.19290151183260723
300.0, 0.20152801102807005
301.0, 0.2062244608763916
302.0, 0.2173217728155926
303.0, 0.22088270675096666
304.0, 0.22479844274364802
305.0, 0.2327048283566598
306.0, 0.2378370011536429
307.0, 0.2317194343192956
308.0, 0.24299640533759706
309.0, 0.2481888535206586
310.0, 0.24535424966061048
311.0, 0.24280547883734674
312.0, 0.25367549702725434
313.0, 0.24135669282892822
314.0, 0.23292149177592222
315.0, 0.2227414323956551
316.0, 0.2208784305322184
317.0, 0.2275937530036389
318.0, 0.20699252147650288
319.0, 0.2169312548963573
320.0, 0.22432119828222824
321.0, 0.22418000712481576
322.0, 0.2217434220341715
323.0, 0.22522171099935215
324.0, 0.2355733110358001
325.0, 0.24063829255521574
326.0, 0.2510647680454988
327.0, 0.2629846571069536
328.0, 0.2720773292149897
329.0, 0.27815125174530403
330.0, 0.2961536312617041
331.0, 0.3141685892853124
332.0, 0.32932733265856046
333.0, 0.34178293698359324
334.0, 0.35253514293888394
335.0, 0.36339266116932634
336.0, 0.378578505243194
337.0, 0.39478710138443307
338.0, 0.39988249110461666
339.0, 0.3977561547825727
340.0, 0.3951135566788505
341.0, 0.3950356439998567
342.0, 0.37438326971594943
343.0, 0.3675209011680371
344.0, 0.35446125217101776
345.0, 0.3391905252629564
346.0, 0.32887177909288257
347.0, 0.3265666642061206
348.0, 0.3134252659652776
349.0, 0.3018390006532698
350.0, 0.2887755762393761
351.0, 0.2765406332533348
352.0, 0.26773620621789584
353.0, 0.26322810596536705
354.0, 0.25849797238125066
355.0, 0.2540716075911469
356.0, 0.24741871057475207
357.0, 0.2388366215638887
358.0, 0.23124749263782282
359.0, 0.2293003731063778
360.0, 0.23210795599658013
361.0, 0.2287807065272955
362.0, 0.2301615353858457
363.0, 0.23052208878468639
364.0, 0.22598639176112492
365.0, 0.2201752297918039
366.0, 0.20553933996168997
367.0, 0.19792339998109293
368.0, 0.19102408540459787
369.0, 0.18178182924504607
370.0, 0.17178797569553744
371.0, 0.1666286299433715
372.0, 0.1590305451462825
373.0, 0.15569282712269553
374.0, 0.15148317607224043
375.0, 0.14703616825085633
376.0, 0.14141569518012
377.0, 0.13166286291116167
378.0, 0.13655614775638716
379.0, 0.13619719658822813
380.0, 0.1345583395325335
381.0, 0.13796585491334423
382.0, 0.14510515372994334
383.0, 0.14588102849476353
384.0, 0.14276192050647998
385.0, 0.14768709570435407
386.0, 0.14974649178260133
387.0, 0.15443385650150177
388.0, 0.16324483011081775
389.0, 0.16971482643172844
390.0, 0.17352853671144472
391.0, 0.17457835136427838
392.0, 0.179283587101832
393.0, 0.18499920150064758
394.0, 0.1909983560344006
395.0, 0.19881268757177847
396.0, 0.19968283807267323
397.0, 0.20201826479488322
398.0, 0.2009636657120616
399.0, 0.19848527742982303
400.0, 0.19584629615525656
401.0, 0.19261618734816083
402.0, 0.18818328112950594
403.0, 0.18145024668828905
404.0, 0.17097939891864616
405.0, 0.16010129395745842
406.0, 0.1472888512785992
407.0, 0.13100546088852577
408.0, 0.1257436948155446
409.0, 0.11596707828496511
410.0, 0.10965355436107159
411.0, 0.09777916304165112
412.0, 0.08432378293277759
413.0, 0.07965869170231499
414.0, 0.08617959236000983
415.0, 0.06992522425411053
416.0, 0.06066663732232181
417.0, 0.04882768353116099
418.0, 0.040765058524134236
419.0, 0.041786680489503375
420.0, 0.03670099434056281
421.0, 0.03277050548228435
422.0, 0.03074834398878509
423.0, 0.02698778900494617
424.0, 0.02188547589392535
425.0, 0.015039867648722362
426.0, 0.0033981078943481073
427.0, 0.004208131161457678
428.0, 0.00598100950894806
429.0, 0.006015174467125897
430.0, 0.003494590382591981
431.0, 0.0013807898190030094
432.0, 0.004332601672548289
433.0, 0.0006225639646315327
434.0, 0.00455937977715879
435.0, 0.005057494123003772
436.0, 0.005141030286575173
437.0, 0.007388591397252899
438.0, 0.011812736526462178
439.0, 0.01929075599955491
440.0, 0.021855674556442866
441.0, 0.029243849403397644
442.0, 0.03508792207174193
443.0, 0.038410055684585644
444.0, 0.04180206075084134
445.0, 0.04499158814488667
446.0, 0.04568788877648081
447.0, 0.04607455204004028
448.0, 0.04486602620237819
449.0, 0.04223460051698218
450.0, 0.03963435177033348
451.0, 0.03933462663988726
452.0, 0.04226037558063403
453.0, 0.033063288387565566
454.0, 0.025610957713654035
455.0, 0.023903917878151625
456.0, 0.02558774572153755
457.0, 0.024371448456871447
458.0, 0.01491837822462442
459.0, 0.011402183257977684
460.0, 0.01062262091107994
461.0, 0.007618476180117453
462.0, 0.0033963000634841
463.0, 0.002022577631434458
464.0, 0.0010494083873474121
465.0, 0.00048148647869957547
466.0, 0.010251795599034885
467.0, 0.016370871314098562
468.0, 0.016756129158218946
469.0, 0.0167026851285448
470.0, 0.021336343740750472
471.0, 0.01603956940371901
472.0, 0.00968536053165706
473.0, 0.0069885583706604726
474.0, 0.01171534507887901
475.0, 0.016283175995847478
476.0, 0.006903799622335362
477.0, 0.008750279164165962
478.0, 0.013842596362764872
479.0, 0.008071083114657918
480.0, 0.006248340586049906
481.0, 0.007227038340978068
482.0, 0.00205020968215601
483.0, 0.0001880211457366103
484.0, 0.006497482213512293
485.0, 0.012154523663507593
486.0, 0.01641159541678378
487.0, 0.02088505200135535
488.0, 0.026912089910380563
489.0, 0.033670629328406865
490.0, 0.03768154067725524
491.0, 0.04448349211541025
492.0, 0.049935891612805795
493.0, 0.05729176113181387
494.0, 0.06731119095737842
495.0, 0.07778499049782958
496.0, 0.08858291834114886
497.0, 0.0968435972246578
498.0, 0.10479765690688495
499.0, 0.11192196595567899
500.0, 0.11374494661432835
501.0, 0.11306811478950873
502.0, 0.12575001526560525
503.0, 0.13466306752394472
504.0, 0.13437867492596872
505.0, 0.14129160235327404
506.0, 0.14287677365995333
507.0, 0.14009872570863055
508.0, 0.14697785084615309
509.0, 0.15379949254963168
510.0, 0.15196823187067204
511.0, 0.1454907071690749
512.0, 0.14120514659661998
513.0, 0.13516453903246592
514.0, 0.12499933791719721
515.0, 0.1200178576578829
516.0, 0.118753326024734
517.0, 0.10625801303053639
518.0, 0.10732443128385216
519.0, 0.10898093131687026
520.0, 0.10666161064151394
521.0, 0.10763639408249313
522.0, 0.10710991961118585
523.0, 0.10412785118510738
524.0, 0.10092331724232807
525.0, 0.10359385788451653
526.0, 0.10542646732064043
527.0, 0.10482362456717591
528.0, 0.11336529261897231
529.0, 0.11087986747427778
530.0, 0.11600826903986051
531.0, 0.12646390963889315
532.0, 0.1366102598943066
533.0, 0.1395171670345565
534.0, 0.13729600819679183
535.0, 0.15529002139421363
536.0, 0.17156222692744633
537.0, 0.1856140692931179
538.0, 0.2081997551298572
539.0, 0.23139926032982316
540.0, 0.24851630563518184
541.0, 0.2631336654249812
542.0, 0.2835373116762667
543.0, 0.3025296970579695
544.0, 0.32562908112130057
545.0, 0.34427370953576614
546.0, 0.36751807709126416
547.0, 0.3995182818773467
548.0, 0.4201640603843897
549.0, 0.45256946556925326
550.0, 0.4983512843873695
551.0, 0.5383862330720305
552.0, 0.5757845287766865
553.0, 0.6158815642471348
554.0, 0.6604926610276626
555.0, 0.7070518721754228
556.0, 0.7511248911617933
557.0, 0.7852494089944437
558.0, 0.8102510500995052
559.0, 0.8310419847894588
560.0, 0.8546950676434031
561.0, 0.885613642899085
562.0, 0.913124923557774
563.0, 0.9462532441748689
564.0, 0.9827867339653431
565.0, 0.9988383791525187
566.0, 0.9898141254571435
567.0, 0.9617723556307975
568.0, 0.9169366166611311
569.0, 0.8263496590191634
570.0, 0.7405402211921998
571.0, 0.6502879954155176
572.0, 0.5689383284335696
573.0, 0.49437900566889104
574.0, 0.4213436036398498
575.0, 0.36350549648384145
576.0, 0.32747050179848747
577.0, 0.26493157846994375
578.0, 0.2339641632830166
579.0, 0.2100465515833513
580.0, 0.17920193974953771
581.0, 0.15398697668325317
582.0, 0.14943752572786276
583.0, 0.14060369121658453
584.0, 0.13766207488366836
585.0, 0.12995941456198087
586.0, 0.12391866525078203
587.0, 0.12344624357077019
588.0, 0.1243370043002202
589.0, 0.12253529017563039
590.0, 0.1319289824916784
591.0, 0.1367780398813008
592.0, 0.1442198929213843
593.0, 0.15314721770815423
594.0, 0.1630426767873645
595.0, 0.17588874011119068
596.0, 0.18314614325210113
597.0, 0.1942351803385123
598.0, 0.22386095718738958
599.0, 0.25392332798544276
600.0, 0.2511729769269594
601.0, 0.22311242149250077
602.0, 0.24013727109073496
603.0, 0.38423337168404653
604.0, 0.3482014692084068
605.0, 0.35879964106425755
606.0, 0.3062268674881124
607.0, 0.23906944780227476
608.0, 0.2238885317617836
609.0, 0.21974295555750306
610.0, 0.2149267074788435
611.0, 0.19867084951619887
612.0, 0.1940314214482797
613.0, 0.18072731292956
614.0, 0.16166302885593367
615.0, 0.14750350859178438
616.0, 0.13639114944484684
617.0, 0.11654874464394911
618.0, 0.11256907029739079
619.0, 0.10816472769215175
620.0, 0.09868565254898451
621.0, 0.09147855176097792
622.0, 0.09124851415690458
623.0, 0.08995147742490611
624.0, 0.08442387076443121
625.0, 0.0827560605659208
626.0, 0.07852017551908592
627.0, 0.07021316241144841
628.0, 0.07015333660926304
629.0, 0.07511336835085311
630.0, 0.058798504552665554
631.0, 0.06715819092065697
632.0, 0.054327358586458985
633.0, 0.04367898290329536
634.0, 0.041606134230607696
635.0, 0.039358036598355
636.0, 0.03386418203653751
637.0, 0.035326008448215145
638.0, 0.025354671321753383
639.0, 0.018294121091274103
640.0, 0.02099636032664387
641.0, 0.019855432968664828
642.0, 0.01987433997586175
643.0, 0.022424720354006354
644.0, 0.015933500542473007
645.0, 0.008180965570939084
646.0, 0.0071772538360128195
647.0, 0.010039505955701316
648.0, 0.016297795009453307
649.0, 0.018849911526121237
650.0, 0.016566137940612905
651.0, 0.01652712887130128
652.0, 0.019235949560266828
653.0, 0.020719755975446792
654.0, 0.024369806126302625
655.0, 0.02494345916118607
656.0, 0.027914677694546718
657.0, 0.0357903514835479
658.0, 0.04280680068364126
659.0, 0.03902429950840737
660.0, 0.025330319936204333
661.0, 0.03726492384037169
662.0, 0.04546958008255552
663.0, 0.05517714985996493
664.0, 0.06483936273125077
665.0, 0.06566897043838565
666.0, 0.06228842015719803
667.0, 0.07478137806625608
668.0, 0.08176777693092764
669.0, 0.07946537423522977
670.0, 0.0849885008306223
671.0, 0.09812954321078313
672.0, 0.10734506041073348
673.0, 0.10842654016981781
674.0, 0.11904598926267494
675.0, 0.13749954251098484
676.0, 0.14224503657212398
677.0, 0.15155546213001467
678.0, 0.16270671068210169
679.0, 0.16974328596070928
680.0, 0.1781779015825098
681.0, 0.19218742709389372
682.0, 0.2073082267273836
683.0, 0.2205907091314576
684.0, 0.2326581356853569
685.0, 0.24763632017570866
686.0, 0.26471857631894447
687.0, 0.28096334446901705
688.0, 0.3025649100774559
689.0, 0.3202585019739765
690.0, 0.34263900510025813
691.0, 0.36073068197898267
692.0, 0.37900736270385
693.0, 0.4049270798404121
694.0, 0.43638216589118833
695.0, 0.4577631876637696
696.0, 0.4774415135957627
697.0, 0.5114411690864005
698.0, 0.5336454305378522
699.0, 0.564920242171097
700.0, 0.5880351598412282
701.0, 0.6000434428304802
702.0, 0.6247943383806244
703.0, 0.6352320872568331
704.0, 0.633970823033143
705.0, 0.6341967652685228
706.0, 0.6358384522965203
707.0, 0.6284869914031087
708.0, 0.6093740830457312
709.0, 0.5819975358291193
710.0, 0.5460529693245421
711.0, 0.5135896336721438
712.0, 0.4728109103382131
713.0, 0.427374736413925
714.0, 0.38347965875920237
715.0, 0.34276000840309995
716.0, 0.3045504859601434
717.0, 0.2701452055173004
718.0, 0.24666973316363355
719.0, 0.21524667157683652
720.0, 0.19138612684577905
721.0, 0.1752563638616042
722.0, 0.16404501427811874
723.0, 0.1542714277567777
724.0, 0.14479292472287567
725.0, 0.13851500460862176
726.0, 0.13565677290130448
727.0, 0.1336919189042729
728.0, 0.13644990986163663
729.0, 0.13812864994506074
730.0, 0.14139995083937612
731.0, 0.1492030044813468
732.0, 0.1579391327945415
733.0, 0.16011834895888252
734.0, 0.1706011338014246
735.0, 0.17779651035348928
736.0, 0.18444738646274675
737.0, 0.19801981011890823
738.0, 0.2190619765036352
739.0, 0.23417435581884588
740.0, 0.2278344073034914
741.0, 0.2503740346950144
742.0, 0.25482614339501825
743.0, 0.25910313632759313
744.0, 0.26008082113969383
745.0, 0.259658026940892
746.0, 0.2575922924088407
747.0, 0.25280954580339227
748.0, 0.25013474906351796
749.0, 0.23681831960882585
750.0, 0.223615370173505
751.0, 0.21144670813845054
752.0, 0.20680558705939878
753.0, 0.20127203811130379
754.0, 0.19075642881166924
755.0, 0.18214410484084442
756.0, 0.17189060183397675
757.0, 0.17946353895035438
758.0, 0.1750105362603361
759.0, 0.16707977610642658
760.0, 0.15747805330505343
761.0, 0.14907560772856382
762.0, 0.1472750892749282
763.0, 0.15287084922726837
764.0, 0.14118837070107018
765.0, 0.13505168140160645
766.0, 0.14104773029657985
767.0, 0.1358126890889003
768.0, 0.1252545925122581
769.0, 0.12010499465135409
770.0, 0.12074376609192347
771.0, 0.11748248036310463
772.0, 0.1187878553680196
773.0, 0.11671414078828711
774.0, 0.11358992431275379
775.0, 0.11547410384886359
776.0, 0.11657645912895133
777.0, 0.11391413078314942
778.0, 0.11129179452419295
779.0, 0.11248076904101768
780.0, 0.10741587106398419
781.0, 0.10741734097464907
782.0, 0.10183684454336635
783.0, 0.09845787103925704
784.0, 0.09077045169897528
785.0, 0.08537478389681713
786.0, 0.08863368849890499
787.0, 0.07701242124714597
788.0, 0.07663202372328023
789.0, 0.05884998902837724
790.0, 0.050472151845067946
791.0, 0.04038296299214199
792.0, 0.039706903236385774
793.0, 0.04069261491835457
794.0, 0.02875414887250661
795.0, 0.027529399129684978
796.0, 0.020302519184395067
797.0, 0.01659030958951902
798.0, 0.011469101033068512
799.0, 0.0054049284607420684
800.0, 0.004142608226941016
801.0, 0.0068523196187252715
802.0, 0.009681414465174142
803.0, 0.015936515411348343
804.0, 0.006859182714728393
805.0, 0.004620953025145018
806.0, 0.0038830900136938686
807.0, 0.012891084093847656
808.0, 0.01324694091545868
809.0, 0.007801309537384647
810.0, 0.010020881874101488
811.0, 0.006733942326781319
812.0, 0.02251041427574162
813.0, 0.01469955222317458
814.0, 0.011631655669025761
815.0, 0.008393801875414662
816.0, 0.00934835646156835
817.0, 0.014391892284293958
818.0, 0.016268737060783366
819.0, 0.009860524369381228
820.0, 0.00781924765263466
821.0, 0.0031714607735525207
822.0, 0.013221059101115725
823.0, 0.01227226630633272
824.0, 0.0069939321945640355
825.0, 0.0074260384030474325
826.0, 0.010697615230813143
827.0, 0.007425912040055799
828.0, 0.012997909808978962
829.0, 0.005314770615234251
830.0, 0.013752126404352236
831.0, 0.013230862010041448
832.0, 0.007196565004114457
833.0, 0.007887294090156637
834.0, 0.014346248835558127
835.0, 0.01315399048701071
836.0, 0.006910845890520439
837.0, 0.0034189825266432595
838.0, 0.003423421749910811
839.0, 0.0049276702109853215
840.0, 0.002435962627927864
841.0, 2.8601409706342664e-05
842.0, 0.0003815739280770047
843.0, 0.004675904515363451
844.0, 0.017424689762156047
845.0, 0.010818021915046423
846.0, 0.014520422012529031
847.0, 0.00819712361534275
848.0, 0.01383729605791082
849.0, 0.018843756651626832
850.0, 0.016082681828216337
851.0, 0.013423648059472881
852.0, 0.017765673753037503
853.0, 0.01628571030879699
854.0, 0.02746758348463213
855.0, 0.024821744482142537
856.0, 0.023447580493662832
857.0, 0.031160915478770295
858.0, 0.034839844071394684
859.0, 0.03248016634393888
860.0, 0.03698745359737233
861.0, 0.04242298269427612
862.0, 0.05000586468752091
863.0, 0.035834237211742906
864.0, 0.05367340943094786
865.0, 0.05867009034992298
866.0, 0.056976824369084446
867.0, 0.06251274056898733
868.0, 0.07176228603367663
869.0, 0.07196293312734894
870.0, 0.06787274694855455
871.0, 0.08004919775864812
872.0, 0.07716046988561716
873.0, 0.07945705180003754
874.0, 0.08733813094040861
875.0, 0.09228951316271962
876.0, 0.09762211875474357
877.0, 0.10679825809893635
878.0, 0.09983239089781369
879.0, 0.11287321326686979
880.0, 0.11273998319996965
881.0, 0.1167763616080105
882.0, 0.1105476418199952
883.0, 0.11072667043493402
884.0, 0.12202114215026143
885.0, 0.127806167098914
886.0, 0.11922666743140214
887.0, 0.13333037596751962
888.0, 0.12793619606970055
889.0, 0.13694803494531435
890.0, 0.14683616935741647
891.0, 0.1639819902883186
892.0, 0.17337805924450828
893.0, 0.18094634832855525
894.0, 0.19648138882334037
895.0, 0.2062724494566356
896.0, 0.22453786479311086
897.0, 0.24598577109827952
898.0, 0.2588810240376887
899.0, 0.2752801035284389
900.0, 0.2998321003824393
901.0, 0.3179219281279739
902.0, 0.33207886161067623
903.0, 0.3524360594703232
904.0, 0.36437030420905664
905.0, 0.3702073823078012
906.0, 0.38648992647013736
907.0, 0.3900312244056073
908.0, 0.4127984215405678
909.0, 0.4157627950656269
910.0, 0.4207299754310349
911.0, 0.4415262290308799
912.0, 0.45633528033703724
913.0, 0.46206907571144795
914.0, 0.45924745249159626
915.0, 0.47511199563585393
916.0, 0.49165125267171833
917.0, 0.4891086562790904
918.0, 0.49255947233509706
919.0, 0.5027647917577156
920.0, 0.5091663654951456
921.0, 0.5098548673553835
922.0, 0.5083427574099881
923.0, 0.5103617296770773
924.0, 0.500360483403538
925.0, 0.4979079579787717
926.0, 0.5017097973357212
927.0, 0.4990282993812321
928.0, 0.48518172843417434
929.0, 0.4629008155689043
930.0, 0.44706935863410124
931.0, 0.4568101854497275
932.0, 0.4356487488046469
933.0, 0.4318984213972472
934.0, 0.4313002539049406
935.0, 0.42266792547823817
936.0, 0.42311575332558177
937.0, 0.42456990717349713
938.0, 0.424190317530493
939.0, 0.4275063778741706
940.0, 0.4258892728196621
941.0, 0.4255984033862307
942.0, 0.4356851948521261
943.0, 0.4446544297867024
944.0, 0.45545042025473104
945.0, 0.4665468965827355
946.0, 0.4735528446961983
947.0, 0.47778914449198656
948.0, 0.480361410193925
949.0, 0.4789154827457647
950.0, 0.4856258866885146
951.0, 0.4739121336515234
952.0, 0.46083010896630966
953.0, 0.4500226076512921
954.0, 0.447564638679412
955.0, 0.42899564011604824
956.0, 0.4124523094309879
957.0, 0.4083809196421093
958.0, 0.3944007459675898
959.0, 0.3948156582494504
960.0, 0.365251450514003
961.0, 0.36645795737444153
962.0, 0.3603261954772925
963.0, 0.3458110046917906
964.0, 0.3423325324150532
965.0, 0.33756054074605124
966.0, 0.32738615258227527
967.0, 0.3234254934295367
968.0, 0.31880159672204667
969.0, 0.31762793954681723
970.0, 0.3125270136568249
971.0, 0.3098989390806061
972.0, 0.3060642502383609
973.0, 0.3046059139584574
974.0, 0.3031781103219432
975.0, 0.30500032886431133
976.0, 0.3090883295242208
977.0, 0.3061556310623094
978.0, 0.30211315727939053
979.0, 0.3074256526030083
980.0, 0.3050006109084248
981.0, 0.30404340630968785
982.0, 0.3067386773722618
983.0, 0.3197247913640879
984.0, 0.3221417147486262
985.0, 0.3203096867416343
986.0, 0.3365528072341952
987.0, 0.3529160420929136
988.0, 0.35565388136121073
989.0, 0.3642266958478886
990.0, 0.3841752858977373
991.0, 0.3938385609807684
992.0, 0.4005790558945889
993.0, 0.41224935085462305
994.0, 0.414934416180342
995.0, 0.4094083349082812
996.0, 0.4127590534650555
997.0, 0.41385669080036147
998.0, 0.42017724637421605
999.0, 0.39177772563472774
1000.0, 0.3893597714177039
1001.0, 0.3821541679824031
1002.0, 0.3681123269783587
1003.0, 0.35544619537003125
1004.0, 0.33953762827178685
1005.0, 0.31870751576090783
1006.0, 0.30220064358395915
1007.0, 0.28605427863989097
1008.0, 0.27833862657045233
1009.0, 0.2613824259488099
1010.0, 0.25569405665874867
1011.0, 0.251733023538117
1012.0, 0.24192939889461618
1013.0, 0.22558420422256567
1014.0, 0.21719608541570712
1015.0, 0.21635189116114656
1016.0, 0.20314480491687592
1017.0, 0.19090396546047367
1018.0, 0.1999574746117293
1019.0, 0.2050874428032148
1020.0, 0.2010931751330477
1021.0, 0.20152751057071988
1022.0, 0.2042621677915885
1023.0, 0.20619207184086347
1024.0, 0.20930947281678125
1025.0, 0.21209077356328643
1026.0, 0.20938517616209334
1027.0, 0.2098607073831174
1028.0, 0.2281394392984101
1029.0, 0.22154564592264442
1030.0, 0.22596075039063956
1031.0, 0.22984708064894058
1032.0, 0.23199600160774497
1033.0, 0.24180566884152344
1034.0, 0.24847168700620062
1035.0, 0.24583398829201428
1036.0, 0.25200323161810784
1037.0, 0.27625282747282337
1038.0, 0.289590206311541
1039.0, 0.2717340265843216
1040.0, 0.2844032885124845
1041.0, 0.28933535339881816
1042.0, 0.28543350806768203
1043.0, 0.28733191062139507
1044.0, 0.28810661937195625
1045.0, 0.28296716453668297
1046.0, 0.2778300554318719
1047.0, 0.2723101460454543
1048.0, 0.27878313345572175
1049.0, 0.2639910838462884
1050.0, 0.2718097881331924
1051.0, 0.26655462630961785
1052.0, 0.266121338142634
1053.0, 0.2714903024870202
1054.0, 0.27552958915349984
1055.0, 0.2844282519970676
1056.0, 0.30060776341888706
1057.0, 0.30989235958778616
1058.0, 0.31366843518301335
1059.0, 0.32135626778105814
1060.0, 0.32806806738881844
1061.0, 0.3349192610023236
1062.0, 0.3609412076928585
1063.0, 0.3739507222894461
1064.0, 0.38522960776929444
1065.0, 0.40243604521453974
1066.0, 0.4141619753034923
1067.0, 0.4217227246698227
1068.0, 0.4440343147145198
1069.0, 0.4475376450866019
1070.0, 0.46082837130175774
1071.0, 0.4601662821767496
1072.0, 0.4762048817277571
1073.0, 0.49009854701565264
1074.0, 0.4898648476682195
1075.0, 0.492520904523853
1076.0, 0.5057835659472761
1077.0, 0.5168777476980339
1078.0, 0.5183734479027364
1079.0, 0.5244838750440814
1080.0, 0.5333610201231385
1081.0, 0.5395562903622108
1082.0, 0.5471806702128169
1083.0, 0.5573422642855919
1084.0, 0.5690175346121619
1085.0, 0.5786433866560681
1086.0, 0.5883505599874218
1087.0, 0.5982038205143351
1088.0, 0.6030749594453974
1089.0, 0.6007498591083812
1090.0, 0.5979538759549037
1091.0, 0.5948068417453314
1092.0, 0.5936419799944718
1093.0, 0.5744943751766927
1094.0, 0.5693449639171815
1095.0, 0.5508756211420266
1096.0, 0.5295841849306802
1097.0, 0.5092120478765345
1098.0, 0.4805692802126641
1099.0, 0.4458329074151477
1100.0, 0.4204789574829625
1101.0, 0.3988253897078405
1102.0, 0.35283666971217065
1103.0, 0.3334463659361922
1104.0, 0.3125040460369428
1105.0, 0.2823610676879768
1106.0, 0.28188768488029875
1107.0, 0.25179687494106145
1108.0, 0.2286391323082745
1109.0, 0.22657582020296532
1110.0, 0.21667083178388294
1111.0, 0.1971271712637376
1112.0, 0.18623120250108832
1113.0, 0.1627286627059124
1114.0, 0.16443072297273023
1115.0, 0.1626025708796435
1116.0, 0.1606233939402129
1117.0, 0.16888739445657786
1118.0, 0.1668633907835613
1119.0, 0.16140780481221212
1120.0, 0.16461183512153113
1121.0, 0.16868952189960926
1122.0, 0.16435679367416275
1123.0, 0.1648238989208386
1124.0, 0.17578997081214195
1125.0, 0.17112077101834205
1126.0, 0.16904327558559237
1127.0, 0.15888792733941767
1128.0, 0.15073334493323842
1129.0, 0.14107394659584457
1130.0, 0.1298243486500638
1131.0, 0.12376302571951947
1132.0, 0.12191063177636977
1133.0, 0.12312463259243724
1134.0, 0.1277585027181919
1135.0, 0.12387334662665594
1136.0, 0.11427825099667113
1137.0, 0.10770125244227731
1138.0, 0.10016844846137865
1139.0, 0.09202679242352264
1140.0, 0.0832181009593651
1141.0, 0.07539343594702902
1142.0, 0.06710267789732996
1143.0, 0.057294943424793854
1144.0, 0.05082423649502633
1145.0, 0.04437898671777489
1146.0, 0.0314669919194772
1147.0, 0.02960711833613237
1148.0, 0.024340900576476174
1149.0, 0.017239017758599845
1150.0, 0.016984414713640476
1151.0, 0.015778980765888496
1152.0, 0.01430519585059203
1153.0, 0.009158989297934753
1154.0, 0.013671298773138973
1155.0, 0.013670125148148578
1156.0, 0.015241749730660017
1157.0, 0.024239935373238996
1158.0, 0.0204822973238792
1159.0, 0.027708931396504755
1160.0, 0.027040194103711654
1161.0, 0.021430003786836065
1162.0, 0.018752403094114915
1163.0, 0.015046420023840516
1164.0, 0.014676501372884952
1165.0, 0.015192959077500403
1166.0, 0.011898483107877679
1167.0, 0.006942434820702419
1168.0, 0.004302085869476967
1169.0, 0.004880260156539199
1170.0, 0.005266148166246548
1171.0, 0.001672462830873203
1172.0, 0.004844544696656165
1173.0, 0.0038147140912788815
1174.0, 0.006284187570696527
1175.0, 0.0012374226719200515
1176.0, 0.004373983444725384
1177.0, 0.007270781984803358
1178.0, 0.010699897114815133
1179.0, 0.008266598033344199
1180.0, 0.008430601784232087
1181.0, 0.009036767110364555
1182.0, 0.002419939209870395
1183.0, 0.00493024236277481
1184.0, 0.005473468101302586
1185.0, 0.013792475523388633
1186.0, 0.014312396896567055
1187.0, 0.0073580840138145675
1188.0, 0.016242138197768752
1189.0, 0.005375111688043141
1190.0, 0.007705067830250137
1191.0, 0.0100149989859376
1192.0, 0.006369301395720704
1193.0, 0.004270255261835855
1194.0, 0.004751443056685838
1195.0, 0.004154135997707723
1196.0, 0.003008944157842049
1197.0, 0.0016044354059629728
1198.0, 0.004039795875179559
1199.0, 0.0017026122383795386
1200.0, 0.0009469238888652665
1201.0, 0.0008217843425574931
1202.0, 0.003005713123657983
1203.0, 0.0027663077477677336
1204.0, 0.002611834587172693
1205.0, 0.0024200632667545864
1206.0, 0.0021318474392544337
1207.0, 0.00204137153675689
1208.0, 0.0014917071493032851
1209.0, 0.0034110314761601705
1210.0, 0.005858098504827112
1211.0, 0.0003645376955613191
1212.0, 0.0036026945241333565
1213.0, 0.006875368508831376
1214.0, 0.005230636258586051
1215.0, 0.004441358533926503
1216.0, 0.004028311317299115
1217.0, 0.002743213001520713
1218.0, 0.0011213617980886615
1219.0, 0.0013172324222645846
1220.0, 0.0035576668026935277
1221.0, 0.005076361690465973
1222.0, 0.004094520354197242
1223.0, 0.0023901998722476443
1224.0, 0.0051650757827789405
1225.0, 0.006659521070985894
1226.0, 0.013909939628800091
1227.0, 0.0053067943880929684
1228.0, 0.00341452964034025
1229.0, 0.007672893760787791
1230.0, 0.007166894443772674
1231.0, 0.006148015440891331
1232.0, 0.005197277718329991
1233.0, 0.0037198929161658483
1234.0, 0.004186128082551487
1235.0, 0.005930384906916701
1236.0, 0.007853983297736246
1237.0, 0.0012996822895729922
1238.0, 0.0030996004187100927
1239.0, 0.005530154279057028
1240.0, 0.00604892920512251
1241.0, 0.0056047551310499065
1242.0, 0.0048990795967068955
1243.0, 0.005464261247628908
1244.0, 0.00540295322349567
1245.0, 0.005607343709317216
1246.0, 0.004282917494400315
1247.0, 0.004659843062861041
1248.0, 0.006842996004940943
1249.0, 0.0036431660732437598
1250.0, 0.007017648979138611
1251.0, 0.012457570710801825
1252.0, 0.0028244463535594903
1253.0, 0.012118631333669446
1254.0, 0.011320220372640506
1255.0, 0.006007450836558143
1256.0, 0.008541050932790676
1257.0, 0.008822009190915383
1258.0, 0.003654458624986735
1259.0, 0.001856012211881239
1260.0, 0.00282831319206759
1261.0, 0.006768874203914737
1262.0, 0.012334938892659991
1263.0, 0.012147228172955143
1264.0, 0.016153281288498255
1265.0, 0.02471785597830558
1266.0, 0.014156651438124467
1267.0, 0.035755103671703065
1268.0, 0.028212020700359833
1269.0, 0.01670762430414291
1270.0, 0.004282317907488498
1271.0, 0.001439774657336177
1272.0, 0.0019003583607411845
1273.0, 0.007131014071754805
1274.0, 0.013043427231675932
1275.0, 0.009931531813688815
1276.0, 0.005571525968751639
1277.0, 0.006569122519336402
1278.0, 0.0006534004690383532
1279.0, 0.0008884003080476233
1280.0, 0.003606433027509487
1281.0, 0.010924447000963455
1282.0, 0.004479880606765152
1283.0, 0.0032292135376974346
1284.0, 0.006013992235169215
1285.0, 0.002894413604067528
1286.0, 0.0037219494240990575
1287.0, 0.008697896985214294
1288.0, 0.009405460337056224
1289.0, 0.007302984544065505
1290.0, 0.007077186821424472
1291.0, 0.00994870929263589
1292.0, 0.011810670411253377
1293.0, 0.009424640116324875
1294.0, 0.010155488531820417
1295.0, 0.004582983065394199
1296.0, 0.00651744753400854
1297.0, 0.027793228126112388
1298.0, 0.010574225344996744
1299.0, 0.017835343808648187
1300.0, 0.015303797740372589
1301.0, 0.016353245183940244
1302.0, 0.00954595851755939
1303.0, 0.013993754192426997
1304.0, 0.011873425875707564
1305.0, 0.0060505497304606075
1306.0, 0.012268130392648733
1307.0, 0.016864559165326098
1308.0, 0.013111546636985733
1309.0, 0.020475033708754573
1310.0, 0.02016762030394076
1311.0, 0.013181666855063912
1312.0, 0.008353539198659417
1313.0, 0.0283926896452039
1314.0, 0.0026164930977971013
1315.0, 0.003179987466769939
1316.0, 0.01460505003461305
1317.0, 0.00739818525227523
1318.0, 0.003478495532281463
1319.0, 0.018188029482606276
1320.0, 0.02877754277232354
1321.0, 0.019986238377232964
1322.0, 0.010141726892603566
1323.0, 0.017665829901251356
1324.0, 0.022760011091099312
1325.0, 0.009148027867014193
1326.0, 0.01762501496617214
1327.0, 0.016605501775508763
1328.0, 0.027934933213285527
1329.0, 0.02460734310926792
1330.0, 0.018737851423515653
1331.0, 0.018546891472472047
1332.0, 0.018308305018144577
1333.0, 0.009988039121648994
1334.0, 0.007214515340246458
1335.0, 0.008269402974114045
1336.0, 0.013761507626488348
1337.0, 0.018839356405592356
1338.0, 0.020769102051291767
1339.0, 0.019078873204705308
1340.0, 0.014659001892170119
1341.0, 0.00922899979937071
1342.0, 0.0018647882939407522
1343.0, 0.007089833527456986
1344.0, 0.018322133720214816
1345.0, 0.009277003668816418
1346.0, 0.02087272888768632
1347.0, 0.023767753008828496
1348.0, 0.00794953162675502
1349.0, 0.0029097391357112597
1350.0, 0.005506283745625295
1351.0, 0.02386720601415931
1352.0, 0.025841084610473176
1353.0, 0.018413029627991146
1354.0, 0.020305557293992124
1355.0, 0.018303668804527416
1356.0, 0.014846255081207781
1357.0, 0.013282202022217627
1358.0, 0.00546777369777688
1359.0, 0.010890464932938675
1360.0, 0.008785767919593037
1361.0, 0.005043428437527654
1362.0, 0.0197213160149556
1363.0, 0.007716509615436404
1364.0, 0.02334865303010652
1365.0, 0.01281979332912623
1366.0, 0.014815474381751558
1367.0, 0.020791920137911164
1368.0, 0.013673168223369348
1369.0, 0.01021698886278357
1370.0, 0.0036313100865522753
1371.0, 0.00978471219736189
1372.0, 0.011418021378955371
1373.0, 0.009474433337267716
1374.0, 0.014292404905544003
1375.0, 0.01598111799261692
1376.0, 0.013722100756244438
1377.0, 0.013020407915687714
1378.0, 0.0101218575114
1379.0, 0.015333632350442333
1380.0, 0.019653778120535034
1381.0, 0.01522047089374287
1382.0, 0.012017397348671896
1383.0, 0.016352040341368945
1384.0, 0.007563576119939532
1385.0, 0.0020035596906395874
1386.0, 0.01719631056075448
1387.0, 0.005813357297529523
1388.0, 0.005072854620435511
1389.0, 0.003068768994551791
1390.0, 0.0016847463106456767
1391.0, 0.008045217715845645
1392.0, 0.013293227945130997
1393.0, 0.007944919969438203
1394.0, 0.003965063862809407
1395.0, 0.006862322320790137
1396.0, 0.004117780990953427
1397.0, 0.010900899796003763
1398.0, 0.010215245114169047
1399.0, 0.00877747159048437
1400.0, 0.005786201619531323
1401.0, 0.003368320228721913
1402.0, 0.01423042467512187
1403.0, 0.0034030184547130127
1404.0, 0.015861929584432354
1405.0, 0.0077222037526842825
1406.0, 0.0022134954095997528
1407.0, 0.005366832922414838
1408.0, 0.004019044676761965
1409.0, 0.007357528561659213
1410.0, 0.012311945321223225
1411.0, 0.01027862239035537
1412.0, 0.01086578316696281
1413.0, 0.012266020576036978
1414.0, 0.01191004136481809
1415.0, 0.015890894074959097
1416.0, 0.01340758845963252
1417.0, 0.009659863230787056
1418.0, 0.0056982228371108504
1419.0, 0.008507133425699386
1420.0, 0.013352491096584703
1421.0, 0.016629416671869457
1422.0, 0.016651290427143257
1423.0, 0.030939019811853638
1424.0, 0.028244027504834013
1425.0, 0.015451030087444808
1426.0, 0.02135282858058554
1427.0, 0.016359612161963542
1428.0, 0.01554225617266341
1429.0, 0.030744250311592274
1430.0, 0.02982684325524173
1431.0, 0.027130152847435526
1432.0, 0.02664885618626682
1433.0, 0.030518135950838958
1434.0, 0.03267242606330447
1435.0, 0.028290149456309976
1436.0, 0.030464872634294246
1437.0, 0.03915991215739069
1438.0, 0.04921609939352018
1439.0, 0.04975890280643526
1440.0, 0.043583620788597205
1441.0, 0.05130028327945755
1442.0, 0.0470056834110944
1443.0, 0.0635273673357817
1444.0, 0.03569831138201371
1445.0, 0.05967942105917868
1446.0, 0.061682049044404726
1447.0, 0.04294349139169264
1448.0, 0.053188108726449815
1449.0, 0.04557222555286454
1450.0, 0.057397385134073706
1451.0, 0.06359855630463959
1452.0, 0.058800861896256905
1453.0, 0.05188375131102346
1454.0, 0.05008921033789665
1455.0, 0.04814160662920066
1456.0, 0.04583958035782391
1457.0, 0.052437936693806086
1458.0, 0.05642848768004216
1459.0, 0.04950546921924451
1460.0, 0.0481662363706216
1461.0, 0.04503889264930216
1462.0, 0.04096253674944191
1463.0, 0.04464196042914404
1464.0, 0.0420830108858145
1465.0, 0.048758801438581904
1466.0, 0.051997924823917394
1467.0, 0.043060076116854966
1468.0, 0.04058929725436057
1469.0, 0.043073075840413144
1470.0, 0.03133839458458444
1471.0, 0.04038362025185121
1472.0, 0.04254464822114719
1473.0, 0.042311734873103905
1474.0, 0.03782040755620956
1475.0, 0.0316928537338358
1476.0, 0.032391614254371884
1477.0, 0.02805468929601667
1478.0, 0.03942244896380686
1479.0, 0.060118712651659405
1480.0, 0.053944272952716706
1481.0, 0.03980125895974348
1482.0, 0.035777830048660204
1483.0, 0.038531275396818956
1484.0, 0.04785810470087397
1485.0, 0.04262099242940418
1486.0, 0.04240584085238869
1487.0, 0.04454066869793918
1488.0, 0.046804517309399774
1489.0, 0.05127265104433418
1490.0, 0.049491404209029685
1491.0, 0.03937267832531693
1492.0, 0.039852655138150436
1493.0, 0.0532547980942046
1494.0, 0.06266000675053673
1495.0, 0.05533038467186996
1496.0, 0.04967119698699403
1497.0, 0.04797829799388227
1498.0, 0.045353891768402876
1499.0, 0.04674340963977384
1500.0, 0.04543240222244383
1501.0, 0.05169650423789164
1502.0, 0.055226189670349715
1503.0, 0.05797796196271095
1504.0, 0.058686533916558245
1505.0, 0.061570571555879756
1506.0, 0.05982581769382321
1507.0, 0.051541324477661535
1508.0, 0.044272250141875816
1509.0, 0.0506422537826794
1510.0, 0.05802884206827247
1511.0, 0.05385245730940288
1512.0, 0.053209587437915706
1513.0, 0.04517297687598322
1514.0, 0.03859946672718386
1515.0, 0.041942705870129
1516.0, 0.04534615349680834
1517.0, 0.04767400842281056
1518.0, 0.04417336401321726
1519.0, 0.03597929805631613
1520.0, 0.037065110368968604
1521.0, 0.03143414521196152
1522.0, 0.03988554545988342
1523.0, 0.023538406834974317
1524.0, 0.03791262298553049
1525.0, 0.038231485788808826
1526.0, 0.01748791492655567
1527.0, 0.023271610093439594
1528.0, 0.019892682630677904
1529.0, 0.02766250206245175
1530.0, 0.024151487265244017
1531.0, 0.02535345599456292
1532.0, 0.012186419257788775
1533.0, 0.017626933596490608
1534.0, 0.020696296177579194
1535.0, 0.023109051782207325
1536.0, 0.018898333915256207
1537.0, 0.020357135061965678
1538.0, 0.02140962180981447
1539.0, 0.01304885815055714
1540.0, 0.00913631422572077
1541.0, 0.012249231000311521
1542.0, 0.012014023020279508
1543.0, 0.013775879560882127
1544.0, 0.022951328685052737
1545.0, 0.017216300122534514
1546.0, 0.019529631946800075
1547.0, 0.01665633416987757
1548.0, 0.021698158379879717
1549.0, 0.007920421824496404
1550.0, 0.011004812114523931
1551.0, 0.014248657907957648
1552.0, 0.020066418659212732
1553.0, 0.01920578267664549
1554.0, 0.027390050495050302
1555.0, 0.015917949858499394
1556.0, 0.021433067019987928
1557.0, 0.0230710268059999
1558.0, 0.020567045274913057
1559.0, 0.02334443647418206
1560.0, 0.012467108523525214
1561.0, 0.017561765991277914
1562.0, 0.01798779071305151
1563.0, 0.008671486410984162
1564.0, 0.007786248314016313
1565.0, 0.0076820582252615024
1566.0, 0.005958082177785315
1567.0, 0.009211355436971814
1568.0, 0.0069644723936023506
1569.0, 0.0021620197036557928
1570.0, 0.006384749002615833
1571.0, 0.004732662056221764
1572.0, 0.0005639468814677485
1573, 0.0
1574, 0.0
1575, 0.0
1576, 0.0
1577, 0.0
1578, 0.0
1579, 0.0
1580, 0.0
1581, 0.0
1582, 0.0
1583, 0.0
1584, 0.0
1585, 0.0
1586, 0.0
1587, 0.0
1588, 0.0
1589, 0.0
1590, 0.0
1591, 0.0
1592, 0.0
1593, 0.0
1594, 0.0
1595, 0.0
1596, 0.0
1597, 0.0
1598, 0.0
1599, 0.0
