30, 0.0
31, 0.0
32, 0.0
33, 0.0
34, 0.0
35, 0.0
36, 0.0
37, 0.0
38, 0.0
39, 0.0
40, 0.0
41, 0.0
42, 0.0
43, 0.0
44, 0.0
45, 0.0
46, 0.0
47, 0.0
48, 0.0
49, 0.0
50, 0.0
51, 0.0
52, 0.0
53, 0.0
54, 0.0
55, 0.0
56, 0.0
57, 0.0
58, 0.0
59, 0.0
60, 0.0
61, 0.0
62, 0.0
63, 0.0
64, 0.0
65, 0.0
66, 0.0
67, 0.0
68, 0.0
69, 0.0
70, 0.0
71, 0.0
72, 0.0
73, 0.0
74, 0.0
75, 0.0
76, 0.0
77, 0.0
78, 0.0
79, 0.0
80, 0.0
81, 0.0
82, 0.0
83, 0.0
84, 0.0
85, 0.0
86, 0.0
87, 0.0
88, 0.0
89, 0.0
90, 0.0
91, 0.0
92, 0.0
93, 0.0
94, 0.0
95, 0.0
96, 0.0
97, 0.0
98, 0.0
99, 0.0
100, 0.0
101, 0.0
102, 0.0
103.0, 0.0005557700961743102
104.0, 0.002339847437167497
105.0, 0.0018543105513997068
106.0, 0.003140002173495525
107.0, 0.004567425786288755
108.0, 0.004154282657065588
109.0, 0.0004308433745930614
110.0, 0.003393074725226841
111.0, 0.004345664938898101
112.0, 0.002502792638105121
113.0, 0.0017528172281403224
114.0, 0.006047215574381722
115.0, 0.004931069355630091
116.0, 0.005072833311761969
117.0, 0.010094146457491024
118.0, 0.010921296760765867
119.0, 0.010241238262600837
120.0, 0.00841025571886809
121.0, 0.005992877925737954
122.0, 0.004651325993869879
123.0, 0.005554145351358357
124.0, 0.0031757516727162222
125.0, 0.0006367013322137227
126.0, 0.0022158517965936305
127.0, 0.001959044480281716
128.0, 0.0004299178188210515
129.0, 0.0009782386022045247
130.0, 0.0010633693821720648
131.0, 0.001207042435587798
132.0, 0.0008891948483762335
133.0, 0.00031414472641626593
134.0, 0.0008088366457486609
135.0, 0.00017767463455825745
136.0, 0.0006479182786254709
137.0, 0.0011658852748711143
138.0, 0.004766537414854126
139.0, 0.004375205550525694
140.0, 0.0023829812201910713
141.0, 0.004744208079709442
142.0, 0.010974651732638731
143.0, 0.015384048036479116
144.0, 0.01399327192351195
145.0, 0.014535083395681
146.0, 0.017428567703661427
147.0, 0.01879455660009173
148.0, 0.020648794576103205
149.0, 0.021310966862565412
150.0, 0.022506891751211403
151.0, 0.025953883628025427
152.0, 0.03007358809748836
153.0, 0.032084538387298155
154.0, 0.037753058622671525
155.0, 0.04524329888554619
156.0, 0.04510280817312032
157.0, 0.04806561592744168
158.0, 0.05265557954165848
159.0, 0.05664472172971092
160.0, 0.06009858880595775
161.0, 0.06773708133082547
162.0, 0.08528140232253371
163.0, 0.10820791454540478
164.0, 0.12656969008177635
165.0, 0.12425713596754329
166.0, 0.10290712606303566
167.0, 0.07859486490395008
168.0, 0.06405007235318318
169.0, 0.05722154583542995
170.0, 0.0569957712422074
171.0, 0.06211637904723083
172.0, 0.06939767632246567
173.0, 0.07592870173537124
174.0, 0.08609321336475867
175.0, 0.09155059207427482
176.0, 0.08707318676017235
177.0, 0.07229695006438486
178.0, 0.06235640306997143
179.0, 0.05282634284206473
180.0, 0.0433187556300633
181.0, 0.035063761868356524
182.0, 0.03143329447443192
183.0, 0.030716998172672816
184.0, 0.03051203662370016
185.0, 0.029151815127268294
186.0, 0.02685278985886156
187.0, 0.024571197351707347
188.0, 0.025935228407044753
189.0, 0.02824485777453662
190.0, 0.029341063005680037
191.0, 0.03415991587283708
192.0, 0.03358866527044899
193.0, 0.03554099467749883
194.0, 0.04161271479455545
195.0, 0.04423828082272581
196.0, 0.04692366875978917
197.0, 0.0473908347529529
198.0, 0.04432256748106056
199.0, 0.039951575320589676
200.0, 0.03905639249172274
201.0, 0.03671204198471563
202.0, 0.03437899296995835
203.0, 0.03372865432013132
204.0, 0.031687612918208284
205.0, 0.034450840205166304
206.0, 0.03570638351338343
207.0, 0.03403807010973158
208.0, 0.033414334589961694
209.0, 0.03725689692825898
210.0, 0.04273235554541527
211.0, 0.047551580758641514
212.0, 0.05197902296711988
213.0, 0.06050409509697429
214.0, 0.06813500718954116
215.0, 0.07529138472735539
216.0, 0.08505619856407219
217.0, 0.10096437984006448
218.0, 0.11402623758418605
219.0, 0.1258284875764335
220.0, 0.1334819287721898
221.0, 0.1331164251081335
222.0, 0.1271425474033295
223.0, 0.11452611030177137
224.0, 0.09756138967937518
225.0, 0.08029870107978981
226.0, 0.066311350411724
227.0, 0.05106582817169256
228.0, 0.041761957456855014
229.0, 0.03566529183848697
230.0, 0.02769974537610928
231.0, 0.021668718870762552
232.0, 0.019487707143142585
233.0, 0.018203067197579383
234.0, 0.01586649527619235
235.0, 0.012514371399737833
236.0, 0.011413329691217297
237.0, 0.010499211995825878
238.0, 0.010966722897909799
239.0, 0.012580412271321173
240.0, 0.009470772038443988
241.0, 0.006465183777963886
242.0, 0.004309488275028804
243.0, 0.0038020345112812336
244.0, 0.0052984942515328665
245.0, 0.004261482866818155
246.0, 0.00263264005289564
247.0, 0.0012988292892370478
248.0, 0.001118504825634361
249.0, 0.003725921256752828
250.0, 0.0013204367100396305
251.0, 0.0002743786845990748
252.0, 0.0005262170994945152
253.0, 0.0008222947273045504
254.0, 0.0029736062878429974
255.0, 0.0015885520098815836
256.0, 0.0009994931443331092
257.0, 0.0005002743239629125
258.0, 0.003566561782500678
259.0, 0.0010883821669330062
260.0, 0.0003409414705138171
261.0, 0.0006998166399605583
262.0, 0.0016675057916043369
263.0, 0.0009646390725414577
264.0, 0.00029159500545718626
265.0, 0.0014973980159965418
266.0, 0.0023197779508640584
267.0, 0.0012225805995109685
268.0, 0.0013720656460773366
269.0, 0.002022117130392136
270.0, 0.00037230316976079845
271.0, 0.00010371477538149672
272.0, 0.0010088990602509906
273.0, 0.0024181877335233276
274.0, 0.0004797751211164864
275.0, 0.003297036341352626
276.0, 0.0020570673548103726
277.0, 0.004179723068981865
278.0, 0.0032727416269887604
279.0, 0.001967722121402414
280.0, 0.002995619550263632
281.0, 0.006025212792511375
282.0, 0.006231554443342269
283.0, 0.008391399623120195
284.0, 0.010686247544298717
285.0, 0.01078170591399853
286.0, 0.010790125131086395
287.0, 0.01053303586731579
288.0, 0.010781742452767785
289.0, 0.012097623227356259
290.0, 0.014531842130933925
291.0, 0.016534686930469996
292.0, 0.01967387879503521
293.0, 0.023673577837076874
294.0, 0.025953559497405604
295.0, 0.02487890400439454
296.0, 0.02766014251824107
297.0, 0.030001571879190565
298.0, 0.03244210991997125
299.0, 0.03660447776199654
300.0, 0.04098044522573634
301.0, 0.03972504464197049
302.0, 0.038282545708653345
303.0, 0.03808138995759858
304.0, 0.03861666281147083
305.0, 0.04028699809471108
306.0, 0.03949766110820261
307.0, 0.03981163238503513
308.0, 0.04325850909399179
309.0, 0.048558979131880536
310.0, 0.0511069333203551
311.0, 0.05633776694491958
312.0, 0.06406408296074716
313.0, 0.0710445267547351
314.0, 0.07274873062290566
315.0, 0.08214942453216897
316.0, 0.0919718380418581
317.0, 0.10061646100655117
318.0, 0.10756485348436783
319.0, 0.11136024472822051
320.0, 0.11211322953394394
321.0, 0.10871598654115122
322.0, 0.10131250191960957
323.0, 0.09137177977195088
324.0, 0.08158497874054751
325.0, 0.07853129578529135
326.0, 0.07507229928455644
327.0, 0.07161851823778016
328.0, 0.07217315620902215
329.0, 0.07516295119944158
330.0, 0.08378282162385954
331.0, 0.09138937904664055
332.0, 0.09475388418391453
333.0, 0.09661617172251294
334.0, 0.10673152860947306
335.0, 0.11414138887194833
336.0, 0.12305992131268745
337.0, 0.13595183614239045
338.0, 0.15093629823843657
339.0, 0.16738387362957974
340.0, 0.18307878615567497
341.0, 0.20282719669197047
342.0, 0.2277269961357088
343.0, 0.25345730221729107
344.0, 0.28770298577197806
345.0, 0.3197674053657106
346.0, 0.3523473705045696
347.0, 0.38755154775180817
348.0, 0.4149139238169569
349.0, 0.42444432862442816
350.0, 0.41374699610247445
351.0, 0.39142860702481314
352.0, 0.35901993408120747
353.0, 0.3106087556400368
354.0, 0.2648873584289988
355.0, 0.2264403795529237
356.0, 0.19298458339717248
357.0, 0.1638073510066141
358.0, 0.1411690913285095
359.0, 0.12537028003207082
360.0, 0.11508713291191158
361.0, 0.10836561678833313
362.0, 0.10447319836329258
363.0, 0.10477122465304173
364.0, 0.10595715184145024
365.0, 0.11048760233580396
366.0, 0.11837247783085483
367.0, 0.12832840301947027
368.0, 0.13776773024147937
369.0, 0.1529686793382676
370.0, 0.16493116307785577
371.0, 0.17199993072529496
372.0, 0.1758206569375951
373.0, 0.17494653895769596
374.0, 0.16338138043469427
375.0, 0.14676559866412228
376.0, 0.1271560835303337
377.0, 0.10605577938063059
378.0, 0.08811259071224721
379.0, 0.07243009023741673
380.0, 0.060120993702688565
381.0, 0.052330549502778836
382.0, 0.046806630716022674
383.0, 0.03940856119719676
384.0, 0.034739431605909914
385.0, 0.02965469507564024
386.0, 0.023805204581893086
387.0, 0.019465677369513656
388.0, 0.018981013990137234
389.0, 0.018537087234173744
390.0, 0.016549906374022247
391.0, 0.015233294859633978
392.0, 0.014532018913163221
393.0, 0.011375636797827179
394.0, 0.008415463894585461
395.0, 0.00965101206519506
396.0, 0.009706369683696694
397.0, 0.007265951310303458
398.0, 0.006771288446674369
399.0, 0.006993264741075453
400.0, 0.004482770355754696
401.0, 0.003310114602802467
402.0, 0.0032282211280283218
403.0, 0.0004770458007687853
404.0, 0.000916146331588602
405.0, 0.0027096038757337504
406.0, 0.003533239915995036
407.0, 0.0003902702824935836
408.0, 0.0014794078877708229
409.0, 0.0002122960345256073
410.0, 0.002187347291986693
411.0, 0.0021539225787865117
412.0, 0.0007562455394089489
413.0, 0.001970901958982571
414.0, 0.00040205964487918425
415.0, 0.0004336014934023485
416.0, 0.0003131504118737955
417.0, 0.0011171543317750007
418.0, 0.0030965763553880256
419.0, 0.0009575614213206695
420.0, 0.0015422568367200783
421.0, 0.0003864535536619977
422.0, 0.0020906901274886334
423.0, 0.0009038467303913578
424.0, 0.0001698383661464691
425.0, 0.0009461155687177487
426.0, 0.0006973453122881175
427.0, 0.0009517611525075817
428.0, 0.0020159460119396995
429.0, 0.0007137103384117451
430.0, 0.0003966233793509864
431.0, 0.0007340572636115233
432.0, 0.0006290545065762948
433.0, 0.00017829447071900982
434.0, 0.0007087044436818238
435.0, 0.0023430934819934535
436.0, 0.000551806206834073
437.0, 0.001331953183756156
438.0, 0.0013033447509407346
439.0, 0.0003223965850611264
440.0, 0.0009956306783234408
441.0, 0.0007429923300001707
442.0, 0.0006800989469518706
443.0, 6.295400727135674e-05
444.0, 0.0010692246463221218
445.0, 0.004555719677062885
446.0, 0.004549406750325353
447.0, 0.0037958680031760137
448.0, 0.004974374634928662
449.0, 0.007085675508610866
450.0, 0.00654452427775083
451.0, 0.006977975410935314
452.0, 0.006983933158225778
453.0, 0.00663689856786014
454.0, 0.0076344480039859264
455.0, 0.010282312629026884
456.0, 0.011466875048873218
457.0, 0.01729514999426319
458.0, 0.018773629372620115
459.0, 0.01831863934374718
460.0, 0.019261079925411186
461.0, 0.018586564730928477
462.0, 0.022991687284640468
463.0, 0.022647499917599487
464.0, 0.023139193147837935
465.0, 0.026488041251795463
466.0, 0.028319675504278736
467.0, 0.030892486317472188
468.0, 0.033354618383244175
469.0, 0.0349498118956872
470.0, 0.038130548202117025
471.0, 0.04389743742421657
472.0, 0.0485144053939857
473.0, 0.04884897391809667
474.0, 0.048555849627517626
475.0, 0.046727268804374326
476.0, 0.0428082745047385
477.0, 0.038409425441391455
478.0, 0.03168145525558727
479.0, 0.026823921274061652
480.0, 0.0213330663340463
481.0, 0.018139758047570464
482.0, 0.019572465960434746
483.0, 0.021380556310759958
484.0, 0.024228651710455153
485.0, 0.02458582318025215
486.0, 0.02491968917311584
487.0, 0.025329382936710526
488.0, 0.024112540422663496
489.0, 0.02576071098761232
490.0, 0.028144023289973463
491.0, 0.028659391191388262
492.0, 0.03160323543265634
493.0, 0.03599127062073096
494.0, 0.034578575341245005
495.0, 0.041450343165655296
496.0, 0.04974512765880168
497.0, 0.05647685775212182
498.0, 0.06038789616441172
499.0, 0.061794447191912134
500.0, 0.0666664123173068
501.0, 0.06604088412241256
502.0, 0.05902834334265366
503.0, 0.04890546869466064
504.0, 0.04025471010042964
505.0, 0.035299976273111766
506.0, 0.02586390906899231
507.0, 0.01977282976040738
508.0, 0.014991283521575013
509.0, 0.009578772132370943
510.0, 0.005376582314545506
511.0, 0.0060490152851795185
512.0, 0.0036759399050810358
513.0, 0.003042972159529205
514.0, 0.0024129997609842525
515.0, 0.0014021956951853916
516.0, 0.0031387518635182412
517.0, 0.003215986481135511
518.0, 0.002955440019479288
519.0, 0.0030695870317802155
520.0, 0.0027099646390923394
521.0, 0.002471311014105094
522.0, 0.004618229989243353
523.0, 0.004019142935107362
524.0, 0.0032787882048852055
525.0, 0.004305541877988429
526.0, 0.003088961156404362
527.0, 0.001310789728344289
528.0, 0.008837249224564478
529.0, 0.011008305253583556
530.0, 0.009784225644659571
531.0, 0.009163503880750434
532.0, 0.011921054291589867
533.0, 0.01819506553674542
534.0, 0.01899933065588003
535.0, 0.0194950954135451
536.0, 0.023436039661361013
537.0, 0.028402784525296265
538.0, 0.03196890919642595
539.0, 0.03605712380633171
540.0, 0.04398746390366683
541.0, 0.049211148106012154
542.0, 0.052768167514103875
543.0, 0.06082888340057982
544.0, 0.07482212216896367
545.0, 0.08261917616577823
546.0, 0.09068118900200241
547.0, 0.10294132893534963
548.0, 0.11410429880198393
549.0, 0.12465812311454336
550.0, 0.1355107267622853
551.0, 0.13729815548367483
552.0, 0.1361901061001073
553.0, 0.13172038814470827
554.0, 0.12045955857897617
555.0, 0.10372613020116157
556.0, 0.08622257638555149
557.0, 0.07218591500614958
558.0, 0.062195702827764654
559.0, 0.049053419971701935
560.0, 0.03857461906638118
561.0, 0.03305837914551922
562.0, 0.02659983373608311
563.0, 0.020164281742965154
564.0, 0.01577704279920982
565.0, 0.012880465349442757
566.0, 0.011515836998175523
567.0, 0.008818826026347235
568.0, 0.0033780206797767677
569.0, 0.004321764488066078
570.0, 0.0009982157003625017
571.0, 0.00022478372476192609
572.0, 0.00026729931015387375
573.0, 0.0006644223112866236
574.0, 0.0028813566836866753
575.0, 0.001881585360616962
576.0, 0.0016582166181232992
577.0, 0.0005397365250878507
578.0, 0.0005414549866308737
579.0, 0.0003424088514909623
580.0, 0.00034874331918868453
581.0, 0.0038726067269040138
582.0, 0.0011528771676599494
583.0, 0.0002487623311939561
584.0, 0.0015789126206387791
585.0, 0.0002168540862939914
586.0, 0.000945043294482703
587.0, 0.0008084453797011712
588.0, 0.0001876255806288414
589.0, 0.0003418497689778862
590.0, 0.0006161484929267984
591.0, 0.0017068609253552292
592.0, 0.0032175529313775283
593.0, 0.002356746221638193
594.0, 0.003595836762458585
595.0, 0.0009370700433108798
596.0, 0.0016767378401197825
597.0, 0.00016860264495430948
598.0, 0.004763482911470588
599.0, 0.0006630853125300452
600.0, 0.00042469097995691843
601.0, 0.0023907007592346026
602.0, 0.002347683037588885
603.0, 0.0004264726309225388
604.0, 0.0007013512836851932
605.0, 0.00012378906447887996
606.0, 0.0005156647513604025
607.0, 0.001673114342550231
608.0, 0.0017748783905869705
609.0, 0.004478728332869414
610.0, 0.00955394664156343
611.0, 0.006948146046866493
612.0, 0.0065422789402451755
613.0, 0.009190766276035383
614.0, 0.012223223533480165
615.0, 0.012864859719729956
616.0, 0.012023980375673173
617.0, 0.01267830727793534
618.0, 0.012217041606280114
619.0, 0.014624778470680472
620.0, 0.01753735659114417
621.0, 0.017898844474802732
622.0, 0.017246113349382662
623.0, 0.019383125241496595
624.0, 0.026424901178646234
625.0, 0.027096505314017846
626.0, 0.028618234308909748
627.0, 0.03450419045837751
628.0, 0.039334925324961315
629.0, 0.03829827409573928
630.0, 0.03782919617042749
631.0, 0.03675188976881375
632.0, 0.03396375223709337
633.0, 0.02928091487844257
634.0, 0.025520417572023127
635.0, 0.024141030177389743
636.0, 0.023767251662617898
637.0, 0.022754395793490076
638.0, 0.01790830885074819
639.0, 0.015748446536195667
640.0, 0.017687668869826
641.0, 0.018551057676328423
642.0, 0.016522771310471526
643.0, 0.018697566529091318
644.0, 0.019385703384193667
645.0, 0.018488144325467668
646.0, 0.018177171610723304
647.0, 0.01883787001510471
648.0, 0.019407310321933578
649.0, 0.019533777343726706
650.0, 0.023531419468779378
651.0, 0.022668790903747946
652.0, 0.02109407776679257
653.0, 0.02143254496438959
654.0, 0.022271743332914477
655.0, 0.023274677574626198
656.0, 0.026767029464659135
657.0, 0.025166045508507415
658.0, 0.03032472966377223
659.0, 0.027302865535053993
660.0, 0.02442350817798805
661.0, 0.027836649428528995
662.0, 0.028153638119774727
663.0, 0.030340861789905946
664.0, 0.029391745848716382
665.0, 0.029120067791658655
666.0, 0.026878365417459315
667.0, 0.025308919260654004
668.0, 0.02586282454787157
669.0, 0.023821614963847527
670.0, 0.024996368021304262
671.0, 0.022313573982780128
672.0, 0.023085893741740415
673.0, 0.021007906336804567
674.0, 0.018381872351392308
675.0, 0.022384477016283284
676.0, 0.01919985512711868
677.0, 0.01736500296193188
678.0, 0.016230351894897774
679.0, 0.01558126245971457
680.0, 0.018352507770658024
681.0, 0.01963379887352707
682.0, 0.015779168133093
683.0, 0.015476678719053586
684.0, 0.014591800994059713
685.0, 0.012236185661681605
686.0, 0.014694801060139137
687.0, 0.01604598870835892
688.0, 0.012358385319948102
689.0, 0.014218568189906557
690.0, 0.015184924084286885
691.0, 0.012063811526534102
692.0, 0.010904488159745297
693.0, 0.008941484061713977
694.0, 0.006836203947510956
695.0, 0.009801307231126315
696.0, 0.013135361664600189
697.0, 0.0073595749141651574
698.0, 0.007977320691852967
699.0, 0.009854482921730991
700.0, 0.010551734280423572
701.0, 0.01107692792386982
702.0, 0.011144901282794288
703.0, 0.011703330346864696
704.0, 0.008134747795921
705.0, 0.011087665955372732
706.0, 0.009231375405134952
707.0, 0.006189434593130316
708.0, 0.00713121756504464
709.0, 0.008205562794880326
710.0, 0.008051639072119551
711.0, 0.00909337914443838
712.0, 0.009765018951892282
713.0, 0.008921289972928409
714.0, 0.007472926905219996
715.0, 0.007454113769744106
716.0, 0.008716676965389409
717.0, 0.006989498685703917
718.0, 0.009237088657806947
719.0, 0.006062628709509644
720.0, 0.005316371381217712
721.0, 0.005791715555268656
722.0, 0.006135996967250575
723.0, 0.006766207047734241
724.0, 0.0038583851056664185
725.0, 0.0026746666250351864
726.0, 0.004510712191506459
727.0, 0.004771244010798575
728.0, 0.0034362739445340023
729.0, 0.0020076462603513027
730.0, 0.0030723260191019824
731.0, 0.008440523674439107
732.0, 0.009334444923580506
733.0, 0.004960436626979292
734.0, 0.008648679773846348
735.0, 0.0070646315785737965
736.0, 0.0016179130410599737
737.0, 0.004037026327721248
738.0, 0.0043233828895649085
739.0, 0.005626886299416485
740.0, 0.0023758522773363495
741.0, 0.002887742077160165
742.0, 0.0020054613504567366
743.0, 0.00014761419569058647
744.0, 0.0013403941878496384
745.0, 0.0021328838297545176
746.0, 0.004047576836954055
747.0, 0.0021390046892695476
748.0, 0.001405087131895118
749.0, 0.0018286630465696454
750.0, 0.0025194695496861415
751.0, 0.004837461020364949
752.0, 0.006539189517600323
753.0, 0.0012607995275881502
754.0, 0.00023765706206344046
755.0, 0.0036140404285326913
756.0, 0.0008139908382895199
757.0, 0.002218808508425999
758.0, 0.0010838384607481826
759.0, 0.00027711955396278796
760.0, 0.0002426599420406324
761.0, 0.000864079651401231
762.0, 0.001425117753316048
763.0, 0.0006410152510848988
764.0, 0.0021684748712180045
765.0, 0.0011160355122494699
766.0, 0.0002937184407287615
767.0, 0.0015761266574975136
768.0, 0.001526244969428078
769.0, 0.0009779874728183095
770.0, 0.0004605095310776841
771.0, 0.0006504749689266072
772.0, 0.000664842868846301
773.0, 0.0019251227478979537
774.0, 0.004111558571853855
775.0, 0.000794816772632082
776.0, 0.0011653047302927026
777.0, 0.0010054961364722686
778.0, 0.0006584638520932275
779.0, 0.0013361806794898517
780.0, 0.0036167061127498064
781.0, 0.0014501383147979083
782.0, 0.0023170701059126732
783.0, 0.001983017343732015
784.0, 0.00139580347132601
785.0, 0.000580169025804018
786.0, 0.0001340399788850679
787.0, 0.0014921276962539267
788.0, 0.0025134293094132643
789.0, 0.0007480458162895049
790.0, 0.0008866562103649276
791.0, 0.0035466858549127625
792.0, 0.0006206735793237296
793.0, 0.0027018172313620433
794.0, 0.0034835545877457165
795.0, 0.0026908941151896656
796.0, 0.0012471058397310697
797.0, 0.0014331315406369747
798.0, 0.0024668918138280693
799.0, 0.0004992435894433001
800.0, 0.0021567185569056494
801.0, 0.0007334183171909968
802.0, 0.0002331120171249291
803.0, 0.0033530157642383458
804.0, 0.004444307338838788
805.0, 0.0001317958249592227
806.0, 0.0012559684569235798
807.0, 0.0036012440032935685
808.0, 0.0074603037996222
809.0, 0.006347295296564287
810.0, 0.0052677368162336756
811.0, 0.005657875623865609
812.0, 0.005492344152360435
813.0, 0.004599200729491208
814.0, 0.0047629832360379714
815.0, 0.0017618458396817444
816.0, 0.008452203843985772
817.0, 0.005743950601087539
818.0, 0.0035281967942102062
819.0, 0.005981988838054653
820.0, 0.007717281471653053
821.0, 0.007690079031645239
822.0, 0.005389950264543236
823.0, 0.0015132371316087267
824.0, 0.008441146334806063
825.0, 0.0025487722358151946
826.0, 0.0043687772649734944
827.0, 0.0072315777702018046
828.0, 0.009315910620957808
829.0, 0.01590382524474928
830.0, 0.01562785957297549
831.0, 0.01627229903480265
832.0, 0.016488759191515927
833.0, 0.02131431469508606
834.0, 0.022740822409729956
835.0, 0.02343062295161741
836.0, 0.02793204546332803
837.0, 0.03195756025073816
838.0, 0.033454406305278274
839.0, 0.039098607547853104
840.0, 0.04254185573700404
841.0, 0.04877789148248746
842.0, 0.05412422770495086
843.0, 0.05889612190629001
844.0, 0.0646617447513106
845.0, 0.07186618237787976
846.0, 0.07912841078689607
847.0, 0.08172161359953913
848.0, 0.0814438797289355
849.0, 0.08155391871643218
850.0, 0.07764736575467251
851.0, 0.07124571707578148
852.0, 0.06756027751576613
853.0, 0.06228707877865006
854.0, 0.05277887560306479
855.0, 0.04970864444177207
856.0, 0.045777494473047055
857.0, 0.03943079784011098
858.0, 0.037122492437901354
859.0, 0.03418260668198586
860.0, 0.033092792293086024
861.0, 0.031301205291513284
862.0, 0.029708265360942798
863.0, 0.03438008775138808
864.0, 0.034994668571733535
865.0, 0.03350802123202826
866.0, 0.036367844453416245
867.0, 0.038250288445103496
868.0, 0.041586073640907786
869.0, 0.043571160780268986
870.0, 0.045110587490594246
871.0, 0.05002524350589779
872.0, 0.05437219258457414
873.0, 0.060905029252929344
874.0, 0.06803808209549228
875.0, 0.0732227781882563
876.0, 0.07842381755097114
877.0, 0.0834483712004862
878.0, 0.08581085567428513
879.0, 0.09217453932903896
880.0, 0.10237819668012219
881.0, 0.10334217481470044
882.0, 0.1091416583353689
883.0, 0.11729857631344902
884.0, 0.1248448714125399
885.0, 0.1361129886383921
886.0, 0.15067875993111163
887.0, 0.1680614536361697
888.0, 0.18510100063791884
889.0, 0.20343941640128835
890.0, 0.23389000617004924
891.0, 0.2661405866708345
892.0, 0.2975970831917828
893.0, 0.33406568262851893
894.0, 0.37391070870002013
895.0, 0.4149834526971967
896.0, 0.4624008177395792
897.0, 0.5126927999724605
898.0, 0.5631971496830321
899.0, 0.6255596611388609
900.0, 0.6948346349006257
901.0, 0.7672234052041652
902.0, 0.8357028635615348
903.0, 0.9079329004291199
904.0, 0.9656190936348336
905.0, 0.9959196231165028
906.0, 0.9950659573329497
907.0, 0.9618740397402723
908.0, 0.8993108786728036
909.0, 0.8092159275849379
910.0, 0.7127540378514228
911.0, 0.6116440622299237
912.0, 0.5224798508896664
913.0, 0.4451109353274571
914.0, 0.3783052819983677
915.0, 0.3223494720068732
916.0, 0.2742279928688241
917.0, 0.23281272993159297
918.0, 0.20040513152536713
919.0, 0.1760419302503331
920.0, 0.14901013257526616
921.0, 0.12945046069523386
922.0, 0.11342814708238287
923.0, 0.09738795123245082
924.0, 0.08299072425010054
925.0, 0.07007090102930734
926.0, 0.05965641547897013
927.0, 0.05517367039590676
928.0, 0.04777419136199457
929.0, 0.04194240909926833
930.0, 0.03726727952257222
931.0, 0.03075397206020122
932.0, 0.024992430782631896
933.0, 0.016851720807491637
934.0, 0.013468839978800353
935.0, 0.01634742394511537
936.0, 0.0124243233417714
937.0, 0.008738981334712197
938.0, 0.008644226100186737
939.0, 0.009412031936120592
940.0, 0.009137499269638506
941.0, 0.004992633301069707
942.0, 0.003751896035046431
943.0, 0.002332297815539325
944.0, 0.0017653483318199185
945.0, 0.0022035781244069846
946.0, 0.0013712197415869278
947.0, 0.003160573570316232
948.0, 0.004228766344594125
949.0, 3.6512751690667893e-05
950.0, 0.0017345222749753065
951.0, 0.0012341344261555768
952.0, 0.0003880224984804958
953.0, 0.00229419050817775
954.0, 0.002427214317442536
955.0, 0.002804348990979919
956.0, 0.004291751923596028
957.0, 0.0025394148200664447
958.0, 0.0033450033982079562
959.0, 0.00045807549318417813
960.0, 0.0008232953577721282
961.0, 0.0004394461797509008
962.0, 0.0016121932506278716
963.0, 0.0008409028426073969
964.0, 0.0008094371292385405
965.0, 0.0030040438028022345
966.0, 0.0031560951207817924
967.0, 0.004987160780037003
968.0, 0.004079505128705858
969.0, 0.006365160940774078
970.0, 0.004981442076862841
971.0, 0.006875093076322156
972.0, 0.007575572305898722
973.0, 0.007046882267407246
974.0, 0.004999020973370655
975.0, 0.0031106118619676723
976.0, 0.003184434131040166
977.0, 0.003037095952242877
978.0, 0.0028209298588043443
979.0, 0.0013563132569343877
980.0, 0.0016791095807266187
981.0, 0.0006592742096866225
982.0, 0.0015103283663119524
983.0, 0.0011561065829930055
984.0, 0.0009183344437919076
985.0, 0.0012347235568989667
986.0, 0.0025564104133096234
987.0, 0.00023711481846753536
988.0, 0.0003952236643607798
989.0, 0.002104701908319716
990.0, 0.003979357369060794
991.0, 0.003666312716473187
992.0, 0.0017081952438420304
993.0, 0.002719245816839194
994.0, 0.0037104304557256875
995.0, 0.002245946377793313
996.0, 0.0028366412550064266
997.0, 0.005196316366125159
998.0, 0.0043802202105756565
999.0, 0.0039245165071745275
1000.0, 0.005135144518965098
1001.0, 0.008579385011085601
1002.0, 0.010176055907434388
1003.0, 0.006299473219586539
1004.0, 0.008443164867346307
1005.0, 0.011541815846562256
1006.0, 0.010745935188755527
1007.0, 0.00973421398843539
1008.0, 0.009442519844941134
1009.0, 0.010134308985007251
1010.0, 0.014218972713122844
1011.0, 0.017106052299793832
1012.0, 0.018255259912352103
1013.0, 0.018931104597583095
1014.0, 0.0178426655576343
1015.0, 0.019639892581590393
1016.0, 0.024001151895481163
1017.0, 0.026484744951732087
1018.0, 0.02797615013904614
1019.0, 0.03041058485857068
1020.0, 0.030403650796120542
1021.0, 0.032068590150701924
1022.0, 0.041130428364913776
1023.0, 0.04141999256061382
1024.0, 0.04331792643510777
1025.0, 0.04502271456500347
1026.0, 0.04855217153174062
1027.0, 0.04805684810343109
1028.0, 0.052933872254253986
1029.0, 0.05328565945417899
1030.0, 0.049625372928475096
1031.0, 0.04686838989805715
1032.0, 0.04161814139044183
1033.0, 0.03823134302816988
1034.0, 0.03365108272132023
1035.0, 0.02813340840029437
1036.0, 0.025272714170322886
1037.0, 0.02175216461179148
1038.0, 0.020043937390406684
1039.0, 0.01828166733013479
1040.0, 0.016782078765868694
1041.0, 0.016007711132234294
1042.0, 0.013906157350264852
1043.0, 0.011892712788127178
1044.0, 0.00988844749327217
1045.0, 0.008033868849350699
1046.0, 0.008127770198232
1047.0, 0.007504090850321127
1048.0, 0.0071868101285355165
1049.0, 0.00890453146321601
1050.0, 0.006418159633143583
1051.0, 0.006313819800537893
1052.0, 0.006770015401072867
1053.0, 0.008080934344725654
1054.0, 0.005614095217314251
1055.0, 0.0013483915710639587
1056.0, 0.0028733663212151222
1057.0, 0.005755441315036764
1058.0, 0.002248752222760266
1059.0, 0.0057495023624573845
1060.0, 0.007925929725197164
1061.0, 0.0040349059165545546
1062.0, 0.0024994173298339925
1063.0, 0.0038663699028549316
1064.0, 0.0041498272285279015
1065.0, 0.001727267149338425
1066.0, 0.0021160690660590093
1067.0, 0.0020174590969422486
1068.0, 0.0024316706600238237
1069.0, 0.005530001002232534
1070.0, 0.005297036162323774
1071.0, 0.0028520527522487835
1072.0, 0.0007909477412665983
1073.0, 0.0005522958465978073
1074.0, 0.003792530349327241
1075.0, 0.0046260221877339235
1076.0, 0.005133050287084388
1077.0, 0.0042261277918599184
1078.0, 0.0026626043636346526
1079.0, 0.0006586711096304709
1080.0, 0.00123735551944228
1081.0, 0.0038969850322389276
1082.0, 0.0038773433535923374
1083.0, 0.003318989929410544
1084.0, 0.006777494666539047
1085.0, 0.00790850994214407
1086.0, 0.004029431519915613
1087.0, 0.0030793967780835783
1088.0, 0.0020193433292580052
1089.0, 0.003501916861619174
1090.0, 0.0014983617511778037
1091.0, 0.0007130599072663436
1092.0, 0.00037235003724722714
1093.0, 0.001149191431381679
1094.0, 0.002263977286294156
1095.0, 0.002346886577528178
1096.0, 0.0026142334767869043
1097.0, 0.002212540988162289
1098.0, 0.002443865071649009
1099.0, 0.0012259469949646112
1100.0, 0.004887869805264106
1101.0, 0.0023729640619181078
1102.0, 0.003408287228301534
1103.0, 0.0046394976363460455
1104.0, 0.0021233049070317235
1105.0, 0.002140370262965411
1106.0, 0.0007809441849467107
1107.0, 0.0006005636909712198
1108.0, 0.0001745236163503465
1109.0, 0.0013792116094063491
1110.0, 0.002548461839684247
1111.0, 0.00209727911246532
1112.0, 0.0011694908183895825
1113.0, 0.0006895936103020251
1114.0, 0.00203181811676636
1115.0, 0.0033160315335571773
1116.0, 0.0012709964749892807
1117.0, 0.0005472502684509443
1118.0, 0.0025839610449912846
1119.0, 0.0007277947873735127
1120.0, 0.0013855239431534315
1121.0, 0.002084457218709126
1122.0, 0.0024673687927444636
1123.0, 0.0031110622653213542
1124.0, 0.0042057611266216426
1125.0, 0.002204760017601493
1126.0, 0.0020828398273957157
1127.0, 0.002122459548273404
1128.0, 0.0017578999604269477
1129.0, 0.002372175130202633
1130.0, 0.001953758563225465
1131.0, 0.0004870282266308179
1132.0, 0.0003596197988079137
1133.0, 0.002336717049562014
1134.0, 0.003140197403745724
1135.0, 0.004871485488662977
1136.0, 0.004752869522893047
1137.0, 0.001736986175675489
1138.0, 0.0010206146787248896
1139.0, 0.0035999138222513956
1140.0, 0.0036489703891444862
1141.0, 0.001288018581238963
1142.0, 0.0015569130775419712
1143.0, 0.003334644794936803
1144.0, 0.004682997125540818
1145.0, 0.002800613061696673
1146.0, 0.00313833671276868
1147.0, 0.0011807828077672273
1148.0, 0.004397540518987759
1149.0, 0.005168136589285765
1150.0, 0.005179692398116142
1151.0, 0.004178454201525681
1152.0, 0.002082698726220419
1153.0, 0.0034025376197532467
1154.0, 0.00505462835242048
1155.0, 0.002597401478229807
1156.0, 0.002077112174119566
1157.0, 0.0041000539725213085
1158.0, 0.0035122219384028154
1159.0, 0.004762661727739637
1160.0, 0.0058546459783187345
1161.0, 0.004401462332752675
1162.0, 0.0003238806287580297
1163.0, 0.004379587567931841
1164.0, 0.004665756773603645
1165.0, 0.0002736957031703328
1166.0, 0.004477312842372603
1167.0, 0.007196338437718774
1168.0, 0.005713340508864587
1169.0, 0.005984262460757175
1170.0, 0.005756150455648784
1171.0, 0.0033176324841164557
1172.0, 0.0026518025385097897
1173.0, 0.003642315841543324
1174.0, 0.004571851496270464
1175.0, 0.005191815071519076
1176.0, 0.005198845927170983
1177.0, 0.0056649034331124675
1178.0, 0.002626422016006969
1179.0, 0.0040576021903931435
1180.0, 0.005173614384836489
1181.0, 0.005681547100957987
1182.0, 0.0033563335347172626
1183.0, 0.004280675622033823
1184.0, 0.0018021408828963947
1185.0, 0.002275983281008686
1186.0, 0.003207711452384824
1187.0, 0.00048107441774841123
1188.0, 0.0023722005451212525
1189.0, 0.0027998796381126815
1190.0, 0.004976109058285302
1191.0, 0.005026855050344742
1192.0, 0.00373215168198088
1193.0, 0.0027728188029829213
1194.0, 0.0029226983276475485
1195.0, 0.0038170229389347444
1196.0, 0.0014597977778429579
1197.0, 0.002034790882675868
1198.0, 0.003963285057116125
1199.0, 0.00032118431800390567
1200.0, 0.000876334160038734
1201.0, 0.0003108167321234308
1202.0, 0.0028498160460247424
1203.0, 0.0014607573627611903
1204.0, 0.0030434950761117807
1205.0, 0.004601427098579172
1206.0, 0.0010495573894188138
1207.0, 0.0003773908952016022
1208.0, 0.0024351564431009448
1209.0, 0.003303321083730885
1210.0, 0.0033029326435666828
1211.0, 0.0025031164040565414
1212.0, 0.0008588760984456758
1213.0, 0.0029110151165607405
1214.0, 0.004665285638423844
1215.0, 0.0034025594869109004
1216.0, 0.0067222803580048625
1217.0, 0.005705501096159266
1218.0, 0.006486159370590642
1219.0, 0.0068629313767695046
1220.0, 0.008257491507917332
1221.0, 0.01044491109910665
1222.0, 0.010476239075351992
1223.0, 0.01128896340692724
1224.0, 0.010707271645690063
1225.0, 0.00807428202936653
1226.0, 0.011879703552716187
1227.0, 0.01343911469233829
1228.0, 0.01101619622820577
1229.0, 0.009337551628942863
1230.0, 0.0059599739890967215
1231.0, 0.007609449768051649
1232.0, 0.007827418943980065
1233.0, 0.003564070958941102
1234.0, 0.003243393234488235
1235.0, 0.004825336725038515
1236.0, 0.004526298307959857
1237.0, 0.006399381589734559
1238.0, 0.006205729071836072
1239.0, 0.0076146056002964965
1240.0, 0.006335302381044907
1241.0, 0.0034206011475469743
1242.0, 0.005504520465913462
1243.0, 0.0070771673266453086
1244.0, 0.00633652984231482
1245.0, 0.00690820795067681
1246.0, 0.007752146910110819
1247.0, 0.006994285585973755
1248.0, 0.004440674023337509
1249.0, 0.00869504454155659
1250.0, 0.006693028762851619
1251.0, 0.0012607641765026573
1252.0, 0.0011147767121555661
1253.0, 0.004326817196958123
1254.0, 0.0038919845977963374
1255.0, 0.002265792267715729
1256.0, 0.002098177222620877
1257.0, 0.0031169689752248713
1258.0, 0.0020154620923608455
1259.0, 0.0008104863844008873
1260.0, 0.001066430289517371
1261.0, 0.0014398083320876069
1262.0, 0.0031804776478913674
1263.0, 0.0032718982786232474
1264.0, 0.006881343743735365
1265.0, 0.004983952142440521
1266.0, 0.002898502405905088
1267.0, 0.0020639597000657282
1268.0, 0.004235269541391182
1269.0, 0.003677371898383623
1270.0, 0.005510773015254792
1271.0, 0.005959790958515696
1272.0, 0.003870616830880928
1273.0, 0.003954810255890674
1274.0, 0.00479418584295102
1275.0, 0.004913896359995731
1276.0, 0.0006991172725013406
1277.0, 0.00458571293178798
1278.0, 0.0017902449963879258
1279, 0.0
1280, 0.0
1281, 0.0
1282, 0.0
1283, 0.0
1284, 0.0
1285, 0.0
1286, 0.0
1287, 0.0
1288, 0.0
1289, 0.0
1290, 0.0
1291, 0.0
1292, 0.0
1293, 0.0
1294, 0.0
1295, 0.0
1296, 0.0
1297, 0.0
1298, 0.0
1299, 0.0
1300, 0.0
1301, 0.0
1302, 0.0
1303, 0.0
1304, 0.0
1305, 0.0
1306, 0.0
1307, 0.0
1308, 0.0
1309, 0.0
1310, 0.0
1311, 0.0
1312, 0.0
1313, 0.0
1314, 0.0
1315, 0.0
1316, 0.0
1317, 0.0
1318, 0.0
1319, 0.0
1320, 0.0
1321, 0.0
1322, 0.0
1323, 0.0
1324, 0.0
1325, 0.0
1326, 0.0
1327, 0.0
1328, 0.0
1329, 0.0
1330, 0.0
1331, 0.0
1332, 0.0
1333, 0.0
1334, 0.0
1335, 0.0
1336, 0.0
1337, 0.0
1338, 0.0
1339, 0.0
1340, 0.0
1341, 0.0
1342, 0.0
1343, 0.0
1344, 0.0
1345, 0.0
1346, 0.0
1347, 0.0
1348, 0.0
1349, 0.0
1350, 0.0
1351, 0.0
1352, 0.0
1353, 0.0
1354, 0.0
1355, 0.0
1356, 0.0
1357, 0.0
1358, 0.0
1359, 0.0
1360, 0.0
1361, 0.0
1362, 0.0
1363, 0.0
1364, 0.0
1365, 0.0
1366, 0.0
1367, 0.0
1368, 0.0
1369, 0.0
1370, 0.0
1371, 0.0
1372, 0.0
1373, 0.0
1374, 0.0
1375, 0.0
1376, 0.0
1377, 0.0
1378, 0.0
1379, 0.0
1380, 0.0
1381, 0.0
1382, 0.0
1383, 0.0
1384, 0.0
1385, 0.0
1386, 0.0
1387, 0.0
1388, 0.0
1389, 0.0
1390, 0.0
1391, 0.0
1392, 0.0
1393, 0.0
1394, 0.0
1395, 0.0
1396, 0.0
1397, 0.0
1398, 0.0
1399, 0.0
1400, 0.0
1401, 0.0
1402, 0.0
1403, 0.0
1404, 0.0
1405, 0.0
1406, 0.0
1407, 0.0
1408, 0.0
1409, 0.0
1410, 0.0
1411, 0.0
1412, 0.0
1413, 0.0
1414, 0.0
1415, 0.0
1416, 0.0
1417, 0.0
1418, 0.0
1419, 0.0
1420, 0.0
1421, 0.0
1422, 0.0
1423, 0.0
1424, 0.0
1425, 0.0
1426, 0.0
1427, 0.0
1428, 0.0
1429, 0.0
1430, 0.0
1431, 0.0
1432, 0.0
1433, 0.0
1434, 0.0
1435, 0.0
1436, 0.0
1437, 0.0
1438, 0.0
1439, 0.0
1440, 0.0
1441, 0.0
1442, 0.0
1443, 0.0
1444, 0.0
1445, 0.0
1446, 0.0
1447, 0.0
1448, 0.0
1449, 0.0
1450, 0.0
1451, 0.0
1452, 0.0
1453, 0.0
1454, 0.0
1455, 0.0
1456, 0.0
1457, 0.0
1458, 0.0
1459, 0.0
1460, 0.0
1461, 0.0
1462, 0.0
1463, 0.0
1464, 0.0
1465, 0.0
1466, 0.0
1467, 0.0
1468, 0.0
1469, 0.0
1470, 0.0
1471, 0.0
1472, 0.0
1473, 0.0
1474, 0.0
1475, 0.0
1476, 0.0
1477, 0.0
1478, 0.0
1479, 0.0
1480, 0.0
1481, 0.0
1482, 0.0
1483, 0.0
1484, 0.0
1485, 0.0
1486, 0.0
1487, 0.0
1488, 0.0
1489, 0.0
1490, 0.0
1491, 0.0
1492, 0.0
1493, 0.0
1494, 0.0
1495, 0.0
1496, 0.0
1497, 0.0
1498, 0.0
1499, 0.0
1500, 0.0
1501, 0.0
1502, 0.0
1503, 0.0
1504, 0.0
1505, 0.0
1506, 0.0
1507, 0.0
1508, 0.0
1509, 0.0
1510, 0.0
1511, 0.0
1512, 0.0
1513, 0.0
1514, 0.0
1515, 0.0
1516, 0.0
1517, 0.0
1518, 0.0
1519, 0.0
1520, 0.0
1521, 0.0
1522, 0.0
1523, 0.0
1524, 0.0
1525, 0.0
1526, 0.0
1527, 0.0
1528, 0.0
1529, 0.0
1530, 0.0
1531, 0.0
1532, 0.0
1533, 0.0
1534, 0.0
1535, 0.0
1536, 0.0
1537, 0.0
1538, 0.0
1539, 0.0
1540, 0.0
1541, 0.0
1542, 0.0
1543, 0.0
1544, 0.0
1545, 0.0
1546, 0.0
1547, 0.0
1548, 0.0
1549, 0.0
1550, 0.0
1551, 0.0
1552, 0.0
1553, 0.0
1554, 0.0
1555, 0.0
1556, 0.0
1557, 0.0
1558, 0.0
1559, 0.0
1560, 0.0
1561, 0.0
1562, 0.0
1563, 0.0
1564, 0.0
1565, 0.0
1566, 0.0
1567, 0.0
1568, 0.0
1569, 0.0
1570, 0.0
1571, 0.0
1572, 0.0
1573, 0.0
1574, 0.0
1575, 0.0
1576, 0.0
1577, 0.0
1578, 0.0
1579, 0.0
1580, 0.0
1581, 0.0
1582, 0.0
1583, 0.0
1584, 0.0
1585, 0.0
1586, 0.0
1587, 0.0
1588, 0.0
1589, 0.0
1590, 0.0
1591, 0.0
1592, 0.0
1593, 0.0
1594, 0.0
1595, 0.0
1596, 0.0
1597, 0.0
1598, 0.0
1599, 0.0
