30, 0.0
31, 0.0
32, 0.0
33, 0.0
34, 0.0
35, 0.0
36, 0.0
37, 0.0
38, 0.0
39, 0.0
40, 0.0
41, 0.0
42, 0.0
43, 0.0
44, 0.0
45, 0.0
46, 0.0
47, 0.0
48, 0.0
49, 0.0
50, 0.0
51, 0.0
52, 0.0
53, 0.0
54, 0.0
55, 0.0
56, 0.0
57, 0.0
58, 0.0
59, 0.0
60, 0.0
61, 0.0
62, 0.0
63, 0.0
64, 0.0
65, 0.0
66, 0.0
67, 0.0
68, 0.0
69, 0.0
70, 0.0
71, 0.0
72, 0.0
73, 0.0
74, 0.0
75, 0.0
76, 0.0
77, 0.0
78, 0.0
79, 0.0
80, 0.0
81, 0.0
82, 0.0
83, 0.0
84, 0.0
85, 0.0
86, 0.0
87, 0.0
88, 0.0
89, 0.0
90, 0.0
91, 0.0
92, 0.0
93, 0.0
94, 0.0
95, 0.0
96, 0.0
97, 0.0
98, 0.0
99, 0.0
100, 0.0
101, 0.0
102, 0.0
103, 0.0
104, 0.0
105, 0.0
106, 0.0
107, 0.0
108, 0.0
109, 0.0
110, 0.0
111, 0.0
112, 0.0
113, 0.0
114, 0.0
115, 0.0
116, 0.0
117, 0.0
118, 0.0
119, 0.0
120, 0.0
121, 0.0
122, 0.0
123.0, 0.005763424614137666
124.0, 0.02441167792394513
125.0, 0.051453896772650734
126.0, 0.08172920460771209
127.0, 0.12930459460235347
128.0, 0.17525435966436256
129.0, 0.19072172199491547
130.0, 0.15082518254744293
131.0, 0.09672828909005417
132.0, 0.050434596165445184
133.0, 0.021254927884092258
134.0, 0.009475016805664736
135.0, 0.00655121923628094
136.0, 0.006565165659551642
137.0, 0.009112977757792533
138.0, 0.015986555454560517
139.0, 0.029832734726532063
140.0, 0.03887936505013945
141.0, 0.04357610238967129
142.0, 0.049242555007988645
143.0, 0.06425569987552886
144.0, 0.08710805689794689
145.0, 0.1079958972490472
146.0, 0.12026144976084133
147.0, 0.12213694423963987
148.0, 0.12664555574837136
149.0, 0.12936506424653066
150.0, 0.12632860074063323
151.0, 0.11638005366171549
152.0, 0.07853266854860139
153.0, 0.053667390729187775
154.0, 0.04519456021939661
155.0, 0.04606523441718892
156.0, 0.056324293661433364
157.0, 0.06545190718934339
158.0, 0.06569442114496271
159.0, 0.05526217641090881
160.0, 0.03973205558301159
161.0, 0.0397849545150167
162.0, 0.05139543912226145
163.0, 0.06856985630340948
164.0, 0.08865609881818999
165.0, 0.12067990339286119
166.0, 0.16098351043698553
167.0, 0.20246910318456054
168.0, 0.23870139082590766
169.0, 0.267074476944015
170.0, 0.2739858887067711
171.0, 0.27892182737162613
172.0, 0.2907190042767465
173.0, 0.28076754654902836
174.0, 0.24249297430561004
175.0, 0.20458254130161924
176.0, 0.18524848540957084
177.0, 0.18280511878247763
178.0, 0.18162806494901632
179.0, 0.16568715612246127
180.0, 0.13696552831340855
181.0, 0.10916178174900026
182.0, 0.09402011801362757
183.0, 0.07961830715460763
184.0, 0.07378336953260559
185.0, 0.08327781121581224
186.0, 0.09479219438764401
187.0, 0.10654436805637549
188.0, 0.1264406648699357
189.0, 0.15612511621551975
190.0, 0.18945868567441793
191.0, 0.2422637609830203
192.0, 0.24457628155615463
193.0, 0.2008721749204546
194.0, 0.15788485662894614
195.0, 0.13224464987668755
196.0, 0.12547950098289257
197.0, 0.13536867035417982
198.0, 0.15836819036695177
199.0, 0.19115369903850885
200.0, 0.22666929240157715
201.0, 0.2695423094627943
202.0, 0.32170259455025546
203.0, 0.37941125726752634
204.0, 0.4277349981887096
205.0, 0.4440262696690895
206.0, 0.4378250525687542
207.0, 0.42818958556431774
208.0, 0.4197962710353352
209.0, 0.41355531835806947
210.0, 0.3976844494242321
211.0, 0.36283856281739146
212.0, 0.3107412523548573
213.0, 0.2574939906551946
214.0, 0.20965281678630385
215.0, 0.1727639653794862
216.0, 0.14959944341525463
217.0, 0.11187122809775316
218.0, 0.08293757812942665
219.0, 0.06130344464642116
220.0, 0.03962046145943073
221.0, 0.018304198565884392
222.0, 0.017995200061818477
223.0, 0.01377548777442192
224.0, 0.011929244320281519
225.0, 0.010563756436546858
226.0, 0.009993923422184687
227.0, 0.009451117232455728
228.0, 0.00942375553647114
229.0, 0.009246593773552938
230.0, 0.008140739055404607
231.0, 0.010528832015857628
232.0, 0.011544160055288438
233.0, 0.010766083090820439
234.0, 0.01416123005373611
235.0, 0.01657274007281875
236.0, 0.024165686505243554
237.0, 0.03449426914203066
238.0, 0.04045203115942128
239.0, 0.05786179103239888
240.0, 0.07024194972056928
241.0, 0.08487991930665868
242.0, 0.10178810083048781
243.0, 0.10593544342606073
244.0, 0.10650823327627953
245.0, 0.104428071772053
246.0, 0.10044589883003104
247.0, 0.09557047901841083
248.0, 0.09225351524218504
249.0, 0.09599837614539011
250.0, 0.10850522113599717
251.0, 0.12634338624942532
252.0, 0.14055218875644293
253.0, 0.1534967540482134
254.0, 0.15574216110988456
255.0, 0.14402783270200406
256.0, 0.12274201495879003
257.0, 0.10690474877226314
258.0, 0.09743698033457657
259.0, 0.09691271992352492
260.0, 0.10273037789962164
261.0, 0.10586997082939657
262.0, 0.12053154034029723
263.0, 0.13358269401998893
264.0, 0.14093480549947388
265.0, 0.1442269087273609
266.0, 0.14164663238238076
267.0, 0.138292388957621
268.0, 0.13910913616202428
269.0, 0.14348255693792072
270.0, 0.14625179999644863
271.0, 0.14899181681270854
272.0, 0.15743231580010927
273.0, 0.1708054206443331
274.0, 0.18219134024804756
275.0, 0.17238123769572275
276.0, 0.15602651784565538
277.0, 0.13501276167520437
278.0, 0.11328306756899731
279.0, 0.09893032790839185
280.0, 0.09031965215603148
281.0, 0.08356672673555372
282.0, 0.07966275444936131
283.0, 0.07911897981638248
284.0, 0.07879519754828249
285.0, 0.08101356934213984
286.0, 0.08146496350682345
287.0, 0.08180721615987985
288.0, 0.0854867508313104
289.0, 0.08136703387761629
290.0, 0.08220655666285039
291.0, 0.0885933534522179
292.0, 0.1001303961770457
293.0, 0.12032148926513682
294.0, 0.1477378645643896
295.0, 0.17306606489166293
296.0, 0.20108567613043024
297.0, 0.23724546232027247
298.0, 0.2703225011791695
299.0, 0.28759394985019093
300.0, 0.29643163228303493
301.0, 0.30579505884304015
302.0, 0.3213567269444865
303.0, 0.33961827078211
304.0, 0.35108602427426866
305.0, 0.3470040336402372
306.0, 0.3211705711762277
307.0, 0.2738242283378677
308.0, 0.2206700418297056
309.0, 0.17711242766108376
310.0, 0.14949503461973604
311.0, 0.1356636994292869
312.0, 0.12504984786942647
313.0, 0.12394973742537471
314.0, 0.12784402348025753
315.0, 0.13450437482696587
316.0, 0.14534232121195761
317.0, 0.1649068476863623
318.0, 0.18826762065040764
319.0, 0.20578445789322997
320.0, 0.21376530034862076
321.0, 0.21624352455451998
322.0, 0.20260938361764178
323.0, 0.1833515694570505
324.0, 0.1620261579692722
325.0, 0.1401335738799562
326.0, 0.12708357695819938
327.0, 0.1204887815263676
328.0, 0.12066856677700613
329.0, 0.12543407177650862
330.0, 0.1317218006794601
331.0, 0.14715524246524161
332.0, 0.16388170167084157
333.0, 0.1844481082855234
334.0, 0.21175341629049851
335.0, 0.24399058296580578
336.0, 0.27315819545620823
337.0, 0.307993842193748
338.0, 0.3365478139010355
339.0, 0.3458099696642463
340.0, 0.3396420579524094
341.0, 0.3194846148462181
342.0, 0.29876514183423414
343.0, 0.2806181592205853
344.0, 0.262224915076397
345.0, 0.24649339887484553
346.0, 0.23287149977717478
347.0, 0.22864523532610234
348.0, 0.23291904483936215
349.0, 0.23771085015386764
350.0, 0.2427421788659158
351.0, 0.23149013753843609
352.0, 0.20154442790564667
353.0, 0.16090251392096308
354.0, 0.12215499758190786
355.0, 0.08052762849604213
356.0, 0.04992806081393711
357.0, 0.030430979706291317
358.0, 0.023229877339088708
359.0, 0.01791114478125435
360.0, 0.013177948319926544
361.0, 0.009912161407956713
362.0, 0.0064038966633060265
363.0, 0.005095301963891035
364.0, 0.0025223695517362214
365.0, 0.002866630758775823
366.0, 0.002232693719269754
367.0, 0.0006627795845982078
368.0, 0.0021002303151938444
369.0, 0.003703217832116753
370.0, 0.005933828860818198
371.0, 0.007373454860260779
372.0, 0.00998705558754365
373.0, 0.014052237249610649
374.0, 0.019365987471488627
375.0, 0.023886770928571274
376.0, 0.02920715572924145
377.0, 0.03936067850757927
378.0, 0.04856446489674093
379.0, 0.062086580886219996
380.0, 0.08769633194402748
381.0, 0.11168624816730637
382.0, 0.1317163238470174
383.0, 0.16656575918675154
384.0, 0.19760682510966587
385.0, 0.22116020260940203
386.0, 0.23934981779782724
387.0, 0.25295003358913004
388.0, 0.2573816875925033
389.0, 0.2412405437346826
390.0, 0.2224194795621878
391.0, 0.20458222753949196
392.0, 0.18431178410232116
393.0, 0.16174469958331256
394.0, 0.14340210041298784
395.0, 0.12622701374905396
396.0, 0.11388111361625161
397.0, 0.10883367502007531
398.0, 0.10245006908565092
399.0, 0.09921003730377537
400.0, 0.08869584766559407
401.0, 0.08145239862861403
402.0, 0.09062374662608833
403.0, 0.10490939152976053
404.0, 0.11633086730076704
405.0, 0.13340612509359087
406.0, 0.15809882828504673
407.0, 0.18784050853565357
408.0, 0.22423513777766735
409.0, 0.2600403297929438
410.0, 0.3033173264346205
411.0, 0.3558615773680323
412.0, 0.41119618212203457
413.0, 0.4620407491528234
414.0, 0.49651181140349776
415.0, 0.5218638897284609
416.0, 0.5327707651938698
417.0, 0.5228244618494238
418.0, 0.5078259962353582
419.0, 0.5043636466212074
420.0, 0.4891804701497208
421.0, 0.4583760603720184
422.0, 0.422885191363079
423.0, 0.3944110275021816
424.0, 0.37180731846145304
425.0, 0.34531526341611785
426.0, 0.3139727874041105
427.0, 0.2781999617621951
428.0, 0.22519148694034002
429.0, 0.18984277489388413
430.0, 0.15846857982599566
431.0, 0.1287580603064628
432.0, 0.10848984476860692
433.0, 0.08978209143009638
434.0, 0.07109413880133435
435.0, 0.06323298104970074
436.0, 0.06268395106981249
437.0, 0.06002485348484084
438.0, 0.05910082592484055
439.0, 0.0728266790462582
440.0, 0.08029104226409763
441.0, 0.07979375495930212
442.0, 0.08046366537991516
443.0, 0.078436812882811
444.0, 0.07077783933145423
445.0, 0.0573637242450327
446.0, 0.04118929308589682
447.0, 0.02554590452514686
448.0, 0.01655361068260411
449.0, 0.013644220204028517
450.0, 0.009363924356867755
451.0, 0.0064967404281988305
452.0, 0.0039091664707307724
453.0, 0.003647339146498037
454.0, 0.002066811987582167
455.0, 0.002744880452450819
456.0, 0.0024172601799189648
457.0, 0.0011525249128590974
458.0, 0.002996517488479053
459.0, 0.005207767814835577
460.0, 0.0066895150357805366
461.0, 0.00735426866250019
462.0, 0.010450065992862908
463.0, 0.015722947191045316
464.0, 0.022768851575772953
465.0, 0.03160529829987934
466.0, 0.04247007486434319
467.0, 0.05527514849469014
468.0, 0.06847297743099964
469.0, 0.07894741258764401
470.0, 0.09109590588165964
471.0, 0.09914505414137749
472.0, 0.10925934138225153
473.0, 0.1330972186027335
474.0, 0.1553741216078724
475.0, 0.17642583229006137
476.0, 0.20364847404810144
477.0, 0.2363067415205774
478.0, 0.27137577261860263
479.0, 0.3138252401012665
480.0, 0.33978184796648514
481.0, 0.3499655604209
482.0, 0.3459144861455737
483.0, 0.3318994709906627
484.0, 0.3165630866411194
485.0, 0.23613299985178937
486.0, 0.16955439155837485
487.0, 0.12621615879003045
488.0, 0.09465866771085134
489.0, 0.07728068779015254
490.0, 0.06391498345337876
491.0, 0.0624540406626005
492.0, 0.06263304142154802
493.0, 0.06016101686627874
494.0, 0.06261423747539187
495.0, 0.06648090293326563
496.0, 0.06558431937701789
497.0, 0.07771519982120169
498.0, 0.09446727574363964
499.0, 0.09932179379846201
500.0, 0.1089484471834031
501.0, 0.1145342254495886
502.0, 0.11910508212268084
503.0, 0.1208183048398672
504.0, 0.11717401953545709
505.0, 0.11131946497828744
506.0, 0.10494109453910697
507.0, 0.09861726729286634
508.0, 0.09103032615892882
509.0, 0.08046938780889368
510.0, 0.06829224152471029
511.0, 0.06501240951875652
512.0, 0.05373298485168062
513.0, 0.03795651446394126
514.0, 0.024568683688957586
515.0, 0.018405690749348107
516.0, 0.01621816599065565
517.0, 0.012083992955945626
518.0, 0.009438066083679088
519.0, 0.007023862843446796
520.0, 0.007176444133023325
521.0, 0.005644406399536845
522.0, 0.006517953588687871
523.0, 0.0060716687282263565
524.0, 0.004402858745096151
525.0, 0.006213230846193593
526.0, 0.008213133561369513
527.0, 0.009168684565478343
528.0, 0.00908684845746403
529.0, 0.011748088074684306
530.0, 0.014805302994005393
531.0, 0.01896375891341877
532.0, 0.02393145720052959
533.0, 0.03223984457673861
534.0, 0.033553888748517426
535.0, 0.0335124942431472
536.0, 0.036895105308438994
537.0, 0.03702125295266506
538.0, 0.041375704560023256
539.0, 0.04839945690385036
540.0, 0.054403360502319024
541.0, 0.05715630495177047
542.0, 0.05820904736164157
543.0, 0.06654421311128854
544.0, 0.06646662011842834
545.0, 0.07238403068540014
546.0, 0.07783060267108953
547.0, 0.07623101442755052
548.0, 0.08507762031906714
549.0, 0.08830057110064089
550.0, 0.09326035074309924
551.0, 0.09723306632573389
552.0, 0.10337478450166959
553.0, 0.11852761598144741
554.0, 0.12267294987644438
555.0, 0.138003852287887
556.0, 0.1501847512609485
557.0, 0.15633041398797695
558.0, 0.16200806012950555
559.0, 0.1660162415103457
560.0, 0.1657692785609915
561.0, 0.164735122938635
562.0, 0.16444183683918145
563.0, 0.16490695539297964
564.0, 0.1671086383129199
565.0, 0.17512462093359843
566.0, 0.1889223308441112
567.0, 0.1944110646158197
568.0, 0.19841507027764926
569.0, 0.20690078027739114
570.0, 0.2043842122506802
571.0, 0.20775675514369032
572.0, 0.20438646894686893
573.0, 0.1978479212957519
574.0, 0.1972963103254684
575.0, 0.20418655443755912
576.0, 0.2041409758760553
577.0, 0.20552163564154052
578.0, 0.20797508372024287
579.0, 0.21353485651398238
580.0, 0.22233824229019838
581.0, 0.22867808907324336
582.0, 0.23116550147802295
583.0, 0.24679576824603583
584.0, 0.2570518349772217
585.0, 0.2571215491787015
586.0, 0.25224986800049987
587.0, 0.23603265882438307
588.0, 0.21950387445076922
589.0, 0.19771306502761127
590.0, 0.17358213198903627
591.0, 0.15526365862379815
592.0, 0.14719263855152098
593.0, 0.1392554400273636
594.0, 0.1321472848841124
595.0, 0.12560333444940036
596.0, 0.1234928035777395
597.0, 0.12617460507609427
598.0, 0.12739308592217682
599.0, 0.12644432475563303
600.0, 0.1300759482790181
601.0, 0.13681398327653904
602.0, 0.14161364560718098
603.0, 0.14382689554977754
604.0, 0.15133193534197767
605.0, 0.15330718724765316
606.0, 0.1546567416177883
607.0, 0.1540279516060379
608.0, 0.1551497156794802
609.0, 0.16350066347974307
610.0, 0.1650277486955255
611.0, 0.1574730412546652
612.0, 0.15651090191911993
613.0, 0.1610572180276425
614.0, 0.16236712225979066
615.0, 0.156587693161947
616.0, 0.15580833933731866
617.0, 0.16119471958758536
618.0, 0.1566575446187248
619.0, 0.14312833049808127
620.0, 0.13173376769515496
621.0, 0.124971655359854
622.0, 0.10673519338372657
623.0, 0.08779528473307861
624.0, 0.07416135729812649
625.0, 0.06435855209742913
626.0, 0.055009565305944065
627.0, 0.04614922787579895
628.0, 0.03723594378925188
629.0, 0.03352452872259564
630.0, 0.03246290080045402
631.0, 0.025553144591524676
632.0, 0.012779126430547391
633.0, 0.010171446922667665
634.0, 0.004473582653109603
635.0, 0.009174279437045853
636.0, 0.009357043895395165
637.0, 0.006009422132881156
638.0, 0.007694059746165472
639.0, 0.003824285479560647
640.0, 0.007145040253657891
641.0, 0.005587542926842243
642.0, 0.008622309980012805
643.0, 0.010559685209005923
644.0, 0.012154810628286673
645.0, 0.00634846830965729
646.0, 0.007470418623507756
647.0, 0.006218301821917121
648.0, 0.0043524260917989065
649.0, 0.007095469873457677
650.0, 0.01015794709933156
651.0, 0.013316843902518817
652.0, 0.015023149851851105
653.0, 0.012686221662832202
654.0, 0.007014244266101773
655.0, 0.004539175081483811
656.0, 0.004368444126224512
657.0, 0.0051619467764968735
658.0, 0.009321516573462982
659.0, 0.013585262489302965
660.0, 0.01927338263014167
661.0, 0.024833936295530493
662.0, 0.027126725499258424
663.0, 0.04806618314507614
664.0, 0.05731722358446094
665.0, 0.06608194688945367
666.0, 0.07647514337388454
667.0, 0.08591325586300388
668.0, 0.09756274935147248
669.0, 0.10886945749594497
670.0, 0.12940617323525772
671.0, 0.14988899724051485
672.0, 0.17108115781354694
673.0, 0.1947985760321229
674.0, 0.21568329678976947
675.0, 0.23715360969774893
676.0, 0.2596207081790206
677.0, 0.2637083972433104
678.0, 0.2555362626930132
679.0, 0.24056555980486719
680.0, 0.21616816687621965
681.0, 0.19991137866475217
682.0, 0.17132450016032702
683.0, 0.14509271002648552
684.0, 0.12351498887169954
685.0, 0.10550494590384998
686.0, 0.09435526674327406
687.0, 0.07750351704778503
688.0, 0.07367907420108927
689.0, 0.07260009405898227
690.0, 0.07812471431562026
691.0, 0.08709341487760228
692.0, 0.08707250959864257
693.0, 0.08686533291679835
694.0, 0.09123655657313698
695.0, 0.10212102892866551
696.0, 0.11581984842442947
697.0, 0.13182269723496132
698.0, 0.1513140968837985
699.0, 0.17520972838030296
700.0, 0.20835413511710477
701.0, 0.24953426309729212
702.0, 0.28041500049677515
703.0, 0.3148823827227585
704.0, 0.36829293290289516
705.0, 0.41188480770077646
706.0, 0.4853427724649227
707.0, 0.5509735440236663
708.0, 0.6254380732480903
709.0, 0.7117522403961486
710.0, 0.7966472201719638
711.0, 0.879382835291208
712.0, 0.9557008521063388
713.0, 0.9972448119790333
714.0, 0.9703487675618869
715.0, 0.9125303336220054
716.0, 0.8432183014138347
717.0, 0.735227721861839
718.0, 0.6092910865628549
719.0, 0.4944093456561666
720.0, 0.40413236873006786
721.0, 0.33110176219666165
722.0, 0.26978045952960894
723.0, 0.22022897090555427
724.0, 0.17775779877666822
725.0, 0.15025532300645003
726.0, 0.12280229263229983
727.0, 0.09404811888966721
728.0, 0.08091966027132289
729.0, 0.08280981441938176
730.0, 0.07166335375149294
731.0, 0.06958864331263213
732.0, 0.055425611317313404
733.0, 0.04686961857731586
734.0, 0.042768987333368265
735.0, 0.03734820653419933
736.0, 0.03445776047973977
737.0, 0.033762432736656835
738.0, 0.025757026654208356
739.0, 0.02505373944539142
740.0, 0.027017423467308913
741.0, 0.025622150561687918
742.0, 0.02411962181921459
743.0, 0.02451063633177935
744.0, 0.023487184023187228
745.0, 0.02689806409912172
746.0, 0.027349812675040202
747.0, 0.027627561210884204
748.0, 0.03226273861099016
749.0, 0.036539552953221
750.0, 0.03613371217961714
751.0, 0.03699203057807992
752.0, 0.04371947143026117
753.0, 0.053259207918535625
754.0, 0.06178314782933447
755.0, 0.06806425160892637
756.0, 0.07045184032002809
757.0, 0.07643120817676173
758.0, 0.0804925832016473
759.0, 0.09228991649476107
760.0, 0.10195201253186113
761.0, 0.10623576019092909
762.0, 0.11813294665587937
763.0, 0.12716000861530596
764.0, 0.1327183579603069
765.0, 0.1305621898208907
766.0, 0.1344658458770195
767.0, 0.13690302459941245
768.0, 0.12809955174068657
769.0, 0.1270467015507358
770.0, 0.12026119598093535
771.0, 0.10685023574406874
772.0, 0.09696271141308502
773.0, 0.0919673121557359
774.0, 0.08543971134074999
775.0, 0.07326418430083105
776.0, 0.0653405950063229
777.0, 0.05430108990410407
778.0, 0.04473304476607678
779.0, 0.041403099185390695
780.0, 0.04020204375629835
781.0, 0.03454858580910683
782.0, 0.024377094516773817
783.0, 0.022640091063916214
784.0, 0.02270628768073794
785.0, 0.0195845296261739
786.0, 0.01756247049161275
787.0, 0.015627793452168536
788.0, 0.015947635421036593
789.0, 0.0141949759585875
790.0, 0.014204702760803326
791.0, 0.012512236239714062
792.0, 0.00928525703315791
793.0, 0.009238931144134595
794.0, 0.00866025524688859
795.0, 0.006805042868641569
796.0, 0.007808766927119566
797.0, 0.013610175105905219
798.0, 0.007228509198701705
799.0, 0.006855401045021735
800.0, 0.009574920856484948
801.0, 0.0066554640119601055
802.0, 0.01043960247282075
803.0, 0.006991717919655677
804.0, 0.007542335512842513
805.0, 0.0055083723150024366
806.0, 0.008939132242649351
807.0, 0.005185011236680749
808.0, 0.009163046176068324
809.0, 0.008127999937422924
810.0, 0.0043862055075640505
811.0, 0.005409229125753695
812.0, 0.008371218064484525
813.0, 0.007620202407523137
814.0, 0.004552965280375217
815.0, 0.006568740731390944
816.0, 0.01321505482101092
817.0, 0.008617533402022851
818.0, 0.004471953479504333
819.0, 0.005882482259963508
820.0, 0.014025529925060053
821.0, 0.03334116569565607
822.0, 0.0381976894272247
823.0, 0.03973286988002973
824.0, 0.031880969179454
825.0, 0.03174681505739757
826.0, 0.029741991482702748
827.0, 0.030941615704781635
828.0, 0.0334241864509434
829.0, 0.03295153943089644
830.0, 0.03672984535416915
831.0, 0.04135997728211412
832.0, 0.03474957787500763
833.0, 0.042247826153958196
834.0, 0.050667090296271415
835.0, 0.05121583856264305
836.0, 0.053109914034794654
837.0, 0.060129522884264666
838.0, 0.05522088309098037
839.0, 0.05348435489125196
840.0, 0.05859829965142401
841.0, 0.056032372295854053
842.0, 0.05328935897175635
843.0, 0.06219622834325344
844.0, 0.06816487136398802
845.0, 0.06023571560699979
846.0, 0.07406341922575983
847.0, 0.081153108505569
848.0, 0.08469018787612909
849.0, 0.08801240619229266
850.0, 0.08999206579842262
851.0, 0.09146158581878294
852.0, 0.0789760150885123
853.0, 0.08639047256324095
854.0, 0.07616537753963341
855.0, 0.07404740631093794
856.0, 0.07303245951030743
857.0, 0.06673181738395574
858.0, 0.0739403095920747
859.0, 0.07944580763763398
860.0, 0.07272397485629821
861.0, 0.07222413662284055
862.0, 0.07579859492409798
863.0, 0.0795580474565839
864.0, 0.07813800949532362
865.0, 0.07175553623195301
866.0, 0.07231867702462297
867.0, 0.06499154448577706
868.0, 0.06927663689669505
869.0, 0.05707987882806901
870.0, 0.053388913531437085
871.0, 0.05942273135316144
872.0, 0.05957779277117444
873.0, 0.06510749553156417
874.0, 0.06575100983580967
875.0, 0.06083670667339857
876.0, 0.06731359496624598
877.0, 0.0752049635598045
878.0, 0.08171175442514315
879.0, 0.0863758490124141
880.0, 0.09006368121653786
881.0, 0.10024968571177183
882.0, 0.10274433594497051
883.0, 0.11796392301674158
884.0, 0.13803864719819506
885.0, 0.15844315499219505
886.0, 0.1839032772386971
887.0, 0.21454927465352977
888.0, 0.2452380927567881
889.0, 0.29220698961711017
890.0, 0.3328140462624717
891.0, 0.37109992033184347
892.0, 0.417656915281198
893.0, 0.457064035355292
894.0, 0.48139762283619897
895.0, 0.5066813491316053
896.0, 0.5407047689760043
897.0, 0.5632742078508579
898.0, 0.5721266423669492
899.0, 0.5606573290966802
900.0, 0.5506401944292788
901.0, 0.5311386466887177
902.0, 0.4894538789041651
903.0, 0.4555175200176781
904.0, 0.4228312904440745
905.0, 0.38995170816745034
906.0, 0.3524928088192167
907.0, 0.31456931966839646
908.0, 0.28310633023333925
909.0, 0.2535261010129468
910.0, 0.21498936328166904
911.0, 0.17588215447291158
912.0, 0.15353306605011832
913.0, 0.11722367755599912
914.0, 0.09277882823069082
915.0, 0.07323591578060686
916.0, 0.060773982949484044
917.0, 0.0522536339348452
918.0, 0.031455340409882133
919.0, 0.019912285821383886
920.0, 0.01990694915599487
921.0, 0.012335239043037897
922.0, 0.006824828510333127
923.0, 0.007203513540341178
924.0, 0.009234735457913177
925.0, 0.005223135606307361
926.0, 0.0038224980854118405
927.0, 0.004600462126209575
928.0, 0.007898085429512945
929.0, 0.010725511826120433
930.0, 0.016914251296441647
931.0, 0.017259943816528765
932.0, 0.016460396993065254
933.0, 0.01885519612590772
934.0, 0.006135246938240022
935.0, 0.013302058929287552
936.0, 0.026065681849065263
937.0, 0.0362851433479349
938.0, 0.049409792427121
939.0, 0.05542075052536757
940.0, 0.06815072783468454
941.0, 0.10075981847408962
942.0, 0.12234515302340722
943.0, 0.14249759924881025
944.0, 0.17621274385383373
945.0, 0.19727583700207768
946.0, 0.20797892234908796
947.0, 0.23097504577284866
948.0, 0.2618448522098711
949.0, 0.2857118552613178
950.0, 0.3132604842807163
951.0, 0.31891443706455436
952.0, 0.3457262483007041
953.0, 0.37847778234793933
954.0, 0.41885303795664697
955.0, 0.4695568201385257
956.0, 0.5209954957079218
957.0, 0.5713946745852092
958.0, 0.6294413864629032
959.0, 0.663547432155348
960.0, 0.6691395626614703
961.0, 0.6838924169209603
962.0, 0.6645251310854131
963.0, 0.6276887595753939
964.0, 0.5861581972606825
965.0, 0.5405253028449897
966.0, 0.5158906057825493
967.0, 0.5085307327198154
968.0, 0.48547028755639204
969.0, 0.4802706556556939
970.0, 0.4918013437245684
971.0, 0.4928276212825354
972.0, 0.4935167995023987
973.0, 0.5055074075167996
974.0, 0.5133814183763021
975.0, 0.521745382971391
976.0, 0.5033602192698312
977.0, 0.4906384180417652
978.0, 0.46620818962555344
979.0, 0.4498820090698491
980.0, 0.4345746987372885
981.0, 0.42605935462572064
982.0, 0.4307922309545967
983.0, 0.4118286517078177
984.0, 0.4317802562006695
985.0, 0.4256928508272691
986.0, 0.436306463942572
987.0, 0.4386266187335609
988.0, 0.43694026420742527
989.0, 0.4508420766856251
990.0, 0.4717086663610501
991.0, 0.47255967068493143
992.0, 0.47696548657863447
993.0, 0.50773527911098
994.0, 0.5223993457930406
995.0, 0.5507878491471415
996.0, 0.5726253620186517
997.0, 0.5824838170308445
998.0, 0.5926570421266713
999.0, 0.5938978823734121
1000.0, 0.5702363489694423
1001.0, 0.5625085981500071
1002.0, 0.5238066354465721
1003.0, 0.4792415701541132
1004.0, 0.4357669840269593
1005.0, 0.3918883198488327
1006.0, 0.34164791067965145
1007.0, 0.29190532688624354
1008.0, 0.24665230591485915
1009.0, 0.1912901937834118
1010.0, 0.16249529487934355
1011.0, 0.13420091433549977
1012.0, 0.10704661336535051
1013.0, 0.10401405578494348
1014.0, 0.09072448359044488
1015.0, 0.07009670087596061
1016.0, 0.06359868179643438
1017.0, 0.051649900642479506
1018.0, 0.05361763999056335
1019.0, 0.05769110304921377
1020.0, 0.04614307101253554
1021.0, 0.052489153225233516
1022.0, 0.057063027922704755
1023.0, 0.050089403792811966
1024.0, 0.04369652168307727
1025.0, 0.04033463889160078
1026.0, 0.03328566451676891
1027.0, 0.025893109282720452
1028.0, 0.02346790908219431
1029.0, 0.01901631975595113
1030.0, 0.014528862570500345
1031.0, 0.0087901260826404
1032.0, 0.004634117567947811
1033.0, 0.010857252881487728
1034.0, 0.015505696535704258
1035.0, 0.012831145374912723
1036.0, 0.007064411807071691
1037.0, 0.007276051554819485
1038.0, 0.003880739172330078
1039.0, 0.004406964556928551
1040.0, 0.01330811680933924
1041.0, 0.021124022810553065
1042.0, 0.02526354207162836
1043.0, 0.03043843959659929
1044.0, 0.02750674679084253
1045.0, 0.024387173374458993
1046.0, 0.03788880659890741
1047.0, 0.052343748768593074
1048.0, 0.05944301912621088
1049.0, 0.07109419555981966
1050.0, 0.09033815607493345
1051.0, 0.10009906587543484
1052.0, 0.09554166278526692
1053.0, 0.09443336960263822
1054.0, 0.09783634495289688
1055.0, 0.09337449808922905
1056.0, 0.08516330707174498
1057.0, 0.0728664190114377
1058.0, 0.0593941370098366
1059.0, 0.04699126433028993
1060.0, 0.028855649904489022
1061.0, 0.007528955126428256
1062.0, 0.008526039785397116
1063.0, 0.006869546725372753
1064.0, 0.009388080291860005
1065.0, 0.008864508404588562
1066.0, 0.00663675665700316
1067.0, 0.01050806936848619
1068.0, 0.005349450053069484
1069.0, 0.006776343829224529
1070.0, 0.01574188790413524
1071.0, 0.03438548548799017
1072.0, 0.04203146402614888
1073.0, 0.04173501544995638
1074.0, 0.051413191024293134
1075.0, 0.06836090312576062
1076.0, 0.07163012384419933
1077.0, 0.0703827632988204
1078.0, 0.06581683385589905
1079.0, 0.06191702830965425
1080.0, 0.06175100262575313
1081.0, 0.058435557962667604
1082.0, 0.05301960231327139
1083.0, 0.05714684065817054
1084.0, 0.039245380873792333
1085.0, 0.036805739960542184
1086.0, 0.036492849134126926
1087.0, 0.02933257400443705
1088.0, 0.021149357624065588
1089.0, 0.016480619978260846
1090.0, 0.01680144781763199
1091.0, 0.019676764293846925
1092.0, 0.014633399537283702
1093.0, 0.0137039202306958
1094.0, 0.017251833742110777
1095.0, 0.013319279997861729
1096.0, 0.012067736392266222
1097.0, 0.010329936860853471
1098.0, 0.015122291799976144
1099.0, 0.027889397866574434
1100.0, 0.03622174257804716
1101.0, 0.037132751399964296
1102.0, 0.038888231017422205
1103.0, 0.043021411159505175
1104.0, 0.04071419923584816
1105.0, 0.036001271503521046
1106.0, 0.03947946617944164
1107.0, 0.03250228094607412
1108.0, 0.03156455343464997
1109.0, 0.030668540760130373
1110.0, 0.019314427909678005
1111.0, 0.026307434317471613
1112.0, 0.022359371616333026
1113.0, 0.028951581657770554
1114.0, 0.025999729005918917
1115.0, 0.0160524659286898
1116.0, 0.02025257279033665
1117.0, 0.02382506578543391
1118.0, 0.016972661042189835
1119.0, 0.019680050159789356
1120.0, 0.033024714582697595
1121.0, 0.03245947155851189
1122.0, 0.02064941487535536
1123.0, 0.012237070029938206
1124.0, 0.017160121485997954
1125.0, 0.019705483833119614
1126.0, 0.012442034350344444
1127.0, 0.006728014855702509
1128.0, 0.005996079614887248
1129.0, 0.005981624705436605
1130.0, 0.006918381110100938
1131.0, 0.004994993900157925
1132.0, 0.01323548750101668
1133.0, 0.005759634687002309
1134.0, 0.021097947544034382
1135.0, 0.025453234851513913
1136.0, 0.025669957366454912
1137.0, 0.017030593292952197
1138.0, 0.012427474856565805
1139.0, 0.01955798729221793
1140.0, 0.028578551682579313
1141.0, 0.03009892032875371
1142.0, 0.02338968664548433
1143.0, 0.01072676783624038
1144.0, 0.019951375859193175
1145.0, 0.0067913272946322715
1146.0, 0.01296316447210992
1147.0, 0.011271472406552435
1148.0, 0.012105211207031551
1149.0, 0.015010600922160054
1150.0, 0.007513307477899066
1151.0, 0.007130154864583241
1152.0, 0.015199012481473321
1153.0, 0.02050252169618961
1154.0, 0.013348153428077447
1155.0, 0.012940102328738655
1156.0, 0.008780467347225112
1157.0, 0.006571161740293973
1158.0, 0.004540150863632127
1159.0, 0.011969195418580946
1160.0, 0.013177794536882923
1161.0, 0.00556131031154942
1162.0, 0.005969256290965153
1163.0, 0.011493920916058937
1164.0, 0.008549983688869191
1165.0, 0.024301329591418768
1166.0, 0.021291455387514327
1167.0, 0.020324331415817885
1168.0, 0.008837798916880349
1169.0, 0.006888580998357358
1170.0, 0.008465122479880582
1171.0, 0.006462020340059795
1172.0, 0.004777817443525947
1173.0, 0.004295057805765621
1174.0, 0.007219632971554608
1175.0, 0.00496976322605751
1176.0, 0.009389323069934253
1177.0, 0.005594817114326781
1178.0, 0.015013595219917264
1179.0, 0.011456517844352816
1180.0, 0.028685473195357754
1181.0, 0.03260731541462218
1182.0, 0.02894197906444435
1183.0, 0.03138568114483018
1184.0, 0.02685283545906741
1185.0, 0.01999497541977531
1186.0, 0.022136044093638462
1187.0, 0.018610239155365343
1188.0, 0.023708879104578095
1189.0, 0.02903029176844927
1190.0, 0.01717721004909099
1191.0, 0.00925549545719517
1192.0, 0.01034811652770177
1193.0, 0.011242911053592887
1194.0, 0.01796133132086449
1195.0, 0.011718198309653533
1196.0, 0.010791699977218778
1197.0, 0.020925728629967697
1198.0, 0.015595908341290689
1199.0, 0.00820258238093955
1200.0, 0.02413260299419973
1201.0, 0.021449638227914833
1202.0, 0.02310695281739767
1203.0, 0.023424843832135035
1204.0, 0.01496889045780901
1205.0, 0.01568639626721292
1206.0, 0.014541135330971513
1207.0, 0.009767447283433095
1208.0, 0.016715457848801837
1209.0, 0.025307660409548648
1210.0, 0.020488779956186007
1211.0, 0.021238141774094513
1212.0, 0.028440153479669248
1213.0, 0.03592668169831876
1214.0, 0.01994731801440161
1215.0, 0.010527363503786689
1216.0, 0.020104662992329155
1217.0, 0.019007914102197605
1218.0, 0.0105269501081682
1219.0, 0.006407606703361377
1220.0, 0.014845234736781069
1221.0, 0.024772380169367177
1222.0, 0.02263157977058364
1223.0, 0.0266242501372356
1224.0, 0.03197188905246486
1225.0, 0.03636467878729256
1226.0, 0.05047379528920119
1227.0, 0.04815957736477533
1228.0, 0.026046280963118396
1229.0, 0.021296218900822877
1230.0, 0.01619908596393251
1231.0, 0.006450410032038288
1232.0, 0.008818497646492672
1233.0, 0.0121340946229016
1234.0, 0.00732033875490642
1235.0, 0.01998118460793463
1236.0, 0.019117388210727986
1237.0, 0.0038831171225431216
1238.0, 0.020385618155051077
1239.0, 0.04205138791850547
1240.0, 0.03195925201822432
1241.0, 0.027867223942273457
1242.0, 0.019371069772685604
1243.0, 0.019657719335134386
1244.0, 0.02534686958926945
1245.0, 0.020879607535588488
1246.0, 0.019818409054754047
1247.0, 0.031183335156775
1248.0, 0.0213865694055788
1249.0, 0.008426791247458912
1250.0, 0.027730296983443356
1251.0, 0.013471017695198343
1252.0, 0.0058951077264135015
1253.0, 0.0061067861183586505
1254.0, 0.01184735789093699
1255.0, 0.02085174293421478
1256.0, 0.010876212541635476
1257.0, 0.00832595244389326
1258.0, 0.010979952068490154
1259.0, 0.00675304804203149
1260.0, 0.006167632503952623
1261.0, 0.016313053401635805
1262.0, 0.012319732291593673
1263, 0.0
1264, 0.0
1265, 0.0
1266, 0.0
1267, 0.0
1268, 0.0
1269, 0.0
1270, 0.0
1271, 0.0
1272, 0.0
1273, 0.0
1274, 0.0
1275, 0.0
1276, 0.0
1277, 0.0
1278, 0.0
1279, 0.0
1280, 0.0
1281, 0.0
1282, 0.0
1283, 0.0
1284, 0.0
1285, 0.0
1286, 0.0
1287, 0.0
1288, 0.0
1289, 0.0
1290, 0.0
1291, 0.0
1292, 0.0
1293, 0.0
1294, 0.0
1295, 0.0
1296, 0.0
1297, 0.0
1298, 0.0
1299, 0.0
1300, 0.0
1301, 0.0
1302, 0.0
1303, 0.0
1304, 0.0
1305, 0.0
1306, 0.0
1307, 0.0
1308, 0.0
1309, 0.0
1310, 0.0
1311, 0.0
1312, 0.0
1313, 0.0
1314, 0.0
1315, 0.0
1316, 0.0
1317, 0.0
1318, 0.0
1319, 0.0
1320, 0.0
1321, 0.0
1322, 0.0
1323, 0.0
1324, 0.0
1325, 0.0
1326, 0.0
1327, 0.0
1328, 0.0
1329, 0.0
1330, 0.0
1331, 0.0
1332, 0.0
1333, 0.0
1334, 0.0
1335, 0.0
1336, 0.0
1337, 0.0
1338, 0.0
1339, 0.0
1340, 0.0
1341, 0.0
1342, 0.0
1343, 0.0
1344, 0.0
1345, 0.0
1346, 0.0
1347, 0.0
1348, 0.0
1349, 0.0
1350, 0.0
1351, 0.0
1352, 0.0
1353, 0.0
1354, 0.0
1355, 0.0
1356, 0.0
1357, 0.0
1358, 0.0
1359, 0.0
1360, 0.0
1361, 0.0
1362, 0.0
1363, 0.0
1364, 0.0
1365, 0.0
1366, 0.0
1367, 0.0
1368, 0.0
1369, 0.0
1370, 0.0
1371, 0.0
1372, 0.0
1373, 0.0
1374, 0.0
1375, 0.0
1376, 0.0
1377, 0.0
1378, 0.0
1379, 0.0
1380, 0.0
1381, 0.0
1382, 0.0
1383, 0.0
1384, 0.0
1385, 0.0
1386, 0.0
1387, 0.0
1388, 0.0
1389, 0.0
1390, 0.0
1391, 0.0
1392, 0.0
1393, 0.0
1394, 0.0
1395, 0.0
1396, 0.0
1397, 0.0
1398, 0.0
1399, 0.0
1400, 0.0
1401, 0.0
1402, 0.0
1403, 0.0
1404, 0.0
1405, 0.0
1406, 0.0
1407, 0.0
1408, 0.0
1409, 0.0
1410, 0.0
1411, 0.0
1412, 0.0
1413, 0.0
1414, 0.0
1415, 0.0
1416, 0.0
1417, 0.0
1418, 0.0
1419, 0.0
1420, 0.0
1421, 0.0
1422, 0.0
1423, 0.0
1424, 0.0
1425, 0.0
1426, 0.0
1427, 0.0
1428, 0.0
1429, 0.0
1430, 0.0
1431, 0.0
1432, 0.0
1433, 0.0
1434, 0.0
1435, 0.0
1436, 0.0
1437, 0.0
1438, 0.0
1439, 0.0
1440, 0.0
1441, 0.0
1442, 0.0
1443, 0.0
1444, 0.0
1445, 0.0
1446, 0.0
1447, 0.0
1448, 0.0
1449, 0.0
1450, 0.0
1451, 0.0
1452, 0.0
1453, 0.0
1454, 0.0
1455, 0.0
1456, 0.0
1457, 0.0
1458, 0.0
1459, 0.0
1460, 0.0
1461, 0.0
1462, 0.0
1463, 0.0
1464, 0.0
1465, 0.0
1466, 0.0
1467, 0.0
1468, 0.0
1469, 0.0
1470, 0.0
1471, 0.0
1472, 0.0
1473, 0.0
1474, 0.0
1475, 0.0
1476, 0.0
1477, 0.0
1478, 0.0
1479, 0.0
1480, 0.0
1481, 0.0
1482, 0.0
1483, 0.0
1484, 0.0
1485, 0.0
1486, 0.0
1487, 0.0
1488, 0.0
1489, 0.0
1490, 0.0
1491, 0.0
1492, 0.0
1493, 0.0
1494, 0.0
1495, 0.0
1496, 0.0
1497, 0.0
1498, 0.0
1499, 0.0
1500, 0.0
1501, 0.0
1502, 0.0
1503, 0.0
1504, 0.0
1505, 0.0
1506, 0.0
1507, 0.0
1508, 0.0
1509, 0.0
1510, 0.0
1511, 0.0
1512, 0.0
1513, 0.0
1514, 0.0
1515, 0.0
1516, 0.0
1517, 0.0
1518, 0.0
1519, 0.0
1520, 0.0
1521, 0.0
1522, 0.0
1523, 0.0
1524, 0.0
1525, 0.0
1526, 0.0
1527, 0.0
1528, 0.0
1529, 0.0
1530, 0.0
1531, 0.0
1532, 0.0
1533, 0.0
1534, 0.0
1535, 0.0
1536, 0.0
1537, 0.0
1538, 0.0
1539, 0.0
1540, 0.0
1541, 0.0
1542, 0.0
1543, 0.0
1544, 0.0
1545, 0.0
1546, 0.0
1547, 0.0
1548, 0.0
1549, 0.0
1550, 0.0
1551, 0.0
1552, 0.0
1553, 0.0
1554, 0.0
1555, 0.0
1556, 0.0
1557, 0.0
1558, 0.0
1559, 0.0
1560, 0.0
1561, 0.0
1562, 0.0
1563, 0.0
1564, 0.0
1565, 0.0
1566, 0.0
1567, 0.0
1568, 0.0
1569, 0.0
1570, 0.0
1571, 0.0
1572, 0.0
1573, 0.0
1574, 0.0
1575, 0.0
1576, 0.0
1577, 0.0
1578, 0.0
1579, 0.0
1580, 0.0
1581, 0.0
1582, 0.0
1583, 0.0
1584, 0.0
1585, 0.0
1586, 0.0
1587, 0.0
1588, 0.0
1589, 0.0
1590, 0.0
1591, 0.0
1592, 0.0
1593, 0.0
1594, 0.0
1595, 0.0
1596, 0.0
1597, 0.0
1598, 0.0
1599, 0.0
