30, 0.0
31, 0.0
32, 0.0
33, 0.0
34, 0.0
35, 0.0
36, 0.0
37, 0.0
38, 0.0
39, 0.0
40, 0.0
41, 0.0
42, 0.0
43, 0.0
44, 0.0
45, 0.0
46, 0.0
47, 0.0
48, 0.0
49, 0.0
50, 0.0
51, 0.0
52, 0.0
53, 0.0
54, 0.0
55, 0.0
56, 0.0
57, 0.0
58, 0.0
59, 0.0
60, 0.0
61, 0.0
62, 0.0
63, 0.0
64, 0.0
65, 0.0
66, 0.0
67, 0.0
68, 0.0
69, 0.0
70, 0.0
71, 0.0
72, 0.0
73, 0.0
74, 0.0
75, 0.0
76, 0.0
77, 0.0
78, 0.0
79, 0.0
80, 0.0
81, 0.0
82, 0.0
83, 0.0
84, 0.0
85, 0.0
86, 0.0
87, 0.0
88, 0.0
89, 0.0
90, 0.0
91, 0.0
92.0, 9.023422360644842e-06
93.0, 6.239801319259014e-05
94.0, 0.00010635288384252463
95.0, 0.00014363315282663004
96.0, 0.00024204483616853382
97.0, 0.0004217095623909351
98.0, 0.0003768601735916509
99.0, 0.00039487553920515886
100.0, 0.0005529887065163938
101.0, 0.0007471572318635782
102.0, 0.0008216025274974709
103.0, 0.0006849204697670963
104.0, 0.0005251472110521922
105.0, 0.00039156316654509075
106.0, 0.0002582383782529146
107.0, 0.0001786310573266971
108.0, 6.174626033435837e-05
109.0, 8.391804098107192e-05
110.0, 0.0001131044406229856
111.0, 0.00011370559452082201
112.0, 0.00013437688501037812
113.0, 0.000117988316861517
114.0, 3.63471139534032e-05
115.0, 0.0001939723999096998
116.0, 0.0002967568385037576
117.0, 0.00045667066207053187
118.0, 0.0008222889863287861
119.0, 0.0013714676776619404
120.0, 0.0020912492226976185
121.0, 0.003095036813554559
122.0, 0.004330913213925045
123.0, 0.00542132891004262
124.0, 0.006536030531766716
125.0, 0.007522750516268547
126.0, 0.008245050897481579
127.0, 0.008689277620169498
128.0, 0.009173363515789176
129.0, 0.009813187160160984
130.0, 0.01058946208847165
131.0, 0.011496224705071178
132.0, 0.0129412375140212
133.0, 0.014721036920673813
134.0, 0.01682119043997269
135.0, 0.01929778097972481
136.0, 0.02188845248821401
137.0, 0.025325085095715315
138.0, 0.02936215404747197
139.0, 0.033804868943152454
140.0, 0.038881826766775006
141.0, 0.04287917449867912
142.0, 0.044029614577192705
143.0, 0.041716012737097026
144.0, 0.036572476364254786
145.0, 0.030378884686137475
146.0, 0.024838642084966535
147.0, 0.020685421362314778
148.0, 0.01806739958300102
149.0, 0.016188117812252302
150.0, 0.014880004103593093
151.0, 0.013935818258485192
152.0, 0.013192290758883951
153.0, 0.012749597860061185
154.0, 0.012306768326166003
155.0, 0.012231500638911463
156.0, 0.012656227612585894
157.0, 0.013384432972236855
158.0, 0.014233930129970443
159.0, 0.01569523342758981
160.0, 0.018208683657567035
161.0, 0.022048230435142115
162.0, 0.027187698945101507
163.0, 0.033541265113158324
164.0, 0.03954377166671021
165.0, 0.04406596700966673
166.0, 0.04725574424074533
167.0, 0.050655712690413544
168.0, 0.05395319314888889
169.0, 0.05753105016259882
170.0, 0.06240986329787983
171.0, 0.06799018557434641
172.0, 0.0741066789020058
173.0, 0.081318292750064
174.0, 0.09038248799137082
175.0, 0.10114035749129184
176.0, 0.11591874871617008
177.0, 0.13609832091800944
178.0, 0.16230810574789512
179.0, 0.19458150469509813
180.0, 0.22967549073925037
181.0, 0.2549335643914977
182.0, 0.2545287643425054
183.0, 0.2191532151799032
184.0, 0.1678858664830945
185.0, 0.1238412530434955
186.0, 0.09422716146417634
187.0, 0.07696385842389657
188.0, 0.06725900085264931
189.0, 0.06135364694591818
190.0, 0.05788024362313606
191.0, 0.055906177858843734
192.0, 0.053868245461296836
193.0, 0.05111464830876954
194.0, 0.04678722931606
195.0, 0.04082641836464069
196.0, 0.034091581197958076
197.0, 0.027964011107592113
198.0, 0.02265420914454406
199.0, 0.018620950373684643
200.0, 0.015810411571096236
201.0, 0.013227763169865207
202.0, 0.010860570790758157
203.0, 0.008965590355783374
204.0, 0.007506031420237136
205.0, 0.0062624145970124065
206.0, 0.005262572745885933
207.0, 0.004351463778789604
208.0, 0.0036121876395357588
209.0, 0.0030860357232289034
210.0, 0.002536199748510273
211.0, 0.0020832673777945137
212.0, 0.0017030236617638355
213.0, 0.0013191504855961144
214.0, 0.0008695196916825309
215.0, 0.0006388113525903893
216.0, 0.0004971408494978495
217.0, 0.00037817400930575625
218.0, 0.00025962844139243977
219.0, 0.000110074439366477
220.0, 1.7965769062344835e-05
221.0, 0.00011253886857066777
222.0, 0.0001821019836886855
223.0, 0.0001892577823105267
224.0, 0.00016955095191604355
225.0, 0.00014836247605284786
226.0, 0.00025049540026929177
227.0, 0.0004665169964329793
228.0, 0.00036866859580122335
229.0, 0.00025218375403761914
230.0, 0.00025249723767617634
231.0, 0.00027951869728175504
232.0, 0.00011527705970221729
233.0, 6.630146824259838e-05
234.0, 3.021789107097925e-05
235.0, 7.899239752481541e-05
236.0, 0.00025166926198143583
237.0, 0.0003139428134164871
238.0, 0.0005960745357490181
239.0, 0.0008328811156557083
240.0, 0.0010508850465951339
241.0, 0.0015711480359636627
242.0, 0.002069670717453744
243.0, 0.0023828907930394513
244.0, 0.002746024352527004
245.0, 0.003357404235836312
246.0, 0.00401137701933652
247.0, 0.004488852321719435
248.0, 0.005038604879047636
249.0, 0.005683297196312385
250.0, 0.0062932295887216895
251.0, 0.007286998260961339
252.0, 0.00828154841227824
253.0, 0.009214659122716153
254.0, 0.01027436004935798
255.0, 0.011788258292495168
256.0, 0.013174529689744639
257.0, 0.014718660981748394
258.0, 0.016329605374940877
259.0, 0.017743398862252676
260.0, 0.019005749643625607
261.0, 0.020008140767738804
262.0, 0.020815726823093125
263.0, 0.021655983011817728
264.0, 0.022758119249430508
265.0, 0.02337929189424378
266.0, 0.024036925607578172
267.0, 0.0249049751137192
268.0, 0.025951211473662687
269.0, 0.02738474609943207
270.0, 0.02901137184819437
271.0, 0.03132345878084489
272.0, 0.034402645922149935
273.0, 0.038002173797954716
274.0, 0.04268456606599573
275.0, 0.04903363064215277
276.0, 0.05696083393850231
277.0, 0.0662636665435563
278.0, 0.07696002342683105
279.0, 0.08787972126497863
280.0, 0.09686462243035848
281.0, 0.09930446280663487
282.0, 0.09127169839954218
283.0, 0.07468008106886918
284.0, 0.056841569977242615
285.0, 0.04246696382291075
286.0, 0.033139646235367234
287.0, 0.02766564977798154
288.0, 0.024530887971320334
289.0, 0.02288339822183656
290.0, 0.02238230104713216
291.0, 0.02281485184452172
292.0, 0.024045298709246616
293.0, 0.026233119370422636
294.0, 0.029147715643634123
295.0, 0.03275083336396637
296.0, 0.037025018113573616
297.0, 0.041463243343291475
298.0, 0.04460861572373019
299.0, 0.04499387212477223
300.0, 0.04207425158871117
301.0, 0.03641768937747537
302.0, 0.02939834772865868
303.0, 0.023271961330027936
304.0, 0.018549889665305658
305.0, 0.015062640110253031
306.0, 0.01286120996414243
307.0, 0.011550635883604976
308.0, 0.010845399046521473
309.0, 0.010380196016348996
310.0, 0.009850561412363068
311.0, 0.009255473738293685
312.0, 0.008182611739887463
313.0, 0.0067326480457594725
314.0, 0.005204873292284535
315.0, 0.00388292305111688
316.0, 0.0029590529622379805
317.0, 0.0021518195014145493
318.0, 0.0015505291364393318
319.0, 0.0011595279787635622
320.0, 0.0007879893005297295
321.0, 0.0004884633328549598
322.0, 0.0003103596544563145
323.0, 0.00018524591079615272
324.0, 5.4721970191524416e-05
325.0, 7.360899687993551e-05
326.0, 0.00016540298236301929
327.0, 0.00014801390463308235
328.0, 0.00010308191491295979
329.0, 0.00013399445177703754
330.0, 0.00016515187417499573
331.0, 5.744418376369031e-05
332.0, 3.2487379953165246e-05
333.0, 0.00014165101699597466
334.0, 0.00025991886390600233
335.0, 0.00032193772336047173
336.0, 0.00017547344502836826
337.0, 5.584302936717946e-05
338.0, 2.5322817019393362e-05
339.0, 0.00011373519335896661
340.0, 0.00021747840230101735
341.0, 0.00015761171723629232
342.0, 0.0001993605818437306
343.0, 0.00044313120242893823
344.0, 0.0005851287293124638
345.0, 0.0006119756145844786
346.0, 0.0006822338944943226
347.0, 0.0008531493890059499
348.0, 0.0011188935647013613
349.0, 0.0014438233257479682
350.0, 0.0014486508052070893
351.0, 0.0015803407063092907
352.0, 0.0018711316263788232
353.0, 0.0021453290631870325
354.0, 0.002397107474465228
355.0, 0.002609310310928328
356.0, 0.0029662183592982596
357.0, 0.0032833044734418377
358.0, 0.0033771856826757068
359.0, 0.00369392840307725
360.0, 0.0038520405325898053
361.0, 0.004069174604800094
362.0, 0.004280168982091059
363.0, 0.004287608473822665
364.0, 0.004507573366748327
365.0, 0.004559119413961258
366.0, 0.0044549902725652514
367.0, 0.004416857187830594
368.0, 0.00463991719114893
369.0, 0.004417220679744386
370.0, 0.00429546817162896
371.0, 0.004294423787848674
372.0, 0.004317312538059421
373.0, 0.004299764276252636
374.0, 0.0040605510320493796
375.0, 0.0043243219700257835
376.0, 0.004550914510551684
377.0, 0.004527903420655058
378.0, 0.004831775766977535
379.0, 0.005160453275463673
380.0, 0.005360910351812641
381.0, 0.005653222948981586
382.0, 0.006052199133692071
383.0, 0.006239518993877041
384.0, 0.006659577413449463
385.0, 0.007136029009593575
386.0, 0.007738326606118286
387.0, 0.008570843005830345
388.0, 0.009583859098046921
389.0, 0.010745173665447843
390.0, 0.011744941833336364
391.0, 0.012646685659879078
392.0, 0.013470545940661575
393.0, 0.014033913301712761
394.0, 0.013724388647407305
395.0, 0.012954208489403478
396.0, 0.01164834836903928
397.0, 0.009818969769903032
398.0, 0.0079761331481486
399.0, 0.006445168764722737
400.0, 0.005233709229031895
401.0, 0.004292193402830862
402.0, 0.0035991947094379225
403.0, 0.0031867054726593723
404.0, 0.0026829499773855805
405.0, 0.0023793663963394577
406.0, 0.0021802490910306075
407.0, 0.0019365164432711061
408.0, 0.0016758123193953058
409.0, 0.0014944840268730254
410.0, 0.0013684346752271832
411.0, 0.0012800535829688312
412.0, 0.0011758291501574398
413.0, 0.0009955542323899535
414.0, 0.0009014044080335063
415.0, 0.0009076508329012451
416.0, 0.0009436922881210061
417.0, 0.0010023458043509489
418.0, 0.00116562237757967
419.0, 0.0015139635376765373
420.0, 0.0013932066217114316
421.0, 0.0012392745984315923
422.0, 0.0012268313564597327
423.0, 0.0009254259126830715
424.0, 0.0005922054954197909
425.0, 0.0003214253040277367
426.0, 0.00012020325323936726
427.0, 3.6978913965413765e-05
428.0, 0.00014072422438765906
429.0, 0.00026388315160082534
430.0, 0.00043496876548019517
431.0, 0.0004751456546319758
432.0, 0.0003925798783904055
433.0, 0.00037316906669223335
434.0, 0.0003206848170462642
435.0, 0.0003003580502108369
436.0, 0.0003447059626918755
437.0, 0.0003391995139315305
438.0, 0.00016315728899699586
439.0, 4.1774752443738505e-05
440.0, 0.00011874269595402155
441.0, 0.000260350702159459
442.0, 0.00038559980932618287
443.0, 0.00040570132354525646
444.0, 0.0004947285516857469
445.0, 0.0007445174079172108
446.0, 0.0009129457748564199
447.0, 0.0010286282565441743
448.0, 0.0012642375218117619
449.0, 0.00177832276411281
450.0, 0.0017961430471488235
451.0, 0.002126047957022704
452.0, 0.002660459569814177
453.0, 0.0030060389397875463
454.0, 0.0033133474792570016
455.0, 0.0036049483391308672
456.0, 0.003946080546649207
457.0, 0.004374271587629805
458.0, 0.00480656942782707
459.0, 0.0050991544032539735
460.0, 0.005544277114654109
461.0, 0.005827158986559726
462.0, 0.006104190642584622
463.0, 0.006536755864329446
464.0, 0.007102525522248397
465.0, 0.007705423415171046
466.0, 0.00811738431498902
467.0, 0.008698877337873478
468.0, 0.00945537529317332
469.0, 0.010172561100182853
470.0, 0.011030517228427988
471.0, 0.011867877667276686
472.0, 0.013100746037647194
473.0, 0.014411231426314428
474.0, 0.015482017736107734
475.0, 0.01693552736795769
476.0, 0.01829332211722731
477.0, 0.019680187823975025
478.0, 0.021242834290391317
479.0, 0.022989200300983788
480.0, 0.024852792621916538
481.0, 0.026912445803621485
482.0, 0.02883474034413315
483.0, 0.030810112695448543
484.0, 0.03299124034236286
485.0, 0.0352282513725955
486.0, 0.03687948945305776
487.0, 0.03917815883490009
488.0, 0.04132824114962587
489.0, 0.04310982253251723
490.0, 0.04456257608248043
491.0, 0.044938214834755574
492.0, 0.044867001278651376
493.0, 0.04359122219260196
494.0, 0.04170584223100651
495.0, 0.039542981297899044
496.0, 0.036225658328860724
497.0, 0.03262512663324317
498.0, 0.029277597209721676
499.0, 0.026194753521394165
500.0, 0.023359115973451753
501.0, 0.02086184892006255
502.0, 0.01873872437103433
503.0, 0.017177478366729476
504.0, 0.015829446909425345
505.0, 0.014769997902234287
506.0, 0.01417974141981134
507.0, 0.013754849903986266
508.0, 0.013455416002292003
509.0, 0.013676900934085726
510.0, 0.014103365909295958
511.0, 0.014436251302714219
512.0, 0.014918387788137708
513.0, 0.015860900395988538
514.0, 0.016815488417825902
515.0, 0.017904036884377746
516.0, 0.019219147192143113
517.0, 0.020621164353393086
518.0, 0.021864865993020916
519.0, 0.023516322287742118
520.0, 0.02475394047638713
521.0, 0.025838560338626252
522.0, 0.027017400544101657
523.0, 0.027621408711943907
524.0, 0.027557347295431484
525.0, 0.026921037513628832
526.0, 0.025848496858337972
527.0, 0.02440586775264281
528.0, 0.02261153853491245
529.0, 0.02056270627132351
530.0, 0.018222284447912462
531.0, 0.016066382924062896
532.0, 0.014263803510206837
533.0, 0.012713498723256573
534.0, 0.011325140422563785
535.0, 0.01025549222170896
536.0, 0.00944440320662002
537.0, 0.008771646057319794
538.0, 0.00809302534487158
539.0, 0.007324235733245394
540.0, 0.006762030210741614
541.0, 0.006461969819971917
542.0, 0.005994632126044082
543.0, 0.005438155219027482
544.0, 0.005099549536664059
545.0, 0.004911876371605959
546.0, 0.004348097877631996
547.0, 0.003908058150619577
548.0, 0.003689653376585364
549.0, 0.0034137545624719438
550.0, 0.002877431224070012
551.0, 0.002492622333449444
552.0, 0.002335668408674272
553.0, 0.0020260145642589105
554.0, 0.0016672879179966246
555.0, 0.0014365127415859312
556.0, 0.0012269387725543724
557.0, 0.0010243355278884928
558.0, 0.000818741238422875
559.0, 0.0006974881737213108
560.0, 0.0006219755432988059
561.0, 0.0005020068198353542
562.0, 0.0003822410533650471
563.0, 0.00034767770855280943
564.0, 6.186571674276162e-05
565.0, 8.581519028477026e-05
566.0, 2.3955131874651497e-06
567.0, 0.0001321790400177763
568.0, 0.00020354620018270036
569.0, 0.00017720235943291025
570.0, 0.0002155278625334678
571.0, 0.0002824620778706016
572.0, 0.00030414443938216206
573.0, 0.00038189883218022055
574.0, 0.0004315048457850498
575.0, 0.0003995330097709756
576.0, 0.00040047690149443
577.0, 0.00045685604066829887
578.0, 0.00046668298184776417
579.0, 0.0003029514720355876
580.0, 0.0002210880331512769
581.0, 0.00021287243458173918
582.0, 0.0002217686025085227
583.0, 0.0002017238560284207
584.0, 0.00012964547856189197
585.0, 2.292617053093243e-05
586.0, 2.0757808854543458e-05
587.0, 0.0001620180390420273
588.0, 0.0003067717401326085
589.0, 0.00022213716745909573
590.0, 0.00023351018274157437
591.0, 0.00037178432668037975
592.0, 0.0005774266949672444
593.0, 0.0007309688079382367
594.0, 0.000728908163515054
595.0, 0.0006931331439921945
596.0, 0.0009986530322013995
597.0, 0.0008202978643673305
598.0, 0.0009254079504398668
599.0, 0.0011831180545414095
600.0, 0.0012770418278467372
601.0, 0.001284464526263028
602.0, 0.0015473702062395048
603.0, 0.0018566222341298087
604.0, 0.00192775345801062
605.0, 0.001904009585161831
606.0, 0.001982013782877046
607.0, 0.0021885132294680323
608.0, 0.0025028475996975467
609.0, 0.0026407744177458156
610.0, 0.002754413940960658
611.0, 0.0030263555756319025
612.0, 0.00340104027650752
613.0, 0.003642258394244231
614.0, 0.003848313552804269
615.0, 0.00434512204341214
616.0, 0.004864911626233945
617.0, 0.005329025532191814
618.0, 0.005958255917371805
619.0, 0.006905499045140588
620.0, 0.007477888360626117
621.0, 0.008350357415283217
622.0, 0.009522339658562586
623.0, 0.010922396386327592
624.0, 0.012592525748147431
625.0, 0.014489652896068992
626.0, 0.01639451982109991
627.0, 0.018639503313897687
628.0, 0.020822028827138704
629.0, 0.023144073660293824
630.0, 0.026061826657046667
631.0, 0.02920081360035506
632.0, 0.03179840155227702
633.0, 0.0351371534019817
634.0, 0.0389984332733732
635.0, 0.04295516563379112
636.0, 0.0468685426862204
637.0, 0.05070001549858159
638.0, 0.05375308394772747
639.0, 0.05595076234760994
640.0, 0.05651704201780536
641.0, 0.055106337807441445
642.0, 0.05200958226237806
643.0, 0.047514762641066854
644.0, 0.042126500680430015
645.0, 0.03658932000713355
646.0, 0.03145779910421483
647.0, 0.02694366699727122
648.0, 0.023090518548003484
649.0, 0.02007324011212989
650.0, 0.01756070767248515
651.0, 0.015888331199790984
652.0, 0.014488022737050464
653.0, 0.013335720673180923
654.0, 0.012709638160356113
655.0, 0.012149624186998484
656.0, 0.011868671900985062
657.0, 0.011891601917023892
658.0, 0.0121018920254998
659.0, 0.012427263611060401
660.0, 0.01285038483200483
661.0, 0.013401434118758538
662.0, 0.014546960811945809
663.0, 0.015297203573381078
664.0, 0.016103472739313937
665.0, 0.017039290647716893
666.0, 0.017798555300476814
667.0, 0.01849425507096809
668.0, 0.019112873731089528
669.0, 0.02021811537100508
670.0, 0.021052287577043118
671.0, 0.02136019373574092
672.0, 0.02143366657867702
673.0, 0.021435533885474634
674.0, 0.021338054953115835
675.0, 0.020821538112375106
676.0, 0.019948604193321312
677.0, 0.018942408099622117
678.0, 0.018005123459734127
679.0, 0.017190289125551296
680.0, 0.016245916772161344
681.0, 0.01522349872012907
682.0, 0.014311047265444087
683.0, 0.013519219665749403
684.0, 0.01280741686791592
685.0, 0.012099553035160825
686.0, 0.011078472147046594
687.0, 0.01052568645352415
688.0, 0.009860433520685092
689.0, 0.009073523003937493
690.0, 0.008356384120926737
691.0, 0.007754995724558795
692.0, 0.0071105741385287715
693.0, 0.006781197701369369
694.0, 0.006297323518743262
695.0, 0.005711538352198526
696.0, 0.005312446798433981
697.0, 0.005036552118594171
698.0, 0.004457101351065394
699.0, 0.00410785811305268
700.0, 0.003933361890249924
701.0, 0.0036520875750284234
702.0, 0.003373827286350147
703.0, 0.0032025585658874323
704.0, 0.0029142099057517497
705.0, 0.002623200568791741
706.0, 0.0024317620829294806
707.0, 0.0022155399734995014
708.0, 0.0019508915776854066
709.0, 0.0017189491027660296
710.0, 0.001597955492944237
711.0, 0.0015826661454844879
712.0, 0.0013093116738228515
713.0, 0.0010978812515457263
714.0, 0.000971354390697813
715.0, 0.000891947805518975
716.0, 0.0007802684271126565
717.0, 0.0004484569822921495
718.0, 0.0004903304646109361
719.0, 0.00048744548916498633
720.0, 0.0003350007775086224
721.0, 0.00010305951713289157
722.0, 1.6190816236974717e-05
723.0, 8.52779129933284e-05
724.0, 3.778876876485122e-05
725.0, 9.542357548833277e-05
726.0, 9.648884802343202e-05
727.0, 0.00010016035711098636
728.0, 7.961732793305925e-05
729.0, 4.1937787591341146e-05
730.0, 2.04783896604622e-05
731.0, 9.46900704192729e-05
732.0, 0.00016866899879056766
733.0, 0.00039071457469462984
734.0, 0.00045487574602941195
735.0, 0.0005440965513871516
736.0, 0.0007472079944386978
737.0, 0.0008356053019511855
738.0, 0.0010704072820831969
739.0, 0.0013666153467545503
740.0, 0.0016718534624978946
741.0, 0.0020234758441796535
742.0, 0.0023831847361695437
743.0, 0.0025288673135214234
744.0, 0.0026951015517851363
745.0, 0.00275121175981759
746.0, 0.002821378155612485
747.0, 0.002651746069674751
748.0, 0.002237419323142754
749.0, 0.0019333169679825605
750.0, 0.0014221982424504668
751.0, 0.0009943374252361005
752.0, 0.0005452911734204213
753.0, 0.0002560536810329742
754.0, 1.8788880362103635e-05
755.0, 0.0003434289077975545
756.0, 0.0005884458058060318
757.0, 0.000568071332392246
758.0, 0.0007476336609049835
759.0, 0.000756842230070807
760.0, 0.0007525540040511294
761.0, 0.0008223331761327878
762.0, 0.0007486833035953139
763.0, 0.0006233530665225521
764.0, 0.00048260551045569685
765.0, 0.0003347431077626373
766.0, 0.0003694974018224678
767.0, 0.000365021730920274
768.0, 0.0001994607618185185
769.0, 0.0001059982531743855
770.0, 2.2648261313998222e-05
771.0, 3.0912436033038723e-06
772.0, 5.164459490979017e-05
773.0, 0.0001584882194329617
774.0, 0.0003235024679411393
775.0, 0.000409966223632364
776.0, 0.00026480125968348283
777.0, 0.0004217224483673116
778.0, 0.00036168644519569726
779.0, 0.00045108014609924547
780.0, 0.0006093447683455732
781.0, 0.0006408040600556449
782.0, 0.0005876156817121924
783.0, 0.0007047312535222316
784.0, 0.0007590308798959377
785.0, 0.0007275763200565697
786.0, 0.0006826099803296284
787.0, 0.0007459282063588495
788.0, 0.0008765768334897796
789.0, 0.000902200249605362
790.0, 0.0007791399116514493
791.0, 0.0010273698600213807
792.0, 0.0010974708124700746
793.0, 0.0010444868835274986
794.0, 0.0010467055160932577
795.0, 0.0011400653903925475
796.0, 0.0012712262002217193
797.0, 0.001443402965858192
798.0, 0.0014611498279935757
799.0, 0.0016163257220615308
800.0, 0.0019165011393629235
801.0, 0.0022165777776649424
802.0, 0.0024297583963077676
803.0, 0.002606153070145285
804.0, 0.0027926231378619638
805.0, 0.0029163542552206097
806.0, 0.0031787806842365116
807.0, 0.003544591536188295
808.0, 0.00389898793046823
809.0, 0.004113087576269106
810.0, 0.004209041023149735
811.0, 0.004555785137771935
812.0, 0.004724774500754961
813.0, 0.004943951568075711
814.0, 0.005318410499373942
815.0, 0.0054875756904771865
816.0, 0.0054353856190508375
817.0, 0.0056129240116199975
818.0, 0.005756826264875381
819.0, 0.0058445807905625645
820.0, 0.006036780677150217
821.0, 0.006170092630587124
822.0, 0.006404033391199054
823.0, 0.006713588107574124
824.0, 0.006811633665938801
825.0, 0.006919628196368255
826.0, 0.007182894994938194
827.0, 0.0074921256802302945
828.0, 0.007877945187054619
829.0, 0.008055476079843419
830.0, 0.008775301509786962
831.0, 0.010027532836089325
832.0, 0.009380475113512388
833.0, 0.009705812777325715
834.0, 0.01034889766477927
835.0, 0.010864105392485527
836.0, 0.011576478604494954
837.0, 0.012511483899186849
838.0, 0.013470671173131818
839.0, 0.01463450323198792
840.0, 0.015942559332363
841.0, 0.01729182776229863
842.0, 0.018862114862373564
843.0, 0.020772758767754754
844.0, 0.02302404671912164
845.0, 0.025536433892645587
846.0, 0.028258835409467026
847.0, 0.03130780879099991
848.0, 0.03519714498585048
849.0, 0.04009183346446184
850.0, 0.04621774138484688
851.0, 0.0538108513768907
852.0, 0.06316973643235921
853.0, 0.07511953740753435
854.0, 0.09129580614689439
855.0, 0.11268322016537709
856.0, 0.13870062311931944
857.0, 0.16918212662735985
858.0, 0.20241545234653338
859.0, 0.23749165858943377
860.0, 0.27537421499149173
861.0, 0.31813469265073313
862.0, 0.3680965186471812
863.0, 0.42770336488554767
864.0, 0.5006967413988002
865.0, 0.5865635119812319
866.0, 0.6849759935122715
867.0, 0.7913480838759673
868.0, 0.8938940501344077
869.0, 0.9744272192891715
870.0, 0.9957609536838452
871.0, 0.9322906692813394
872.0, 0.8084056284762885
873.0, 0.6709797020633278
874.0, 0.5485271158666454
875.0, 0.4421508527508683
876.0, 0.3444006594825612
877.0, 0.2605389896696252
878.0, 0.19512538415477423
879.0, 0.14779533864181194
880.0, 0.11443290420904202
881.0, 0.09067207378273023
882.0, 0.07318039858939777
883.0, 0.05987080937068062
884.0, 0.0498978609709865
885.0, 0.04180949931596679
886.0, 0.03542460487210351
887.0, 0.030163436028119245
888.0, 0.025803273418560167
889.0, 0.022296103771634622
890.0, 0.019293043377155095
891.0, 0.016240674237455212
892.0, 0.014179436804047763
893.0, 0.012329955788170215
894.0, 0.010576098383609922
895.0, 0.009260202007625345
896.0, 0.00825588412450605
897.0, 0.00726617272143412
898.0, 0.006367058218036285
899.0, 0.005717610505353567
900.0, 0.005069011696862162
901.0, 0.00451747143546268
902.0, 0.004018474298680682
903.0, 0.0035867255128202474
904.0, 0.003272682941291142
905.0, 0.0029863180841618537
906.0, 0.0025738418771966056
907.0, 0.002365205503888132
908.0, 0.0025966772161841057
909.0, 0.0021838030292962406
910.0, 0.0019674450788528695
911.0, 0.0018868266583331088
912.0, 0.0016490827241587651
913.0, 0.0013613675134360036
914.0, 0.0010935370562022572
915.0, 0.0010399934007244147
916.0, 0.000771071564730273
917.0, 0.00071313556093769
918.0, 0.0006709627785727584
919.0, 0.0005072281267719968
920.0, 0.0003348791589130913
921.0, 0.0002459924225836403
922.0, 0.0001394547132978505
923.0, 0.00010801235720225518
924.0, 0.00010831314448297083
925.0, 7.583815105306711e-05
926.0, 3.148289890463978e-05
927.0, 5.172234091176414e-05
928.0, 9.254735107026678e-05
929.0, 0.00011615234504303234
930.0, 0.0003487944497147451
931.0, 0.0002807292900654978
932.0, 0.0002652191625727719
933.0, 0.00023897400593344935
934.0, 0.00020849766252486345
935.0, 0.00022740534314101676
936.0, 0.00025412250866124747
937.0, 0.00024288403377981476
938.0, 0.0002651797833718093
939.0, 0.0002753968424527302
940.0, 0.00040309578881509984
941.0, 0.000255902021690136
942.0, 0.00016150707692857923
943.0, 0.0001602739234679169
944.0, 0.00014808609366819106
945.0, 0.00013264500530962768
946.0, 0.00013557598620924952
947.0, 0.00012979787439158915
948.0, 0.00014931435768288925
949.0, 0.00017400583444226097
950.0, 0.00016427658746543392
951.0, 0.0001309986700329627
952.0, 5.399253182279321e-05
953.0, 1.3998838073449365e-05
954.0, 0.00010151652273465704
955.0, 8.043867104718362e-05
956.0, 0.00011956919207318611
957.0, 0.00015270166361541133
958.0, 0.00011212457554639022
959.0, 0.00013645584722515416
960.0, 0.0002193548802692394
961.0, 0.00033542712553842233
962.0, 0.0004299577781154516
963.0, 0.00038118487500731656
964.0, 0.0004971547358719065
965.0, 0.0005007851742210538
966.0, 0.000522898214691439
967.0, 0.0005940298538451908
968.0, 0.0006861087884346182
969.0, 0.0007804295956071271
970.0, 0.0008231024919159379
971.0, 0.0007788503375295001
972.0, 0.0008955604010796823
973.0, 0.0008494161955686889
974.0, 0.0008425932101364499
975.0, 0.000912154730679004
976.0, 0.0009730679570605861
977.0, 0.0010364362617763156
978.0, 0.0010762906569984471
979.0, 0.0010616284883746075
980.0, 0.0011714846169807894
981.0, 0.0012037560945521086
982.0, 0.0011576056832232338
983.0, 0.0011943529779750587
984.0, 0.0012564022870730819
985.0, 0.0012650974241684057
986.0, 0.0013078436662488037
987.0, 0.0014306145898989836
988.0, 0.0014444407917155696
989.0, 0.001432236581122855
990.0, 0.0014660765418458553
991.0, 0.0013852401341856255
992.0, 0.0014747994830124377
993.0, 0.0015799958190702216
994.0, 0.0015488557168700033
995.0, 0.0015062774944538879
996.0, 0.0015491582295119129
997.0, 0.0015662183650136474
998.0, 0.001535516924585486
999.0, 0.0016158612752629417
1000.0, 0.001616654579847586
1001.0, 0.0015696729171112392
1002.0, 0.0015941119366444352
1003.0, 0.0015568750033627733
1004.0, 0.0014551392353818774
1005.0, 0.0015051470445802608
1006.0, 0.001473654129035836
1007.0, 0.0014538555673807353
1008.0, 0.001476323975274405
1009.0, 0.001379836282275916
1010.0, 0.001407688401464534
1011.0, 0.001401652886862059
1012.0, 0.0013473245507139193
1013.0, 0.0013937598948518984
1014.0, 0.0014333786400027098
1015.0, 0.0013270110956137213
1016.0, 0.001302509353611495
1017.0, 0.001279652496926356
1018.0, 0.0013079017158673404
1019.0, 0.0012780465007335756
1020.0, 0.0012273346429655914
1021.0, 0.0012366632596423378
1022.0, 0.0012290530281731306
1023.0, 0.0011729533320793462
1024.0, 0.001336082943493799
1025.0, 0.0013158178799649427
1026.0, 0.0013288436277815727
1027.0, 0.0012135012920216916
1028.0, 0.0012146912242801584
1029.0, 0.0012513565899459134
1030.0, 0.0012353893779802336
1031.0, 0.0012018740858035768
1032.0, 0.0011945145643118427
1033.0, 0.001279670117724393
1034.0, 0.001184843347917476
1035.0, 0.0012241061497261486
1036.0, 0.0012165183281707473
1037.0, 0.0012265457230989621
1038.0, 0.001167097725530407
1039.0, 0.0010997691524064466
1040.0, 0.0010627336011465422
1041.0, 0.0010161429822148273
1042.0, 0.0010874790236970048
1043.0, 0.001031360667598474
1044.0, 0.0009826430981665286
1045.0, 0.0009847401771259827
1046.0, 0.0010056897612920788
1047.0, 0.0010099126898263971
1048.0, 0.0010369523820312233
1049.0, 0.0010406327935033983
1050.0, 0.0009907861511385032
1051.0, 0.0009578505916404049
1052.0, 0.0008279927800954973
1053.0, 0.0008069558094852277
1054.0, 0.0009261884003450322
1055.0, 0.0008309722895647304
1056.0, 0.0007742648616097452
1057.0, 0.0007506601223497649
1058.0, 0.0006943018941755883
1059.0, 0.0006795196695383799
1060.0, 0.0006849963936554892
1061.0, 0.0006288719076536892
1062.0, 0.0006478775239781249
1063.0, 0.0005425574027858493
1064.0, 0.0005602211793363619
1065.0, 0.0004930965244432214
1066.0, 0.0003867670705798416
1067.0, 0.00045131976418004226
1068.0, 0.0004962496172397544
1069.0, 0.0003674052989774554
1070.0, 0.0003337156806012052
1071.0, 0.0002744641010174921
1072.0, 0.0003079688113224818
1073.0, 0.00030288382795396997
1074.0, 0.00035361760594009793
1075.0, 0.00034718423516585587
1076.0, 0.0003177134391224277
1077.0, 0.00021616048635764737
1078.0, 0.00012988030201518285
1079.0, 0.0001556864821668013
1080.0, 0.00011456209894290337
1081.0, 0.00015106531808244719
1082.0, 0.00018109643581456516
1083.0, 0.00015128274978814442
1084.0, 0.00011146850688393
1085.0, 0.00011335644925266472
1086.0, 0.0001333298004262612
1087.0, 9.192391870519067e-05
1088.0, 4.0825347762378664e-05
1089.0, 5.513056163457665e-05
1090.0, 6.652712587636461e-05
1091.0, 8.296077415049465e-05
1092.0, 1.7133806910237812e-06
1093.0, 3.91229563807506e-05
1094.0, 8.308042845806983e-06
1095.0, 1.544355879578061e-05
1096.0, 3.053131529358784e-05
1097.0, 1.6060564809778488e-05
1098.0, 1.3495759751089053e-05
1099.0, 1.3554434997212136e-05
1100.0, 3.953501251512414e-05
1101.0, 1.035191744809059e-05
1102.0, 3.472009763397533e-05
1103.0, 9.286673911759513e-05
1104.0, 1.3591998091511121e-05
1105.0, 1.8333590422149667e-05
1106.0, 4.7509976119187414e-05
1107.0, 1.0544978071322296e-05
1108.0, 7.108568469263645e-05
1109.0, 1.0856754429262506e-05
1110.0, 3.122126245293868e-05
1111.0, 5.91436113640492e-05
1112.0, 7.121056495120052e-05
1113.0, 6.86147383695991e-05
1114.0, 0.00011357165725587815
1115.0, 0.00015002387463490622
1116.0, 0.00014313620049441491
1117.0, 0.00011886547392310495
1118.0, 0.00015348194876748386
1119.0, 0.00020730732766907598
1120.0, 0.00015377953335250544
1121.0, 4.359375608808107e-05
1122.0, 6.352085360927394e-05
1123.0, 8.590504268738708e-05
1124.0, 8.864800401458246e-05
1125.0, 6.559266911801438e-05
1126.0, 7.351247504511717e-05
1127.0, 0.0001529613500805801
1128.0, 0.0001872324412773048
1129.0, 0.00017134296322677867
1130.0, 0.0001895389435075659
1131.0, 0.00020016317539218138
1132.0, 0.0001536997104875251
1133.0, 0.00010871628444274289
1134.0, 9.079878922151039e-05
1135.0, 0.00016962254347933036
1136.0, 8.084708039553883e-05
1137.0, 0.00011049575121837238
1138.0, 0.0001516363084355588
1139.0, 0.00011185774639504821
1140.0, 7.174024723100505e-05
1141.0, 9.800701364313332e-05
1142.0, 0.00014294438006866336
1143.0, 4.28239240469325e-05
1144.0, 0.00010309261421435373
1145.0, 0.00014178243443863252
1146.0, 0.0001674919816894212
1147.0, 0.00015833292814687355
1148.0, 0.00012187618087024769
1149.0, 0.00016691251214871037
1150.0, 0.00015063020162057675
1151.0, 5.518315510761471e-05
1152.0, 5.845693709915076e-05
1153.0, 0.0001242935028258403
1154.0, 9.56062225052608e-05
1155.0, 0.00010023289332261864
1156.0, 0.00012780186603540146
1157.0, 2.4567486217927662e-05
1158.0, 1.9408427494039613e-05
1159.0, 0.00014371960537157242
1160.0, 0.0001439792764109347
1161.0, 0.00011070235845367429
1162.0, 0.00015026720581814984
1163.0, 0.00017232394283550303
1164.0, 0.00012095458918604298
1165.0, 6.939796003031917e-05
1166.0, 0.00010549407749149879
1167.0, 0.00013581965089706766
1168.0, 0.0001311361724627226
1169.0, 0.00010673446666494593
1170.0, 0.0001270365463402205
1171.0, 0.00016951856281220934
1172.0, 0.00014106154438762298
1173.0, 0.00017182181642093618
1174.0, 0.00022256045455620752
1175.0, 0.00016443956362463915
1176.0, 0.0001563285804947724
1177.0, 0.00014214978108895943
1178.0, 0.00013681044164194408
1179.0, 0.00017892790587772857
1180.0, 0.0002207084586071753
1181.0, 0.0002863764153111825
1182.0, 0.0002337933416049907
1183.0, 0.0002964622242245174
1184.0, 0.0002840127601540782
1185.0, 0.00020036431748328784
1186.0, 0.0001996656438351111
1187.0, 0.00024235144216074408
1188.0, 0.0003172641062433122
1189.0, 0.00023715101880409056
1190.0, 0.00016844529590823488
1191.0, 0.0002636314333783416
1192.0, 0.0002401384057913963
1193.0, 0.00018508463214304244
1194.0, 0.0002496150572131976
1195.0, 0.00032802496669494567
1196.0, 0.000302488559329761
1197.0, 0.00017751984586020952
1198.0, 0.0001404294992686256
1199.0, 0.00023652081867541115
1200.0, 0.0002459083200662795
1201.0, 0.0002635800290714367
1202.0, 0.00021114728688095193
1203.0, 0.00022435596456555956
1204.0, 0.0002481551222420774
1205.0, 0.0002589471640241246
1206.0, 0.0002286984154109446
1207.0, 0.00024897518658071824
1208.0, 0.00024155455078713706
1209.0, 0.00023448323216037001
1210.0, 0.0002572283716189998
1211.0, 0.00023785704447592783
1212.0, 0.00020151076534006415
1213.0, 0.00019613486343219208
1214.0, 0.000182441414871217
1215.0, 0.00012906758202027233
1216.0, 0.00011334161172747152
1217.0, 0.0001523423140107883
1218.0, 0.00012830835594038556
1219.0, 0.00012897837174339645
1220.0, 0.00010692977657149921
1221.0, 5.862315462586079e-05
1222.0, 6.942833195251028e-05
1223.0, 6.220855724859705e-05
1224.0, 2.9797680835836672e-05
1225.0, 3.4744065950657964e-05
1226.0, 6.714851653984619e-05
1227.0, 2.619379065301101e-05
1228.0, 4.4625578878427114e-05
1229.0, 2.1433605364805663e-05
1230.0, 0.0001028800022273712
1231.0, 2.796500856914956e-05
1232.0, 5.35229311791778e-06
1233.0, 1.700676978881693e-05
1234.0, 1.5600824302702444e-05
1235.0, 3.853697106440676e-05
1236.0, 2.676747131843206e-05
1237.0, 9.225970918954829e-05
1238.0, 8.241477633883164e-05
1239.0, 5.807194073603113e-05
1240.0, 3.580775770000046e-05
1241.0, 3.5353427918562914e-05
1242.0, 1.604315790294359e-05
1243.0, 2.6635686022640047e-05
1244.0, 4.681914909713233e-05
1245.0, 5.629015214436611e-05
1246.0, 7.349060796449844e-05
1247.0, 7.001972387494677e-05
1248.0, 5.651132304718102e-05
1249.0, 6.477465046455929e-05
1250.0, 2.6807101296618357e-05
1251.0, 4.211256492047213e-05
1252.0, 0.0001371217269933224
1253.0, 0.00022015751834710866
1254.0, 0.00016465171150291142
1255.0, 0.00020903671919033243
1256.0, 0.00020692305087850155
1257.0, 0.000119824998738762
1258.0, 8.64196036170418e-05
1259.0, 0.00013943237849603827
1260.0, 0.00012573660193208384
1261.0, 0.00010075928378083922
1262.0, 0.00010389878688459676
1263.0, 0.00012755987684901998
1264.0, 0.0001411048787668402
1265.0, 0.00015373643514606414
1266.0, 0.0002073104820023307
1267.0, 0.0001659049076539992
1268.0, 0.00018075306171402305
1269.0, 0.0002503632808407508
1270.0, 8.609493989438942e-05
1271.0, 6.288465389810133e-05
1272.0, 6.150240082156266e-05
1273.0, 0.0001292968198231165
1274.0, 0.00012566437262810916
1275.0, 0.0001597813260433043
1276.0, 0.00016175842505835626
1277.0, 6.815336990589812e-05
1278.0, 8.010386283432481e-05
1279.0, 0.00016223075329045884
1280.0, 0.00011827031068918935
1281.0, 4.746917307848056e-05
1282.0, 7.156355317096696e-05
1283.0, 5.731217406625069e-05
1284.0, 8.96371579757812e-05
1285.0, 9.639658985398826e-05
1286.0, 9.453533138856862e-05
1287.0, 3.8357869420056354e-05
1288.0, 3.3911381400683626e-05
1289.0, 7.814060966758063e-05
1290.0, 8.216362507521862e-05
1291.0, 2.9035500555032826e-05
1292.0, 1.028236476313017e-05
1293.0, 9.3521633103079e-06
1294.0, 2.218722153445768e-06
1295.0, 7.041122126524355e-05
1296.0, 5.035336742251296e-05
1297.0, 1.2619700259945301e-05
1298.0, 3.362995813835965e-05
1299.0, 2.928602741977923e-05
1300.0, 7.584641631888406e-05
1301.0, 1.991809380343991e-05
1302.0, 3.405902381089845e-06
1303, 0.0
1304, 0.0
1305, 0.0
1306, 0.0
1307, 0.0
1308, 0.0
1309, 0.0
1310, 0.0
1311, 0.0
1312, 0.0
1313, 0.0
1314, 0.0
1315, 0.0
1316, 0.0
1317, 0.0
1318, 0.0
1319, 0.0
1320, 0.0
1321, 0.0
1322, 0.0
1323, 0.0
1324, 0.0
1325, 0.0
1326, 0.0
1327, 0.0
1328, 0.0
1329, 0.0
1330, 0.0
1331, 0.0
1332, 0.0
1333, 0.0
1334, 0.0
1335, 0.0
1336, 0.0
1337, 0.0
1338, 0.0
1339, 0.0
1340, 0.0
1341, 0.0
1342, 0.0
1343, 0.0
1344, 0.0
1345, 0.0
1346, 0.0
1347, 0.0
1348, 0.0
1349, 0.0
1350, 0.0
1351, 0.0
1352, 0.0
1353, 0.0
1354, 0.0
1355, 0.0
1356, 0.0
1357, 0.0
1358, 0.0
1359, 0.0
1360, 0.0
1361, 0.0
1362, 0.0
1363, 0.0
1364, 0.0
1365, 0.0
1366, 0.0
1367, 0.0
1368, 0.0
1369, 0.0
1370, 0.0
1371, 0.0
1372, 0.0
1373, 0.0
1374, 0.0
1375, 0.0
1376, 0.0
1377, 0.0
1378, 0.0
1379, 0.0
1380, 0.0
1381, 0.0
1382, 0.0
1383, 0.0
1384, 0.0
1385, 0.0
1386, 0.0
1387, 0.0
1388, 0.0
1389, 0.0
1390, 0.0
1391, 0.0
1392, 0.0
1393, 0.0
1394, 0.0
1395, 0.0
1396, 0.0
1397, 0.0
1398, 0.0
1399, 0.0
1400, 0.0
1401, 0.0
1402, 0.0
1403, 0.0
1404, 0.0
1405, 0.0
1406, 0.0
1407, 0.0
1408, 0.0
1409, 0.0
1410, 0.0
1411, 0.0
1412, 0.0
1413, 0.0
1414, 0.0
1415, 0.0
1416, 0.0
1417, 0.0
1418, 0.0
1419, 0.0
1420, 0.0
1421, 0.0
1422, 0.0
1423, 0.0
1424, 0.0
1425, 0.0
1426, 0.0
1427, 0.0
1428, 0.0
1429, 0.0
1430, 0.0
1431, 0.0
1432, 0.0
1433, 0.0
1434, 0.0
1435, 0.0
1436, 0.0
1437, 0.0
1438, 0.0
1439, 0.0
1440, 0.0
1441, 0.0
1442, 0.0
1443, 0.0
1444, 0.0
1445, 0.0
1446, 0.0
1447, 0.0
1448, 0.0
1449, 0.0
1450, 0.0
1451, 0.0
1452, 0.0
1453, 0.0
1454, 0.0
1455, 0.0
1456, 0.0
1457, 0.0
1458, 0.0
1459, 0.0
1460, 0.0
1461, 0.0
1462, 0.0
1463, 0.0
1464, 0.0
1465, 0.0
1466, 0.0
1467, 0.0
1468, 0.0
1469, 0.0
1470, 0.0
1471, 0.0
1472, 0.0
1473, 0.0
1474, 0.0
1475, 0.0
1476, 0.0
1477, 0.0
1478, 0.0
1479, 0.0
1480, 0.0
1481, 0.0
1482, 0.0
1483, 0.0
1484, 0.0
1485, 0.0
1486, 0.0
1487, 0.0
1488, 0.0
1489, 0.0
1490, 0.0
1491, 0.0
1492, 0.0
1493, 0.0
1494, 0.0
1495, 0.0
1496, 0.0
1497, 0.0
1498, 0.0
1499, 0.0
1500, 0.0
1501, 0.0
1502, 0.0
1503, 0.0
1504, 0.0
1505, 0.0
1506, 0.0
1507, 0.0
1508, 0.0
1509, 0.0
1510, 0.0
1511, 0.0
1512, 0.0
1513, 0.0
1514, 0.0
1515, 0.0
1516, 0.0
1517, 0.0
1518, 0.0
1519, 0.0
1520, 0.0
1521, 0.0
1522, 0.0
1523, 0.0
1524, 0.0
1525, 0.0
1526, 0.0
1527, 0.0
1528, 0.0
1529, 0.0
1530, 0.0
1531, 0.0
1532, 0.0
1533, 0.0
1534, 0.0
1535, 0.0
1536, 0.0
1537, 0.0
1538, 0.0
1539, 0.0
1540, 0.0
1541, 0.0
1542, 0.0
1543, 0.0
1544, 0.0
1545, 0.0
1546, 0.0
1547, 0.0
1548, 0.0
1549, 0.0
1550, 0.0
1551, 0.0
1552, 0.0
1553, 0.0
1554, 0.0
1555, 0.0
1556, 0.0
1557, 0.0
1558, 0.0
1559, 0.0
1560, 0.0
1561, 0.0
1562, 0.0
1563, 0.0
1564, 0.0
1565, 0.0
1566, 0.0
1567, 0.0
1568, 0.0
1569, 0.0
1570, 0.0
1571, 0.0
1572, 0.0
1573, 0.0
1574, 0.0
1575, 0.0
1576, 0.0
1577, 0.0
1578, 0.0
1579, 0.0
1580, 0.0
1581, 0.0
1582, 0.0
1583, 0.0
1584, 0.0
1585, 0.0
1586, 0.0
1587, 0.0
1588, 0.0
1589, 0.0
1590, 0.0
1591, 0.0
1592, 0.0
1593, 0.0
1594, 0.0
1595, 0.0
1596, 0.0
1597, 0.0
1598, 0.0
1599, 0.0
