30, 0.0
31, 0.0
32, 0.0
33, 0.0
34, 0.0
35, 0.0
36, 0.0
37, 0.0
38, 0.0
39, 0.0
40, 0.0
41, 0.0
42, 0.0
43, 0.0
44, 0.0
45, 0.0
46, 0.0
47, 0.0
48, 0.0
49, 0.0
50, 0.0
51, 0.0
52, 0.0
53, 0.0
54, 0.0
55, 0.0
56, 0.0
57, 0.0
58, 0.0
59, 0.0
60, 0.0
61, 0.0
62, 0.0
63, 0.0
64, 0.0
65, 0.0
66, 0.0
67, 0.0
68, 0.0
69, 0.0
70, 0.0
71, 0.0
72, 0.0
73, 0.0
74, 0.0
75, 0.0
76, 0.0
77, 0.0
78, 0.0
79, 0.0
80, 0.0
81, 0.0
82, 0.0
83, 0.0
84, 0.0
85, 0.0
86, 0.0
87, 0.0
88, 0.0
89, 0.0
90, 0.0
91, 0.0
92, 0.0
93, 0.0
94, 0.0
95, 0.0
96, 0.0
97, 0.0
98, 0.0
99, 0.0
100, 0.0
101, 0.0
102, 0.0
103, 0.0
104, 0.0
105, 0.0
106, 0.0
107, 0.0
108, 0.0
109, 0.0
110, 0.0
111, 0.0
112, 0.0
113, 0.0
114, 0.0
115, 0.0
116, 0.0
117, 0.0
118, 0.0
119, 0.0
120, 0.0
121, 0.0
122, 0.0
123, 0.0
124, 0.0
125.0, 5.243288827767588e-06
126.0, 0.0002169095878184662
127.0, 0.0005562354572842648
128.0, 0.0008384421467453995
129.0, 0.0011703136916234196
130.0, 0.0009403154194804174
131.0, 0.00019520955513444512
132.0, 3.441027092124586e-05
133.0, 0.0003698521336874756
134.0, 0.0010008177081759515
135.0, 0.0012976249667545408
136.0, 0.0014218114585677186
137.0, 0.0016438072201085307
138.0, 0.001788671000328088
139.0, 0.001645667438434113
140.0, 0.0025865915962977933
141.0, 0.0025819972703433622
142.0, 0.0023829950698250474
143.0, 0.003247131311609106
144.0, 0.004533498501643205
145.0, 0.00434039832159714
146.0, 0.004782832177297544
147.0, 0.005503689122126901
148.0, 0.004133806723899656
149.0, 0.004115240944960428
150.0, 0.00401534275246853
151.0, 0.0033841245805020246
152.0, 0.0025678224979324435
153.0, 0.0028237588407318713
154.0, 0.0024586936093400056
155.0, 0.0022149898481856607
156.0, 0.0029263848112564546
157.0, 0.0015584924285873259
158.0, 0.0007251002956448758
159.0, 0.0005923111689549623
160.0, 0.0004281291463318828
161.0, 0.0005356465596100514
162.0, 0.0010286989517295931
163.0, 0.0004695982466727215
164.0, 0.000458826406294427
165.0, 0.0005336628016785865
166.0, 0.00015910455033149367
167.0, 0.00014562226564204906
168.0, 0.00047484965305290126
169.0, 0.0007866690609157358
170.0, 0.0008508775587719977
171.0, 0.0007298619797638103
172.0, 0.0007557698793247469
173.0, 0.001460053543639161
174.0, 0.003200354347733643
175.0, 0.004250107721940495
176.0, 0.005451432665887049
177.0, 0.007043694370390893
178.0, 0.00858733363582341
179.0, 0.009805817951445448
180.0, 0.011022766410853315
181.0, 0.012374573989590219
182.0, 0.014036518243071972
183.0, 0.016390877653198997
184.0, 0.017911811370295926
185.0, 0.01975439273322656
186.0, 0.02279310179059966
187.0, 0.02649523330654732
188.0, 0.028778344859103244
189.0, 0.03244804758106768
190.0, 0.03693792813771606
191.0, 0.0402896227913945
192.0, 0.04261546870705002
193.0, 0.04305303777031791
194.0, 0.042373951339305514
195.0, 0.04082684885361897
196.0, 0.03717866887058413
197.0, 0.03082254428301557
198.0, 0.024164900736550466
199.0, 0.01885001991449683
200.0, 0.015314504280867976
201.0, 0.013040646756524044
202.0, 0.011363356407096204
203.0, 0.010435897240956749
204.0, 0.010438818774622969
205.0, 0.01099933195713366
206.0, 0.011232726573759615
207.0, 0.011565115001107016
208.0, 0.01224640878226131
209.0, 0.013261013583231583
210.0, 0.014614704771550953
211.0, 0.01607655288033177
212.0, 0.01799092210942113
213.0, 0.02029958518913047
214.0, 0.021750819688839382
215.0, 0.022615662819221106
216.0, 0.024565591260898988
217.0, 0.02764205385593018
218.0, 0.030472922955303745
219.0, 0.03229468546406753
220.0, 0.033756155673901764
221.0, 0.03454140531073442
222.0, 0.034402863177181636
223.0, 0.03473571527937338
224.0, 0.0335819818953593
225.0, 0.030901085399585183
226.0, 0.027299015833486456
227.0, 0.02354110292418558
228.0, 0.020301707794469333
229.0, 0.01762082067216688
230.0, 0.014930546536162029
231.0, 0.012097947195287211
232.0, 0.010602942568775402
233.0, 0.008227078616938461
234.0, 0.006307733595954592
235.0, 0.005213855360976323
236.0, 0.004160066694420488
237.0, 0.003471412898385346
238.0, 0.0028945062586576632
239.0, 0.002647911880572303
240.0, 0.0026508881154635473
241.0, 0.0017924041486315253
242.0, 0.0017625089529829288
243.0, 0.0017804171054208347
244.0, 0.0018412695817101262
245.0, 0.0027381663934029003
246.0, 0.002510621640631569
247.0, 0.0019920504235788877
248.0, 0.0018276015146180967
249.0, 0.0024815032394291253
250.0, 0.004178822721871387
251.0, 0.0040674020957198785
252.0, 0.003915073806397077
253.0, 0.003882318866407775
254.0, 0.002880552545046495
255.0, 0.002073422050925278
256.0, 0.0011283891277606975
257.0, 0.00042244312493023726
258.0, 0.00013939671396620432
259.0, 8.53469108362135e-05
260.0, 0.0005004511404285486
261.0, 0.0002595688423455456
262.0, 0.0003753436353856795
263.0, 9.616232456792601e-05
264.0, 9.977425272058229e-05
265.0, 0.0006623144484049317
266.0, 0.0012354134777410974
267.0, 0.0015672253766531063
268.0, 0.0016971849834120098
269.0, 0.001370941691080297
270.0, 0.0023274967781020477
271.0, 0.0032844731266502506
272.0, 0.0032980404017773587
273.0, 0.0046276261058543315
274.0, 0.004773758704677831
275.0, 0.005629156506372056
276.0, 0.006752468223887845
277.0, 0.006698916281481162
278.0, 0.008249468870386007
279.0, 0.008862890565622611
280.0, 0.009340320894020631
281.0, 0.010299409620702698
282.0, 0.01070952386210549
283.0, 0.010207046893396908
284.0, 0.011463192084843244
285.0, 0.013271412879399253
286.0, 0.01370483876290995
287.0, 0.013491382624219284
288.0, 0.01373912189756967
289.0, 0.013584749329555515
290.0, 0.0126024105209704
291.0, 0.01143180847994644
292.0, 0.011506593183387537
293.0, 0.011125244966107723
294.0, 0.010417485428339101
295.0, 0.009524927336295912
296.0, 0.008110187916145623
297.0, 0.008009272466883398
298.0, 0.007714228108472708
299.0, 0.007081751115352259
300.0, 0.006587895420118745
301.0, 0.006318073811622509
302.0, 0.007000063991566589
303.0, 0.006280453270863957
304.0, 0.005160604755793859
305.0, 0.0056560038498262195
306.0, 0.0051472810077844745
307.0, 0.0054060602330116185
308.0, 0.005124789857216704
309.0, 0.004319124581986609
310.0, 0.004533609987942644
311.0, 0.00447564763745048
312.0, 0.004409490747783012
313.0, 0.003922690600963464
314.0, 0.003055693808424076
315.0, 0.0028244762469856687
316.0, 0.0023821180408542964
317.0, 0.002030490338617215
318.0, 0.0016706840598278102
319.0, 0.0012289892627397221
320.0, 0.0012712975473628291
321.0, 0.0005920016485011777
322.0, 0.00030546115041755404
323.0, 0.00039447584156768477
324.0, 0.0001545238050612869
325.0, 0.0002875699297342239
326.0, 0.0005075197045179733
327.0, 0.0002861177427948624
328.0, 0.00012015201644017811
329.0, 0.0003012020862845074
330.0, 4.9998372117871223e-05
331.0, 0.000177047592095871
332.0, 0.0003252712613258074
333.0, 0.0006851391316587938
334.0, 0.0006749706945999524
335.0, 0.00020099213137938035
336.0, 0.00014808789225462615
337.0, 0.00017400972460819932
338.0, 0.0001363284211642079
339.0, 0.00013113453824987938
340.0, 0.00017675519695506436
341.0, 0.0003242101887432425
342.0, 0.00024452835288313535
343.0, 0.00014162203938986007
344.0, 0.0002046238061860922
345.0, 0.0009410522994518642
346.0, 0.002166650797695969
347.0, 0.002635881265971494
348.0, 0.002332396871760917
349.0, 0.0012682940829782043
350.0, 0.0003157036855832753
351.0, 0.000550434163822364
352.0, 0.0010889469711006375
353.0, 0.0008324562915885043
354.0, 0.00037659029970063096
355.0, 0.00015219829514571164
356.0, 0.00042282199318770453
357.0, 0.00047652332833845556
358.0, 0.0009020677808181662
359.0, 0.0031166446815652253
360.0, 0.004385473579877899
361.0, 0.004707124482661636
362.0, 0.004580368066473607
363.0, 0.00384420386113855
364.0, 0.004611181669246333
365.0, 0.0050222980741241674
366.0, 0.004272799058060673
367.0, 0.002757532630129183
368.0, 0.0015366249334179405
369.0, 0.0013131086151811024
370.0, 0.0013921192198688918
371.0, 0.0016359828485952275
372.0, 0.0019888808511826766
373.0, 0.0020109836216440757
374.0, 0.0025442306496971413
375.0, 0.0031381521749884464
376.0, 0.0034499564230111505
377.0, 0.0036701336190377394
378.0, 0.004437793553189827
379.0, 0.00444173765038191
380.0, 0.004582120437843301
381.0, 0.004886301333794316
382.0, 0.005124292952889683
383.0, 0.006282714149825091
384.0, 0.0074449015289659234
385.0, 0.008706225866964448
386.0, 0.010023882739884284
387.0, 0.011410961349779673
388.0, 0.013276074687128103
389.0, 0.01567436863183999
390.0, 0.018417826305802056
391.0, 0.021780737881719234
392.0, 0.02585774652610752
393.0, 0.02939935590504523
394.0, 0.03551496330048033
395.0, 0.04192424554541802
396.0, 0.04864866904207459
397.0, 0.05667778049364592
398.0, 0.06462703985874228
399.0, 0.0735566462125555
400.0, 0.08048223345236184
401.0, 0.08345384591923644
402.0, 0.08344166428512768
403.0, 0.08548358340317193
404.0, 0.09016878956503566
405.0, 0.09641938556353338
406.0, 0.10115711649269887
407.0, 0.1013983024251934
408.0, 0.09551129909755678
409.0, 0.08195153600019614
410.0, 0.06562847410210206
411.0, 0.050573723494947924
412.0, 0.038934980127679174
413.0, 0.030707395215950332
414.0, 0.02425052612519032
415.0, 0.019929126283880712
416.0, 0.017150840007052023
417.0, 0.014937152331402383
418.0, 0.013315540519888484
419.0, 0.01190024480247004
420.0, 0.011679700273484066
421.0, 0.0117754395400707
422.0, 0.01115837866986964
423.0, 0.010696701211857416
424.0, 0.010981816041723779
425.0, 0.011178546678220859
426.0, 0.011324556883706541
427.0, 0.011943721816045878
428.0, 0.013392044596979107
429.0, 0.014317137179249557
430.0, 0.015464900603902076
431.0, 0.016804714262326492
432.0, 0.0181227415719317
433.0, 0.019838013045625772
434.0, 0.022334456489957234
435.0, 0.024059762538919005
436.0, 0.026014994405433478
437.0, 0.0285980551262875
438.0, 0.030177910218495318
439.0, 0.031252340082277855
440.0, 0.032133205890133736
441.0, 0.0319884291915925
442.0, 0.0303442897141639
443.0, 0.02780811075397229
444.0, 0.025058295847717346
445.0, 0.02278254668387882
446.0, 0.02073043582012439
447.0, 0.018570597134982266
448.0, 0.016236217302008304
449.0, 0.014054336360154487
450.0, 0.01266996707214934
451.0, 0.011348613716436426
452.0, 0.010547429346722387
453.0, 0.01095954874905065
454.0, 0.010561224006793829
455.0, 0.009357893625592126
456.0, 0.00939551957525582
457.0, 0.010058898148201862
458.0, 0.009852608707073328
459.0, 0.009677563408486956
460.0, 0.009949768593080322
461.0, 0.010676651599699606
462.0, 0.010772542456975507
463.0, 0.010127048080290578
464.0, 0.010491995995606136
465.0, 0.010019640764334495
466.0, 0.009230593538542942
467.0, 0.008985123202786393
468.0, 0.00912342048158136
469.0, 0.008497181235709996
470.0, 0.008341130925178013
471.0, 0.008518838894987462
472.0, 0.007859036414977427
473.0, 0.006868547868206459
474.0, 0.007001496423554709
475.0, 0.006998711648959801
476.0, 0.0062724045760830524
477.0, 0.005274454557710269
478.0, 0.004770296840374128
479.0, 0.00475150121899764
480.0, 0.0037303673808024448
481.0, 0.0030547266203002125
482.0, 0.002324886388714576
483.0, 0.0016555273880433298
484.0, 0.0012054327782570848
485.0, 0.000674218891244143
486.0, 0.001250134866065579
487.0, 0.0005141009928801215
488.0, 0.0002046580839326051
489.0, 0.000759733847030508
490.0, 0.0002727294957730899
491.0, 0.00019985296319091275
492.0, 0.0001779975377618742
493.0, 0.00019779721616203377
494.0, 0.0004393026061547056
495.0, 0.0005952158109565205
496.0, 0.0005870690840257646
497.0, 0.0006285737351763225
498.0, 0.000755953984953015
499.0, 0.00039532367257609036
500.0, 0.00024021469097691922
501.0, 0.00021774820356418605
502.0, 0.000782066775429895
503.0, 0.000687464062879259
504.0, 0.0001788764799921745
505.0, 0.0002902730717446976
506.0, 4.49927795729771e-05
507.0, 0.00010107572220545695
508.0, 0.0008307574978260631
509.0, 0.0008653275404592726
510.0, 0.00023617639882947977
511.0, 7.972735687662643e-05
512.0, 0.000595292872603554
513.0, 0.0006151213915480278
514.0, 0.0004733904222853459
515.0, 0.00048506784561525696
516.0, 0.0005965102202766425
517.0, 0.000519440553083594
518.0, 8.926832118808087e-05
519.0, 3.545996103296638e-05
520.0, 0.0003904154190230991
521.0, 0.0008036803210377999
522.0, 0.0009671932132350816
523.0, 0.0009680592146967381
524.0, 0.0012307556990567316
525.0, 0.0015000792128297804
526.0, 0.001073923951833714
527.0, 0.0003723395249302133
528.0, 0.0010880717006974908
529.0, 0.002246912635157572
530.0, 0.0019725088768451867
531.0, 0.0014934748876862655
532.0, 0.001964184807915496
533.0, 0.0030772051280349893
534.0, 0.002036404970905548
535.0, 0.002291053962610203
536.0, 0.0025669005939240016
537.0, 0.002704175940983579
538.0, 0.002809905509102713
539.0, 0.002124965923597788
540.0, 0.0027102562505552804
541.0, 0.003017208586441534
542.0, 0.002712460380435573
543.0, 0.0026617159560151263
544.0, 0.0032028562323087877
545.0, 0.0020281411427098966
546.0, 0.00199589555843928
547.0, 0.0021000678966250487
548.0, 0.002420199093593309
549.0, 0.003081351052656457
550.0, 0.0030010977569796394
551.0, 0.003101970482054908
552.0, 0.0022372098944888506
553.0, 0.0019207546253050848
554.0, 0.002135361313335714
555.0, 0.0017589654094980474
556.0, 0.001697578186341213
557.0, 0.00129122863524033
558.0, 0.0009886936529337701
559.0, 0.0009891814405285089
560.0, 0.0009522508982710096
561.0, 0.00047389387229088137
562.0, 0.0007693432504401
563.0, 0.0012712231769276081
564.0, 0.0008350996809174001
565.0, 0.0002800501717439054
566.0, 0.0004495448369994985
567.0, 4.5324590757220345e-05
568.0, 0.00016602919370371425
569.0, 5.6131421292243965e-05
570.0, 0.0003634291898473923
571.0, 0.0003071128214166732
572.0, 0.0007093846148974089
573.0, 0.0002130086520342048
574.0, 0.0003216377169097282
575.0, 0.0006698346614462928
576.0, 0.0005397416713208789
577.0, 0.00040988019976417075
578.0, 0.00021477326891967865
579.0, 0.00047691013162044446
580.0, 0.0005093099495636499
581.0, 0.0010399540465682701
582.0, 0.0013774967485055117
583.0, 0.0007934610045003537
584.0, 0.0007462638850147046
585.0, 0.000998595677209074
586.0, 0.001216366303186503
587.0, 0.001417385321315692
588.0, 0.0015185010884409913
589.0, 0.0015137692251910569
590.0, 0.0020811496060695383
591.0, 0.002092641425119327
592.0, 0.0020759191302304456
593.0, 0.0017464903321027917
594.0, 0.001443379519259167
595.0, 0.0020997095429465627
596.0, 0.0023527035176794634
597.0, 0.002046273860487983
598.0, 0.0023886396611311656
599.0, 0.0030293392377507677
600.0, 0.0034239615477639094
601.0, 0.0039239889812258
602.0, 0.0035304600829172026
603.0, 0.004038255082729767
604.0, 0.004382028942518397
605.0, 0.004582768387669242
606.0, 0.0050816843041100995
607.0, 0.004967633171536745
608.0, 0.005835672680313716
609.0, 0.0060711947994275765
610.0, 0.005536008302011471
611.0, 0.005055335388984616
612.0, 0.0053371026067771275
613.0, 0.0063835808681566705
614.0, 0.006745250262702446
615.0, 0.006304886796594377
616.0, 0.006687809792488557
617.0, 0.007445844264606527
618.0, 0.00702746123147949
619.0, 0.007458277466735261
620.0, 0.007545555151249578
621.0, 0.006730017167840433
622.0, 0.006511209926138297
623.0, 0.006868583634645916
624.0, 0.006306090820641403
625.0, 0.006504734695383918
626.0, 0.006069775420607772
627.0, 0.0057311329434081995
628.0, 0.005697804060243277
629.0, 0.005711191088910436
630.0, 0.005511445300924605
631.0, 0.005343154973422761
632.0, 0.005011808769932286
633.0, 0.004044602463294389
634.0, 0.003670075937706069
635.0, 0.004223776342119222
636.0, 0.0044296787288210385
637.0, 0.004044715595526522
638.0, 0.004103151666126148
639.0, 0.0037568251000171357
640.0, 0.0031963762211421613
641.0, 0.003142583240764196
642.0, 0.0035255441884458182
643.0, 0.0030062586312679202
644.0, 0.002643784348081528
645.0, 0.002467654966710778
646.0, 0.0025513371363377595
647.0, 0.0026992350185034027
648.0, 0.002545586757167232
649.0, 0.0024866676844253607
650.0, 0.003046520227753419
651.0, 0.00273788769889418
652.0, 0.002338940648519141
653.0, 0.00276754380846588
654.0, 0.0033981134472915553
655.0, 0.0029475097810822367
656.0, 0.002141476831655525
657.0, 0.0025530660712112614
658.0, 0.0028623422474826467
659.0, 0.0026089174651410764
660.0, 0.003162316147276687
661.0, 0.0025786537266394753
662.0, 0.00220727033762613
663.0, 0.0021637732018397046
664.0, 0.0025926442332840065
665.0, 0.00283382432639155
666.0, 0.002060736501318074
667.0, 0.0021387416957630184
668.0, 0.0020415499523521105
669.0, 0.0019158591697041561
670.0, 0.0017427532521369167
671.0, 0.0018021515591608447
672.0, 0.0022343637264695872
673.0, 0.0019831528381753514
674.0, 0.0021461232059684578
675.0, 0.0018361014025415723
676.0, 0.0011331262628884275
677.0, 0.0009430867605731828
678.0, 0.00158862867249823
679.0, 0.000783780032341778
680.0, 0.00020088583955675906
681.0, 0.0013115545426562784
682.0, 0.0011357300198545754
683.0, 0.00012735929965372868
684.0, 0.0006928024476918818
685.0, 0.000984715074079012
686.0, 0.00024228425907054984
687.0, 0.0001818601918362781
688.0, 0.00033977942812516836
689.0, 0.0008087346929414402
690.0, 0.0008716238527840747
691.0, 0.0005127076350153071
692.0, 0.0005575698314815427
693.0, 0.0007732388718590754
694.0, 0.0005984027932910536
695.0, 0.0003548860624917473
696.0, 0.0003525898242099259
697.0, 0.0002930546224483506
698.0, 0.00014280729573973856
699.0, 2.0396370349659715e-05
700.0, 3.312847266068328e-05
701.0, 0.0001386631491213563
702.0, 0.00010201917182109944
703.0, 0.0002859725196486627
704.0, 0.0004324067114256773
705.0, 0.0003807546290436255
706.0, 0.00014512221484278757
707.0, 0.0003860653409649033
708.0, 0.000213184767514413
709.0, 0.0002694365765361224
710.0, 0.00010329928874980476
711.0, 0.00023882646840289178
712.0, 0.0006955294661284066
713.0, 0.00020698529626143685
714.0, 0.0002305555159700134
715.0, 8.383890577180415e-05
716.0, 0.0002643383580108421
717.0, 0.0002353566642850607
718.0, 0.0002987838892723122
719.0, 0.000693613350506227
720.0, 0.00028498207869183487
721.0, 0.0004745286039780182
722.0, 0.0002139515022403036
723.0, 7.78938797218534e-05
724.0, 9.354831712479624e-06
725.0, 0.0002482808906367028
726.0, 0.00012992292447274757
727.0, 0.00010203112310917356
728.0, 0.00041837461524783846
729.0, 0.00013769137848049204
730.0, 0.0001724598019668886
731.0, 0.00039545862951031335
732.0, 0.00014087687453102533
733.0, 0.00032589018480316074
734.0, 0.0003439741465303931
735.0, 0.00026852015273393684
736.0, 7.845071247485343e-05
737.0, 0.00042735390043726257
738.0, 0.00014643128325097233
739.0, 0.0004386418436900483
740.0, 0.0002746448808854097
741.0, 0.00032219741182192853
742.0, 7.30952433840737e-05
743.0, 0.000575174424311583
744.0, 0.0008860884097766314
745.0, 0.0012072827763656346
746.0, 0.0016886154140793607
747.0, 0.0016099556658330585
748.0, 0.0006838871529779293
749.0, 0.000623906262292061
750.0, 0.00131119738385286
751.0, 0.0018712187262535647
752.0, 0.0026274193470203415
753.0, 0.0026704306916200938
754.0, 0.0017178607467256335
755.0, 0.0012417037998965084
756.0, 0.0012023956441608232
757.0, 0.0010912647514882078
758.0, 0.0015167858300033715
759.0, 0.0019970008990828347
760.0, 0.0020498002377458595
761.0, 0.0017673483864145865
762.0, 0.0015867304434654711
763.0, 0.0003929164488122607
764.0, 0.0009458586178771304
765.0, 0.001864992509685311
766.0, 0.002212523116617066
767.0, 0.00201642741712305
768.0, 0.001770348854490557
769.0, 0.0024124401976700276
770.0, 0.0016282498253429097
771.0, 0.0015870114282362435
772.0, 0.001975545195393026
773.0, 0.002387217671295833
774.0, 0.002855618781798002
775.0, 0.0029503473500987927
776.0, 0.0017215841661865638
777.0, 0.002725050322874992
778.0, 0.0036905320015082586
779.0, 0.00365776919188832
780.0, 0.003568543805161317
781.0, 0.003941910860862437
782.0, 0.004380781618357369
783.0, 0.005629293417612667
784.0, 0.005637509001632237
785.0, 0.0059425139781758615
786.0, 0.006627448053870615
787.0, 0.007297099702139667
788.0, 0.00782032727072504
789.0, 0.008002539625601634
790.0, 0.009387374308769809
791.0, 0.010898566917972126
792.0, 0.011735918617391749
793.0, 0.012367211875013164
794.0, 0.013337509605235586
795.0, 0.014615661058722302
796.0, 0.01624135021841899
797.0, 0.018027703217001454
798.0, 0.0196343063986118
799.0, 0.020785283461339583
800.0, 0.02296092021988141
801.0, 0.025957179364924962
802.0, 0.028187626469369148
803.0, 0.031470298741609004
804.0, 0.03617890210556405
805.0, 0.03914280527255727
806.0, 0.042910722028941896
807.0, 0.048154570511960135
808.0, 0.0540140161363043
809.0, 0.06020384126215918
810.0, 0.06732779811397761
811.0, 0.0790216880014219
812.0, 0.0941923505411704
813.0, 0.11219678450465005
814.0, 0.13472480966591027
815.0, 0.16130952712740998
816.0, 0.1888377978903894
817.0, 0.2174263235750728
818.0, 0.24619660304207072
819.0, 0.2790284208727085
820.0, 0.3216794701361392
821.0, 0.3744109994816016
822.0, 0.4394205202114061
823.0, 0.5203458098355731
824.0, 0.6125098776744099
825.0, 0.715343164729117
826.0, 0.807127346008974
827.0, 0.8359565352784492
828.0, 0.7591143497680237
829.0, 0.5979032069175032
830.0, 0.4264295548536914
831.0, 0.2999367135739977
832.0, 0.21819020102289505
833.0, 0.16223416759130874
834.0, 0.12432320259042366
835.0, 0.099882124718466
836.0, 0.08202806094679982
837.0, 0.06697907681800498
838.0, 0.056838930257170496
839.0, 0.04770485565513336
840.0, 0.040672538219790125
841.0, 0.035555511454888514
842.0, 0.031032598246900984
843.0, 0.02674316444262289
844.0, 0.02327957222046562
845.0, 0.02072457670751364
846.0, 0.01801079812838395
847.0, 0.01561792983824224
848.0, 0.014494345706924395
849.0, 0.013281348694395467
850.0, 0.012373257333446557
851.0, 0.011538411012826292
852.0, 0.009351699910897605
853.0, 0.008649458421442338
854.0, 0.007841597882136049
855.0, 0.006812894836169239
856.0, 0.0059009772559749495
857.0, 0.005319330467190861
858.0, 0.004768470740397557
859.0, 0.004120498150918886
860.0, 0.0038860176196230836
861.0, 0.0019737302576743757
862.0, 0.0008661977196364066
863.0, 0.000477378679518979
864.0, 0.0001247972310443011
865.0, 0.0002696117941081084
866.0, 0.0007254094665356977
867.0, 0.00026983289675478524
868.0, 0.00019551552490835815
869.0, 0.000799698066521287
870.0, 0.0007457446104328148
871.0, 0.0008351133611985666
872.0, 0.0009181663225874379
873.0, 0.00034416508590739205
874.0, 0.00014227711037527316
875.0, 0.0007786072945343066
876.0, 0.00016855681422167003
877.0, 0.00018493452448010208
878.0, 8.75203087422083e-05
879.0, 0.0004275964671093358
880.0, 0.0006083242119672531
881.0, 0.0008970556117379263
882.0, 0.0012126805784151316
883.0, 0.001747467663699427
884.0, 0.0052170319218891575
885.0, 0.004335617322963935
886.0, 0.0034125188209618656
887.0, 0.004570094177883672
888.0, 0.005838485714976626
889.0, 0.006514488363438499
890.0, 0.0067274479839171085
891.0, 0.00760366650616844
892.0, 0.00877938370477493
893.0, 0.00937290001916062
894.0, 0.010388926458357524
895.0, 0.011162288437881059
896.0, 0.011496115397860404
897.0, 0.01288363177975471
898.0, 0.012085516956873916
899.0, 0.011746799972850948
900.0, 0.013393401028011205
901.0, 0.013101616189176577
902.0, 0.012420658996349414
903.0, 0.012334541799407375
904.0, 0.011467857763949976
905.0, 0.0106953614852885
906.0, 0.009870345001265
907.0, 0.008966888059249249
908.0, 0.008328568550454045
909.0, 0.006813402258344518
910.0, 0.005071196960089323
911.0, 0.004057705537744849
912.0, 0.003384555616424566
913.0, 0.002586127645436841
914.0, 0.003067323682444707
915.0, 0.0026137245628454348
916.0, 0.0017108511390235461
917.0, 0.0016483485273400917
918.0, 0.0012317435971921414
919.0, 0.0002440259708927609
920.0, 0.00016145983145415536
921.0, 0.00013145059306194967
922.0, 0.0003285002914579489
923.0, 0.0008064028354306413
924.0, 0.0002617411527242883
925.0, 0.00015991333530949667
926.0, 0.0008444225242797144
927.0, 0.0009958746259887594
928.0, 0.00036655006481437933
929.0, 7.353818178819271e-05
930.0, 0.0004832305117279753
931.0, 0.0009313894619376175
932.0, 0.0009959691667372793
933.0, 0.0010201542489648495
934.0, 0.0008463192496620364
935.0, 0.0004563650898826093
936.0, 0.0002502509988379201
937.0, 0.0011138473780702982
938.0, 0.0007770390575502057
939.0, 0.001191294540046847
940.0, 0.0018039565453821468
941.0, 0.003052077553939165
942.0, 0.003950928487773154
943.0, 0.004611115109380508
944.0, 0.006672378029948986
945.0, 0.00894832308405591
946.0, 0.008406554055057181
947.0, 0.010158046546755452
948.0, 0.011860949285828055
949.0, 0.013549944560525379
950.0, 0.015528250393129482
951.0, 0.017712686403629094
952.0, 0.020198633017186378
953.0, 0.022747689624979806
954.0, 0.024662508956924553
955.0, 0.027163394815620495
956.0, 0.02976269424875301
957.0, 0.03175068994684411
958.0, 0.03317253550123233
959.0, 0.034810686545494504
960.0, 0.03660790582591318
961.0, 0.03731645817292229
962.0, 0.03846827321561206
963.0, 0.040690468885020224
964.0, 0.04249216100922449
965.0, 0.044358825516756954
966.0, 0.046909597294151846
967.0, 0.05139201098792808
968.0, 0.057724990020608956
969.0, 0.06432349309588893
970.0, 0.0717444159086206
971.0, 0.0802216008037049
972.0, 0.0921706617907307
973.0, 0.10561144714790768
974.0, 0.12198890088742707
975.0, 0.14209228837692078
976.0, 0.16636994895880297
977.0, 0.19574064345269557
978.0, 0.23004161290068434
979.0, 0.26924312504518744
980.0, 0.31454595995372303
981.0, 0.3644422008705076
982.0, 0.4175154221892472
983.0, 0.48023739023282014
984.0, 0.5527814625355062
985.0, 0.6334898220214289
986.0, 0.7254503012967857
987.0, 0.8227661152728188
988.0, 0.907459405443456
989.0, 0.9721240035976018
990.0, 0.9985502622597701
991.0, 0.9912543228242533
992.0, 0.9608001974515449
993.0, 0.9269654835742922
994.0, 0.9068981020219077
995.0, 0.8928438723986215
996.0, 0.8883161730944602
997.0, 0.8690755413004323
998.0, 0.8088524744931966
999.0, 0.7089355142224743
1000.0, 0.5922379236582503
1001.0, 0.48084718016847083
1002.0, 0.38933686960156993
1003.0, 0.3251421148095421
1004.0, 0.28066207603855414
1005.0, 0.2458716254984123
1006.0, 0.21206494895953854
1007.0, 0.18052459950922398
1008.0, 0.15047363357919077
1009.0, 0.12502671409984284
1010.0, 0.10497197038139423
1011.0, 0.08881158236226304
1012.0, 0.07626876835437817
1013.0, 0.06591289802044398
1014.0, 0.0580005593839947
1015.0, 0.05047257579913297
1016.0, 0.044612143600977
1017.0, 0.03967449301610195
1018.0, 0.036057825274154985
1019.0, 0.03295789661424887
1020.0, 0.02955650563152223
1021.0, 0.02711005022857816
1022.0, 0.02505315514844465
1023.0, 0.022835369288941695
1024.0, 0.020355247060641454
1025.0, 0.018838482006917852
1026.0, 0.017508808637730612
1027.0, 0.0162281397045294
1028.0, 0.014623973065884855
1029.0, 0.012496921768764322
1030.0, 0.010707244503192472
1031.0, 0.00990098949945268
1032.0, 0.009532586023439371
1033.0, 0.008418459909829245
1034.0, 0.00729188939670898
1035.0, 0.007111394231103331
1036.0, 0.00679471227537688
1037.0, 0.006062367258152955
1038.0, 0.00515779096022442
1039.0, 0.004289806046829419
1040.0, 0.004558200857394528
1041.0, 0.004136314650566888
1042.0, 0.003597787424418227
1043.0, 0.004218579077728422
1044.0, 0.0037270153502844843
1045.0, 0.0030478588028281265
1046.0, 0.002747778074841349
1047.0, 0.002310257519434425
1048.0, 0.0021617834083822694
1049.0, 0.0025391235926534956
1050.0, 0.00211525186881867
1051.0, 0.0024897323579165078
1052.0, 0.0023368055376603546
1053.0, 0.002000807992131271
1054.0, 0.0016323581831983573
1055.0, 0.0011540656837587646
1056.0, 0.0007064001533386608
1057.0, 0.00046522984627208106
1058.0, 0.000474698589747348
1059.0, 0.0007287443910757969
1060.0, 0.0004346541707926556
1061.0, 0.0005853248014787153
1062.0, 0.00026566676722480985
1063.0, 0.00023839728453267357
1064.0, 0.00030452982899166703
1065.0, 0.00028434550352387784
1066.0, 0.00045145232142980977
1067.0, 0.000430404355195693
1068.0, 0.00043277485905458455
1069.0, 0.00017019269502856045
1070.0, 9.12788737195102e-05
1071.0, 0.0001567767295537613
1072.0, 0.0009013155103045132
1073.0, 0.0013201271773268554
1074.0, 0.0012165132859953541
1075.0, 0.0009582608981106742
1076.0, 0.0004499757368269696
1077.0, 0.00020500901274275737
1078.0, 0.0004549005384792448
1079.0, 0.0005353749025006216
1080.0, 0.0002976520684317609
1081.0, 0.00018704413101219513
1082.0, 0.00019726360993130998
1083.0, 0.00012720929469704154
1084.0, 7.716791534728532e-05
1085.0, 0.0005804927166568102
1086.0, 0.0006317978119717502
1087.0, 7.791457708231436e-05
1088.0, 0.00037952468152004646
1089.0, 0.0006607727122628209
1090.0, 0.0003562739221147256
1091.0, 0.0006029535981623218
1092.0, 0.00030250281230096413
1093.0, 0.0007932446686001506
1094.0, 0.0014834923239765623
1095.0, 0.0011983992662823358
1096.0, 0.0008791300422613519
1097.0, 0.001606164490854126
1098.0, 0.0012379542528889356
1099.0, 0.0015627952828673418
1100.0, 0.0016314882420350595
1101.0, 0.0009699294925105046
1102.0, 0.0008510220578394819
1103.0, 0.001671823590655507
1104.0, 0.0011448190808927556
1105.0, 0.0005016393674128123
1106.0, 0.0010918478259668405
1107.0, 0.0010101430365348253
1108.0, 0.001141806748844859
1109.0, 0.0017806819732532045
1110.0, 0.002516431334628339
1111.0, 0.0021798816351782354
1112.0, 0.001272541639898506
1113.0, 0.0014722245130339704
1114.0, 0.002142896317774953
1115.0, 0.0018533258417580225
1116.0, 0.001533252306122744
1117.0, 0.0020743611242758325
1118.0, 0.001974964101250863
1119.0, 0.002457783384471185
1120.0, 0.0011117846107388588
1121.0, 0.0013238140266320034
1122.0, 0.0016031608671602197
1123.0, 0.0015216108094941118
1124.0, 0.001498440198868069
1125.0, 0.0016066399432404922
1126.0, 0.0018668448125947967
1127.0, 0.0017940138666105423
1128.0, 0.0009619081238825965
1129.0, 0.0009674762179474844
1130.0, 0.0011938506453737334
1131.0, 0.00018772249341651454
1132.0, 0.00023152260300310522
1133.0, 0.00013183614909742123
1134.0, 0.0006037346922045256
1135.0, 0.0005016777795675694
1136.0, 0.000373033568941033
1137.0, 0.000594168876120403
1138.0, 0.0004775004098019381
1139.0, 0.00011270542955548023
1140.0, 0.0002736934070366769
1141.0, 0.0002146773069744926
1142.0, 0.0010842303660980846
1143.0, 0.0013136343022468334
1144.0, 0.000817454775594639
1145.0, 0.0006657041355714323
1146.0, 0.0005998278399364051
1147.0, 0.0005782074690106188
1148.0, 0.0007514587513003802
1149.0, 0.0007889114943438771
1150.0, 0.0007040652923798464
1151.0, 0.0007882724594899051
1152.0, 0.00030480810907845607
1153.0, 0.001637258619925158
1154.0, 0.0025826695363857454
1155.0, 0.0020099341310531042
1156.0, 0.0015936133486196564
1157.0, 0.0015033419215788716
1158.0, 0.001199460413311568
1159.0, 0.0010616738861318929
1160.0, 0.0013066118215270858
1161.0, 0.0013984983368509642
1162.0, 0.0010035195767714355
1163.0, 0.0008495187167637435
1164.0, 0.0013193875898793927
1165.0, 0.001268865746201507
1166.0, 0.0013220921217871062
1167.0, 0.0010785094296356414
1168.0, 0.0006258315222703234
1169.0, 0.0005822087542285672
1170.0, 0.00107658680156997
1171.0, 0.0015196448487310086
1172.0, 0.0012759514832467902
1173.0, 0.0006923180566028263
1174.0, 0.0007583853503271623
1175.0, 0.0016390904273497057
1176.0, 0.0017090028844420476
1177.0, 0.0011319151287873803
1178.0, 0.00040041707131322895
1179.0, 0.0005800490615897601
1180.0, 0.001031153247884663
1181.0, 0.0013433577157161286
1182.0, 0.001368740389270837
1183.0, 0.0009951430055273535
1184.0, 0.0009530949857721576
1185.0, 0.0009528290527417134
1186.0, 0.001281114402607559
1187.0, 0.0015876749519975735
1188.0, 0.0008526003502264787
1189.0, 0.0009341054627521551
1190.0, 0.000643474768702338
1191.0, 0.000441741932258622
1192.0, 0.000562163180699269
1193.0, 0.0013728622380169133
1194.0, 0.001711493564030547
1195.0, 0.0007693484641299718
1196.0, 0.0013172875808183458
1197.0, 0.0011641895824244352
1198.0, 0.0007060195404232696
1199.0, 0.0015719416646318373
1200.0, 0.000790335267774568
1201.0, 0.0002618688558507955
1202.0, 0.00015160429787129377
1203.0, 0.00032654101951447463
1204.0, 0.0005906493825630004
1205.0, 0.0009816897669754077
1206.0, 0.0012255889030905848
1207.0, 0.0004074293139754856
1208.0, 0.0005922377506717392
1209.0, 0.0006843659984642
1210.0, 0.0014331620663430005
1211.0, 0.0008256514093982024
1212.0, 0.00038801495317878146
1213.0, 0.0005288280752248168
1214.0, 0.0005789197513338032
1215.0, 0.0008709552214541408
1216.0, 0.0005036718148439833
1217.0, 0.0014845355336018306
1218.0, 0.002225918811361281
1219.0, 0.0009430474162240927
1220.0, 0.001238546644217278
1221.0, 0.0013810328913003303
1222.0, 0.0010307343728726231
1223.0, 0.0007912913010107953
1224.0, 0.0001664600051616316
1225.0, 0.00019406499387335024
1226.0, 0.000743815024436706
1227.0, 0.0006102418432700696
1228.0, 0.0005378270685229836
1229.0, 0.00037492739130105975
1230.0, 0.0005537987164185
1231.0, 0.0008686361651052567
1232.0, 0.0008822991036872513
1233.0, 0.0012425803801894694
1234.0, 0.0006711106893234575
1235.0, 0.001059419445421203
1236.0, 0.0009196719544144151
1237.0, 0.0005807566048041312
1238.0, 0.0005242507400096567
1239.0, 0.0004412556183914931
1240.0, 0.000290169454897372
1241.0, 0.00013555252438724773
1242.0, 0.0001228071155244066
1243.0, 0.000623058453354702
1244.0, 0.0012334572710778063
1245.0, 0.0012309153203407179
1246.0, 0.0007537531415795857
1247.0, 0.0003108927660025019
1248.0, 0.0007636576211449119
1249.0, 0.0011610993328963167
1250.0, 0.00033790399596337614
1251.0, 0.0010877284395384135
1252.0, 0.000939474654634926
1253.0, 0.0016729115274766895
1254.0, 0.0009143063024180749
1255.0, 0.00033925557506018036
1256.0, 0.0007553908638096799
1257.0, 0.001149593076845748
1258.0, 0.0014580714197010454
1259.0, 0.0015168942039577615
1260.0, 0.0008129797140237428
1261.0, 0.0005464072441040118
1262.0, 0.001849933830773154
1263.0, 0.001150239283114553
1264.0, 0.00012510354113768422
1265.0, 0.00027824664564338734
1266.0, 0.0005980715717781539
1267.0, 0.00015930763874035154
1268.0, 0.00036829011663987155
1269.0, 0.0005538701877450157
1270.0, 0.0005421895327633942
1271.0, 0.0005132072373345157
1272.0, 0.0005584394265823056
1273.0, 0.0006239491875427804
1274.0, 4.986773753027927e-05
1275.0, 8.583588721596233e-05
1276.0, 0.00016844110999103247
1277.0, 0.0007055923999361876
1278.0, 0.0006579685349313153
1279.0, 0.0005286171180391342
1280.0, 0.0009101971335845912
1281.0, 0.0005422811613150469
1282.0, 5.965932678752177e-05
1283.0, 0.0003747546703829009
1284.0, 0.00046024930620691934
1285.0, 0.0004919513498226764
1286.0, 0.0006730379569138105
1287.0, 0.0006038826086027232
1288.0, 0.0009555971779237654
1289.0, 0.0005528570972930762
1290.0, 0.0007716654708988314
1291.0, 0.0004753944529820148
1292.0, 0.0008875222400141534
1293.0, 0.0020326320435417504
1294.0, 0.001108823774776958
1295.0, 0.0005922021282341845
1296.0, 0.0011643280997265953
1297.0, 0.001321142527976878
1298.0, 0.0008330446974162504
1299.0, 0.00040610170325562276
1300.0, 0.00013394459387035368
1301.0, 1.60530948117208e-05
1302, 0.0
1303, 0.0
1304, 0.0
1305, 0.0
1306, 0.0
1307, 0.0
1308, 0.0
1309, 0.0
1310, 0.0
1311, 0.0
1312, 0.0
1313, 0.0
1314, 0.0
1315, 0.0
1316, 0.0
1317, 0.0
1318, 0.0
1319, 0.0
1320, 0.0
1321, 0.0
1322, 0.0
1323, 0.0
1324, 0.0
1325, 0.0
1326, 0.0
1327, 0.0
1328, 0.0
1329, 0.0
1330, 0.0
1331, 0.0
1332, 0.0
1333, 0.0
1334, 0.0
1335, 0.0
1336, 0.0
1337, 0.0
1338, 0.0
1339, 0.0
1340, 0.0
1341, 0.0
1342, 0.0
1343, 0.0
1344, 0.0
1345, 0.0
1346, 0.0
1347, 0.0
1348, 0.0
1349, 0.0
1350, 0.0
1351, 0.0
1352, 0.0
1353, 0.0
1354, 0.0
1355, 0.0
1356, 0.0
1357, 0.0
1358, 0.0
1359, 0.0
1360, 0.0
1361, 0.0
1362, 0.0
1363, 0.0
1364, 0.0
1365, 0.0
1366, 0.0
1367, 0.0
1368, 0.0
1369, 0.0
1370, 0.0
1371, 0.0
1372, 0.0
1373, 0.0
1374, 0.0
1375, 0.0
1376, 0.0
1377, 0.0
1378, 0.0
1379, 0.0
1380, 0.0
1381, 0.0
1382, 0.0
1383, 0.0
1384, 0.0
1385, 0.0
1386, 0.0
1387, 0.0
1388, 0.0
1389, 0.0
1390, 0.0
1391, 0.0
1392, 0.0
1393, 0.0
1394, 0.0
1395, 0.0
1396, 0.0
1397, 0.0
1398, 0.0
1399, 0.0
1400, 0.0
1401, 0.0
1402, 0.0
1403, 0.0
1404, 0.0
1405, 0.0
1406, 0.0
1407, 0.0
1408, 0.0
1409, 0.0
1410, 0.0
1411, 0.0
1412, 0.0
1413, 0.0
1414, 0.0
1415, 0.0
1416, 0.0
1417, 0.0
1418, 0.0
1419, 0.0
1420, 0.0
1421, 0.0
1422, 0.0
1423, 0.0
1424, 0.0
1425, 0.0
1426, 0.0
1427, 0.0
1428, 0.0
1429, 0.0
1430, 0.0
1431, 0.0
1432, 0.0
1433, 0.0
1434, 0.0
1435, 0.0
1436, 0.0
1437, 0.0
1438, 0.0
1439, 0.0
1440, 0.0
1441, 0.0
1442, 0.0
1443, 0.0
1444, 0.0
1445, 0.0
1446, 0.0
1447, 0.0
1448, 0.0
1449, 0.0
1450, 0.0
1451, 0.0
1452, 0.0
1453, 0.0
1454, 0.0
1455, 0.0
1456, 0.0
1457, 0.0
1458, 0.0
1459, 0.0
1460, 0.0
1461, 0.0
1462, 0.0
1463, 0.0
1464, 0.0
1465, 0.0
1466, 0.0
1467, 0.0
1468, 0.0
1469, 0.0
1470, 0.0
1471, 0.0
1472, 0.0
1473, 0.0
1474, 0.0
1475, 0.0
1476, 0.0
1477, 0.0
1478, 0.0
1479, 0.0
1480, 0.0
1481, 0.0
1482, 0.0
1483, 0.0
1484, 0.0
1485, 0.0
1486, 0.0
1487, 0.0
1488, 0.0
1489, 0.0
1490, 0.0
1491, 0.0
1492, 0.0
1493, 0.0
1494, 0.0
1495, 0.0
1496, 0.0
1497, 0.0
1498, 0.0
1499, 0.0
1500, 0.0
1501, 0.0
1502, 0.0
1503, 0.0
1504, 0.0
1505, 0.0
1506, 0.0
1507, 0.0
1508, 0.0
1509, 0.0
1510, 0.0
1511, 0.0
1512, 0.0
1513, 0.0
1514, 0.0
1515, 0.0
1516, 0.0
1517, 0.0
1518, 0.0
1519, 0.0
1520, 0.0
1521, 0.0
1522, 0.0
1523, 0.0
1524, 0.0
1525, 0.0
1526, 0.0
1527, 0.0
1528, 0.0
1529, 0.0
1530, 0.0
1531, 0.0
1532, 0.0
1533, 0.0
1534, 0.0
1535, 0.0
1536, 0.0
1537, 0.0
1538, 0.0
1539, 0.0
1540, 0.0
1541, 0.0
1542, 0.0
1543, 0.0
1544, 0.0
1545, 0.0
1546, 0.0
1547, 0.0
1548, 0.0
1549, 0.0
1550, 0.0
1551, 0.0
1552, 0.0
1553, 0.0
1554, 0.0
1555, 0.0
1556, 0.0
1557, 0.0
1558, 0.0
1559, 0.0
1560, 0.0
1561, 0.0
1562, 0.0
1563, 0.0
1564, 0.0
1565, 0.0
1566, 0.0
1567, 0.0
1568, 0.0
1569, 0.0
1570, 0.0
1571, 0.0
1572, 0.0
1573, 0.0
1574, 0.0
1575, 0.0
1576, 0.0
1577, 0.0
1578, 0.0
1579, 0.0
1580, 0.0
1581, 0.0
1582, 0.0
1583, 0.0
1584, 0.0
1585, 0.0
1586, 0.0
1587, 0.0
1588, 0.0
1589, 0.0
1590, 0.0
1591, 0.0
1592, 0.0
1593, 0.0
1594, 0.0
1595, 0.0
1596, 0.0
1597, 0.0
1598, 0.0
1599, 0.0
