30, 0.0
31, 0.0
32, 0.0
33, 0.0
34, 0.0
35, 0.0
36, 0.0
37, 0.0
38, 0.0
39, 0.0
40, 0.0
41, 0.0
42, 0.0
43, 0.0
44, 0.0
45, 0.0
46, 0.0
47, 0.0
48, 0.0
49, 0.0
50, 0.0
51, 0.0
52, 0.0
53, 0.0
54, 0.0
55, 0.0
56, 0.0
57, 0.0
58, 0.0
59, 0.0
60, 0.0
61, 0.0
62, 0.0
63, 0.0
64, 0.0
65, 0.0
66, 0.0
67, 0.0
68, 0.0
69, 0.0
70, 0.0
71, 0.0
72, 0.0
73, 0.0
74, 0.0
75, 0.0
76, 0.0
77, 0.0
78, 0.0
79, 0.0
80, 0.0
81, 0.0
82, 0.0
83, 0.0
84, 0.0
85, 0.0
86, 0.0
87, 0.0
88, 0.0
89, 0.0
90, 0.0
91, 0.0
92, 0.0
93, 0.0
94, 0.0
95, 0.0
96, 0.0
97, 0.0
98, 0.0
99, 0.0
100, 0.0
101, 0.0
102, 0.0
103, 0.0
104, 0.0
105, 0.0
106, 0.0
107, 0.0
108, 0.0
109, 0.0
110, 0.0
111, 0.0
112, 0.0
113, 0.0
114, 0.0
115.0, 9.105743157674422e-05
116.0, 0.001001860562357282
117.0, 0.0033394895259189986
118.0, 0.0019344947125193154
119.0, 0.0029313825946017764
120.0, 0.005884550385549131
121.0, 0.009234483718186803
122.0, 0.023288775906554985
123.0, 0.03887611470691707
124.0, 0.05286747421660907
125.0, 0.07386179348088631
126.0, 0.10202881419521659
127.0, 0.1337972831471228
128.0, 0.16370818997249093
129.0, 0.20631201964251486
130.0, 0.2515883223950871
131.0, 0.2992911132085658
132.0, 0.3688698307235333
133.0, 0.4349466913159344
134.0, 0.5031587229585642
135.0, 0.5798443815977646
136.0, 0.656818883812451
137.0, 0.7374053415699278
138.0, 0.8179572974567072
139.0, 0.8792454963870325
140.0, 0.9366044269937004
141.0, 0.9785292259501729
142.0, 0.9963219243760094
143.0, 0.999017508756592
144.0, 0.9803783959356207
145.0, 0.9470355410013905
146.0, 0.9115290418522837
147.0, 0.8611390691449644
148.0, 0.8089616970013476
149.0, 0.7579871851073046
150.0, 0.6999130858568087
151.0, 0.6452918923636407
152.0, 0.594240015637846
153.0, 0.5478418793362062
154.0, 0.49979407376029666
155.0, 0.45941110648089434
156.0, 0.42544259421030234
157.0, 0.3862929914911587
158.0, 0.3534401717621662
159.0, 0.3247501983703319
160.0, 0.29963141866424814
161.0, 0.27649148948647284
162.0, 0.2567058656612915
163.0, 0.23828942602557895
164.0, 0.2170075780109193
165.0, 0.2026400111350499
166.0, 0.18973100104930027
167.0, 0.17695361034587836
168.0, 0.16385657245170737
169.0, 0.15388482381374813
170.0, 0.14472932363913546
171.0, 0.1343004446041566
172.0, 0.12573721047642217
173.0, 0.11979886954572158
174.0, 0.11571865969075261
175.0, 0.11068522892562169
176.0, 0.10567893065812083
177.0, 0.1019970844721475
178.0, 0.10009145768862075
179.0, 0.0925373040180133
180.0, 0.08872995768673597
181.0, 0.08619191410513506
182.0, 0.08149077453186376
183.0, 0.07665326818770683
184.0, 0.07260810389650364
185.0, 0.06908042671068232
186.0, 0.06371312085300357
187.0, 0.06062341950214633
188.0, 0.057585202153983425
189.0, 0.053335048731370585
190.0, 0.04860574146145558
191.0, 0.04727656576854558
192.0, 0.04718972432011105
193.0, 0.044151346854976084
194.0, 0.04377363137902246
195.0, 0.04298377780332756
196.0, 0.04103847779925995
197.0, 0.03708583414283482
198.0, 0.03660740037919775
199.0, 0.03647024514612797
200.0, 0.0345035081755325
201.0, 0.03268596295474379
202.0, 0.029902591284280303
203.0, 0.027094489804058684
204.0, 0.026566795009863396
205.0, 0.02683825997656639
206.0, 0.027584246440764463
207.0, 0.02859106468279715
208.0, 0.028488209989402158
209.0, 0.023388921912378596
210.0, 0.01740680308794364
211.0, 0.01357697258007418
212.0, 0.011674999255177914
213.0, 0.010851153206005349
214.0, 0.010655653849222993
215.0, 0.01019783993349261
216.0, 0.009477294561813815
217.0, 0.00803269645477439
218.0, 0.006005660242065497
219.0, 0.0058048251612973665
220.0, 0.005089095117674428
221.0, 0.004183483340391184
222.0, 0.003299324684461186
223.0, 0.0035368498160611417
224.0, 0.00264157219521567
225.0, 0.0014362269767325153
226.0, 0.0018173529428114309
227.0, 0.001576349236398612
228.0, 0.001435235900774742
229.0, 0.0014371119015930886
230.0, 0.000795955758429705
231.0, 0.00038158704019732807
232.0, 0.0003599805777099191
233.0, 0.0008785433038806599
234.0, 0.0010284520994064533
235.0, 0.0007894945796672163
236.0, 0.0005599888777448755
237.0, 0.0010530226776835536
238.0, 0.0006100562017822002
239.0, 0.0003015728480612715
240.0, 0.0004058182690841874
241.0, 0.0015055039172872033
242.0, 0.0016750390814465842
243.0, 0.0019408871676538243
244.0, 0.0027645862903484353
245.0, 0.0033268863558611173
246.0, 0.0029297869414029692
247.0, 0.0028254479019242003
248.0, 0.004638567617572101
249.0, 0.005460338529279422
250.0, 0.005585053140840647
251.0, 0.005492094024918442
252.0, 0.006636615807902411
253.0, 0.009155099166181615
254.0, 0.011307001595909196
255.0, 0.012661655273153914
256.0, 0.014507132608284082
257.0, 0.01657723501052205
258.0, 0.018592297687682925
259.0, 0.020327047345267874
260.0, 0.024661230969914766
261.0, 0.02888853070916643
262.0, 0.03318502698977925
263.0, 0.03804175146008228
264.0, 0.04555267545338817
265.0, 0.05433699443625946
266.0, 0.06485548790037682
267.0, 0.08061935455104027
268.0, 0.09358731092312214
269.0, 0.11150932359282721
270.0, 0.13768556779208002
271.0, 0.1630760398546976
272.0, 0.2014031344485303
273.0, 0.24797972916132618
274.0, 0.2992394677196171
275.0, 0.3620096048629855
276.0, 0.43354097077709974
277.0, 0.5120463892261327
278.0, 0.5947703550584607
279.0, 0.6702245600002855
280.0, 0.7248667534555666
281.0, 0.7547374303932481
282.0, 0.7540624801119771
283.0, 0.7140317785054079
284.0, 0.6546040249802749
285.0, 0.5837787799837333
286.0, 0.4970539237832907
287.0, 0.4272104023594111
288.0, 0.37456189697700865
289.0, 0.3419292763357501
290.0, 0.3144049327209848
291.0, 0.2927715126310341
292.0, 0.27416171397674716
293.0, 0.25215603453460533
294.0, 0.21739532469766704
295.0, 0.18575472955394706
296.0, 0.1596183215170123
297.0, 0.13515709752360947
298.0, 0.11883749385748779
299.0, 0.10534121453276996
300.0, 0.09257080533559017
301.0, 0.0811455900023044
302.0, 0.07570650983376782
303.0, 0.0719669507992309
304.0, 0.066286111243688
305.0, 0.06451831702964893
306.0, 0.06495187919187297
307.0, 0.06720237742415852
308.0, 0.07091453823304002
309.0, 0.0754651247957843
310.0, 0.08327457541887764
311.0, 0.09666209979621783
312.0, 0.12343724731506127
313.0, 0.12853993632075783
314.0, 0.13471646932668205
315.0, 0.1485440112039292
316.0, 0.16640265691752215
317.0, 0.1755672078714108
318.0, 0.1778871194519137
319.0, 0.1739310854826196
320.0, 0.16356117381114108
321.0, 0.14843935361304816
322.0, 0.1305051787090694
323.0, 0.1116505226327583
324.0, 0.09648045331527372
325.0, 0.0825575858006906
326.0, 0.0698840777755813
327.0, 0.058923745288341864
328.0, 0.05168168106426046
329.0, 0.04477107092250805
330.0, 0.0381345261334313
331.0, 0.03370481345297664
332.0, 0.0314909564710927
333.0, 0.029556781982827518
334.0, 0.027041246371211226
335.0, 0.021832383104596162
336.0, 0.021355624265870142
337.0, 0.02132076134916295
338.0, 0.01949266602723481
339.0, 0.020346709751587057
340.0, 0.021241745813717676
341.0, 0.021500211037023834
342.0, 0.020383634395588743
343.0, 0.024326605592322463
344.0, 0.03198261989870621
345.0, 0.03912011712358628
346.0, 0.03849496270477707
347.0, 0.04588264894426559
348.0, 0.05575039748693015
349.0, 0.06826142906000544
350.0, 0.08597245484967297
351.0, 0.1090781830678004
352.0, 0.13639603189768926
353.0, 0.1676493426167628
354.0, 0.20272389719460313
355.0, 0.2322921227643008
356.0, 0.2554407917700691
357.0, 0.2706545318568215
358.0, 0.26918122804576655
359.0, 0.2549900764695785
360.0, 0.2354495222647044
361.0, 0.21455823716463215
362.0, 0.1876960474230585
363.0, 0.165692271550968
364.0, 0.14773785575031315
365.0, 0.13337397946105092
366.0, 0.12203843003795428
367.0, 0.11424669824134832
368.0, 0.10912870486835193
369.0, 0.10559259313113155
370.0, 0.11053649101139
371.0, 0.11679611536789386
372.0, 0.12505189196626013
373.0, 0.13848761326198245
374.0, 0.1552522146430713
375.0, 0.18025177346082086
376.0, 0.21450749164471133
377.0, 0.2594771666241907
378.0, 0.30132221535187015
379.0, 0.3459175237529846
380.0, 0.3913086821969875
381.0, 0.4183281163099136
382.0, 0.4266551992320909
383.0, 0.41767306890422956
384.0, 0.39076919090261114
385.0, 0.34144433809451924
386.0, 0.29210258337638656
387.0, 0.244933756274489
388.0, 0.20172732563444878
389.0, 0.17092149049745742
390.0, 0.14258307109935317
391.0, 0.11919336026288657
392.0, 0.1029476063796599
393.0, 0.0908941672541058
394.0, 0.07729631145569033
395.0, 0.06571013223636146
396.0, 0.06022098587993997
397.0, 0.05237884228518121
398.0, 0.04869939417200647
399.0, 0.04548256489525823
400.0, 0.03683507253343937
401.0, 0.035012413559582053
402.0, 0.03338712895993241
403.0, 0.030800238219634714
404.0, 0.02585668291003958
405.0, 0.025950421172228472
406.0, 0.02347367910593016
407.0, 0.01934921762499068
408.0, 0.0185249126174553
409.0, 0.016298984763375532
410.0, 0.013929221320177869
411.0, 0.012097729428591553
412.0, 0.012428287350710538
413.0, 0.012739439910735178
414.0, 0.010717997930455976
415.0, 0.0072476004761920605
416.0, 0.009234663192677886
417.0, 0.008215235733938508
418.0, 0.0071154577217414665
419.0, 0.006591112201094013
420.0, 0.004898409253011196
421.0, 0.005345876477520136
422.0, 0.00537363282748338
423.0, 0.003983017179072385
424.0, 0.001600748846209482
425.0, 0.003375047665164495
426.0, 0.00494557576931469
427.0, 0.004204409528676311
428.0, 0.0020147585642659466
429.0, 0.003305123371470428
430.0, 0.004471158319760207
431.0, 0.003381540423091417
432.0, 0.0008492692922771663
433.0, 0.0006204063714025044
434.0, 0.0012886593823901598
435.0, 0.0018356854266776165
436.0, 0.0006681562965494678
437.0, 0.002107776988210971
438.0, 0.002884429142444393
439.0, 0.0003379250792209949
440.0, 0.0010979435889712534
441.0, 0.00072039201747681
442.0, 0.00011337524741951206
443.0, 0.00014307941834817306
444.0, 0.0006400301257727063
445.0, 0.0013822091572590713
446.0, 0.0020555111289956105
447.0, 0.0023131516209340714
448.0, 0.001969136432321928
449.0, 0.003407008328413644
450.0, 0.0042298488350790905
451.0, 0.001436832528426438
452.0, 0.0016623963230859235
453.0, 0.0023124304617649855
454.0, 0.0038546263969123774
455.0, 0.0070621389799606655
456.0, 0.003045513547884487
457.0, 0.0028923689907198744
458.0, 0.006443598877303648
459.0, 0.01292519273770645
460.0, 0.014205107935773021
461.0, 0.019631889129832502
462.0, 0.028624639278746977
463.0, 0.03969041088013416
464.0, 0.052133160788778075
465.0, 0.06364988522297227
466.0, 0.07241089423095377
467.0, 0.07558454152924846
468.0, 0.07078880976388233
469.0, 0.06038004936077492
470.0, 0.04794451344152613
471.0, 0.03902357180078468
472.0, 0.038315222211278394
473.0, 0.036006974510785876
474.0, 0.034379186124163186
475.0, 0.038483777730567416
476.0, 0.03965568210358176
477.0, 0.047034629221146824
478.0, 0.05813913584149361
479.0, 0.06784988125908395
480.0, 0.08504687612889512
481.0, 0.10671262185947365
482.0, 0.13408141823164982
483.0, 0.16978380583625774
484.0, 0.2215415738215385
485.0, 0.2873189472404292
486.0, 0.3657547735421641
487.0, 0.45535130361730997
488.0, 0.5439675537427507
489.0, 0.6192338503345177
490.0, 0.670969834920658
491.0, 0.6839578912606331
492.0, 0.6239971123765452
493.0, 0.5444895425669658
494.0, 0.45923363680751084
495.0, 0.3836459500712614
496.0, 0.3043041777803451
497.0, 0.24145572711140514
498.0, 0.19408913093263694
499.0, 0.1599060133299286
500.0, 0.13542300520996925
501.0, 0.11643919074776801
502.0, 0.1015328357597543
503.0, 0.08917394938524119
504.0, 0.07902782236742723
505.0, 0.06946821801506801
506.0, 0.062010560145615505
507.0, 0.05836764609445978
508.0, 0.051492483738974734
509.0, 0.04557048183285508
510.0, 0.04133607323826206
511.0, 0.03944434215779746
512.0, 0.03643074460469637
513.0, 0.03462427120788331
514.0, 0.03272063337867277
515.0, 0.029700537600697317
516.0, 0.030021900334618535
517.0, 0.026855762829035824
518.0, 0.02531544966757779
519.0, 0.028613605038733503
520.0, 0.023472422375715
521.0, 0.019641925517478478
522.0, 0.018205910451351205
523.0, 0.01938456416023706
524.0, 0.016435533408066274
525.0, 0.0140985423492155
526.0, 0.01335037290331255
527.0, 0.014266793999179708
528.0, 0.012498178661378137
529.0, 0.01368421232076032
530.0, 0.012939473334571364
531.0, 0.009323157054693046
532.0, 0.011408891324230163
533.0, 0.01148665646711253
534.0, 0.009466823449434177
535.0, 0.006587795313550426
536.0, 0.009367460219252003
537.0, 0.008950406780528171
538.0, 0.007725429069850767
539.0, 0.006569777508820494
540.0, 0.006230271530038553
541.0, 0.005056682983602181
542.0, 0.005343616167774958
543.0, 0.006758114077924865
544.0, 0.006841028908817771
545.0, 0.005540901361731293
546.0, 0.004579564273693066
547.0, 0.004149611467466757
548.0, 0.004075834189366131
549.0, 0.003137418798528378
550.0, 0.0034957648526717485
551.0, 0.0037209581627045338
552.0, 0.0009627903445210001
553.0, 0.002274183638572812
554.0, 0.002410464533032179
555.0, 0.0022333679865875118
556.0, 0.003265902827029019
557.0, 0.0012794047914450645
558.0, 0.002315974235926707
559.0, 0.004436745545650443
560.0, 0.005557202518390684
561.0, 0.003173395261857484
562.0, 0.0021811057963585256
563.0, 0.002444510095993107
564.0, 0.003597168735153443
565.0, 0.0019271857928862398
566.0, 0.001766153532507379
567.0, 0.0019496101474523154
568.0, 0.0017522191812691765
569.0, 0.0003633368432652377
570.0, 0.0009603088981656562
571.0, 0.002753591783053544
572.0, 0.004522500780924534
573.0, 0.0018783988109590856
574.0, 0.0019823007801886513
575.0, 0.0033023952434529137
576.0, 0.0043484743524883065
577.0, 0.0016926351926954217
578.0, 0.0011785867779213648
579.0, 0.0010482575231140125
580.0, 0.0010121097077103133
581.0, 0.0010658786829200267
582.0, 0.0016504635488207378
583.0, 0.0030265487937757344
584.0, 0.0034053499044571015
585.0, 0.00020093562482848253
586.0, 0.00035413205817919183
587.0, 0.0009044395654150897
588.0, 0.0017750053887020348
589.0, 0.0029076803044484683
590.0, 0.002666829833542986
591.0, 0.0038844498873125883
592.0, 0.004252620700699241
593.0, 0.0026257304002787565
594.0, 0.0031395713000801047
595.0, 0.004975299055061139
596.0, 0.006725301627927759
597.0, 0.007816798021661861
598.0, 0.008481696056151919
599.0, 0.009099298862525716
600.0, 0.009145489527599913
601.0, 0.008745818751587423
602.0, 0.008740522266533164
603.0, 0.0065829644980878775
604.0, 0.0045997327480277
605.0, 0.003248987231527206
606.0, 0.0027170612260025754
607.0, 0.00453482885629999
608.0, 0.003938442179906182
609.0, 0.0019099164390709322
610.0, 8.155175906296788e-05
611.0, 0.0032217748865756768
612.0, 0.003769896328396755
613.0, 0.002957743608968071
614.0, 0.0018127446104536575
615.0, 0.0006222310751606595
616.0, 0.0010095502680937639
617.0, 0.0013394410515463195
618.0, 0.0010408907094504947
619.0, 0.0013179619800563426
620.0, 0.0010775552545454446
621.0, 0.0019948729356778685
622.0, 0.0032511516790848004
623.0, 0.000958227663903107
624.0, 0.0030460782791758064
625.0, 0.0029740704052027304
626.0, 0.002694636382986913
627.0, 0.007200016625582025
628.0, 0.0039703401692054024
629.0, 0.004611562522106757
630.0, 0.005162656729527902
631.0, 0.0012774632870217642
632.0, 0.0022329910979547985
633.0, 0.006884719340397003
634.0, 0.00818492701629489
635.0, 0.0035437413760118705
636.0, 0.006511095566980535
637.0, 0.0060960100769083345
638.0, 0.0062615278256541425
639.0, 0.007113789885344421
640.0, 0.004096698108601223
641.0, 0.0043896604166186425
642.0, 0.005344345214681859
643.0, 0.006383393596328218
644.0, 0.007280783270819583
645.0, 0.0036480117646423677
646.0, 0.0032267483580917713
647.0, 0.0038974320849394697
648.0, 0.003040200470444284
649.0, 0.006658714593836104
650.0, 0.003791327867289415
651.0, 0.0014350263187518988
652.0, 0.00301315935278742
653.0, 0.0022535585780880615
654.0, 0.0031157479365492868
655.0, 0.0030648006720543994
656.0, 0.0022680338526225078
657.0, 0.0038679686773838893
658.0, 0.0014497711159347625
659.0, 0.001522128644258169
660.0, 0.003565594833569071
661.0, 0.0051278437169779475
662.0, 0.002499690842632698
663.0, 0.0009918190249661577
664.0, 0.0005677732149170764
665.0, 0.001163947362102812
666.0, 0.004822816885020526
667.0, 0.003468089202528133
668.0, 0.0023917921327853645
669.0, 0.003159149162538311
670.0, 0.0013765242359590746
671.0, 0.003154130458178418
672.0, 0.0033700174960764055
673.0, 0.00208790716744542
674.0, 0.0019515447314575416
675.0, 0.003425025486169007
676.0, 0.005286171900524472
677.0, 0.006112849095188359
678.0, 0.004615259991169936
679.0, 0.005355755935385848
680.0, 0.005485608648223475
681.0, 0.004766760413865571
682.0, 0.0032698210012725307
683.0, 0.0021389750027095327
684.0, 0.003151461501850376
685.0, 0.004728635609348666
686.0, 0.005025037791817535
687.0, 0.0005105447360886158
688.0, 0.0009675833291065497
689.0, 0.0019479204393277577
690.0, 0.002809445715901119
691.0, 0.003241928517967697
692.0, 0.0018977542090577817
693.0, 0.0021965776082810175
694.0, 0.0035617276292694046
695.0, 0.005067980694485175
696.0, 0.003362144671281755
697.0, 0.003170456079166422
698.0, 0.002984325259630672
699.0, 0.0021996064428358173
700.0, 0.00034975645751781975
701.0, 0.0038850266562457103
702.0, 0.003033397609508473
703.0, 0.00043651017453903436
704.0, 6.540216030419285e-05
705.0, 0.0004384475171703024
706.0, 0.0006040416634058042
707.0, 0.002913153530624945
708.0, 0.006828013538061121
709.0, 0.003122164861659356
710.0, 0.0013874944774432392
711.0, 0.002108548079006318
712.0, 0.0032564173473511974
713.0, 0.00045363620719509495
714.0, 0.00270622727151448
715.0, 0.0023341484620259152
716.0, 0.0017668858120082577
717.0, 0.00334551863051166
718.0, 0.0021982463723745804
719.0, 0.0010460336773134573
720.0, 0.0011436974367970481
721.0, 0.0020527215360620805
722.0, 0.0002515603829822162
723.0, 0.0017376841281610883
724.0, 0.001629292256846396
725.0, 0.0005554872690066786
726.0, 0.0006112876218841539
727.0, 0.0004688656527620278
728.0, 0.003969184342905645
729.0, 0.005071913336726661
730.0, 0.0013319907270293906
731.0, 0.004101570651295026
732.0, 0.005032379761297007
733.0, 0.003767338369922792
734.0, 0.0016004653641608162
735.0, 0.001734028427077313
736.0, 0.0026681774471445817
737.0, 0.0021351022728343947
738.0, 0.002472636930122108
739.0, 0.005583813647652043
740.0, 0.004146799657257712
741.0, 0.0053628298500905565
742.0, 0.004799100566298169
743.0, 0.002404996498002819
744.0, 0.004293698676644123
745.0, 0.005769875852559634
746.0, 0.0055609776885613875
747.0, 0.005150614024251454
748.0, 0.006583950471783118
749.0, 0.0032912028721488193
750.0, 0.004322721570945245
751.0, 0.0049564269949645984
752.0, 0.003671104890160058
753.0, 0.006180850931731581
754.0, 0.005982327832931677
755.0, 0.006686535828290497
756.0, 0.006845349910385503
757.0, 0.002880488740339208
758.0, 0.0038408836462534564
759.0, 0.008026557109170381
760.0, 0.009335277729784626
761.0, 0.005242224173605726
762.0, 0.006821030234609621
763.0, 0.006883813595326768
764.0, 0.007289758193556032
765.0, 0.00843285935432274
766.0, 0.01011785227402566
767.0, 0.006090334682105536
768.0, 0.007378844825296439
769.0, 0.009006460354133085
770.0, 0.0076192636355671564
771.0, 0.012284728582266173
772.0, 0.01511372136958316
773.0, 0.013752840740655694
774.0, 0.011292955599551905
775.0, 0.01630473870856341
776.0, 0.01456115074986771
777.0, 0.01642570340155524
778.0, 0.020326317804022172
779.0, 0.02394446862669826
780.0, 0.024348556516946597
781.0, 0.02550689054479977
782.0, 0.0285157664330115
783.0, 0.0331694733519433
784.0, 0.0381343213362333
785.0, 0.04363355114113355
786.0, 0.05569472790429916
787.0, 0.07213428454981606
788.0, 0.09080584015281658
789.0, 0.11471041600971484
790.0, 0.14886494563056676
791.0, 0.181700072211507
792.0, 0.20902543490471723
793.0, 0.22983098646210776
794.0, 0.21978650902660463
795.0, 0.1949435635502873
796.0, 0.16286528227205355
797.0, 0.1299453268363134
798.0, 0.0988849693955143
799.0, 0.07696963308202379
800.0, 0.0601471303448123
801.0, 0.04738362931619939
802.0, 0.03879477283942287
803.0, 0.0332576455192861
804.0, 0.02650537219800689
805.0, 0.023209960246821325
806.0, 0.024413744020762136
807.0, 0.014252588624874538
808.0, 0.016819665622357087
809.0, 0.018077797349032698
810.0, 0.01590669778936805
811.0, 0.012696247715670851
812.0, 0.012245489308499767
813.0, 0.011706082383671252
814.0, 0.01101906393729456
815.0, 0.010450341512578327
816.0, 0.011333522244211398
817.0, 0.01233133016031704
818.0, 0.010929177727170983
819.0, 0.007839478747240487
820.0, 0.004988981491366401
821.0, 0.00967862082473264
822.0, 0.007925539602130782
823.0, 0.005921652466220863
824.0, 0.006349518824524852
825.0, 0.007766659983992272
826.0, 0.006704642326899415
827.0, 0.004604514919832244
828.0, 0.0038669911057327205
829.0, 0.006121802360140432
830.0, 0.0031402517859953124
831.0, 0.006400662213268682
832.0, 0.009267963212440994
833.0, 0.008624202092112045
834.0, 0.002835208934967446
835.0, 0.004908738250520061
836.0, 0.004773192896247557
837.0, 0.0049115294376593935
838.0, 0.006934362143770525
839.0, 0.006782717389363265
840.0, 0.008348623818506
841.0, 0.0067420559827068025
842.0, 0.004916021516927724
843.0, 0.008741257623443759
844.0, 0.006735176996223953
845.0, 0.005826357064836749
846.0, 0.006247110036664274
847.0, 0.007581958520934822
848.0, 0.00814473635655178
849.0, 0.005283626794584259
850.0, 0.003044648855672391
851.0, 0.0036453892989140543
852.0, 0.00803934337119896
853.0, 0.009536842536043132
854.0, 0.004675281483082836
855.0, 0.0018479919869095632
856.0, 0.003266354277699355
857.0, 0.008087393948718411
858.0, 0.009019269231236806
859.0, 0.006547941165465253
860.0, 0.0039795121513620515
861.0, 0.0031986777141909837
862.0, 0.0032970662789056585
863.0, 0.005548697125312361
864.0, 0.004202080593187508
865.0, 0.002836849485023829
866.0, 0.005688863667971336
867.0, 0.004266800404291771
868.0, 0.0050042832651256385
869.0, 0.004758989070209583
870.0, 0.004104571386713368
871.0, 0.0063522683915592385
872.0, 0.0032805171688671557
873.0, 0.0029980457856647893
874.0, 0.004173979063395436
875.0, 0.005043852713751235
876.0, 0.002617671836055841
877.0, 0.004798928658143729
878.0, 0.0031252489980144933
879.0, 0.0014631946881630258
880.0, 0.004667363780166336
881.0, 0.006016516595523444
882.0, 0.006893255620058917
883.0, 0.00579474203960856
884.0, 0.0047834184992955235
885.0, 0.008421182368199642
886.0, 0.005667851002725819
887.0, 0.004203935630146981
888.0, 0.003656006234781271
889.0, 0.004176815828634686
890.0, 0.007167459105000449
891.0, 0.004816855807240783
892.0, 0.0034639623926434543
893.0, 0.00494391454862424
894.0, 0.008977637136649062
895.0, 0.006784699139320558
896.0, 0.004172861131535036
897.0, 0.002575033401139005
898.0, 0.0019116042658476804
899.0, 0.0015358921020127505
900.0, 0.001558317071248115
901.0, 0.003958400361085578
902.0, 0.004883850563804759
903.0, 0.004096855617677882
904.0, 0.004862574356245201
905.0, 0.005891556425306056
906.0, 0.004257059409082585
907.0, 0.003463152208053125
908.0, 0.005407545281079989
909.0, 0.00795833896273134
910.0, 0.00844493240858331
911.0, 0.005162787555967844
912.0, 0.0025172973058784896
913.0, 0.004621922771640178
914.0, 0.007468542331486525
915.0, 0.005435500070962078
916.0, 0.007585887625976913
917.0, 0.010007159364770063
918.0, 0.004317222644385373
919.0, 0.005817599924872708
920.0, 0.008976451908190373
921.0, 0.008134895007260699
922.0, 0.004718999339656337
923.0, 0.006822546177817433
924.0, 0.005229857211587446
925.0, 0.006804040121273412
926.0, 0.008691146044945993
927.0, 0.008952555825159435
928.0, 0.0073588643936882605
929.0, 0.006293904365243089
930.0, 0.005206559936434703
931.0, 0.005323759097632336
932.0, 0.007365885377684887
933.0, 0.009637569564137687
934.0, 0.005788894109949308
935.0, 0.005590156397429394
936.0, 0.0073683457719314165
937.0, 0.007061399233038346
938.0, 0.004204929898672221
939.0, 0.007711583192572551
940.0, 0.008228569306962925
941.0, 0.006055466353596952
942.0, 0.005796479223933107
943.0, 0.007115760236998007
944.0, 0.0059645228474277485
945.0, 0.005354483757071264
946.0, 0.0055137260846429385
947.0, 0.004377586263433984
948.0, 0.005484022286472187
949.0, 0.004370112683059161
950.0, 0.0035060879165127908
951.0, 0.004007145324065838
952.0, 0.005071144586776318
953.0, 0.005684257172288969
954.0, 0.0038090833951608914
955.0, 0.001450469865739706
956.0, 0.000737357537134214
957.0, 0.003988709218770894
958.0, 0.0029143979589894595
959.0, 0.003764088059094614
960.0, 0.003718470285489485
961.0, 0.0009042212373984824
962.0, 0.0016359612320487541
963.0, 0.0010412366647220598
964.0, 0.0014803014539347275
965.0, 0.0020769217612942067
966.0, 0.0015853478860279552
967.0, 0.0009549002995345225
968.0, 0.0013781197280977467
969.0, 0.002346112921655364
970.0, 0.002391036983749824
971.0, 0.00040596901451237
972.0, 0.0030217046129225184
973.0, 0.0019404491352879405
974.0, 0.0021267988272876716
975.0, 0.0028019969370923093
976.0, 0.0009925603033059476
977.0, 0.004607117672621383
978.0, 0.005333250526258499
979.0, 0.004416087185008708
980.0, 0.0028875050949427002
981.0, 0.0017568919491191552
982.0, 0.0003588360347938029
983.0, 0.0010858475862589587
984.0, 0.004674512740713098
985.0, 0.008198861378523216
986.0, 0.005324875122118904
987.0, 0.003302509418443686
988.0, 0.004139595415640347
989.0, 0.0032251628051715134
990.0, 0.002074670410439122
991.0, 0.009259082403374901
992.0, 0.012447649608099532
993.0, 0.017187488033945778
994.0, 0.013491327354216678
995.0, 0.002969885934793314
996.0, 0.0036029015567871814
997.0, 0.006983223307539086
998.0, 0.008600581792377151
999.0, 0.008598983929309528
1000.0, 0.007059077924008281
1001.0, 0.0035757165996332034
1002.0, 0.00844913641479975
1003.0, 0.006738114284269542
1004.0, 0.00471393306874281
1005.0, 0.00563893242510659
1006.0, 0.005669287285619546
1007.0, 0.0075576118983204515
1008.0, 0.00795138548356207
1009.0, 0.006476438293426667
1010.0, 0.004373325227984082
1011.0, 0.005752485844099907
1012.0, 0.006906939245239278
1013.0, 0.004448941774526588
1014.0, 0.003941929592874956
1015.0, 0.006116215513875917
1016.0, 0.00048241451738814407
1017.0, 0.004403475664643374
1018.0, 0.004463107346198428
1019.0, 0.004654630252977214
1020.0, 0.006300657146042011
1021.0, 0.0025321432614907775
1022.0, 0.0030018361371446354
1023.0, 0.003927171543630554
1024.0, 0.004302512958451889
1025.0, 0.0044308825481034105
1026.0, 0.006866815626311279
1027.0, 0.003142814724248215
1028.0, 0.004457425564050555
1029.0, 0.006333882254380115
1030.0, 0.0069705200769282615
1031.0, 0.011628404727022975
1032.0, 0.005627287155759051
1033.0, 0.0034042820908376046
1034.0, 0.004304938634926981
1035.0, 0.00694256624526988
1036.0, 0.010289846624365977
1037.0, 0.010822359442696692
1038.0, 0.00830561691832925
1039.0, 0.008362705059064824
1040.0, 0.0109648896754556
1041.0, 0.007302232443732692
1042.0, 0.011582818562695621
1043.0, 0.007228961046354724
1044.0, 0.005962709024250125
1045.0, 0.010169212894944978
1046.0, 0.00948981189172592
1047.0, 0.008494373506633854
1048.0, 0.006663057992337646
1049.0, 0.006458329612160914
1050.0, 0.008468457950210092
1051.0, 0.01124592293696354
1052.0, 0.006088026658714511
1053.0, 0.011045354949377867
1054.0, 0.011681159362804188
1055.0, 0.007956967893437323
1056.0, 0.011169793821339067
1057.0, 0.012247630535434631
1058.0, 0.016374124673109256
1059.0, 0.01872255053107326
1060.0, 0.019432582278604765
1061.0, 0.021591270298911093
1062.0, 0.02498597587815589
1063.0, 0.0248349441241635
1064.0, 0.022061628898038057
1065.0, 0.018719025955501387
1066.0, 0.016991654662188056
1067.0, 0.01469739639208783
1068.0, 0.012188922700714935
1069.0, 0.011091700671389126
1070.0, 0.011121524967089591
1071.0, 0.011036513528665394
1072.0, 0.007981350169515119
1073.0, 0.013278555592345578
1074.0, 0.01186295280710051
1075.0, 0.008998380274511757
1076.0, 0.010906420377951219
1077.0, 0.010445379157289058
1078.0, 0.006447264782032987
1079.0, 0.005224038483229866
1080.0, 0.008402170401573332
1081.0, 0.012489518100715746
1082.0, 0.0034267804138588005
1083.0, 0.00946218951051513
1084.0, 0.01209618583631304
1085.0, 0.012289075063659219
1086.0, 0.012130018955563917
1087.0, 0.013147595932879725
1088.0, 0.014986964315239605
1089.0, 0.010856456410755923
1090.0, 0.007444064677597564
1091.0, 0.0067374486644098544
1092.0, 0.005911696586343848
1093.0, 0.006959789783331356
1094.0, 0.0065010056342799175
1095.0, 0.004204690708889234
1096.0, 0.0024373493527775356
1097.0, 0.004199880598969704
1098.0, 0.002453038526730333
1099.0, 0.004940579342693027
1100.0, 0.005946482507026106
1101.0, 0.005802704775650628
1102.0, 0.00573954735844256
1103.0, 0.000712999967926559
1104.0, 0.004621045541936436
1105.0, 0.00398785414527926
1106.0, 0.002486775364505942
1107.0, 0.0034908721770327625
1108.0, 0.0009965194455513885
1109.0, 0.006101255254893618
1110.0, 0.003934086677386646
1111.0, 0.0019343543153572877
1112.0, 0.0036836951128563
1113.0, 0.004493353760476793
1114.0, 0.0010311285821591682
1115.0, 0.00028357707852358827
1116.0, 0.0015886242104492885
1117.0, 0.0029163899075409436
1118.0, 0.001677958205869416
1119.0, 0.0012134091689074114
1120.0, 0.0021830321525107546
1121.0, 0.0033730315243735275
1122.0, 0.0072966948454021565
1123.0, 0.015441437239099659
1124.0, 0.015531836061597633
1125.0, 0.01347063655708799
1126.0, 0.011108451312859072
1127.0, 0.009768759631110556
1128.0, 0.009923441428578718
1129.0, 0.010211839454542576
1130.0, 0.011399177958597222
1131.0, 0.015334339264780679
1132.0, 0.017406915038426517
1133.0, 0.016366223294112227
1134.0, 0.015624636945134327
1135.0, 0.01478870439027588
1136.0, 0.01326778702390487
1137.0, 0.013774725222145944
1138.0, 0.013551126478371811
1139.0, 0.008605182444190717
1140.0, 0.011500381202514958
1141.0, 0.00776226312689986
1142.0, 0.005879421710985732
1143.0, 0.005101789767753114
1144.0, 0.003459940770580516
1145.0, 0.003035436190854682
1146.0, 0.0016335844613595604
1147.0, 0.0012465306418515533
1148.0, 0.003341290404170436
1149.0, 0.005894065453728868
1150.0, 0.002610558085242451
1151.0, 0.0021065138404839766
1152.0, 0.003361539431429478
1153.0, 0.0024703869434179954
1154.0, 0.0030909188339954988
1155.0, 0.013283261372805201
1156.0, 0.04031761076935758
1157.0, 0.04698250769705576
1158.0, 0.04055486878727811
1159.0, 0.029629100437960902
1160.0, 0.019126011631389928
1161.0, 0.0019745419452985233
1162.0, 0.0048481925191751155
1163.0, 0.003865839533160092
1164.0, 0.004128023544267095
1165.0, 0.006211119366309214
1166.0, 0.003941511884695228
1167.0, 0.005443477144452913
1168.0, 0.006372271555883668
1169.0, 0.004672493267962373
1170.0, 0.0032402364450431135
1171.0, 0.005375382629508501
1172.0, 0.00533396330790186
1173.0, 0.002516482706011916
1174.0, 0.0017303429320437238
1175.0, 0.0013619573302596547
1176.0, 0.0007378849508634445
1177.0, 0.002547400433329972
1178.0, 0.0040466658963295744
1179.0, 0.0016953308466873237
1180.0, 0.0012294060705694682
1181.0, 0.002773778576932771
1182.0, 0.003038771079558036
1183.0, 0.003928988784064012
1184.0, 0.004398585562481859
1185.0, 0.005574006424205875
1186.0, 0.006162323647057334
1187.0, 0.005719123901622348
1188.0, 0.007103877689273532
1189.0, 0.005174727515270997
1190.0, 0.0032373199382250435
1191.0, 0.0035787022686488246
1192.0, 0.004925013788366057
1193.0, 0.003697654253723714
1194.0, 0.003567583815946878
1195.0, 0.0018622867039836055
1196.0, 0.002240152574752706
1197.0, 0.0030500260243357374
1198.0, 0.002796869189366168
1199.0, 0.004731134881246786
1200.0, 0.005126786218669224
1201.0, 0.007921320450321451
1202.0, 0.006686291360335148
1203.0, 0.003942553231580247
1204.0, 0.008706929246547881
1205.0, 0.0027367735216180652
1206.0, 0.004458248948192694
1207.0, 0.004949823900898917
1208.0, 0.00608991569382686
1209.0, 0.00975745667500223
1210.0, 0.009046047730831085
1211.0, 0.007937457261626098
1212.0, 0.0068798616652637
1213.0, 0.005926848333963802
1214.0, 0.004811799381812026
1215.0, 0.0032906259994912343
1216.0, 0.003883575811959536
1217.0, 0.004301853517636784
1218.0, 0.004070214914826577
1219.0, 0.004395911200313642
1220.0, 0.005029485001919897
1221.0, 0.001502529711050945
1222.0, 0.0028520656202282828
1223.0, 0.004705071163096296
1224.0, 0.003723040731926702
1225.0, 0.002475874372492923
1226.0, 0.005840993076149349
1227.0, 0.00572942835851445
1228.0, 0.0030006690352283884
1229.0, 0.0023407710734830575
1230.0, 0.0035402477786749573
1231.0, 0.005543679103291341
1232.0, 0.007650383481044623
1233.0, 0.00598323886659737
1234.0, 0.002930120428532947
1235.0, 0.0042264747414046755
1236.0, 0.006613705227958685
1237.0, 0.004994130331132263
1238.0, 0.006405122342890063
1239.0, 0.007440676588162572
1240.0, 0.005584613781462876
1241.0, 0.0037112933627132852
1242.0, 0.004135236909043602
1243.0, 0.0071935956493302125
1244.0, 0.00716448837765938
1245.0, 0.004063294685976961
1246.0, 0.0033227964410297004
1247.0, 0.0054168451476597915
1248.0, 0.00780729314855192
1249.0, 0.0049974798035373
1250.0, 0.004523489761600456
1251.0, 0.00589395775789736
1252.0, 0.005589483744836746
1253.0, 0.0038840045776677465
1254.0, 0.003063794521609949
1255.0, 0.0017467727792976804
1256.0, 0.005643510419168993
1257.0, 0.006049302577274616
1258.0, 0.0038899850933617657
1259.0, 0.0030413868480788893
1260.0, 0.007874731864846232
1261.0, 0.0054336941518936845
1262.0, 0.0018975452137883486
1263.0, 0.0008473614885663468
1264.0, 0.0021732100967792557
1265.0, 0.004310769572057827
1266.0, 0.0055196597557554666
1267.0, 0.0020142336252210197
1268.0, 0.0014449565237340855
1269.0, 0.001313624509313833
1270.0, 0.002201403440679822
1271.0, 0.004891439343033963
1272.0, 0.0014963260299039323
1273.0, 0.005177739285347848
1274.0, 0.003899558113698828
1275.0, 0.0024260789878571072
1276.0, 0.002732320240019156
1277.0, 0.002093144400927336
1278.0, 0.0021570178738433404
1279.0, 0.0029211645789999708
1280.0, 0.0030701466183582593
1281.0, 0.003566622756152225
1282.0, 0.00477039313664157
1283.0, 0.005114453288920393
1284.0, 0.0011444106343386099
1285.0, 0.0016768474903294242
1286.0, 0.001934962196357167
1287.0, 0.0019385211350362
1288.0, 0.0027643310376892502
1289.0, 0.0027706014864520862
1290.0, 0.00404428476934409
1291.0, 0.004346962268951705
1292.0, 0.004121659141382022
1293.0, 0.0037220410805903314
1294.0, 0.003141297581237446
1295.0, 0.0014361343049444832
1296.0, 0.0021386053404722273
1297.0, 0.001141027355902794
1298.0, 0.0014479238242477836
1299.0, 0.0023290301164699697
1300.0, 0.000436158318926329
1301.0, 0.0028198293502103046
1302.0, 0.003486796616659996
1303.0, 0.003788276922805731
1304.0, 0.002502423861450066
1305.0, 0.0007980017725614037
1306.0, 0.002457866800477111
1307.0, 0.0011065109881769103
1308.0, 0.0006736860136765825
1309.0, 0.001629197559879568
1310.0, 0.002221468795190465
1311.0, 0.0019340593956983679
1312.0, 0.003041121515613035
1313.0, 0.0011652826824582654
1314.0, 0.0009157397559455161
1315.0, 0.000546850259623287
1316.0, 0.0013412297278388744
1317.0, 0.0030312778401788403
1318.0, 5.433444591355131e-05
1319.0, 0.0035592695535905765
1320.0, 0.0026884184167311792
1321.0, 0.003656102607492655
1322.0, 0.004345335580202094
1323.0, 0.0018276475646247794
1324.0, 0.0016427372352075505
1325.0, 0.004322467824148143
1326.0, 0.002293506627063571
1327.0, 0.0032100714272976618
1328.0, 0.004276728230000616
1329.0, 0.000778810439822459
1330.0, 0.0018363015134297803
1331.0, 0.0027105502230551637
1332.0, 0.0012181249015826797
1333.0, 0.00193861698764685
1334.0, 0.0031725042368288816
1335.0, 0.0011865900681761992
1336.0, 0.0008791279786456896
1337.0, 0.0038074557985609487
1338.0, 0.004461093430948623
1339.0, 0.0039712050745548885
1340.0, 0.0031077951171943987
1341.0, 0.0021601791153889444
1342.0, 0.0022228558776485417
1343.0, 0.004807971691249805
1344.0, 0.002989422816429714
1345.0, 0.0021294716283338016
1346.0, 0.0026600464518879543
1347.0, 0.0014981992704618482
1348.0, 0.000874550356154493
1349.0, 0.0100682183833612
1350.0, 0.007713208597751048
1351.0, 0.003142967262253735
1352.0, 0.0038847348335287516
1353.0, 0.009880953108867524
1354.0, 0.006727040682854105
1355.0, 0.00970770751368291
1356.0, 0.011076970857125848
1357.0, 0.007287193496025306
1358.0, 0.004496714812509014
1359.0, 0.010734356402165522
1360.0, 0.012247379174820008
1361.0, 0.00795980034432472
1362.0, 0.0076318675714258195
1363.0, 0.007282711669852117
1364.0, 0.006568306825552996
1365.0, 0.007896806796576698
1366.0, 0.009957854533429159
1367.0, 0.011537778261110727
1368.0, 0.011144702792229878
1369.0, 0.011153274918346695
1370.0, 0.011684055791498924
1371.0, 0.0110210212345352
1372.0, 0.0073712901855226415
1373.0, 0.009372417635834736
1374.0, 0.008030866594580823
1375.0, 0.009112629582914356
1376.0, 0.011689667068196073
1377.0, 0.011596022106129193
1378.0, 0.009057940426390272
1379.0, 0.006940878296898408
1380.0, 0.005542623564300575
1381.0, 0.005414232297913382
1382.0, 0.005919099258532671
1383.0, 0.006570812428149829
1384.0, 0.008716156422017889
1385.0, 0.01021362201395282
1386.0, 0.010633020394878933
1387.0, 0.011222803171912822
1388.0, 0.011764022566767044
1389.0, 0.011794913343612228
1390.0, 0.011670944239329831
1391.0, 0.010569718306054519
1392.0, 0.00997529034902661
1393.0, 0.009809673150570259
1394.0, 0.009800557414629282
1395.0, 0.00998427494529633
1396.0, 0.010755562485215668
1397.0, 0.00949808320874278
1398.0, 0.010820048287475027
1399.0, 0.009660869778995721
1400.0, 0.010403494529141919
1401.0, 0.013028221893130033
1402.0, 0.01112267131961532
1403.0, 0.010920950966543608
1404.0, 0.008121987421993125
1405.0, 0.007339065379886215
1406.0, 0.0075240586259352924
1407.0, 0.009935409271414194
1408.0, 0.01491894581991976
1409.0, 0.005105931926579514
1410.0, 0.01247531199236392
1411.0, 0.012321822598457283
1412.0, 0.009527749276643571
1413.0, 0.009920085721106286
1414.0, 0.013518176541977107
1415.0, 0.007873834912792067
1416.0, 0.013628617292929591
1417.0, 0.013689769949795236
1418.0, 0.011860729808040002
1419.0, 0.011108008787440673
1420.0, 0.011826216341746838
1421.0, 0.011237285810097914
1422.0, 0.012327655035199203
1423.0, 0.013289453374928796
1424.0, 0.011039414616659169
1425.0, 0.010285680917566977
1426.0, 0.013597239585447184
1427.0, 0.017011071132680678
1428.0, 0.011354686641693323
1429.0, 0.011587271619683351
1430.0, 0.012870548806931342
1431.0, 0.012565427989103144
1432.0, 0.010752074480917606
1433.0, 0.009486843553540713
1434.0, 0.010236090691976774
1435.0, 0.012880213260218905
1436.0, 0.012728700574680517
1437.0, 0.013859499292759921
1438.0, 0.017233834634199165
1439.0, 0.019705660326410048
1440.0, 0.014605941649174257
1441.0, 0.010632765314311458
1442.0, 0.018866878895908698
1443.0, 0.019096223464536023
1444.0, 0.01726546683876609
1445.0, 0.019211598499958123
1446.0, 0.01932182638160183
1447.0, 0.017440488573777585
1448.0, 0.01772703060028438
1449.0, 0.016966254300035188
1450.0, 0.016053086528791238
1451.0, 0.015664300171459342
1452.0, 0.015546669109148379
1453.0, 0.014839279472591
1454.0, 0.017825186230665237
1455.0, 0.01726637136468663
1456.0, 0.01902814729374242
1457.0, 0.023673225081544645
1458.0, 0.027480298061672435
1459.0, 0.025456999003930048
1460.0, 0.025964923325348287
1461.0, 0.01792855340294853
1462.0, 0.017563988516845052
1463.0, 0.015798012280919992
1464.0, 0.009803035986325016
1465.0, 0.008476980667207309
1466.0, 0.017997912363643398
1467.0, 0.010436479226944363
1468.0, 0.011535982271644669
1469.0, 0.009536345034464521
1470.0, 0.004975373719230758
1471.0, 0.004233308866029992
1472.0, 0.007728425740376798
1473.0, 0.009729221267882473
1474.0, 0.004271623127256354
1475.0, 0.00523982696693078
1476.0, 0.008114216788475103
1477.0, 0.007813164881177455
1478.0, 0.005723628117132496
1479.0, 0.010247503201242594
1480.0, 0.014101386842215555
1481.0, 0.009052609314406672
1482.0, 0.013770693877442204
1483.0, 0.020297748916768565
1484.0, 0.01652373359742904
1485.0, 0.013481922515850852
1486.0, 0.009977760661972585
1487.0, 0.007238255553211337
1488.0, 0.006303938411715561
1489.0, 0.006277520102063012
1490.0, 0.007813994863011275
1491.0, 0.011807110846514092
1492.0, 0.012344077093675604
1493.0, 0.009942938348778841
1494.0, 0.014160661545076834
1495.0, 0.013591885900323413
1496.0, 0.010980405980836076
1497.0, 0.011387410127795162
1498.0, 0.011100467642364257
1499.0, 0.004375537943445659
1500.0, 0.008450109124300845
1501.0, 0.005110833328171179
1502.0, 0.0032384117042854
1503.0, 0.003801434271330747
1504.0, 0.002270858184317311
1505.0, 0.006750115870213811
1506.0, 0.00854867645213806
1507.0, 0.010725315826922892
1508.0, 0.008874021232490788
1509.0, 0.006878785892694229
1510.0, 0.007483178008319503
1511.0, 0.008800741524683568
1512.0, 0.010873474472227798
1513.0, 0.011054576736062144
1514.0, 0.008912112582976625
1515.0, 0.008526850423776969
1516.0, 0.006126299959960783
1517.0, 0.003901453724575092
1518.0, 0.017503169241839363
1519.0, 0.006334902686318964
1520.0, 0.006163134168351035
1521.0, 0.00256802495915289
1522, 0.0
1523, 0.0
1524, 0.0
1525, 0.0
1526, 0.0
1527, 0.0
1528, 0.0
1529, 0.0
1530, 0.0
1531, 0.0
1532, 0.0
1533, 0.0
1534, 0.0
1535, 0.0
1536, 0.0
1537, 0.0
1538, 0.0
1539, 0.0
1540, 0.0
1541, 0.0
1542, 0.0
1543, 0.0
1544, 0.0
1545, 0.0
1546, 0.0
1547, 0.0
1548, 0.0
1549, 0.0
1550, 0.0
1551, 0.0
1552, 0.0
1553, 0.0
1554, 0.0
1555, 0.0
1556, 0.0
1557, 0.0
1558, 0.0
1559, 0.0
1560, 0.0
1561, 0.0
1562, 0.0
1563, 0.0
1564, 0.0
1565, 0.0
1566, 0.0
1567, 0.0
1568, 0.0
1569, 0.0
1570, 0.0
1571, 0.0
1572, 0.0
1573, 0.0
1574, 0.0
1575, 0.0
1576, 0.0
1577, 0.0
1578, 0.0
1579, 0.0
1580, 0.0
1581, 0.0
1582, 0.0
1583, 0.0
1584, 0.0
1585, 0.0
1586, 0.0
1587, 0.0
1588, 0.0
1589, 0.0
1590, 0.0
1591, 0.0
1592, 0.0
1593, 0.0
1594, 0.0
1595, 0.0
1596, 0.0
1597, 0.0
1598, 0.0
1599, 0.0
