30, 0.0
31, 0.0
32, 0.0
33, 0.0
34, 0.0
35, 0.0
36, 0.0
37, 0.0
38, 0.0
39, 0.0
40, 0.0
41, 0.0
42, 0.0
43, 0.0
44, 0.0
45, 0.0
46, 0.0
47, 0.0
48, 0.0
49, 0.0
50, 0.0
51, 0.0
52, 0.0
53, 0.0
54, 0.0
55, 0.0
56, 0.0
57, 0.0
58, 0.0
59, 0.0
60, 0.0
61, 0.0
62, 0.0
63, 0.0
64, 0.0
65, 0.0
66, 0.0
67, 0.0
68, 0.0
69, 0.0
70, 0.0
71, 0.0
72, 0.0
73, 0.0
74, 0.0
75, 0.0
76, 0.0
77, 0.0
78, 0.0
79, 0.0
80, 0.0
81, 0.0
82, 0.0
83, 0.0
84, 0.0
85, 0.0
86, 0.0
87, 0.0
88, 0.0
89, 0.0
90, 0.0
91, 0.0
92, 0.0
93, 0.0
94.0, 1.7390010956847874e-05
95.0, 0.0001572415310790448
96.0, 0.00024123551125351095
97.0, 0.00021777614511108898
98.0, 5.8939398578574374e-05
99.0, 7.153675799903514e-05
100.0, 0.0002894236154699267
101.0, 0.00105794492020322
102.0, 0.0024420825107885355
103.0, 0.003738518705867361
104.0, 0.004600163010724242
105.0, 0.005016468592673167
106.0, 0.005449404812576815
107.0, 0.005866068274997053
108.0, 0.0063601184676642325
109.0, 0.007059792497782038
110.0, 0.007884217144370808
111.0, 0.008988569891142686
112.0, 0.010344685979667062
113.0, 0.011887358019568708
114.0, 0.013458297865102614
115.0, 0.015593861638946072
116.0, 0.01853098848780286
117.0, 0.022762217773284136
118.0, 0.02884374165789296
119.0, 0.039031309011720236
120.0, 0.05351460858436674
121.0, 0.06560906034560975
122.0, 0.06507349028404043
123.0, 0.05188141373921789
124.0, 0.037393016048148944
125.0, 0.027354483676058673
126.0, 0.022003390820673385
127.0, 0.018849821465821225
128.0, 0.016796981717319675
129.0, 0.015208347509970797
130.0, 0.014031592023609922
131.0, 0.013382016595112732
132.0, 0.012999370678453116
133.0, 0.012586724912503188
134.0, 0.011910669199253631
135.0, 0.011264618790741995
136.0, 0.010776831437804705
137.0, 0.010453914582800579
138.0, 0.010193709184719197
139.0, 0.009872470637600122
140.0, 0.009663953902156198
141.0, 0.009174536468142728
142.0, 0.008609768175542579
143.0, 0.008246574180912871
144.0, 0.0071019585008361115
145.0, 0.005718135588191601
146.0, 0.004383574318076959
147.0, 0.0031969161860893784
148.0, 0.0021400646494717864
149.0, 0.0012191675734311463
150.0, 0.0005875360325044784
151.0, 0.00024309344151780723
152.0, 6.885278160945188e-05
153.0, 0.0002716860301062791
154.0, 0.0005194333328434395
155.0, 0.0007755736938678314
156.0, 0.0009704635634787249
157.0, 0.0011240103388908166
158.0, 0.0012144590985582516
159.0, 0.0011414462700234313
160.0, 0.0008932818566876846
161.0, 0.0007412635842170267
162.0, 0.00024562027698325805
163.0, 0.0003945145066703702
164.0, 0.001107976603628941
165.0, 0.0020890720177559373
166.0, 0.0032456805017457998
167.0, 0.004807662221200026
168.0, 0.006903044388684709
169.0, 0.00978546932099743
170.0, 0.01418387783970567
171.0, 0.021090542190531504
172.0, 0.031842553068990524
173.0, 0.04655049030261279
174.0, 0.0634533149289511
175.0, 0.07672957079475595
176.0, 0.08639565630765007
177.0, 0.09428581330553297
178.0, 0.10245437682386052
179.0, 0.11126204233963329
180.0, 0.12047030078964364
181.0, 0.13092851992226107
182.0, 0.14343898384377238
183.0, 0.15655556443824314
184.0, 0.17230469723787287
185.0, 0.19220262541285085
186.0, 0.21797735879238697
187.0, 0.2530878189564977
188.0, 0.303856968374872
189.0, 0.37537526587080805
190.0, 0.46583745909157803
191.0, 0.5600730201305208
192.0, 0.6101065659681563
193.0, 0.5529235408251464
194.0, 0.4190111764920536
195.0, 0.2773312966438605
196.0, 0.17512229545154367
197.0, 0.10993037233379768
198.0, 0.07110382714901217
199.0, 0.04969789620677108
200.0, 0.03808217101024713
201.0, 0.03139527936419545
202.0, 0.02768027854575298
203.0, 0.025970078277320015
204.0, 0.025463694555953608
205.0, 0.025577865727047476
206.0, 0.026603722473487905
207.0, 0.028624110613693632
208.0, 0.031547813037752725
209.0, 0.035259144736121704
210.0, 0.040223150412020174
211.0, 0.04678608207524593
212.0, 0.05495200834796472
213.0, 0.06462393461572113
214.0, 0.07452309628633372
215.0, 0.08293424258438402
216.0, 0.0865299047383749
217.0, 0.08225797741915314
218.0, 0.06896735397343559
219.0, 0.05240851950907405
220.0, 0.037123811404865203
221.0, 0.025298190345234502
222.0, 0.017048111287449673
223.0, 0.010926923598894541
224.0, 0.006352833083666423
225.0, 0.002996030124566334
226.0, 0.0006705349927025751
227.0, 0.0008604386372687055
228.0, 0.0015247480948822406
229.0, 0.0016436580408470756
230.0, 0.001434552627456501
231.0, 0.0009324225836879015
232.0, 0.00034496362120463905
233.0, 0.0019274483547092043
234.0, 0.00469758682172213
235.0, 0.009501844870400417
236.0, 0.017962860303782243
237.0, 0.03240011000969603
238.0, 0.05137567808247055
239.0, 0.07100868531424036
240.0, 0.08641319007071573
241.0, 0.09799748392268494
242.0, 0.10943476581683184
243.0, 0.12217324577435884
244.0, 0.13643177535305973
245.0, 0.15207556501054512
246.0, 0.1698023197142722
247.0, 0.19047335778371755
248.0, 0.2151242984221919
249.0, 0.245303144712583
250.0, 0.28435708210953087
251.0, 0.3441630507276626
252.0, 0.43405344678326907
253.0, 0.5565733832369845
254.0, 0.703725296831537
255.0, 0.877047657838497
256.0, 0.9849236800958515
257.0, 0.9584200659287542
258.0, 0.7863810975234602
259.0, 0.5977566492278847
260.0, 0.45105935142362996
261.0, 0.3487849439572022
262.0, 0.2754103160249618
263.0, 0.21898881858228744
264.0, 0.1730292314609566
265.0, 0.13555921642110888
266.0, 0.10542063395522562
267.0, 0.08218937950850758
268.0, 0.06467040690696149
269.0, 0.05178047168868217
270.0, 0.04194829829996679
271.0, 0.03419287606972095
272.0, 0.02805840079320541
273.0, 0.02295486969434744
274.0, 0.01899201661607391
275.0, 0.016372133453572885
276.0, 0.015071922777448364
277.0, 0.014715537120058601
278.0, 0.015381467365943818
279.0, 0.016804819778989052
280.0, 0.018869198953897763
281.0, 0.021513654430175336
282.0, 0.024324117993684325
283.0, 0.0269472585560798
284.0, 0.029861132819104366
285.0, 0.03338233015093456
286.0, 0.03741953296862863
287.0, 0.04330119753868974
288.0, 0.051229452923986334
289.0, 0.06170513234795873
290.0, 0.07537433176636688
291.0, 0.09238135949009715
292.0, 0.11104826034244218
293.0, 0.12767472562206944
294.0, 0.13820728519426995
295.0, 0.1397205682035823
296.0, 0.13462812836675644
297.0, 0.12694895359327965
298.0, 0.11512619136862814
299.0, 0.09649420539998682
300.0, 0.07123823375199971
301.0, 0.047402376742706955
302.0, 0.02977279291258696
303.0, 0.018470904091662525
304.0, 0.011531065247681688
305.0, 0.006974504195269339
306.0, 0.004076483483921643
307.0, 0.0022284554069933425
308.0, 0.0010219190301763764
309.0, 0.00023125470367310282
310.0, 5.87876694695852e-05
311.0, 0.00010638284300404645
312.0, 4.270043624062891e-05
313.0, 0.00018830214740080123
314.0, 0.0007236756941360545
315.0, 0.001437388068932006
316.0, 0.0023490933509825148
317.0, 0.003175551010695305
318.0, 0.0037155614360251197
319.0, 0.004099398745754277
320.0, 0.0040207495609953115
321.0, 0.0035673196662003963
322.0, 0.0028053042374146624
323.0, 0.0018009898043411128
324.0, 0.0009102416241248482
325.0, 0.000362967149032022
326.0, 9.882673698503388e-05
327.0, 0.00046715406396072653
328.0, 0.0007856358070899822
329.0, 0.0008152394540214328
330.0, 0.0009598858719700812
331.0, 0.0010291347609367217
332.0, 0.0009217681928841494
333.0, 0.000816693582656934
334.0, 0.0007231679083668968
335.0, 0.0006843722839118422
336.0, 0.0006381043941758334
337.0, 0.0004780810927830065
338.0, 0.00010033183012667157
339.0, 0.00014936747185071965
340.0, 0.0006621659646278409
341.0, 0.0013054609505618923
342.0, 0.001825258647331482
343.0, 0.002772661485455025
344.0, 0.003717947246228882
345.0, 0.004578959273415189
346.0, 0.005452105820237575
347.0, 0.006432685435527338
348.0, 0.0074351049373027585
349.0, 0.008432009534041624
350.0, 0.009445056716947686
351.0, 0.010560981849670739
352.0, 0.011849384271133112
353.0, 0.013189616980594997
354.0, 0.015120198724842568
355.0, 0.017386226565938693
356.0, 0.019757935033583855
357.0, 0.022362826470824396
358.0, 0.025214189906203114
359.0, 0.028179092432426604
360.0, 0.03067546971942889
361.0, 0.0323668558875547
362.0, 0.03349525140323606
363.0, 0.03407875454756488
364.0, 0.034672030072418314
365.0, 0.03540925420520956
366.0, 0.03638866413890804
367.0, 0.03828689471055723
368.0, 0.04129041578842101
369.0, 0.04537668614513573
370.0, 0.05117769566781608
371.0, 0.059160070339889737
372.0, 0.06888205332224022
373.0, 0.07998536818615729
374.0, 0.09168652163986145
375.0, 0.10170107661639825
376.0, 0.10758947934878098
377.0, 0.10595526810896556
378.0, 0.09684499850202866
379.0, 0.08348216465159848
380.0, 0.06916216066556986
381.0, 0.0566247459042138
382.0, 0.046756840236398596
383.0, 0.03911119405286622
384.0, 0.0331202697216459
385.0, 0.02848753582686045
386.0, 0.02505264370584851
387.0, 0.02222649030150967
388.0, 0.01967330821131046
389.0, 0.017602515238865583
390.0, 0.016068490779387403
391.0, 0.014843805623642334
392.0, 0.013690756679426508
393.0, 0.013073237353682505
394.0, 0.012886816829915883
395.0, 0.012933524561168001
396.0, 0.01312180742150628
397.0, 0.013361236599088954
398.0, 0.013570605566648592
399.0, 0.013824387266612637
400.0, 0.013904625033255404
401.0, 0.013476089406311348
402.0, 0.01293971358329233
403.0, 0.012224229907297601
404.0, 0.011504704625632887
405.0, 0.010701606885154162
406.0, 0.009558825297853561
407.0, 0.008329576990019679
408.0, 0.0070738307251038
409.0, 0.005824837579480145
410.0, 0.004567903652647555
411.0, 0.003296539856873715
412.0, 0.0023101454528151404
413.0, 0.0014737673853655513
414.0, 0.0007899346216262424
415.0, 0.0003090541530461651
416.0, 4.366033371852784e-05
417.0, 0.00030256825861856707
418.0, 0.00048383769764582396
419.0, 0.0006483348155601715
420.0, 0.000696926381268808
421.0, 0.000526631463924155
422.0, 0.0006527131225247286
423.0, 0.0005292999293085053
424.0, 0.00029258082218691487
425.0, 9.094385419065785e-05
426.0, 8.818804298067412e-05
427.0, 0.00034617731476689595
428.0, 0.0006715212448471569
429.0, 0.0010223772818666573
430.0, 0.0015616620390496185
431.0, 0.0024680379115531855
432.0, 0.0036242525648509986
433.0, 0.005419324560339105
434.0, 0.007860709082500437
435.0, 0.011056516528774159
436.0, 0.015196516138250345
437.0, 0.020206509522330763
438.0, 0.024789778755446402
439.0, 0.029059765916153148
440.0, 0.033380785517442016
441.0, 0.03812301888529819
442.0, 0.04380626247346551
443.0, 0.05052965847602918
444.0, 0.05860123074868398
445.0, 0.06918556984219311
446.0, 0.08317487980547579
447.0, 0.10050377075314476
448.0, 0.12045089499491482
449.0, 0.14308401355665132
450.0, 0.1663048348295503
451.0, 0.18734062314689637
452.0, 0.20321838217636515
453.0, 0.20331980548770456
454.0, 0.18444117226832707
455.0, 0.15406810733326098
456.0, 0.12123067927388698
457.0, 0.09369725129291917
458.0, 0.07290966991018068
459.0, 0.057598233934376235
460.0, 0.046514213189007496
461.0, 0.03853173480134489
462.0, 0.03273243876042454
463.0, 0.028444734158063652
464.0, 0.025170323851364407
465.0, 0.022786228664018016
466.0, 0.021275381727012384
467.0, 0.020421799755389318
468.0, 0.019569374589727885
469.0, 0.019370802927030223
470.0, 0.019209078537920678
471.0, 0.019307585374982214
472.0, 0.01992765724489568
473.0, 0.02066880267782596
474.0, 0.02225995896013453
475.0, 0.02434808394230721
476.0, 0.027005487486465724
477.0, 0.030608757061937827
478.0, 0.03526802088836343
479.0, 0.04008920220700533
480.0, 0.044884720571990944
481.0, 0.04941433065208941
482.0, 0.052325531933299155
483.0, 0.0515537348822563
484.0, 0.046404854610688384
485.0, 0.03784451694606854
486.0, 0.028443772198384155
487.0, 0.02041441135756888
488.0, 0.014720519259070525
489.0, 0.010665692015897383
490.0, 0.00769844122636163
491.0, 0.005660700042521717
492.0, 0.004313615073731836
493.0, 0.0033627021198534557
494.0, 0.0025999706603688183
495.0, 0.00198833879119302
496.0, 0.001491897857676103
497.0, 0.001147311133189282
498.0, 0.0009233729943044461
499.0, 0.0007266937596564001
500.0, 0.000564846067796461
501.0, 0.0006440326141562125
502.0, 0.0007056059917613813
503.0, 0.0008222991908558698
504.0, 0.0011424619399191857
505.0, 0.0013797030816551075
506.0, 0.001601258246871919
507.0, 0.0018719023844522543
508.0, 0.0020876098073877923
509.0, 0.0021313329073694566
510.0, 0.0019034898041497576
511.0, 0.0014519564480198746
512.0, 0.0009555451149918017
513.0, 0.0007282023883121149
514.0, 0.0006203638223849912
515.0, 0.0003376990390153793
516.0, 0.0004017767928147989
517.0, 0.0004143174730197158
518.0, 0.0005085081944383369
519.0, 0.0005633443214292957
520.0, 0.0004768508456313784
521.0, 0.0006483488208978297
522.0, 0.0005256760751156913
523.0, 0.0005207866471702092
524.0, 0.0006114155827215628
525.0, 0.0006652982484178267
526.0, 0.000606207618640187
527.0, 0.0005190305692383616
528.0, 0.0006030552766863689
529.0, 0.0005707320235139005
530.0, 0.0004426543359624036
531.0, 0.00039904497382813845
532.0, 0.0003440073088006203
533.0, 0.0003617725758239275
534.0, 0.00036307241210175434
535.0, 0.00037550725569444144
536.0, 0.00040090626101921365
537.0, 0.00037623065154805923
538.0, 0.0003069008000564832
539.0, 0.00036038917320703766
540.0, 0.00042190652983834534
541.0, 0.00039751759039551916
542.0, 0.0003404351873374137
543.0, 0.00038480212731506334
544.0, 0.00042607678758337954
545.0, 0.0004263150042843342
546.0, 0.00039398545997732046
547.0, 0.0003201899387793795
548.0, 0.00021150996433158385
549.0, 0.0003113581042304566
550.0, 0.00029416207030772903
551.0, 0.00020051714376741336
552.0, 0.0001238128736339195
553.0, 0.00010211632725176439
554.0, 6.890996167415012e-05
555.0, 3.3149558275909047e-05
556.0, 1.458270580838914e-05
557.0, 1.0348478925119841e-05
558.0, 3.915513499099511e-05
559.0, 5.3920223761578696e-05
560.0, 8.726027356772289e-05
561.0, 9.913188221678659e-05
562.0, 9.481290206032955e-05
563.0, 0.00012307614995620412
564.0, 0.00015005684740377085
565.0, 9.849117052277523e-06
566.0, 6.753682374446924e-05
567.0, 0.00013885004620355754
568.0, 0.00010408715031683409
569.0, 5.279029114201353e-05
570.0, 0.0001374078266761404
571.0, 0.00024083464873647615
572.0, 9.799877100379159e-05
573.0, 0.0001407204252551142
574.0, 0.00018828552940187035
575.0, 0.00014024419276261827
576.0, 0.00023183397523168553
577.0, 7.917379267632914e-05
578.0, 0.00011032834661389373
579.0, 0.00013779431973777922
580.0, 6.487794544635323e-05
581.0, 4.5142901318958666e-05
582.0, 7.379769382274818e-05
583.0, 9.688481465848384e-05
584.0, 0.00011474949798419748
585.0, 0.0001418050554230512
586.0, 0.00016581876091542364
587.0, 0.0001607139772685701
588.0, 0.0001313503566823463
589.0, 0.0002584420389861066
590.0, 0.00027197076779747215
591.0, 0.00017940983714943403
592.0, 0.00010627761888044713
593.0, 0.00014267728695524075
594.0, 0.00017216898778957767
595.0, 0.00016013444732325692
596.0, 0.00016967005835274066
597.0, 0.00019781521426926862
598.0, 0.0001562524700214608
599.0, 1.5698363370262558e-05
600.0, 0.00012363983607821576
601.0, 8.370347032327416e-05
602.0, 5.884792154695647e-05
603.0, 0.00016117618101453554
604.0, 0.0002930719492026015
605.0, 0.0002180932098866705
606.0, 0.00024288835542956406
607.0, 0.00024830885635106074
608.0, 0.0002657491294134045
609.0, 0.0002913770666957949
610.0, 0.0002888564676253034
611.0, 0.00029225157163186076
612.0, 0.00018830065324158826
613.0, 0.00020873107623041508
614.0, 0.00036328753469080845
615.0, 0.0004486174476081919
616.0, 0.0003175670622751012
617.0, 0.0003075396158854827
618.0, 0.0003173101204602016
619.0, 0.0003066926295980903
620.0, 0.00028046030781314597
621.0, 0.00029042031027669757
622.0, 0.0003619003390128326
623.0, 0.0003520725932642008
624.0, 0.0003127548556796407
625.0, 0.0002579241228514769
626.0, 0.00019328724712271942
627.0, 0.00013498169203681758
628.0, 0.00010984875465429543
629.0, 0.0002041230550844021
630.0, 0.00017274647714427026
631.0, 0.00010591407433874214
632.0, 0.00014191493090097882
633.0, 0.00024006641911475065
634.0, 0.00019212445368684081
635.0, 0.0002628582148005178
636.0, 0.00030190315816698316
637.0, 0.0002338937356915371
638.0, 0.00021566527583791393
639.0, 0.00030470589938199504
640.0, 0.0003103549823808055
641.0, 0.00024688772551538426
642.0, 0.0002356725310839564
643.0, 0.0003004960689311698
644.0, 0.0003121732036396399
645.0, 0.00022828985138304177
646.0, 0.00019945906616195198
647.0, 0.0002812687589015527
648.0, 0.00024244105344041616
649.0, 0.0002071312052643373
650.0, 0.0001725754781422169
651.0, 8.679474574675975e-05
652.0, 2.3655070107916688e-05
653.0, 9.996981380151503e-05
654.0, 4.343750988601846e-05
655.0, 6.907504536095108e-06
656.0, 3.577899459936418e-05
657.0, 5.0344564265456847e-05
658.0, 3.857656161711685e-05
659.0, 4.83062550174763e-05
660.0, 9.226358604437917e-05
661.0, 5.705222740365913e-05
662.0, 2.5190868216489562e-05
663.0, 5.343606777194758e-05
664.0, 2.2279165869866292e-05
665.0, 9.831441416373364e-05
666.0, 4.928247537139529e-05
667.0, 2.148820398531049e-06
668.0, 6.966228033533021e-05
669.0, 0.00013470019975999947
670.0, 1.4808720849791728e-05
671.0, 1.0659651668497486e-05
672.0, 0.00017170259365446004
673.0, 0.00017845350749016086
674.0, 0.00016586782965502864
675.0, 0.0002844797171498497
676.0, 0.00039142983186468385
677.0, 0.0004918262598807342
678.0, 0.0006212607313083881
679.0, 0.00060233100538612
680.0, 0.000611624285027582
681.0, 0.0007305793446874421
682.0, 0.0008722023084989106
683.0, 0.001102874563493815
684.0, 0.001228229395457591
685.0, 0.0014128696656637778
686.0, 0.001571330299319641
687.0, 0.001728322598122893
688.0, 0.0020078430119426713
689.0, 0.0023925185529654817
690.0, 0.002746553133694306
691.0, 0.0030559511520040525
692.0, 0.003493794156955466
693.0, 0.004031889700078286
694.0, 0.0045834190085202045
695.0, 0.005246440372187469
696.0, 0.006074510312482423
697.0, 0.006913996481201095
698.0, 0.007830457548988335
699.0, 0.00901854548964648
700.0, 0.01046170099415739
701.0, 0.01193528915602611
702.0, 0.013787630546681981
703.0, 0.01573825064068578
704.0, 0.017763056409926956
705.0, 0.019994820169039317
706.0, 0.022498250899325285
707.0, 0.025187119180033454
708.0, 0.02787002014807821
709.0, 0.030528999296199205
710.0, 0.03350626825921185
711.0, 0.03632561698436449
712.0, 0.03913133168631535
713.0, 0.04205339312219626
714.0, 0.04423312955406047
715.0, 0.04566525518058795
716.0, 0.04593119686311401
717.0, 0.04502455962664471
718.0, 0.0425495941315962
719.0, 0.038609575486863605
720.0, 0.034025441520634754
721.0, 0.02881526496517632
722.0, 0.02393328234978797
723.0, 0.019699904975637318
724.0, 0.016257155020998247
725.0, 0.013469076645911448
726.0, 0.011143965910033478
727.0, 0.009496382339124348
728.0, 0.00803310259751335
729.0, 0.006642050403736329
730.0, 0.005679514624067136
731.0, 0.0050021129727628915
732.0, 0.0043162907071290415
733.0, 0.0037376646627843993
734.0, 0.0033299763850267996
735.0, 0.00294857740342855
736.0, 0.002632939741056058
737.0, 0.002381927706098478
738.0, 0.0021432021554999374
739.0, 0.001909871531781303
740.0, 0.001779747720315794
741.0, 0.0015713546395238998
742.0, 0.0015620304045367095
743.0, 0.0015544831001551738
744.0, 0.0015375537021909609
745.0, 0.0015597603481944942
746.0, 0.001517087694249496
747.0, 0.0015084635083822248
748.0, 0.0015630160230660653
749.0, 0.0015508869090711712
750.0, 0.0014910906652415804
751.0, 0.0014669510036944052
752.0, 0.0014680139626777403
753.0, 0.0013351574041843245
754.0, 0.0014235840433251734
755.0, 0.0013673424343179984
756.0, 0.001341623590124397
757.0, 0.0013507169048389744
758.0, 0.0013195274485678062
759.0, 0.001311046456432608
760.0, 0.0012842543499881377
761.0, 0.0010774942963167095
762.0, 0.001045011674232755
763.0, 0.0009960612143936314
764.0, 0.0008968765470188825
765.0, 0.0008357169313358127
766.0, 0.0007171816009517145
767.0, 0.0007100738522569208
768.0, 0.0006800048454206458
769.0, 0.0006120229055281944
770.0, 0.0005859277596117459
771.0, 0.0006304348823677758
772.0, 0.0006374994107987353
773.0, 0.0005622727646583657
774.0, 0.0005729388904926667
775.0, 0.0005339036482955306
776.0, 0.0004773236437257797
777.0, 0.0005461988376681163
778.0, 0.0006636403980946104
779.0, 0.0006321120309957928
780.0, 0.0006227324785335643
781.0, 0.0005366178402252205
782.0, 0.0006360904414752382
783.0, 0.0006954450078662977
784.0, 0.000694901063660986
785.0, 0.0007765598346762626
786.0, 0.0008723517527774786
787.0, 0.0008167777876372583
788.0, 0.000950544277143729
789.0, 0.000962691174695504
790.0, 0.0009063588784996409
791.0, 0.0009542073529027594
792.0, 0.0010747430346789053
793.0, 0.0010599182477847833
794.0, 0.001005688892890098
795.0, 0.0009619742873905538
796.0, 0.0008771448148074353
797.0, 0.0008071373754111751
798.0, 0.0008047352948101728
799.0, 0.0007822925332278318
800.0, 0.0006087792855730356
801.0, 0.0005538369922362729
802.0, 0.00047256135516995397
803.0, 0.0003856180819518482
804.0, 0.0003619437396907563
805.0, 0.00028058280925712104
806.0, 9.632692364400615e-05
807.0, 9.555029172391476e-05
808.0, 0.00010530835036111886
809.0, 5.808552331404245e-05
810.0, 0.0001216557145047043
811.0, 6.1033490658624255e-05
812.0, 3.88330467183648e-05
813.0, 5.031089898894919e-05
814.0, 2.839924808545568e-05
815.0, 7.025568055327668e-05
816.0, 7.78488485469821e-05
817.0, 6.387742985952737e-05
818.0, 4.4034701018122666e-05
819.0, 4.918141569911963e-05
820.0, 8.475238774297288e-05
821.0, 0.00010872746866693559
822.0, 7.489616987790998e-05
823.0, 0.0001022659202581328
824.0, 8.492283678220117e-05
825.0, 9.288243888596535e-05
826.0, 8.082901294990266e-05
827.0, 2.9543267597039476e-05
828.0, 7.728296922457557e-05
829.0, 4.17149814553366e-05
830.0, 1.9548909897658822e-05
831.0, 1.0366019192882055e-06
832.0, 1.8434895168807092e-07
833.0, 1.927124032217969e-05
834.0, 2.8078215858921196e-05
835.0, 5.4882040397571824e-05
836.0, 0.00013501406412167927
837.0, 2.3266180921832956e-05
838.0, 1.6222315796609005e-05
839.0, 2.5950007087896737e-05
840.0, 2.6436635166897196e-05
841.0, 6.279377721280255e-05
842.0, 0.00012433272553162466
843.0, 0.00013790954322786717
844.0, 9.902420903070576e-05
845.0, 0.00011351523491990288
846.0, 8.121430184520885e-05
847.0, 8.18358949363194e-05
848.0, 9.461164245215058e-05
849.0, 4.428909774047543e-05
850.0, 0.0001524106494854147
851.0, 0.00018500834212791423
852.0, 0.00017805335582206372
853.0, 0.00013674427370677025
854.0, 0.00015597276315320325
855.0, 0.00020742180515588988
856.0, 0.00018838694801636452
857.0, 0.00013880279634843234
858.0, 0.00020888779058754044
859.0, 0.00017325552787163465
860.0, 0.00019370284232123714
861.0, 0.00020303176867758922
862.0, 0.00016880380367467128
863.0, 0.00014816325867595008
864.0, 0.00016234154336739045
865.0, 0.00015525034441908256
866.0, 0.0002111513645640521
867.0, 0.0003282997637722365
868.0, 0.00023462741320309137
869.0, 0.00015875881311358517
870.0, 0.00022463728713718303
871.0, 0.0002388241583136462
872.0, 0.0001469777590664017
873.0, 0.00015550701981991016
874.0, 0.00022892301469767265
875.0, 0.00022665894594225212
876.0, 0.00026956623571985954
877.0, 0.0003017380311751511
878.0, 0.00022584072318783434
879.0, 0.00020485293763210208
880.0, 0.0003179084064382547
881.0, 0.00026670004134894665
882.0, 0.00027181987812220865
883.0, 0.00023564712675555016
884.0, 0.0002759577829170678
885.0, 0.0003255754604653763
886.0, 0.00023934985234763713
887.0, 0.00031123220244678784
888.0, 0.00033330785320237575
889.0, 0.000391775007095818
890.0, 0.00041852755681739094
891.0, 0.0004235314172789497
892.0, 0.0004653549869540125
893.0, 0.0005088072752632406
894.0, 0.0004638585227240201
895.0, 0.000451077489030124
896.0, 0.0006493137482693411
897.0, 0.0006409940236759916
898.0, 0.0006969853805696261
899.0, 0.0006977100980198833
900.0, 0.0007234386933652818
901.0, 0.000836365674061001
902.0, 0.0007447795549026619
903.0, 0.0007360664360655854
904.0, 0.0007337990214633876
905.0, 0.0008180422148324054
906.0, 0.000833932170964579
907.0, 0.0007464015301995037
908.0, 0.0006924372879210525
909.0, 0.0006978588806705503
910.0, 0.0006363406087593891
911.0, 0.0005503342452027371
912.0, 0.0005933852791113014
913.0, 0.0006322870291562403
914.0, 0.0006074154835187261
915.0, 0.0005247424028088811
916.0, 0.00043565324141933936
917.0, 0.00038429634855534806
918.0, 0.0003828453659566221
919.0, 0.0004872174451689216
920.0, 0.0004108703754823356
921.0, 0.0003146423089168106
922.0, 0.0003861565243273047
923.0, 0.0003895657250598227
924.0, 0.0003106330340898647
925.0, 0.00035135712879880306
926.0, 0.0003352459801437037
927.0, 0.0003763577339565621
928.0, 0.00033098696798431035
929.0, 0.00028569383350347826
930.0, 0.0002338119887961181
931.0, 0.0002343941919605953
932.0, 0.00029280292373765987
933.0, 0.000291112417813695
934.0, 0.0002262090292533272
935.0, 0.00031617705868463756
936.0, 0.0002573050851616013
937.0, 0.00018987625541051404
938.0, 0.00016465278947978157
939.0, 9.174425091765191e-05
940.0, 5.567273315124914e-05
941.0, 0.00016273689838049396
942.0, 0.00016878389616149382
943.0, 0.00014557349381364565
944.0, 2.0858056812982137e-05
945.0, 2.2163595918687807e-05
946.0, 0.00014666514385168225
947.0, 0.00016707829980044852
948.0, 0.0001397844236147616
949.0, 0.00022746083700650728
950.0, 0.00028900445962371267
951.0, 0.0002713879952963032
952.0, 0.0002610187186326696
953.0, 0.0001973563961947695
954.0, 0.00024100621093290208
955.0, 0.00024022162448695907
956.0, 0.00023626799357444423
957.0, 0.00031117323333638703
958.0, 0.0002808459234388708
959.0, 0.00033209586278630233
960.0, 0.0003079775632922477
961.0, 0.00043598034387824466
962.0, 0.00042734325308351216
963.0, 0.0003522443101048675
964.0, 0.0003392680575997567
965.0, 0.0003371154605406941
966.0, 0.0003280844399943526
967.0, 0.00036069300015576986
968.0, 0.00030411621782237515
969.0, 0.0003954275703621249
970.0, 0.000336626431105685
971.0, 0.00038363169596172114
972.0, 0.00042472479495371724
973.0, 0.00030435355872506864
974.0, 0.0002748590403365229
975.0, 0.00042078277720883806
976.0, 0.0001979515014545722
977.0, 0.00026544144978540976
978.0, 0.00022512465306033562
979.0, 0.00019963340813690104
980.0, 0.00016300063544954683
981.0, 0.00017480516613837158
982.0, 0.0002569564371512081
983.0, 0.0002385647141103525
984.0, 0.00020101483888099257
985.0, 0.00021365774013222655
986.0, 0.000206000805042435
987.0, 0.00021686218492632253
988.0, 0.0002521681533687568
989.0, 0.0002546716629574974
990.0, 0.0001939413092199535
991.0, 0.00010768462373486345
992.0, 5.596171883701222e-05
993.0, 7.719460949745336e-05
994.0, 0.00022001072852497226
995.0, 0.00010938250630973404
996.0, 8.283842520074608e-05
997.0, 0.00019234113307540663
998.0, 0.00022666682411896498
999.0, 0.00011958207187122141
1000.0, 2.599361286918245e-05
1001.0, 2.7262326863104973e-05
1002.0, 0.00012819107614898517
1003.0, 0.00016948804423973094
1004.0, 0.00017809157802403327
1005.0, 3.362363413391521e-05
1006.0, 3.878625010858783e-05
1007.0, 0.00010514151798289636
1008.0, 0.00010448208342116675
1009.0, 0.00015645088149161284
1010.0, 8.95411420788572e-05
1011.0, 6.440796471508694e-05
1012.0, 8.62477674651013e-06
1013.0, 1.006173893933411e-05
1014.0, 5.7246070926882444e-05
1015.0, 2.865063685665538e-05
1016.0, 1.453995786417984e-05
1017.0, 5.56580609549794e-06
1018.0, 7.331936583792626e-06
1019.0, 8.858203985730542e-05
1020.0, 8.085817148787416e-05
1021.0, 8.24351083153408e-05
1022.0, 6.438503640215373e-05
1023.0, 2.1076509464299455e-05
1024.0, 5.772436116311553e-05
1025.0, 0.00013904514325030612
1026.0, 0.00011039155726645856
1027.0, 2.6888076085797114e-05
1028.0, 4.203637702695223e-05
1029.0, 2.7621088830410643e-05
1030.0, 5.1015121478228544e-05
1031.0, 2.652518634332462e-05
1032.0, 5.990136001836765e-05
1033.0, 1.1394594145223116e-05
1034.0, 2.5932353229039993e-06
1035.0, 7.422711587253801e-05
1036.0, 1.585556438670096e-05
1037.0, 4.91479034956132e-05
1038.0, 7.06712162507121e-05
1039.0, 1.2730800068931765e-05
1040.0, 3.98075491297047e-05
1041.0, 1.3948913488530225e-05
1042.0, 3.2017387135882625e-05
1043.0, 7.620205539934764e-05
1044.0, 0.00014355368939881818
1045.0, 0.00013696283016960655
1046.0, 7.250320872976373e-05
1047.0, 0.0001425437567116166
1048.0, 0.00010850604949341634
1049.0, 2.589759017180295e-05
1050.0, 9.69408442758149e-05
1051.0, 4.734866448753248e-05
1052.0, 7.293679153478777e-05
1053.0, 0.0001259471951971434
1054.0, 2.9362937295954736e-05
1055.0, 2.5941883043997683e-05
1056.0, 9.031642675419044e-05
1057.0, 7.558960454434766e-05
1058.0, 0.00013452422579759765
1059.0, 0.000139775942518231
1060.0, 9.86869959938857e-05
1061.0, 0.00010568435827398325
1062.0, 0.00010458113133426487
1063.0, 0.00010050298091818985
1064.0, 0.0001369709918137894
1065.0, 0.00012508825160888255
1066.0, 0.0001866318448238236
1067.0, 0.0002467684887047426
1068.0, 0.0002282323878655891
1069.0, 0.00023325714292633633
1070.0, 5.531944354540542e-05
1071.0, 6.163097470985888e-05
1072.0, 0.00020080385487659613
1073.0, 0.00023187066807616778
1074.0, 0.0002153648091783953
1075.0, 0.0001934108560403854
1076.0, 0.00016619649762815303
1077.0, 0.00011668448489151036
1078.0, 0.00017687773643722203
1079.0, 0.00019976759914129658
1080.0, 0.0001710122568385962
1081.0, 6.476730419125165e-05
1082.0, 3.985488934220407e-05
1083.0, 0.00016001732203968372
1084.0, 0.000210671641189802
1085.0, 0.0002143061865486522
1086.0, 0.0001924890497291481
1087.0, 0.00014225699291661387
1088.0, 0.00015739803366727925
1089.0, 0.00015914547665754186
1090.0, 0.00011626858018535305
1091.0, 0.00013285008802846028
1092.0, 0.00012481236050161966
1093.0, 9.472914531907686e-05
1094.0, 0.0001964664502147747
1095.0, 0.00020289655013746536
1096.0, 0.00013621644042283756
1097.0, 0.0001586749956034561
1098.0, 0.0001624544570748811
1099.0, 0.0001316625331259978
1100.0, 0.00016385650490013669
1101.0, 0.0001805471511697823
1102.0, 0.0001320293385807987
1103.0, 0.000123105065726403
1104.0, 0.00015544840691919098
1105.0, 6.897617542253145e-05
1106.0, 0.0001338156260140548
1107.0, 0.00010259099066978162
1108.0, 0.00010953404385008151
1109.0, 6.830863090682223e-05
1110.0, 5.2958286164258593e-05
1111.0, 0.00010265584627292371
1112.0, 7.437716991666872e-05
1113.0, 8.828002289691571e-06
1114.0, 7.160477793724672e-06
1115.0, 7.723306831830168e-05
1116.0, 0.00019901745189292806
1117.0, 2.8128732321480637e-05
1118.0, 8.249000393910275e-05
1119.0, 0.00012594821376973026
1120.0, 0.00010585000086256307
1121.0, 0.00011542873330701958
1122.0, 6.708843573324699e-05
1123.0, 4.27735296806666e-06
1124.0, 4.3275063318883836e-05
1125.0, 6.040319059894793e-05
1126.0, 1.734491384424624e-05
1127.0, 4.748229650515511e-05
1128.0, 7.5436140561886e-06
1129.0, 0.00012921708918160605
1130.0, 6.553038006870923e-05
1131.0, 2.1929736904098617e-05
1132.0, 1.5037112481832869e-05
1133.0, 6.794180971783299e-05
1134.0, 8.244459758329476e-05
1135.0, 2.5383709818077346e-05
1136.0, 3.1035645194665994e-05
1137.0, 1.814390007196903e-05
1138.0, 0.00011511533159661438
1139.0, 0.00016857166826583894
1140.0, 2.4967698738073857e-05
1141.0, 4.885096005420532e-06
1142.0, 7.61278571403899e-05
1143.0, 0.00012074778684386007
1144.0, 4.281498172890929e-05
1145.0, 2.3259434202369777e-05
1146.0, 0.0001291549948158321
1147.0, 0.00010259402335065797
1148.0, 9.997442944415519e-05
1149.0, 7.851783486441915e-05
1150.0, 9.609153561302733e-05
1151.0, 2.906253987728969e-05
1152.0, 0.00012534234762414244
1153.0, 3.680880385565685e-05
1154.0, 7.479450826155786e-05
1155.0, 0.00013150115650884878
1156.0, 0.00015966731894250975
1157.0, 0.00023825042726476105
1158.0, 0.00019584774442720355
1159.0, 0.0001618750959488735
1160.0, 0.00015484602324767317
1161.0, 0.0001367662884924804
1162.0, 9.832223604210056e-05
1163.0, 0.00020727682453375304
1164.0, 0.00028993629003546165
1165.0, 0.00022592650482116224
1166.0, 0.00010123969491620415
1167.0, 0.00019415632968729842
1168.0, 0.00031145471471566015
1169.0, 0.0002084041601785621
1170.0, 0.00023267436070451898
1171.0, 0.0001531706295697343
1172.0, 0.000261474618489749
1173.0, 0.00018312613074715275
1174.0, 0.0002573020140135734
1175.0, 0.00021645390532953058
1176.0, 0.00019821077154194534
1177.0, 0.0002235978132370662
1178.0, 0.00023216690957280345
1179.0, 0.0002581741241818883
1180.0, 0.0002960598376440244
1181.0, 0.00028811120890362624
1182.0, 0.00023940454022709193
1183.0, 0.00013905462530823396
1184.0, 0.00023385901501771727
1185.0, 0.00024769258790339674
1186.0, 0.00017766203909128488
1187.0, 0.00019466393195312917
1188.0, 0.0001115553200516247
1189.0, 7.92986051431199e-05
1190.0, 0.00012677784877011144
1191.0, 0.00014354120984301415
1192.0, 0.00014000362696755023
1193.0, 0.0001581985372857275
1194.0, 0.0001778130287550844
1195.0, 3.872916688381413e-05
1196.0, 7.42636007433237e-05
1197.0, 9.291992661082165e-05
1198.0, 7.894053151160258e-05
1199.0, 8.643624959396373e-05
1200.0, 0.0001352697854120926
1201.0, 0.00014169302324317564
1202.0, 0.00010581432213250321
1203.0, 0.00011568391394069288
1204.0, 0.00013440512945168623
1205.0, 9.267430543605385e-05
1206.0, 9.976941737313887e-05
1207.0, 0.00015207856550230185
1208.0, 0.00011393875685392238
1209.0, 7.018562547801977e-05
1210.0, 7.86066250518834e-05
1211.0, 0.00015118572011520986
1212.0, 7.427342466180066e-05
1213.0, 6.968067572143754e-05
1214.0, 6.046752167929229e-05
1215.0, 3.1595552174230295e-05
1216.0, 9.233827797382181e-05
1217.0, 0.0001399520373774343
1218.0, 0.00013042778509126296
1219.0, 0.0001562846548158979
1220.0, 9.391129541333323e-05
1221.0, 0.00010054621075181372
1222.0, 0.00021277941140887606
1223.0, 0.00011225842153092332
1224.0, 0.0001226864916038716
1225.0, 0.00010542015629523639
1226.0, 0.00013193259416441233
1227.0, 0.0001352713287587035
1228.0, 0.00013928853449344955
1229.0, 0.00014553414829742342
1230.0, 8.919075139530933e-05
1231.0, 0.00011478651840178783
1232.0, 0.0001401648314988128
1233.0, 0.0001271572709669553
1234.0, 2.166117761677217e-05
1235.0, 5.231452451932043e-05
1236.0, 2.2504096740418814e-06
1237.0, 5.8420927523885076e-05
1238.0, 5.1618379518196125e-05
1239.0, 7.930323128130143e-05
1240.0, 0.00010839466480594787
1241.0, 4.1715337692702885e-05
1242.0, 2.241840264458548e-05
1243.0, 5.0126883295061416e-05
1244.0, 5.0854717385005923e-05
1245.0, 0.0002046561366132215
1246.0, 0.00011368182448642417
1247.0, 1.4702086340534593e-05
1248.0, 3.425054884528168e-06
1249.0, 0.00011980271812746335
1250.0, 0.0001309089059744298
1251.0, 6.852841766909207e-05
1252.0, 2.5378017159543192e-05
1253.0, 0.00011699116135988551
1254.0, 0.00013036956680045677
1255.0, 6.116606642481529e-05
1256.0, 7.006250101602799e-05
1257.0, 8.89754760252973e-05
1258.0, 0.00011159270253244818
1259.0, 0.0001401979024703393
1260.0, 0.00012167976387223857
1261.0, 7.644037566082477e-05
1262.0, 7.389704014511794e-05
1263.0, 1.4562117024589303e-05
1264.0, 4.3842826810487464e-05
1265.0, 7.880060543783994e-05
1266.0, 6.723902437411586e-05
1267.0, 0.0001654940356573588
1268.0, 0.0001985082512632436
1269.0, 7.715176972033949e-05
1270.0, 3.554914090944329e-06
1271.0, 7.145052037685826e-05
1272.0, 0.00015342886441385443
1273.0, 9.31034455817471e-05
1274.0, 2.946809616729082e-05
1275.0, 0.00016113343291153045
1276.0, 0.0002253909224111648
1277.0, 0.00013288526597603654
1278.0, 1.1337815952104673e-05
1279.0, 9.147396985303053e-06
1280.0, 7.057911701495608e-05
1281.0, 9.230581061761334e-05
1282.0, 0.00013095423309537234
1283.0, 0.00016433052991858993
1284.0, 0.00016802936003276243
1285.0, 0.0001995087631270694
1286.0, 0.00021015555109539283
1287.0, 8.502235997334181e-05
1288.0, 4.123480680176174e-05
1289.0, 0.0001237967578863405
1290.0, 0.00010167647266058415
1291.0, 0.0001061754195941887
1292.0, 0.00017810492818238759
1293.0, 0.00018629324009282933
1294.0, 0.00018001099711715033
1295.0, 0.00012075702071036444
1296.0, 0.0001472741886335116
1297.0, 0.00015121736984992191
1298.0, 0.00010188192687928018
1299.0, 6.0948142184512834e-05
1300.0, 3.6458088193246565e-05
1301.0, 4.078887652106258e-05
1302.0, 0.00011219775648289284
1303.0, 0.00013573958390069853
1304.0, 7.156795592885647e-05
1305.0, 4.54767075359579e-07
1306, 0.0
1307, 0.0
1308, 0.0
1309, 0.0
1310, 0.0
1311, 0.0
1312, 0.0
1313, 0.0
1314, 0.0
1315, 0.0
1316, 0.0
1317, 0.0
1318, 0.0
1319, 0.0
1320, 0.0
1321, 0.0
1322, 0.0
1323, 0.0
1324, 0.0
1325, 0.0
1326, 0.0
1327, 0.0
1328, 0.0
1329, 0.0
1330, 0.0
1331, 0.0
1332, 0.0
1333, 0.0
1334, 0.0
1335, 0.0
1336, 0.0
1337, 0.0
1338, 0.0
1339, 0.0
1340, 0.0
1341, 0.0
1342, 0.0
1343, 0.0
1344, 0.0
1345, 0.0
1346, 0.0
1347, 0.0
1348, 0.0
1349, 0.0
1350, 0.0
1351, 0.0
1352, 0.0
1353, 0.0
1354, 0.0
1355, 0.0
1356, 0.0
1357, 0.0
1358, 0.0
1359, 0.0
1360, 0.0
1361, 0.0
1362, 0.0
1363, 0.0
1364, 0.0
1365, 0.0
1366, 0.0
1367, 0.0
1368, 0.0
1369, 0.0
1370, 0.0
1371, 0.0
1372, 0.0
1373, 0.0
1374, 0.0
1375, 0.0
1376, 0.0
1377, 0.0
1378, 0.0
1379, 0.0
1380, 0.0
1381, 0.0
1382, 0.0
1383, 0.0
1384, 0.0
1385, 0.0
1386, 0.0
1387, 0.0
1388, 0.0
1389, 0.0
1390, 0.0
1391, 0.0
1392, 0.0
1393, 0.0
1394, 0.0
1395, 0.0
1396, 0.0
1397, 0.0
1398, 0.0
1399, 0.0
1400, 0.0
1401, 0.0
1402, 0.0
1403, 0.0
1404, 0.0
1405, 0.0
1406, 0.0
1407, 0.0
1408, 0.0
1409, 0.0
1410, 0.0
1411, 0.0
1412, 0.0
1413, 0.0
1414, 0.0
1415, 0.0
1416, 0.0
1417, 0.0
1418, 0.0
1419, 0.0
1420, 0.0
1421, 0.0
1422, 0.0
1423, 0.0
1424, 0.0
1425, 0.0
1426, 0.0
1427, 0.0
1428, 0.0
1429, 0.0
1430, 0.0
1431, 0.0
1432, 0.0
1433, 0.0
1434, 0.0
1435, 0.0
1436, 0.0
1437, 0.0
1438, 0.0
1439, 0.0
1440, 0.0
1441, 0.0
1442, 0.0
1443, 0.0
1444, 0.0
1445, 0.0
1446, 0.0
1447, 0.0
1448, 0.0
1449, 0.0
1450, 0.0
1451, 0.0
1452, 0.0
1453, 0.0
1454, 0.0
1455, 0.0
1456, 0.0
1457, 0.0
1458, 0.0
1459, 0.0
1460, 0.0
1461, 0.0
1462, 0.0
1463, 0.0
1464, 0.0
1465, 0.0
1466, 0.0
1467, 0.0
1468, 0.0
1469, 0.0
1470, 0.0
1471, 0.0
1472, 0.0
1473, 0.0
1474, 0.0
1475, 0.0
1476, 0.0
1477, 0.0
1478, 0.0
1479, 0.0
1480, 0.0
1481, 0.0
1482, 0.0
1483, 0.0
1484, 0.0
1485, 0.0
1486, 0.0
1487, 0.0
1488, 0.0
1489, 0.0
1490, 0.0
1491, 0.0
1492, 0.0
1493, 0.0
1494, 0.0
1495, 0.0
1496, 0.0
1497, 0.0
1498, 0.0
1499, 0.0
1500, 0.0
1501, 0.0
1502, 0.0
1503, 0.0
1504, 0.0
1505, 0.0
1506, 0.0
1507, 0.0
1508, 0.0
1509, 0.0
1510, 0.0
1511, 0.0
1512, 0.0
1513, 0.0
1514, 0.0
1515, 0.0
1516, 0.0
1517, 0.0
1518, 0.0
1519, 0.0
1520, 0.0
1521, 0.0
1522, 0.0
1523, 0.0
1524, 0.0
1525, 0.0
1526, 0.0
1527, 0.0
1528, 0.0
1529, 0.0
1530, 0.0
1531, 0.0
1532, 0.0
1533, 0.0
1534, 0.0
1535, 0.0
1536, 0.0
1537, 0.0
1538, 0.0
1539, 0.0
1540, 0.0
1541, 0.0
1542, 0.0
1543, 0.0
1544, 0.0
1545, 0.0
1546, 0.0
1547, 0.0
1548, 0.0
1549, 0.0
1550, 0.0
1551, 0.0
1552, 0.0
1553, 0.0
1554, 0.0
1555, 0.0
1556, 0.0
1557, 0.0
1558, 0.0
1559, 0.0
1560, 0.0
1561, 0.0
1562, 0.0
1563, 0.0
1564, 0.0
1565, 0.0
1566, 0.0
1567, 0.0
1568, 0.0
1569, 0.0
1570, 0.0
1571, 0.0
1572, 0.0
1573, 0.0
1574, 0.0
1575, 0.0
1576, 0.0
1577, 0.0
1578, 0.0
1579, 0.0
1580, 0.0
1581, 0.0
1582, 0.0
1583, 0.0
1584, 0.0
1585, 0.0
1586, 0.0
1587, 0.0
1588, 0.0
1589, 0.0
1590, 0.0
1591, 0.0
1592, 0.0
1593, 0.0
1594, 0.0
1595, 0.0
1596, 0.0
1597, 0.0
1598, 0.0
1599, 0.0
