30, 0.0
31, 0.0
32, 0.0
33, 0.0
34, 0.0
35, 0.0
36, 0.0
37, 0.0
38, 0.0
39, 0.0
40, 0.0
41, 0.0
42, 0.0
43, 0.0
44, 0.0
45, 0.0
46, 0.0
47, 0.0
48, 0.0
49, 0.0
50, 0.0
51, 0.0
52, 0.0
53, 0.0
54, 0.0
55, 0.0
56, 0.0
57, 0.0
58, 0.0
59, 0.0
60, 0.0
61, 0.0
62, 0.0
63, 0.0
64, 0.0
65, 0.0
66, 0.0
67, 0.0
68, 0.0
69, 0.0
70, 0.0
71, 0.0
72, 0.0
73, 0.0
74, 0.0
75, 0.0
76, 0.0
77, 0.0
78, 0.0
79, 0.0
80, 0.0
81, 0.0
82, 0.0
83, 0.0
84, 0.0
85, 0.0
86, 0.0
87, 0.0
88, 0.0
89, 0.0
90, 0.0
91, 0.0
92, 0.0
93, 0.0
94, 0.0
95, 0.0
96, 0.0
97, 0.0
98, 0.0
99, 0.0
100, 0.0
101, 0.0
102, 0.0
103, 0.0
104, 0.0
105, 0.0
106, 0.0
107, 0.0
108, 0.0
109, 0.0
110, 0.0
111, 0.0
112, 0.0
113, 0.0
114, 0.0
115, 0.0
116, 0.0
117, 0.0
118, 0.0
119, 0.0
120, 0.0
121, 0.0
122, 0.0
123, 0.0
124, 0.0
125, 0.0
126, 0.0
127, 0.0
128, 0.0
129, 0.0
130, 0.0
131, 0.0
132, 0.0
133, 0.0
134, 0.0
135, 0.0
136, 0.0
137, 0.0
138, 0.0
139, 0.0
140, 0.0
141, 0.0
142, 0.0
143, 0.0
144, 0.0
145, 0.0
146, 0.0
147, 0.0
148, 0.0
149, 0.0
150, 0.0
151, 0.0
152, 0.0
153, 0.0
154, 0.0
155, 0.0
156, 0.0
157, 0.0
158, 0.0
159, 0.0
160, 0.0
161, 0.0
162, 0.0
163, 0.0
164, 0.0
165, 0.0
166, 0.0
167, 0.0
168, 0.0
169, 0.0
170, 0.0
171, 0.0
172, 0.0
173, 0.0
174, 0.0
175, 0.0
176, 0.0
177, 0.0
178.0, 0.0007378125815490024
179.0, 0.002014152626364847
180.0, 0.00048536050641029857
181.0, 0.00041961308915758924
182.0, 0.00025883112228293037
183.0, 0.0006078062586931904
184.0, 0.0031061899407149717
185.0, 0.006825231218501486
186.0, 0.00787676558489315
187.0, 0.009949710746715528
188.0, 0.014751634397160308
189.0, 0.020880188004653986
190.0, 0.025809348416468772
191.0, 0.03181430543635716
192.0, 0.039912441215848964
193.0, 0.04958120606929569
194.0, 0.059556536727826404
195.0, 0.06976650991137881
196.0, 0.08191093605628051
197.0, 0.09585873043393485
198.0, 0.10921372048364085
199.0, 0.12353731731640122
200.0, 0.1387718834364987
201.0, 0.1550067708071561
202.0, 0.17219752173368816
203.0, 0.18820036362486015
204.0, 0.20687484307450107
205.0, 0.2253787811425472
206.0, 0.2430354405071504
207.0, 0.265394616833992
208.0, 0.2865197337141309
209.0, 0.30847659707578406
210.0, 0.3317847312661173
211.0, 0.3545952497161532
212.0, 0.37545901800156206
213.0, 0.3956624309276283
214.0, 0.4156823259006544
215.0, 0.4352595630908836
216.0, 0.4523597749362464
217.0, 0.4669930632445077
218.0, 0.47972905119650266
219.0, 0.4907664341408212
220.0, 0.49988802790803194
221.0, 0.507108201419695
222.0, 0.5126429130971806
223.0, 0.5145800581269091
224.0, 0.512512945413146
225.0, 0.5114399698773996
226.0, 0.5091469434447524
227.0, 0.5064143675146036
228.0, 0.5028445457241798
229.0, 0.49710303830983155
230.0, 0.4927921773684213
231.0, 0.4877229753238985
232.0, 0.48279608853562145
233.0, 0.4791537296359915
234.0, 0.47481350571669767
235.0, 0.46813808768079745
236.0, 0.4625256873930001
237.0, 0.4577193399831377
238.0, 0.4484455885775778
239.0, 0.43941961615798664
240.0, 0.4313054566324586
241.0, 0.42125309733074373
242.0, 0.40771297601685813
243.0, 0.3964362979864847
244.0, 0.38193211477717864
245.0, 0.3655580822942089
246.0, 0.3483733596242006
247.0, 0.33003544768026843
248.0, 0.3115689694916475
249.0, 0.2930740366513009
250.0, 0.2753778506658919
251.0, 0.2585019030020965
252.0, 0.24025640245929505
253.0, 0.2243100665053696
254.0, 0.20947425429401625
255.0, 0.19491224927379527
256.0, 0.1808664541361264
257.0, 0.17040585022513674
258.0, 0.16014045669262886
259.0, 0.14903803991444942
260.0, 0.13844424771568165
261.0, 0.1308718441566265
262.0, 0.12378840864115849
263.0, 0.11632285578371332
264.0, 0.10938381567944787
265.0, 0.10400287495573043
266.0, 0.09937470531644463
267.0, 0.09421107292111316
268.0, 0.08924297564807697
269.0, 0.084855997116436
270.0, 0.08095103045646751
271.0, 0.07726146543872489
272.0, 0.07329745042379936
273.0, 0.06958784143114881
274.0, 0.06629293861557005
275.0, 0.06173448526931963
276.0, 0.05794688695325295
277.0, 0.05451378639065538
278.0, 0.050981198351693395
279.0, 0.04728885925028408
280.0, 0.043501844387233514
281.0, 0.040100233420538846
282.0, 0.037332993774959786
283.0, 0.03481798842976586
284.0, 0.0316758629027119
285.0, 0.02963728163654988
286.0, 0.02766833261285771
287.0, 0.025709803324397144
288.0, 0.024123499853709315
289.0, 0.02206580461609308
290.0, 0.02079315032923726
291.0, 0.01960220619766073
292.0, 0.01816030083898278
293.0, 0.016835211148538164
294.0, 0.015032922298059548
295.0, 0.013519520343536484
296.0, 0.012025334729510305
297.0, 0.01063594925655538
298.0, 0.01027544364773609
299.0, 0.008714770055097857
300.0, 0.00788489345941937
301.0, 0.007089974380668488
302.0, 0.005010565252352983
303.0, 0.003672166238056988
304.0, 0.0030829065150001942
305.0, 0.0024616552732069415
306.0, 0.0015526006924154443
307.0, 0.0005941087728809202
308.0, 0.00029063101024872295
309.0, 0.0014641649337161708
310.0, 0.0025972957409741457
311.0, 0.003270693623276462
312.0, 0.003487465712889798
313.0, 0.004393907981600582
314.0, 0.004891607996890898
315.0, 0.004579689463660891
316.0, 0.004253872442939746
317.0, 0.0055989749024562335
318.0, 0.005921430030639532
319.0, 0.006158120198621534
320.0, 0.006900675672928349
321.0, 0.007785752694874654
322.0, 0.00698515793560396
323.0, 0.006788255944289698
324.0, 0.007692492829863126
325.0, 0.008553050487256984
326.0, 0.007744708469107108
327.0, 0.007640898124739347
328.0, 0.007374235258334194
329.0, 0.006977442576453715
330.0, 0.00673056211142196
331.0, 0.006796083720612755
332.0, 0.005755179300494428
333.0, 0.0037620462131146126
334.0, 0.0016187608456340442
335.0, 0.00033615338406401665
336.0, 0.0033121492953046235
337.0, 0.0049166081668448325
338.0, 0.006807605512953138
339.0, 0.010088808844660369
340.0, 0.014340611469469978
341.0, 0.01784684133311123
342.0, 0.021635495046314318
343.0, 0.026883611865134598
344.0, 0.0331985996784966
345.0, 0.039466212960452246
346.0, 0.04680034319645757
347.0, 0.055720646383559204
348.0, 0.06452548925159042
349.0, 0.07397482789537997
350.0, 0.0873095964249133
351.0, 0.10078007551847051
352.0, 0.11442675559921302
353.0, 0.12845669472981877
354.0, 0.14361244290453615
355.0, 0.16083627825322305
356.0, 0.17779799923759954
357.0, 0.19516346460452508
358.0, 0.21220272352963793
359.0, 0.2290125967669006
360.0, 0.24798944491880628
361.0, 0.26547268846721084
362.0, 0.28133953301163306
363.0, 0.2965671467532233
364.0, 0.3124746936559409
365.0, 0.330626396553367
366.0, 0.3462122605958414
367.0, 0.3600597400272312
368.0, 0.373343946226215
369.0, 0.38657411646640266
370.0, 0.40004796843634466
371.0, 0.4118386800876148
372.0, 0.42422212760233724
373.0, 0.4375176473640902
374.0, 0.4505587610668429
375.0, 0.4628318249566595
376.0, 0.4767081858196235
377.0, 0.49044440449601867
378.0, 0.5042279192854948
379.0, 0.5201270676139692
380.0, 0.5362808990537117
381.0, 0.5542546629662116
382.0, 0.5749331249317943
383.0, 0.5972403355969041
384.0, 0.6194334268082936
385.0, 0.6416718959009661
386.0, 0.6685154469392619
387.0, 0.696413608075608
388.0, 0.7243272464847431
389.0, 0.754811700347341
390.0, 0.7821692459228002
391.0, 0.8089957007378084
392.0, 0.8382701233726985
393.0, 0.8683922834527116
394.0, 0.894953045620429
395.0, 0.9205072194926278
396.0, 0.9440500002293651
397.0, 0.9636770072631113
398.0, 0.9789991611906667
399.0, 0.990859489389997
400.0, 0.9987133506943869
401.0, 0.9983178206448359
402.0, 0.9939988291714836
403.0, 0.9866002596941218
404.0, 0.9715776036421729
405.0, 0.951622449899466
406.0, 0.9266178969781296
407.0, 0.895707283536247
408.0, 0.8588122714915302
409.0, 0.8179200221022229
410.0, 0.7772070707689404
411.0, 0.7330933786031872
412.0, 0.685389537927104
413.0, 0.6371455587516647
414.0, 0.591063794018145
415.0, 0.541593979765555
416.0, 0.49560762132095326
417.0, 0.4501089082733307
418.0, 0.4051811886034953
419.0, 0.3651282238326483
420.0, 0.3246596966975142
421.0, 0.2877667246414501
422.0, 0.2532897679967836
423.0, 0.2208065418137729
424.0, 0.19195685063488424
425.0, 0.16637656633034997
426.0, 0.14287091788240783
427.0, 0.12148832068845562
428.0, 0.10260104973223935
429.0, 0.08654485703452693
430.0, 0.0710868107421944
431.0, 0.05625727308502154
432.0, 0.044603939875317175
433.0, 0.036145966388186
434.0, 0.0289188939573315
435.0, 0.024315997787422897
436.0, 0.020849766673275018
437.0, 0.020411667950545914
438.0, 0.02304319159697623
439.0, 0.02689612553329495
440.0, 0.0308219090928813
441.0, 0.03849406386052094
442.0, 0.04980064813586979
443.0, 0.0622990589690707
444.0, 0.0749760361871306
445.0, 0.0913742713237083
446.0, 0.10904902520570871
447.0, 0.1280731086717836
448.0, 0.14906614605423396
449.0, 0.17107303694721426
450.0, 0.19089155972230584
451.0, 0.21319213979673626
452.0, 0.23489702725412706
453.0, 0.2575007763315561
454.0, 0.28253332073711446
455.0, 0.30911805124405384
456.0, 0.3393812603681684
457.0, 0.37445433982370124
458.0, 0.412858068507772
459.0, 0.4552085619335481
460.0, 0.50398096545962
461.0, 0.5532466560775342
462.0, 0.6045920265830328
463.0, 0.6566980148820492
464.0, 0.7064595167873993
465.0, 0.7504485135997041
466.0, 0.7861861316861343
467.0, 0.8079883330469537
468.0, 0.8154925638837618
469.0, 0.8086703047919136
470.0, 0.7878037390247812
471.0, 0.7543210987568285
472.0, 0.7094608907351347
473.0, 0.6549851679681268
474.0, 0.5980054620943245
475.0, 0.543878872630833
476.0, 0.48970706887301485
477.0, 0.43869623335493174
478.0, 0.39166594599453136
479.0, 0.3512270444298843
480.0, 0.31486439552764506
481.0, 0.275047378257154
482.0, 0.243130448073241
483.0, 0.21309209638560123
484.0, 0.1859321022609476
485.0, 0.16217264790402255
486.0, 0.1405046963854609
487.0, 0.12124112286570275
488.0, 0.10362248344635482
489.0, 0.08809084588255574
490.0, 0.07405236400532038
491.0, 0.0609478910715199
492.0, 0.05057676465839585
493.0, 0.03937516975582038
494.0, 0.030929545151062915
495.0, 0.023829874044840164
496.0, 0.016047698850760257
497.0, 0.009387131902730682
498.0, 0.0046693020379788095
499.0, 0.0010550886156080654
500.0, 0.0032089767898391625
501.0, 0.007144152755163149
502.0, 0.010772260771445384
503.0, 0.011972463799989244
504.0, 0.013733109375162434
505.0, 0.014732487533000993
506.0, 0.014889320771394054
507.0, 0.015042726008843658
508.0, 0.014497636917963288
509.0, 0.011931857853991397
510.0, 0.009957560073038994
511.0, 0.006771607490887101
512.0, 0.0015593749028727107
513.0, 0.0026117122018984667
514.0, 0.007081513611360545
515.0, 0.013004030753933358
516.0, 0.019598618060401276
517.0, 0.026272835964575865
518.0, 0.0335745307347174
519.0, 0.044285898817590784
520.0, 0.052950145182519746
521.0, 0.06369386772620393
522.0, 0.07649068429844844
523.0, 0.08917820302963202
524.0, 0.10120814070970972
525.0, 0.11611299713245961
526.0, 0.13009812981333907
527.0, 0.14551888544969327
528.0, 0.1635482233497653
529.0, 0.1810152781926887
530.0, 0.19618126390838048
531.0, 0.21316623548933866
532.0, 0.23007197724830086
533.0, 0.24612475006185336
534.0, 0.2616569692346586
535.0, 0.27588766459473024
536.0, 0.2876052691104206
537.0, 0.29669853265398644
538.0, 0.30321425797501006
539.0, 0.30743631635264496
540.0, 0.309551686701868
541.0, 0.30812440792557144
542.0, 0.30268224846638625
543.0, 0.29414226412005245
544.0, 0.2826620564733875
545.0, 0.2683426818576634
546.0, 0.25207968622635596
547.0, 0.23441821678850402
548.0, 0.21649054739402865
549.0, 0.19767206993238826
550.0, 0.1779541819228226
551.0, 0.1585551364313866
552.0, 0.14092043338608387
553.0, 0.12524242248616987
554.0, 0.10970769328076921
555.0, 0.09532956382235974
556.0, 0.08308029452600706
557.0, 0.07095139468674497
558.0, 0.06151258360404106
559.0, 0.053006241904651946
560.0, 0.044695394981030076
561.0, 0.03682975947143065
562.0, 0.029618772046744964
563.0, 0.023755123942240906
564.0, 0.018923339065544033
565.0, 0.013884434869333244
566.0, 0.009184765819304047
567.0, 0.005672775048016202
568.0, 0.0030283445956445906
569.0, 0.0011233869711164799
570.0, 0.0002875720344042681
571.0, 0.0015253824052028667
572.0, 0.0020040104467781944
573.0, 0.0011972935301686406
574.0, 0.0014499258483516415
575.0, 0.00041148537023870125
576.0, 0.00023570049951545475
577.0, 0.0012511397698712367
578.0, 0.002740464249743023
579.0, 0.0038307302954052485
580.0, 0.006330387640599215
581.0, 0.009271844755206624
582.0, 0.011774728672193122
583.0, 0.014362590901563074
584.0, 0.017553769199747545
585.0, 0.021072758742359695
586.0, 0.02571351934070056
587.0, 0.031345448299050505
588.0, 0.03629310941421013
589.0, 0.04112790551029529
590.0, 0.047502406869933594
591.0, 0.0560993826432775
592.0, 0.06342083239260983
593.0, 0.07284252171831783
594.0, 0.08248068412760273
595.0, 0.09133186569877229
596.0, 0.1011026535402854
597.0, 0.11150346813994108
598.0, 0.12209838961925235
599.0, 0.131220923502006
600.0, 0.13783147792420636
601.0, 0.14155873946375613
602.0, 0.14207713823619617
603.0, 0.13844358959793596
604.0, 0.13176949166805002
605.0, 0.12372278971629846
606.0, 0.11443392470502095
607.0, 0.10410287177208111
608.0, 0.09432719613324374
609.0, 0.08482771257600673
610.0, 0.07647459561096417
611.0, 0.06808505018201501
612.0, 0.06063812035407072
613.0, 0.05492688203239539
614.0, 0.048767532665592736
615.0, 0.04398874539326838
616.0, 0.03860422526732123
617.0, 0.03437801938547199
618.0, 0.031467673306946484
619.0, 0.028572534264307788
620.0, 0.02635456340691825
621.0, 0.024490989859212314
622.0, 0.022118555632100082
623.0, 0.0202394453814492
624.0, 0.018759247440271343
625.0, 0.016691369328686593
626.0, 0.015076191075945655
627.0, 0.012836828868437688
628.0, 0.011287325112707233
629.0, 0.009954013354182565
630.0, 0.008377728921016764
631.0, 0.006898287716800787
632.0, 0.005129127554806483
633.0, 0.004894706906348561
634.0, 0.0036929207006055993
635.0, 0.002508939852255639
636.0, 0.0021346518696494857
637.0, 0.0012837982915854598
638.0, 0.0005766151640539568
639.0, 0.0004874206424654705
640.0, 0.00023669500301757345
641.0, 6.660152924335553e-05
642.0, 0.0008024427668502684
643.0, 0.0006648852981686954
644.0, 0.0008661465093657806
645.0, 0.003676989313973826
646.0, 0.0036651016142071257
647.0, 0.0025171838357682928
648.0, 0.002904770570932935
649.0, 0.003850621986802662
650.0, 0.0042022409707200906
651.0, 0.0034878665881645688
652.0, 0.003805684537388796
653.0, 0.0045719764117060245
654.0, 0.00516936355943797
655.0, 0.0063068958112971595
656.0, 0.007064433497281652
657.0, 0.006939962604816042
658.0, 0.007967980455731655
659.0, 0.008765788041643916
660.0, 0.008594221559278288
661.0, 0.008988507993984462
662.0, 0.009914875437610379
663.0, 0.010072644043087534
664.0, 0.010345256829463433
665.0, 0.010050973154558473
666.0, 0.009504569945981138
667.0, 0.010047506713697104
668.0, 0.010618185237435287
669.0, 0.010685299588277696
670.0, 0.010520879068410462
671.0, 0.010316854372552108
672.0, 0.010177980097593546
673.0, 0.010669736458377339
674.0, 0.012693521668431086
675.0, 0.01066382200277993
676.0, 0.009910126587982005
677.0, 0.010098018732289195
678.0, 0.010030839377956858
679.0, 0.010116017244780921
680.0, 0.010076359828945433
681.0, 0.010343718374317367
682.0, 0.010363473118177821
683.0, 0.010010579158256858
684.0, 0.009791142434245465
685.0, 0.009640647843994427
686.0, 0.008353023570730263
687.0, 0.008673154946731813
688.0, 0.008751894356215904
689.0, 0.008490273963709214
690.0, 0.008049517432654226
691.0, 0.007710681745633091
692.0, 0.007627644259623131
693.0, 0.006534047145319604
694.0, 0.006186181179565853
695.0, 0.005624107826691863
696.0, 0.0053354611329127005
697.0, 0.005646931018510992
698.0, 0.005629675926493992
699.0, 0.00511635278966785
700.0, 0.004537314286853714
701.0, 0.004007082262309261
702.0, 0.0031139712215746598
703.0, 0.0022912433248182774
704.0, 0.0022058485842325892
705.0, 0.00209402210621292
706.0, 0.0020074586041444794
707.0, 0.0016183470949576774
708.0, 0.001332438572522654
709.0, 0.001538179140798261
710.0, 0.0019855036458663092
711.0, 0.0016786291323799354
712.0, 0.0010223439795408987
713.0, 0.00019141664741260402
714.0, 0.000195559862519819
715.0, 0.00043846499363560463
716.0, 0.00029243472147419907
717.0, 0.00021484393863571304
718.0, 0.0007525023941098704
719.0, 0.000710834383814822
720.0, 0.0005141738902162987
721.0, 0.00023941040625568454
722.0, 0.00013844618593740514
723.0, 0.0006236579975125104
724.0, 0.0010716511156520364
725.0, 0.0001625119501301703
726.0, 0.0001283967417094327
727.0, 0.00025426337070986354
728.0, 0.00027242956318998074
729.0, 0.0006623584393606735
730.0, 0.00039489698800800543
731.0, 0.00019522071500673133
732.0, 0.00012289911507389365
733.0, 0.0005386462217717024
734.0, 0.000293878009410762
735.0, 0.0004691678591619722
736.0, 0.00017475974220196528
737.0, 0.00035780890191797687
738.0, 0.0002697992740606986
739.0, 0.00037644089590261817
740.0, 0.000207439872448284
741.0, 0.00013274125887710754
742.0, 0.0005134781660778256
743.0, 0.000434094274324484
744.0, 0.0001055647738211491
745.0, 0.00026877888067135844
746.0, 0.0005473582889693208
747.0, 0.00016310493924521238
748.0, 0.0003858458168163316
749.0, 0.0002466909226866917
750.0, 0.00027041786229942583
751.0, 0.0016137419499823824
752.0, 0.0015480265224370572
753.0, 0.001594751988139286
754.0, 0.0019537231375292077
755.0, 0.0020947400461828903
756.0, 0.0023120244637889775
757.0, 0.0017114908543026212
758.0, 0.002139864289884768
759.0, 0.0016215285508189414
760.0, 0.002150466132359624
761.0, 0.0030054902737648294
762.0, 0.002342667840574676
763.0, 0.0027206255581465433
764.0, 0.002481494362222764
765.0, 0.0025966462649374567
766.0, 0.002273634110096693
767.0, 0.0020917240862882895
768.0, 0.0024279253943056186
769.0, 0.002751399439718747
770.0, 0.0031642856284227754
771.0, 0.002961523963776688
772.0, 0.0025319126921884883
773.0, 0.0022699293658750806
774.0, 0.002435534268767188
775.0, 0.002778365617467308
776.0, 0.0026866070585664873
777.0, 0.0027317947689856235
778.0, 0.0025980028704498514
779.0, 0.0024262223376404273
780.0, 0.0025514092283145232
781.0, 0.002377485925603684
782.0, 0.0018294894990409287
783.0, 0.0023249190196677964
784.0, 0.002218801079760558
785.0, 0.0016879147554022772
786.0, 0.0015609197728584073
787.0, 0.0015532007115109218
788.0, 0.0011321056223638928
789.0, 0.0007272819674380777
790.0, 0.0012956148169847221
791.0, 0.0018179502976034005
792.0, 0.0008889698687283688
793.0, 0.0004091879353425867
794.0, 0.0009388592533689983
795.0, 0.001626481321813825
796.0, 0.0015663295279718262
797.0, 0.0010047302106124853
798.0, 0.00027887395326266126
799.0, 0.000364029405470124
800.0, 0.0006817306124925471
801.0, 0.0008870722512447319
802.0, 0.0006228121970332493
803.0, 0.00014077300162761275
804.0, 1.2282904157612897e-05
805.0, 0.00040541056440286834
806.0, 7.658267201818096e-05
807.0, 0.00011550380687874357
808.0, 0.0002641912959164324
809.0, 0.0010375282390703575
810.0, 0.0015541174566003834
811.0, 0.0011175667323785928
812.0, 0.0014109441533066897
813.0, 0.0011479297747119214
814.0, 0.0008667128768315726
815.0, 0.0006232210686158991
816.0, 0.00043130686987361217
817.0, 0.0004940763292853567
818.0, 0.00014148740242505246
819.0, 9.007419138108255e-05
820.0, 0.0001963936645893554
821.0, 0.0001412087415538284
822.0, 0.0004016797480346809
823.0, 0.0006208497827753267
824.0, 0.00012523937871280469
825.0, 0.0003469457915503359
826.0, 0.00026142486903538517
827.0, 0.000301269891452044
828.0, 0.000196647103863939
829.0, 0.0003664224526821592
830.0, 0.0003162308723508004
831.0, 0.0004927877857984241
832.0, 0.00028207740654503845
833.0, 0.0002830563668290149
834.0, 0.00012400635279785562
835.0, 0.0002399716898861432
836.0, 0.0004700164100577703
837.0, 0.0007219995986116786
838.0, 0.0008736805900614803
839.0, 0.00045522536474469296
840.0, 0.001089464406205666
841.0, 0.0018278460401819252
842.0, 0.0016517197551223506
843.0, 0.0010680241447834993
844.0, 0.001043483202475598
845.0, 0.0017556873012027094
846.0, 0.002298435972827778
847.0, 0.0025342983971640954
848.0, 0.002587107098892506
849.0, 0.002582238121297016
850.0, 0.0032737467959354904
851.0, 0.0036522880576014653
852.0, 0.003429280586973497
853.0, 0.004255875500336958
854.0, 0.004986183028410221
855.0, 0.005576401971931869
856.0, 0.005679623992102321
857.0, 0.005844616308806773
858.0, 0.006251605874357511
859.0, 0.006494443606754693
860.0, 0.006428846759223851
861.0, 0.006837600474961473
862.0, 0.006522797651135197
863.0, 0.006523725801748336
864.0, 0.006288243500976153
865.0, 0.006512715651215224
866.0, 0.006998485544427734
867.0, 0.006945388358086542
868.0, 0.006863007771858294
869.0, 0.0062053088338197985
870.0, 0.006879921993325888
871.0, 0.007169044181362384
872.0, 0.00735934620729754
873.0, 0.0077123227276694
874.0, 0.007815168043460755
875.0, 0.007422678094780435
876.0, 0.007189113763910497
877.0, 0.007429155021509709
878.0, 0.00777553446212041
879.0, 0.007459466711456703
880.0, 0.007146356010934751
881.0, 0.007431146567102841
882.0, 0.007897480077583776
883.0, 0.008122938236983455
884.0, 0.008211385555688304
885.0, 0.008612468316367685
886.0, 0.008625949813766088
887.0, 0.008810093062836555
888.0, 0.008745918737552117
889.0, 0.008525127492064083
890.0, 0.008951122479286333
891.0, 0.008703935987510184
892.0, 0.009035861013749194
893.0, 0.009194379027722336
894.0, 0.009224326631910765
895.0, 0.009237968081247367
896.0, 0.009417957039331739
897.0, 0.009641668683409285
898.0, 0.00945735463070852
899.0, 0.009490224175138243
900.0, 0.0095774991864881
901.0, 0.009621224719123321
902.0, 0.010233495990321228
903.0, 0.010575809877533995
904.0, 0.01023931375645981
905.0, 0.01012856968714756
906.0, 0.010552366889698305
907.0, 0.010763040348345531
908.0, 0.010620614570187214
909.0, 0.010433912450270939
910.0, 0.010554269695867055
911.0, 0.010532217276378417
912.0, 0.010310545463405384
913.0, 0.010371991900014662
914.0, 0.010545140860959258
915.0, 0.010442458903442475
916.0, 0.010570333444135091
917.0, 0.010335512118987322
918.0, 0.010357951521348642
919.0, 0.010393385192883225
920.0, 0.010104590623790554
921.0, 0.009857455658082173
922.0, 0.00918172083676888
923.0, 0.008817893985346036
924.0, 0.008931198454504935
925.0, 0.008177335143316845
926.0, 0.008118826027833077
927.0, 0.008380879219702587
928.0, 0.007946755622063184
929.0, 0.00770425839326669
930.0, 0.008112736650732727
931.0, 0.007845028852884798
932.0, 0.007794745998923598
933.0, 0.006855839074085371
934.0, 0.006630368388083417
935.0, 0.0064649083062789416
936.0, 0.005570337123057373
937.0, 0.005423601064232652
938.0, 0.005317298878541215
939.0, 0.004435069381989485
940.0, 0.004770382308963294
941.0, 0.004141756968086002
942.0, 0.003975753112103162
943.0, 0.00401244905326629
944.0, 0.0034330221107774605
945.0, 0.0032175924780770454
946.0, 0.00340897326990715
947.0, 0.0031830875420671245
948.0, 0.0023625350361523513
949.0, 0.0020627557290525127
950.0, 0.0020617056327040264
951.0, 0.0015037596798866601
952.0, 0.0009579914753809193
953.0, 0.0011669817532753218
954.0, 0.0006392635844157607
955.0, 0.00027331764657773897
956.0, 0.00015269351082539606
957.0, 0.00042305883672353684
958.0, 0.0005397362381451304
959.0, 0.0007871308777309595
960.0, 0.001064267222039115
961.0, 0.0007989593890828032
962.0, 0.0010853810327582899
963.0, 0.0008636301781001041
964.0, 0.0006755119563892012
965.0, 0.0012087319360220925
966.0, 0.0015055757652209477
967.0, 0.0018245945322054276
968.0, 0.0018209426545649687
969.0, 0.0013311513548065431
970.0, 0.0009747333602070508
971.0, 0.0010620205293528462
972.0, 0.0008462599568910747
973.0, 0.0019972686729019056
974.0, 0.002264963048146411
975.0, 0.0022981032843159754
976.0, 0.0018223799833269286
977.0, 0.000976838082008879
978.0, 0.0004937152760717055
979.0, 0.0003771359070261044
980.0, 0.0008203098365530033
981.0, 0.0007924284293878409
982.0, 0.0012308924031714987
983.0, 0.0021562914432493806
984.0, 0.0034733266269123095
985.0, 0.00455600637174868
986.0, 0.005534675101521429
987.0, 0.007264203482357878
988.0, 0.008423818155238693
989.0, 0.01154591918388807
990.0, 0.014046277308770805
991.0, 0.016180754704039957
992.0, 0.01984002481713127
993.0, 0.02333805371102309
994.0, 0.02629857578582938
995.0, 0.030336453649583185
996.0, 0.034827688055673336
997.0, 0.041198273992607434
998.0, 0.04628755713545785
999.0, 0.05223940079258099
1000.0, 0.05998940925217459
1001.0, 0.06800689446503276
1002.0, 0.0766855614554357
1003.0, 0.08656964179254088
1004.0, 0.09724168183348543
1005.0, 0.11016312016828786
1006.0, 0.12209550272159309
1007.0, 0.13547967238129785
1008.0, 0.15009378101445897
1009.0, 0.1668191353476366
1010.0, 0.18492758336642995
1011.0, 0.20537882756443793
1012.0, 0.22842621323042794
1013.0, 0.2526032197430179
1014.0, 0.2802718304456166
1015.0, 0.30948618336948996
1016.0, 0.3432748328045315
1017.0, 0.3807607569742902
1018.0, 0.4195370004786026
1019.0, 0.46152061666364896
1020.0, 0.5003622768403413
1021.0, 0.5279602800988015
1022.0, 0.5411392239534226
1023.0, 0.5340075691434301
1024.0, 0.510878966839663
1025.0, 0.47251848675110303
1026.0, 0.4260526143127031
1027.0, 0.3808265036888389
1028.0, 0.3389691785903874
1029.0, 0.30055054946089155
1030.0, 0.26613174501784304
1031.0, 0.23527144185172452
1032.0, 0.2079895813418931
1033.0, 0.1823544431929977
1034.0, 0.16064274489545766
1035.0, 0.1411791409652842
1036.0, 0.12189266379912116
1037.0, 0.10631862429842452
1038.0, 0.09276722175015484
1039.0, 0.07906875988019005
1040.0, 0.06753318341692655
1041.0, 0.05715048741663644
1042.0, 0.04885152540271199
1043.0, 0.04128005353537451
1044.0, 0.03520754280397129
1045.0, 0.029174737624188696
1046.0, 0.023427687776933
1047.0, 0.018870073887350472
1048.0, 0.015521501672555591
1049.0, 0.012544031060064995
1050.0, 0.00931502057953434
1051.0, 0.007153046391351933
1052.0, 0.006584815779790432
1053.0, 0.005960936917616542
1054.0, 0.004786635652522404
1055.0, 0.004136077674449643
1056.0, 0.0036578749174922412
1057.0, 0.0036164815500476077
1058.0, 0.003912864084358425
1059.0, 0.0032636476863853207
1060.0, 0.002948698247743854
1061.0, 0.003688605968650909
1062.0, 0.004602938533129731
1063.0, 0.005028918618241952
1064.0, 0.005477622042523725
1065.0, 0.006176559675529162
1066.0, 0.007955526224269115
1067.0, 0.010546320919195154
1068.0, 0.01229937876990539
1069.0, 0.013650174640611402
1070.0, 0.016793700856270726
1071.0, 0.018752586937843513
1072.0, 0.022462089798813853
1073.0, 0.025854217717443763
1074.0, 0.028997713041009034
1075.0, 0.03320305824303184
1076.0, 0.03785163970239855
1077.0, 0.04210425568055832
1078.0, 0.046538242770557785
1079.0, 0.051276471154435635
1080.0, 0.056410732695161475
1081.0, 0.06246286033800345
1082.0, 0.0683706925153104
1083.0, 0.07479239612812469
1084.0, 0.08193447251101174
1085.0, 0.0891520184633492
1086.0, 0.09773326164775681
1087.0, 0.10708921775994312
1088.0, 0.11590055828295369
1089.0, 0.12821300259040383
1090.0, 0.1373570640988318
1091.0, 0.1491289805096892
1092.0, 0.1621255206906551
1093.0, 0.1758669637550651
1094.0, 0.1905500793023193
1095.0, 0.2044438826523881
1096.0, 0.2189169269068975
1097.0, 0.23543006522478055
1098.0, 0.2520144457235789
1099.0, 0.26820409101100484
1100.0, 0.2829787645173822
1101.0, 0.2981524173166487
1102.0, 0.3115270717705779
1103.0, 0.3225936432489443
1104.0, 0.33210307207793577
1105.0, 0.33944197410134674
1106.0, 0.3437813411957303
1107.0, 0.3442537455966187
1108.0, 0.34057095984175445
1109.0, 0.3338965033411319
1110.0, 0.32260142880967635
1111.0, 0.309482769444133
1112.0, 0.2947378338944073
1113.0, 0.27687536656293094
1114.0, 0.2577693774627413
1115.0, 0.23781017838887708
1116.0, 0.21894586565668067
1117.0, 0.20182140282740618
1118.0, 0.184604417992617
1119.0, 0.16772948981857141
1120.0, 0.1527911570870026
1121.0, 0.14033220931904125
1122.0, 0.12865761273875054
1123.0, 0.11782381484244057
1124.0, 0.10738716089599563
1125.0, 0.09865497725358333
1126.0, 0.09111930773586711
1127.0, 0.0844974228940855
1128.0, 0.07823613502024145
1129.0, 0.07164703907838582
1130.0, 0.06708104804995965
1131.0, 0.06387577142168964
1132.0, 0.058508129201301946
1133.0, 0.05551458175016095
1134.0, 0.052829691392975456
1135.0, 0.050477327851344615
1136.0, 0.04850430958303833
1137.0, 0.0455559720702848
1138.0, 0.0427934922317845
1139.0, 0.04089543576031643
1140.0, 0.03805860862419536
1141.0, 0.03580763074983303
1142.0, 0.03401090386417792
1143.0, 0.030666666671564244
1144.0, 0.027225545911973324
1145.0, 0.025858277676934306
1146.0, 0.024037407655504637
1147.0, 0.021317907792851233
1148.0, 0.019056329540668177
1149.0, 0.01715222181854766
1150.0, 0.014688157726569204
1151.0, 0.01212293932743473
1152.0, 0.01029106559534707
1153.0, 0.00881511743965678
1154.0, 0.007256753860693215
1155.0, 0.005077689980152772
1156.0, 0.003486922122147465
1157.0, 0.0018934556156533465
1158.0, 0.0010741247530399458
1159.0, 0.0003706755770020473
1160.0, 0.0007887103468290307
1161.0, 0.0011861451773485902
1162.0, 0.002118836434407278
1163.0, 0.0024626681219573395
1164.0, 0.0030696398934670394
1165.0, 0.0032351103191943817
1166.0, 0.0028782351543523857
1167.0, 0.003068486234457163
1168.0, 0.0030002354254901617
1169.0, 0.002405299334143541
1170.0, 0.002375986861904596
1171.0, 0.0025735071814274296
1172.0, 0.0019424259303640298
1173.0, 0.0008076428477062948
1174.0, 0.00022091699981948085
1175.0, 0.0007572433209143683
1176.0, 0.0008814609905691461
1177.0, 0.0027545131173084283
1178.0, 0.002135960025527306
1179.0, 0.002569366390072989
1180.0, 0.0031518723889247136
1181.0, 0.004580722966686658
1182.0, 0.005849313790350632
1183.0, 0.0063869534598076086
1184.0, 0.007619903512492837
1185.0, 0.009578880580193141
1186.0, 0.010591604282574257
1187.0, 0.011276474994586448
1188.0, 0.012582757036603854
1189.0, 0.014715828217887828
1190.0, 0.015599894897822774
1191.0, 0.016345830051337443
1192.0, 0.017929889257389413
1193.0, 0.019998927895567415
1194.0, 0.021999248870302527
1195.0, 0.023390039708572917
1196.0, 0.02428370429767201
1197.0, 0.02566884136846489
1198.0, 0.027533332404244153
1199.0, 0.029130592188073377
1200.0, 0.029399124985291257
1201.0, 0.03174190697293629
1202.0, 0.03326308845499709
1203.0, 0.033833301826580835
1204.0, 0.03462038413617426
1205.0, 0.03570837516775495
1206.0, 0.0367966057508121
1207.0, 0.037337615927725686
1208.0, 0.03796972608204226
1209.0, 0.03898550851498152
1210.0, 0.03866465520870933
1211.0, 0.039048323511031005
1212.0, 0.03910065012687545
1213.0, 0.039773792604174074
1214.0, 0.039184955882232746
1215.0, 0.03852988329642726
1216.0, 0.03794318191011467
1217.0, 0.03765405776214778
1218.0, 0.037067499717838744
1219.0, 0.036150717566410626
1220.0, 0.03551764064531223
1221.0, 0.03403309683090536
1222.0, 0.03222205618895039
1223.0, 0.030567168323909304
1224.0, 0.029808131605800967
1225.0, 0.02858656569754067
1226.0, 0.026840621135251083
1227.0, 0.025029903473629683
1228.0, 0.02289020399133362
1229.0, 0.020600295301237484
1230.0, 0.018752528569328058
1231.0, 0.017538267884617965
1232.0, 0.015527764172236757
1233.0, 0.013558192925337182
1234.0, 0.01253158409905392
1235.0, 0.010536013977596395
1236.0, 0.008800967529000281
1237.0, 0.008445307483191323
1238.0, 0.007340995342831384
1239.0, 0.0062491056812221365
1240.0, 0.005620236790803155
1241.0, 0.004772518957295436
1242.0, 0.004108536019876858
1243.0, 0.003679222891777837
1244.0, 0.002924246160724194
1245.0, 0.002333200890568757
1246.0, 0.0016926667674804204
1247.0, 0.0011500741549842477
1248.0, 0.0011917444786847008
1249.0, 0.0001704864934882838
1250.0, 0.00026097664793511605
1251.0, 0.0006344887932187713
1252.0, 9.350354578427268e-05
1253.0, 0.0004905526363706323
1254.0, 0.0003216849629532174
1255.0, 3.4830472452365306e-05
1256.0, 0.00011893149307316084
1257.0, 0.0004210391664809156
1258.0, 0.0005199011709749289
1259.0, 0.0006152550007559828
1260.0, 0.0005463045905453401
1261.0, 0.0004051293752820132
1262.0, 0.000845046752815153
1263.0, 0.00111902297944969
1264.0, 0.0010234230763237714
1265.0, 0.001115725187327336
1266.0, 0.001497456640301186
1267.0, 0.0008489471689651013
1268.0, 0.0013900806387609486
1269.0, 0.0022378961460176325
1270.0, 0.002484154743340733
1271.0, 0.003374666678528947
1272.0, 0.003986984130404352
1273.0, 0.003915853186487183
1274.0, 0.004301562997091116
1275.0, 0.004779259733446838
1276.0, 0.00468499766002489
1277.0, 0.00455993553422374
1278.0, 0.004141153653242823
1279.0, 0.0038597224296490016
1280.0, 0.004061687414411736
1281.0, 0.0030354745524115456
1282.0, 0.002912813015039035
1283.0, 0.003033420691902241
1284.0, 0.0030276116163501015
1285.0, 0.001994306650419764
1286.0, 0.0015734212951612563
1287.0, 0.0018710342200725899
1288.0, 0.0016612553941691725
1289.0, 0.001927593230962456
1290.0, 0.0025190205461897894
1291.0, 0.001601513985166916
1292.0, 0.0018198734657988679
1293.0, 0.0015155665445864982
1294.0, 0.0009368528994321309
1295.0, 0.001171351679867655
1296.0, 0.0013627070632602296
1297.0, 0.0011508460973576838
1298.0, 0.0006722544912164168
1299.0, 0.0005187976252964402
1300.0, 0.0006756664412804823
1301.0, 0.000917638758709671
1302.0, 0.0003932656586606225
1303.0, 5.868562753171488e-07
1304, 0.0
1305, 0.0
1306, 0.0
1307, 0.0
1308, 0.0
1309, 0.0
1310, 0.0
1311, 0.0
1312, 0.0
1313, 0.0
1314, 0.0
1315, 0.0
1316, 0.0
1317, 0.0
1318, 0.0
1319, 0.0
1320, 0.0
1321, 0.0
1322, 0.0
1323, 0.0
1324, 0.0
1325, 0.0
1326, 0.0
1327, 0.0
1328, 0.0
1329, 0.0
1330, 0.0
1331, 0.0
1332, 0.0
1333, 0.0
1334, 0.0
1335, 0.0
1336, 0.0
1337, 0.0
1338, 0.0
1339, 0.0
1340, 0.0
1341, 0.0
1342, 0.0
1343, 0.0
1344, 0.0
1345, 0.0
1346, 0.0
1347, 0.0
1348, 0.0
1349, 0.0
1350, 0.0
1351, 0.0
1352, 0.0
1353, 0.0
1354, 0.0
1355, 0.0
1356, 0.0
1357, 0.0
1358, 0.0
1359, 0.0
1360, 0.0
1361, 0.0
1362, 0.0
1363, 0.0
1364, 0.0
1365, 0.0
1366, 0.0
1367, 0.0
1368, 0.0
1369, 0.0
1370, 0.0
1371, 0.0
1372, 0.0
1373, 0.0
1374, 0.0
1375, 0.0
1376, 0.0
1377, 0.0
1378, 0.0
1379, 0.0
1380, 0.0
1381, 0.0
1382, 0.0
1383, 0.0
1384, 0.0
1385, 0.0
1386, 0.0
1387, 0.0
1388, 0.0
1389, 0.0
1390, 0.0
1391, 0.0
1392, 0.0
1393, 0.0
1394, 0.0
1395, 0.0
1396, 0.0
1397, 0.0
1398, 0.0
1399, 0.0
1400, 0.0
1401, 0.0
1402, 0.0
1403, 0.0
1404, 0.0
1405, 0.0
1406, 0.0
1407, 0.0
1408, 0.0
1409, 0.0
1410, 0.0
1411, 0.0
1412, 0.0
1413, 0.0
1414, 0.0
1415, 0.0
1416, 0.0
1417, 0.0
1418, 0.0
1419, 0.0
1420, 0.0
1421, 0.0
1422, 0.0
1423, 0.0
1424, 0.0
1425, 0.0
1426, 0.0
1427, 0.0
1428, 0.0
1429, 0.0
1430, 0.0
1431, 0.0
1432, 0.0
1433, 0.0
1434, 0.0
1435, 0.0
1436, 0.0
1437, 0.0
1438, 0.0
1439, 0.0
1440, 0.0
1441, 0.0
1442, 0.0
1443, 0.0
1444, 0.0
1445, 0.0
1446, 0.0
1447, 0.0
1448, 0.0
1449, 0.0
1450, 0.0
1451, 0.0
1452, 0.0
1453, 0.0
1454, 0.0
1455, 0.0
1456, 0.0
1457, 0.0
1458, 0.0
1459, 0.0
1460, 0.0
1461, 0.0
1462, 0.0
1463, 0.0
1464, 0.0
1465, 0.0
1466, 0.0
1467, 0.0
1468, 0.0
1469, 0.0
1470, 0.0
1471, 0.0
1472, 0.0
1473, 0.0
1474, 0.0
1475, 0.0
1476, 0.0
1477, 0.0
1478, 0.0
1479, 0.0
1480, 0.0
1481, 0.0
1482, 0.0
1483, 0.0
1484, 0.0
1485, 0.0
1486, 0.0
1487, 0.0
1488, 0.0
1489, 0.0
1490, 0.0
1491, 0.0
1492, 0.0
1493, 0.0
1494, 0.0
1495, 0.0
1496, 0.0
1497, 0.0
1498, 0.0
1499, 0.0
1500, 0.0
1501, 0.0
1502, 0.0
1503, 0.0
1504, 0.0
1505, 0.0
1506, 0.0
1507, 0.0
1508, 0.0
1509, 0.0
1510, 0.0
1511, 0.0
1512, 0.0
1513, 0.0
1514, 0.0
1515, 0.0
1516, 0.0
1517, 0.0
1518, 0.0
1519, 0.0
1520, 0.0
1521, 0.0
1522, 0.0
1523, 0.0
1524, 0.0
1525, 0.0
1526, 0.0
1527, 0.0
1528, 0.0
1529, 0.0
1530, 0.0
1531, 0.0
1532, 0.0
1533, 0.0
1534, 0.0
1535, 0.0
1536, 0.0
1537, 0.0
1538, 0.0
1539, 0.0
1540, 0.0
1541, 0.0
1542, 0.0
1543, 0.0
1544, 0.0
1545, 0.0
1546, 0.0
1547, 0.0
1548, 0.0
1549, 0.0
1550, 0.0
1551, 0.0
1552, 0.0
1553, 0.0
1554, 0.0
1555, 0.0
1556, 0.0
1557, 0.0
1558, 0.0
1559, 0.0
1560, 0.0
1561, 0.0
1562, 0.0
1563, 0.0
1564, 0.0
1565, 0.0
1566, 0.0
1567, 0.0
1568, 0.0
1569, 0.0
1570, 0.0
1571, 0.0
1572, 0.0
1573, 0.0
1574, 0.0
1575, 0.0
1576, 0.0
1577, 0.0
1578, 0.0
1579, 0.0
1580, 0.0
1581, 0.0
1582, 0.0
1583, 0.0
1584, 0.0
1585, 0.0
1586, 0.0
1587, 0.0
1588, 0.0
1589, 0.0
1590, 0.0
1591, 0.0
1592, 0.0
1593, 0.0
1594, 0.0
1595, 0.0
1596, 0.0
1597, 0.0
1598, 0.0
1599, 0.0
