30, 0.0
31, 0.0
32, 0.0
33, 0.0
34, 0.0
35, 0.0
36, 0.0
37, 0.0
38, 0.0
39, 0.0
40, 0.0
41, 0.0
42, 0.0
43, 0.0
44, 0.0
45, 0.0
46, 0.0
47, 0.0
48, 0.0
49, 0.0
50, 0.0
51, 0.0
52, 0.0
53, 0.0
54, 0.0
55, 0.0
56, 0.0
57, 0.0
58, 0.0
59, 0.0
60, 0.0
61, 0.0
62, 0.0
63, 0.0
64, 0.0
65, 0.0
66, 0.0
67, 0.0
68, 0.0
69, 0.0
70, 0.0
71, 0.0
72, 0.0
73, 0.0
74, 0.0
75, 0.0
76, 0.0
77, 0.0
78, 0.0
79, 0.0
80, 0.0
81, 0.0
82, 0.0
83, 0.0
84, 0.0
85, 0.0
86, 0.0
87, 0.0
88, 0.0
89, 0.0
90, 0.0
91, 0.0
92, 0.0
93, 0.0
94, 0.0
95, 0.0
96.0, 9.006906260958926e-06
97.0, 3.863005451887622e-05
98.0, 0.0001455203894679764
99.0, 0.0008455974906896133
100.0, 0.0015877578144085458
101.0, 0.002046446592634399
102.0, 0.00144244747357195
103.0, 0.0015095502812302302
104.0, 0.0020402942123209007
105.0, 0.002260318429528409
106.0, 0.0025739736567605784
107.0, 0.0034557984573971535
108.0, 0.00515466874293141
109.0, 0.004637599237666861
110.0, 0.004362304463961998
111.0, 0.0043582340088090315
112.0, 0.004767355999433441
113.0, 0.004108428993846041
114.0, 0.00418071754435349
115.0, 0.00545181204801417
116.0, 0.0066962352691753635
117.0, 0.007610585451121891
118.0, 0.007748453649008433
119.0, 0.00625292887235209
120.0, 0.003877346942321954
121.0, 0.0023284693636077694
122.0, 0.0019012134406289902
123.0, 0.002739286503796259
124.0, 0.002476448478849547
125.0, 0.001856546877892191
126.0, 0.0014109357104710356
127.0, 0.0011637456152824735
128.0, 0.0014043747632818653
129.0, 0.0017625262502388066
130.0, 0.0006830407386846335
131.0, 0.0006013389421008302
132.0, 0.0007287576329226063
133.0, 0.0007194997626020212
134.0, 0.0004073498523979827
135.0, 0.0005821298819500896
136.0, 0.0009267556711202706
137.0, 0.0007764261589842344
138.0, 0.00170924451449884
139.0, 0.002291360419021832
140.0, 0.0022230312276197996
141.0, 0.002718290482500024
142.0, 0.0025359364713007783
143.0, 0.0023161321028596885
144.0, 0.0027927612210535083
145.0, 0.003301855266131161
146.0, 0.004892484418681953
147.0, 0.007373896771213882
148.0, 0.009186070314329489
149.0, 0.01353387576925363
150.0, 0.018161849149553343
151.0, 0.02180680301738008
152.0, 0.026590445111358635
153.0, 0.03219430600777603
154.0, 0.03779320106020037
155.0, 0.041370948819623464
156.0, 0.04086473304039184
157.0, 0.03638936994249497
158.0, 0.028080084352915043
159.0, 0.020782400004259426
160.0, 0.016228256553886523
161.0, 0.01344417092986329
162.0, 0.011776323099439004
163.0, 0.011455436860352712
164.0, 0.010687868621389797
165.0, 0.00954709656956613
166.0, 0.009208067974795783
167.0, 0.008184385639657015
168.0, 0.00669848166409423
169.0, 0.00480898241445834
170.0, 0.004023363194520136
171.0, 0.0030431259379926265
172.0, 0.0022863681357676523
173.0, 0.0026209972950078752
174.0, 0.0021742414842562305
175.0, 0.0014487279491279565
176.0, 0.0007315209113824373
177.0, 0.0016354426830490966
178.0, 0.001319902093078936
179.0, 0.0007532961025834328
180.0, 0.0006464151774670576
181.0, 0.0011203680355023435
182.0, 0.0013310649803225593
183.0, 0.0012147349993371134
184.0, 0.0006355064478114395
185.0, 0.0003173688639548859
186.0, 0.00013249982280085472
187.0, 7.955469696676703e-05
188.0, 0.0005900564752038398
189.0, 0.0006937881301522777
190.0, 0.00085584283167809
191.0, 0.001593090857715427
192.0, 0.0017087169733857844
193.0, 0.0019535744987462067
194.0, 0.0022498160571264134
195.0, 0.002061294305264875
196.0, 0.0025010611196173934
197.0, 0.0026853434673664044
198.0, 0.0023279019636030856
199.0, 0.0033988600289852644
200.0, 0.0037385079280290367
201.0, 0.0037227122241540985
202.0, 0.0037608611105821262
203.0, 0.003880744334511303
204.0, 0.004334943586207415
205.0, 0.005106028146861303
206.0, 0.006030097627152305
207.0, 0.006510151238981501
208.0, 0.007045778976503153
209.0, 0.007742816276986199
210.0, 0.004707301586518245
211.0, 0.0021811976353057387
212.0, 0.0008519920158263721
213.0, 0.0019282429979769274
214.0, 0.0025448789483625144
215.0, 0.0025658563822521956
216.0, 0.0022059288102484888
217.0, 0.0024362361390681407
218.0, 0.0019173069812446373
219.0, 0.0012845346651723447
220.0, 0.0008216672858980996
221.0, 0.0011583765405861971
222.0, 0.0006738195678352697
223.0, 6.0966499511596716e-05
224.0, 0.00018874781467866515
225.0, 0.0006812389211480631
226.0, 0.001682623069777031
227.0, 0.0032318895345420755
228.0, 0.005494226989600814
229.0, 0.00822176653704353
230.0, 0.013132259552264412
231.0, 0.021227301797473265
232.0, 0.036058317640877816
233.0, 0.05852608825839917
234.0, 0.08714216527452551
235.0, 0.12149766208509047
236.0, 0.16060394161823627
237.0, 0.203247445143587
238.0, 0.24765676985160023
239.0, 0.28916999922655456
240.0, 0.31134307635896846
241.0, 0.3131910738824931
242.0, 0.29153180431340175
243.0, 0.2254271949075433
244.0, 0.16609777895073033
245.0, 0.11669047409509248
246.0, 0.08096837489803
247.0, 0.06274608829197144
248.0, 0.04831442529931474
249.0, 0.03700903777630275
250.0, 0.028773299678714455
251.0, 0.025337388977267436
252.0, 0.023059476002138618
253.0, 0.02155704753687628
254.0, 0.022347842013865537
255.0, 0.023886722185901203
256.0, 0.026158398620968932
257.0, 0.029404393809493938
258.0, 0.04014029324024695
259.0, 0.0552995037551568
260.0, 0.08120761333247206
261.0, 0.12765311451264744
262.0, 0.1985167420962714
263.0, 0.2805925140283346
264.0, 0.37180261076706933
265.0, 0.4706772914171506
266.0, 0.5781944068306776
267.0, 0.6764901855092794
268.0, 0.7532397100409134
269.0, 0.7469277223014928
270.0, 0.6474727458295979
271.0, 0.5004209195130582
272.0, 0.33103031839450664
273.0, 0.24144977644601462
274.0, 0.18087006911972556
275.0, 0.14446592774531755
276.0, 0.128491598274053
277.0, 0.13211197477453607
278.0, 0.15759241764881238
279.0, 0.20676417352734613
280.0, 0.2881891946991928
281.0, 0.3864991724315485
282.0, 0.5038241182122539
283.0, 0.6395581787758856
284.0, 0.7710029882216001
285.0, 0.898002770529531
286.0, 0.9843884480204136
287.0, 0.9998607492885863
288.0, 0.8838280512578855
289.0, 0.7303410171134928
290.0, 0.5593377582553435
291.0, 0.3992690407510524
292.0, 0.29439369783217284
293.0, 0.21721575897720174
294.0, 0.1617372415322512
295.0, 0.12107505823064021
296.0, 0.09371128014639604
297.0, 0.07388686701451926
298.0, 0.06007876883372701
299.0, 0.0517534145158309
300.0, 0.04538721605814672
301.0, 0.040120211987084174
302.0, 0.03553381774655164
303.0, 0.03311914886442108
304.0, 0.0314942907355336
305.0, 0.029995072634701997
306.0, 0.02777487851358993
307.0, 0.02810792732298724
308.0, 0.02852340606013796
309.0, 0.028321288996678434
310.0, 0.026120618263579972
311.0, 0.029220098932063572
312.0, 0.03229988223408881
313.0, 0.03401623460133671
314.0, 0.033144984629381806
315.0, 0.03296860982014763
316.0, 0.0339555407665361
317.0, 0.03620061243968619
318.0, 0.03704495217704945
319.0, 0.038089425189300655
320.0, 0.04039048030364555
321.0, 0.044934948211355664
322.0, 0.05241574565510218
323.0, 0.06503798461549744
324.0, 0.08460476500857023
325.0, 0.11473118248359487
326.0, 0.16430726694767256
327.0, 0.22429824827973768
328.0, 0.2950269983728737
329.0, 0.38139562481226363
330.0, 0.4640285011960584
331.0, 0.546713335148159
332.0, 0.6220193289656079
333.0, 0.6436815694602321
334.0, 0.5948108867015139
335.0, 0.4984087478070573
336.0, 0.3671240008123017
337.0, 0.27160207421798566
338.0, 0.20132381979230682
339.0, 0.1485166258371612
340.0, 0.10873346490373978
341.0, 0.08347359510118325
342.0, 0.06457099352546712
343.0, 0.0505688275461085
344.0, 0.04000174987417157
345.0, 0.03300812297298968
346.0, 0.028055459444653038
347.0, 0.02436614190890801
348.0, 0.020602786882625578
349.0, 0.019005347311707495
350.0, 0.017286358381174937
351.0, 0.015413915501125607
352.0, 0.014670591060126617
353.0, 0.013652535046211925
354.0, 0.012676838637446779
355.0, 0.011894061110114122
356.0, 0.011694758956000893
357.0, 0.010650260043732793
358.0, 0.00996419085538848
359.0, 0.010141725204381136
360.0, 0.009703959182314457
361.0, 0.009049444122129177
362.0, 0.008111207365103044
363.0, 0.006830877116050989
364.0, 0.007892552749350083
365.0, 0.007857730613002403
366.0, 0.007553985522643553
367.0, 0.00797539519377503
368.0, 0.008615359024718609
369.0, 0.008787900846460117
370.0, 0.008775309769625341
371.0, 0.009152091145151893
372.0, 0.009101312517333425
373.0, 0.008978788482010508
374.0, 0.008799289357777995
375.0, 0.00847669078992986
376.0, 0.008131346140929373
377.0, 0.007880057849660749
378.0, 0.007770178793540011
379.0, 0.007905945443491802
380.0, 0.007882349312958312
381.0, 0.007800692088533932
382.0, 0.007841679503294471
383.0, 0.009054778381183633
384.0, 0.010871132227537684
385.0, 0.011841705408320075
386.0, 0.011534644924916168
387.0, 0.013575581231775725
388.0, 0.016522825359458034
389.0, 0.01979453620473346
390.0, 0.023055908360938907
391.0, 0.027527495209069656
392.0, 0.03388434412951871
393.0, 0.042088371122827976
394.0, 0.05221475937564954
395.0, 0.070289771979593
396.0, 0.09445269728331271
397.0, 0.12583466426732834
398.0, 0.16644012355257798
399.0, 0.21884414077792907
400.0, 0.27259375437698186
401.0, 0.3268200977156619
402.0, 0.3810382344641684
403.0, 0.41368559938711946
404.0, 0.4196969778287063
405.0, 0.39836048539193714
406.0, 0.3468103462815158
407.0, 0.27306180553560216
408.0, 0.2068293112317363
409.0, 0.1533141343186471
410.0, 0.11522387133328874
411.0, 0.08787948723066062
412.0, 0.06665978229016445
413.0, 0.05063225074988325
414.0, 0.040113066681726914
415.0, 0.03157361720114765
416.0, 0.02524987243356657
417.0, 0.021021333025979163
418.0, 0.01773411778668056
419.0, 0.015227045566004866
420.0, 0.012909823254703669
421.0, 0.010591449982343173
422.0, 0.008400926065709035
423.0, 0.008106037980119541
424.0, 0.007119498193168758
425.0, 0.004716478685617469
426.0, 0.005567292441025104
427.0, 0.005528648783567231
428.0, 0.005073683556871676
429.0, 0.0045517135124918465
430.0, 0.0054865430980240255
431.0, 0.004741108927520232
432.0, 0.004254330049506567
433.0, 0.005235306196173969
434.0, 0.006009623326896908
435.0, 0.0066855238960240385
436.0, 0.007280152243744655
437.0, 0.007830337050920703
438.0, 0.009496800506993043
439.0, 0.01066956681397919
440.0, 0.011889203668280696
441.0, 0.01364249997490823
442.0, 0.01612938313126634
443.0, 0.019054741494564896
444.0, 0.022594177995900296
445.0, 0.026944882374783468
446.0, 0.03725771947393317
447.0, 0.049317709070818894
448.0, 0.06518553498225815
449.0, 0.08743333245763224
450.0, 0.1282785364252688
451.0, 0.18053440513386296
452.0, 0.2455671772080926
453.0, 0.32590098900114534
454.0, 0.41788407436359326
455.0, 0.5121574103281441
456.0, 0.5948498690761502
457.0, 0.6466488673356168
458.0, 0.6461221199990799
459.0, 0.5883044034348569
460.0, 0.4933245559681674
461.0, 0.38968842627061695
462.0, 0.30264369362782495
463.0, 0.2327898873780423
464.0, 0.17779662324117798
465.0, 0.13473994940203687
466.0, 0.10408468139116209
467.0, 0.08468756991202557
468.0, 0.07111956559236106
469.0, 0.0549152089455081
470.0, 0.044726353042848506
471.0, 0.03744995656506219
472.0, 0.03241953403330236
473.0, 0.029005378607924525
474.0, 0.025473088278640296
475.0, 0.022678826921277217
476.0, 0.02021988959810595
477.0, 0.01732929535658787
478.0, 0.015711842530996594
479.0, 0.014127016692958839
480.0, 0.012796504056534392
481.0, 0.012257474833154019
482.0, 0.011502101487614129
483.0, 0.010964756987164082
484.0, 0.010689619376225756
485.0, 0.010708154796518382
486.0, 0.011090915458836108
487.0, 0.01145903656497263
488.0, 0.01182867188087765
489.0, 0.012265751505244662
490.0, 0.013201305494799188
491.0, 0.013555379739135506
492.0, 0.012951101359735973
493.0, 0.010893332657730345
494.0, 0.008080360119313356
495.0, 0.006496223833260174
496.0, 0.00569167225490673
497.0, 0.004919690494272998
498.0, 0.003729995279010281
499.0, 0.0030921710275531
500.0, 0.002682031690571318
501.0, 0.002034348003652995
502.0, 0.0019449655663998455
503.0, 0.0012823728049422948
504.0, 0.0008424017289541824
505.0, 0.0015942298435684733
506.0, 0.0005254792391756739
507.0, 0.0009891480296365552
508.0, 0.0017533178663942045
509.0, 0.0014794070489854998
510.0, 0.002093275520108176
511.0, 0.0025008072106359174
512.0, 0.002548659520536936
513.0, 0.002102802192189515
514.0, 0.001592529073318338
515.0, 0.0017379752528702969
516.0, 0.0019417021954844735
517.0, 0.0017146722659309205
518.0, 0.0010575506527649332
519.0, 0.0016902872334339394
520.0, 0.002840509569244752
521.0, 0.0038856667706027685
522.0, 0.0034834309767325946
523.0, 0.0029837341608694935
524.0, 0.0024355947625658804
525.0, 0.0019264251545754124
526.0, 0.0020847591251777113
527.0, 0.0010555376754893368
528.0, 0.0006306052318370276
529.0, 0.0013295211562623834
530.0, 0.00024874054662400496
531.0, 9.695034355792812e-05
532.0, 0.0006901412848542897
533.0, 0.0016578609947540768
534.0, 0.0012417785952521145
535.0, 0.0005169507608694624
536.0, 0.0005921990853237043
537.0, 0.0013241792362949252
538.0, 0.0004787675497155613
539.0, 0.0007104348619488981
540.0, 0.0014116094626263872
541.0, 0.0021138382460913706
542.0, 0.0017501960090237903
543.0, 0.0012803449513709402
544.0, 0.001835425611289612
545.0, 0.002895337342268836
546.0, 0.0025746376534343733
547.0, 0.0036782890067970433
548.0, 0.00489535852376946
549.0, 0.0056533790834193045
550.0, 0.005160947870624689
551.0, 0.007031012504635242
552.0, 0.00907304166728658
553.0, 0.011631951322505706
554.0, 0.015495142964659144
555.0, 0.018077534131722067
556.0, 0.021568655674157614
557.0, 0.02566138973502492
558.0, 0.029913857332108017
559.0, 0.03690473413795059
560.0, 0.040526653413437905
561.0, 0.04113423534074606
562.0, 0.039055802228490186
563.0, 0.03373862193028538
564.0, 0.028832376496516512
565.0, 0.02385907267646815
566.0, 0.01866168339054486
567.0, 0.014675727933877553
568.0, 0.010882562198109432
569.0, 0.00782484027994715
570.0, 0.0058231223249219834
571.0, 0.005299149824715587
572.0, 0.004451698300652283
573.0, 0.0034231618741321283
574.0, 0.002296349998396117
575.0, 0.001221081182639042
576.0, 0.0017148851609046286
577.0, 0.0017783273607019925
578.0, 0.0013340272773723226
579.0, 0.0012444605235816854
580.0, 0.00040191344712730377
581.0, 0.00012985039971338867
582.0, 0.00024363258017727498
583.0, 0.00013926593438940853
584.0, 0.00043472624437973886
585.0, 0.0003354993154905908
586.0, 8.569530166574211e-05
587.0, 2.9551903734011185e-05
588.0, 0.000973358374691995
589.0, 0.0008290997240983385
590.0, 0.0005267003401388922
591.0, 0.000781074437932403
592.0, 0.0005815602103896654
593.0, 0.0010091571265390682
594.0, 0.001678773803934161
595.0, 0.0021414006815456198
596.0, 0.0006839743454752985
597.0, 0.001285261949684749
598.0, 0.0012644646570237849
599.0, 0.0002490273775527747
600.0, 0.0005294075073034955
601.0, 0.001464959618593692
602.0, 0.0015689036999505454
603.0, 0.0008517423721673444
604.0, 0.00010256575248802002
605.0, 0.00011210874922025981
606.0, 0.00021655419026123986
607.0, 0.00024034134516643838
608.0, 2.673073363805071e-05
609.0, 9.96963672334502e-06
610.0, 0.00024568227587091785
611.0, 0.0006559414607598201
612.0, 0.001149436735204669
613.0, 0.0015076699330246347
614.0, 0.00221598344603895
615.0, 0.002774673405180964
616.0, 0.002911142021174191
617.0, 0.002905777089443674
618.0, 0.0031730343888516166
619.0, 0.00311581731328096
620.0, 0.0028887754162615293
621.0, 0.003999945601983683
622.0, 0.00394067325410621
623.0, 0.003785495126043096
624.0, 0.003911540138145877
625.0, 0.004676665862015337
626.0, 0.0034339472600061678
627.0, 0.003959464168494537
628.0, 0.005035059095898004
629.0, 0.004587304278830372
630.0, 0.0063317779109597055
631.0, 0.006297639871551049
632.0, 0.0060911583186632695
633.0, 0.007117083395418911
634.0, 0.010245126702979819
635.0, 0.011545639125803852
636.0, 0.0129213342276606
637.0, 0.01510082296995495
638.0, 0.01725305798477743
639.0, 0.021822098100984073
640.0, 0.026138769411668875
641.0, 0.029946822119931524
642.0, 0.034325316380405035
643.0, 0.03811226436911985
644.0, 0.0404742991841438
645.0, 0.04045713662035618
646.0, 0.03691300423164936
647.0, 0.03150919994843183
648.0, 0.027344757776973965
649.0, 0.022861506675150172
650.0, 0.017001326974534083
651.0, 0.012964197656863165
652.0, 0.009686121820675509
653.0, 0.00688912781281491
654.0, 0.004858149563700832
655.0, 0.005495309251493948
656.0, 0.0038622937784555953
657.0, 0.0022821869015607447
658.0, 0.001436121393308494
659.0, 0.0016781159277760194
660.0, 0.0008763265999890516
661.0, 0.0005015493674169959
662.0, 0.0004382278092161524
663.0, 0.00038957506459655664
664.0, 0.0001880614703916095
665.0, 0.0005494443719066528
666.0, 0.0007446572822080628
667.0, 0.00040994356519610554
668.0, 0.00042943059408625427
669.0, 0.0005241821723127256
670.0, 0.0008213955488110135
671.0, 0.0010705045106192306
672.0, 0.0003563234796457409
673.0, 0.0005320942318585933
674.0, 0.0003962251427572781
675.0, 9.058296593713638e-05
676.0, 9.020305715013006e-05
677.0, 0.00010576961398673485
678.0, 0.0005216147856657116
679.0, 0.0006484871547095448
680.0, 5.21888023146053e-05
681.0, 6.948792850573529e-05
682.0, 0.0005798189033572263
683.0, 0.0008848615133603479
684.0, 0.0008774331838835286
685.0, 0.001196650799966136
686.0, 0.0009571554965798254
687.0, 0.000937056520250321
688.0, 0.0010678978980412021
689.0, 0.0010054653690055328
690.0, 0.0009325147488021275
691.0, 0.0005263830240011012
692.0, 0.0001651448097503519
693.0, 0.00015744030250006193
694.0, 0.0001936466570862416
695.0, 0.0001913835823444023
696.0, 0.00017453453973131965
697.0, 0.00016194108164905118
698.0, 0.00018661592339511176
699.0, 0.00015662694005602075
700.0, 0.00020126526736496047
701.0, 0.0004612568677081547
702.0, 0.001121729658743635
703.0, 0.002000578746781694
704.0, 0.0020926512186560833
705.0, 0.002138745126066918
706.0, 0.002660254748823178
707.0, 0.0027341138366099313
708.0, 0.0026059815755377818
709.0, 0.0022985743958830614
710.0, 0.0017408684580873274
711.0, 0.0006837801180874066
712.0, 0.0010403362441691794
713.0, 0.0008316278918930411
714.0, 0.0005426923000096715
715.0, 0.0011596081777938796
716.0, 0.0006130859853822133
717.0, 0.00024665536458517393
718.0, 0.0003572608091115972
719.0, 0.000897320925728047
720.0, 0.0004351324868862126
721.0, 0.0008323104513531059
722.0, 0.0008388634292014425
723.0, 0.0005250261524566997
724.0, 0.0008221025514238887
725.0, 0.00034388536313663154
726.0, 0.0008815400420147096
727.0, 0.0013804291811593183
728.0, 0.0007481972106554122
729.0, 0.0005329803263131611
730.0, 0.0007377720550462194
731.0, 0.0007435126260310605
732.0, 0.0007666603869443666
733.0, 0.002641591245671088
734.0, 0.0016159265931080748
735.0, 0.0008643735902042492
736.0, 0.0005310836762970479
737.0, 8.432204808241469e-05
738.0, 0.0006429436526603545
739.0, 0.0006598531584611177
740.0, 0.0006494946319921673
741.0, 0.0008455433776343203
742.0, 0.0005651463359264634
743.0, 0.00033398678485652307
744.0, 0.00021438189733567097
745.0, 0.0004306081839682769
746.0, 0.001402692705602157
747.0, 0.001472946422194771
748.0, 0.0010082438728354173
749.0, 0.0007118420438203748
750.0, 0.0010429275217301976
751.0, 0.000618874741288269
752.0, 0.00047593281505135424
753.0, 0.0003058916039113247
754.0, 0.0001356457721250205
755.0, 0.00033514121404774877
756.0, 0.0005980121223685812
757.0, 0.0003888298712341766
758.0, 0.0001352550562284698
759.0, 0.0003798755845980911
760.0, 0.0014957837261923084
761.0, 0.000905835770700779
762.0, 0.0008569952840991505
763.0, 0.0017940242678440863
764.0, 0.0018385403280271543
765.0, 0.0011518335048448973
766.0, 0.0008465502211241347
767.0, 0.0006890972505976659
768.0, 0.0003240821570576042
769.0, 0.0036211645018776398
770.0, 0.002180917585391946
771.0, 0.0014544779568790782
772.0, 0.0029504596142352862
773.0, 0.0015543422736868297
774.0, 0.0019230958169130122
775.0, 0.002758717960654551
776.0, 0.0031699325327452206
777.0, 0.0022879076692970237
778.0, 0.0022539959640303555
779.0, 0.0032193498527391074
780.0, 0.003588008561753014
781.0, 0.0029695875604949036
782.0, 0.0034007903729456755
783.0, 0.004772253091569615
784.0, 0.005031073866671585
785.0, 0.004409900292043125
786.0, 0.0037842220982711016
787.0, 0.0041515875018995506
788.0, 0.004883697666549138
789.0, 0.005252498824126338
790.0, 0.005245422830661095
791.0, 0.006447502398876108
792.0, 0.006169541370172884
793.0, 0.006411108349849642
794.0, 0.006994030933006872
795.0, 0.007215952756767844
796.0, 0.006780769152138081
797.0, 0.0074183360559210276
798.0, 0.007737196304892764
799.0, 0.007473813608150087
800.0, 0.008324570922709496
801.0, 0.008773835475791398
802.0, 0.009478002884072178
803.0, 0.009868746201485031
804.0, 0.009268081898318568
805.0, 0.009991113959458266
806.0, 0.011778153556708354
807.0, 0.01260817233072891
808.0, 0.012308969356137402
809.0, 0.013161682895518723
810.0, 0.014249475526242505
811.0, 0.013648216576324148
812.0, 0.013309258708799884
813.0, 0.015054965509073924
814.0, 0.01368615410006158
815.0, 0.01481891216857326
816.0, 0.015491080600642984
817.0, 0.015464839317514637
818.0, 0.01677805262513765
819.0, 0.01989065069501389
820.0, 0.020939163000347524
821.0, 0.021498079471989538
822.0, 0.023048161047865456
823.0, 0.025055204317066024
824.0, 0.026388736397019406
825.0, 0.028160638557791388
826.0, 0.03043259282394594
827.0, 0.03276536547690793
828.0, 0.03518249332351364
829.0, 0.038274684636979514
830.0, 0.04160637049173045
831.0, 0.04518256867605696
832.0, 0.05037333475580515
833.0, 0.05546005149574412
834.0, 0.059949819065029664
835.0, 0.06520479278677689
836.0, 0.07298038054359358
837.0, 0.08188397746730812
838.0, 0.09378260546224178
839.0, 0.1079186626573733
840.0, 0.12457353369725667
841.0, 0.14550869008078152
842.0, 0.16794934714061774
843.0, 0.19811350303637204
844.0, 0.23281039156590486
845.0, 0.26874486824963306
846.0, 0.30803788322603776
847.0, 0.3562231592178715
848.0, 0.39965816392759407
849.0, 0.4373810726520837
850.0, 0.47432789824093946
851.0, 0.512588142777428
852.0, 0.5461111142016221
853.0, 0.5782384138792452
854.0, 0.6078500367496786
855.0, 0.6229631780374301
856.0, 0.6259632783197842
857.0, 0.6146254351919886
858.0, 0.5869174270185484
859.0, 0.5419314147401489
860.0, 0.48077180752300935
861.0, 0.4204553587753246
862.0, 0.36888798625639785
863.0, 0.3253517522104716
864.0, 0.28289211289381705
865.0, 0.24151137875067796
866.0, 0.2125474083820275
867.0, 0.18857539799294515
868.0, 0.1656265890286551
869.0, 0.14899367101349534
870.0, 0.13619575805316878
871.0, 0.12372366905888585
872.0, 0.11256644354085159
873.0, 0.10435105684783536
874.0, 0.09931605546875605
875.0, 0.09333426128005477
876.0, 0.08809406144060306
877.0, 0.08331570048357556
878.0, 0.07733794361243279
879.0, 0.07225334517039855
880.0, 0.07008900073121323
881.0, 0.06760537300588425
882.0, 0.063757489032335
883.0, 0.06232184649461743
884.0, 0.06024367534515103
885.0, 0.05838670547398397
886.0, 0.057001926554264566
887.0, 0.056126552528615266
888.0, 0.05499963824715514
889.0, 0.05471578368092811
890.0, 0.0557400205399869
891.0, 0.05694229121996484
892.0, 0.05629835085706668
893.0, 0.05695106491407958
894.0, 0.05920294206445499
895.0, 0.06092982600936158
896.0, 0.06210547697249841
897.0, 0.06570394498924326
898.0, 0.06753963975999569
899.0, 0.07049361246489526
900.0, 0.07432455411850399
901.0, 0.07871622220234226
902.0, 0.08412937737191258
903.0, 0.08771956108804821
904.0, 0.09318283826761424
905.0, 0.10058653385580983
906.0, 0.10887169264363067
907.0, 0.11538629664689089
908.0, 0.12555861559228726
909.0, 0.1384710855657247
910.0, 0.15323284502990295
911.0, 0.16869710762659226
912.0, 0.1826004651652152
913.0, 0.20307079298621747
914.0, 0.2280694028238178
915.0, 0.2565958633544119
916.0, 0.28945669122578854
917.0, 0.33176367643363713
918.0, 0.3727404468689327
919.0, 0.41645524787170135
920.0, 0.4669621480848329
921.0, 0.5256982775057392
922.0, 0.5743958079953767
923.0, 0.6233305350541852
924.0, 0.6676947772224818
925.0, 0.7003897919894575
926.0, 0.7209759553416227
927.0, 0.7181448126950517
928.0, 0.7052073766854349
929.0, 0.6827233440306045
930.0, 0.6462797414075195
931.0, 0.6006490913127163
932.0, 0.5605057253521087
933.0, 0.5213954294733292
934.0, 0.4809933009517004
935.0, 0.43857716422382925
936.0, 0.4049817187279016
937.0, 0.3737677035476445
938.0, 0.3364591236686084
939.0, 0.29362317916059566
940.0, 0.26343257668692366
941.0, 0.22795860387737607
942.0, 0.19953303114730375
943.0, 0.17790363724270655
944.0, 0.16053191084849633
945.0, 0.14168661075034064
946.0, 0.12740401823673086
947.0, 0.11509063163258086
948.0, 0.10490572176353899
949.0, 0.09692608305219566
950.0, 0.08800655892986489
951.0, 0.08163932707255801
952.0, 0.07517440653399975
953.0, 0.06905938049057327
954.0, 0.06452784057237315
955.0, 0.05881581379150367
956.0, 0.05308668427342457
957.0, 0.04914036431129292
958.0, 0.04635715814961199
959.0, 0.04273052074608001
960.0, 0.04177358151089287
961.0, 0.03915331508348164
962.0, 0.03665271406545316
963.0, 0.03487830842289192
964.0, 0.03342483091491889
965.0, 0.03222597825469222
966.0, 0.030779366124049305
967.0, 0.028806408028108122
968.0, 0.026449160008925995
969.0, 0.024452548472831587
970.0, 0.024464729482520122
971.0, 0.023016812310901358
972.0, 0.021711443246267864
973.0, 0.021155264898573327
974.0, 0.019437327538959593
975.0, 0.018328814244577364
976.0, 0.01662606422753401
977.0, 0.016159288117740662
978.0, 0.01749606374593832
979.0, 0.016944161182182477
980.0, 0.014134123195823366
981.0, 0.01432728104281832
982.0, 0.0148591258553313
983.0, 0.013266439484100332
984.0, 0.012042461891617891
985.0, 0.014026146108425843
986.0, 0.01280206497566289
987.0, 0.011254145427923266
988.0, 0.012510767705520424
989.0, 0.011761377135645127
990.0, 0.011129043672224703
991.0, 0.011067139218185083
992.0, 0.010895674787211287
993.0, 0.009874197526812725
994.0, 0.008734823189861568
995.0, 0.008669751489123195
996.0, 0.009211019242277095
997.0, 0.010361662797322755
998.0, 0.011953560343270999
999.0, 0.011554590284755228
1000.0, 0.011926616217567205
1001.0, 0.012086270818709985
1002.0, 0.01363242456840899
1003.0, 0.018162185744392382
1004.0, 0.01842402900017194
1005.0, 0.021474098880192877
1006.0, 0.02368603304523921
1007.0, 0.025242641843707978
1008.0, 0.027438051414784937
1009.0, 0.02685755898770956
1010.0, 0.026713924505692332
1011.0, 0.024942269532265353
1012.0, 0.022130836154140486
1013.0, 0.019826821184766266
1014.0, 0.01641428479875197
1015.0, 0.014102467274100128
1016.0, 0.012040655344474068
1017.0, 0.010244120051126541
1018.0, 0.009051044745229792
1019.0, 0.0082440282659551
1020.0, 0.007168252016587189
1021.0, 0.006423044538657967
1022.0, 0.0059586751806729055
1023.0, 0.005456172651198106
1024.0, 0.005046280739302746
1025.0, 0.0055135627207470415
1026.0, 0.0056520704355037445
1027.0, 0.005327859919317037
1028.0, 0.0048411306624069105
1029.0, 0.003986016003167417
1030.0, 0.00372957286830923
1031.0, 0.003959590695977656
1032.0, 0.003911887230593264
1033.0, 0.0028743214634438215
1034.0, 0.0033040934309517397
1035.0, 0.002571002399602956
1036.0, 0.0023260930346401497
1037.0, 0.002380182681901613
1038.0, 0.002093842225957566
1039.0, 0.002696925777237149
1040.0, 0.002103676532234547
1041.0, 0.0014730287267678446
1042.0, 0.0017207367356252283
1043.0, 0.0031458981239267957
1044.0, 0.0026518536413857366
1045.0, 0.0020783789398970427
1046.0, 0.002311278531063255
1047.0, 0.0025443808649875436
1048.0, 0.0019720437347577123
1049.0, 0.002119373824524452
1050.0, 0.001646071394787315
1051.0, 0.0019121961512640186
1052.0, 0.0019340075389018708
1053.0, 0.0010314176510119056
1054.0, 0.0016404692747714542
1055.0, 0.0024253306379181843
1056.0, 0.0027495235634161477
1057.0, 0.002875545094612922
1058.0, 0.0030541015411510754
1059.0, 0.003054648690733487
1060.0, 0.0029010249719104574
1061.0, 0.0027426376973929785
1062.0, 0.002536859901027033
1063.0, 0.0022921128627177985
1064.0, 0.002172306859125437
1065.0, 0.0027963438083246704
1066.0, 0.0023967623730004797
1067.0, 0.0023833663577053433
1068.0, 0.002868250504656932
1069.0, 0.001596835978952139
1070.0, 0.002663600494506888
1071.0, 0.0021010330382703096
1072.0, 0.0013127076561721385
1073.0, 0.0010523348018322098
1074.0, 0.0011590707307860344
1075.0, 0.00024849042874565625
1076.0, 0.0009113597143693787
1077.0, 0.0018198645474988928
1078.0, 0.0019019983023816267
1079.0, 0.0005208083375321786
1080.0, 0.001008267217896905
1081.0, 0.0015304459760574233
1082.0, 0.001126153320179945
1083.0, 0.0004680696764117694
1084.0, 0.0008267518547142891
1085.0, 0.0013231037061982105
1086.0, 0.0011201137005887704
1087.0, 0.0009052007638546156
1088.0, 0.0009746184181105072
1089.0, 0.0012780794341401547
1090.0, 0.0006767159688648745
1091.0, 0.0005277556215763008
1092.0, 0.0003388390302572305
1093.0, 0.0002988852167179634
1094.0, 0.0006228957651949002
1095.0, 0.0012763430088451112
1096.0, 0.000635386752216701
1097.0, 0.0010037440651738698
1098.0, 0.0011592646757691031
1099.0, 0.0006061308556694089
1100.0, 0.0005888537645277942
1101.0, 0.001193375654276681
1102.0, 0.0010582052384191555
1103.0, 0.0009832536994818333
1104.0, 0.0010030685517178088
1105.0, 0.0004110220812926043
1106.0, 0.0005211435944178445
1107.0, 0.0005724547594088369
1108.0, 0.000672723679502155
1109.0, 0.0008143047552939038
1110.0, 0.000877463802806095
1111.0, 0.00030946775154926787
1112.0, 0.00016474505937867927
1113.0, 0.0003646213746402654
1114.0, 0.0005898364883507821
1115.0, 0.000612618309656747
1116.0, 0.0008763993004084781
1117.0, 0.000764120825734491
1118.0, 0.0008569094337944902
1119.0, 0.0012668261138190978
1120.0, 0.00173839235877156
1121.0, 0.0014345823138999776
1122.0, 0.002340757682652108
1123.0, 0.0027784272489096797
1124.0, 0.0032087220764637483
1125.0, 0.0035634357858828733
1126.0, 0.003177961984401471
1127.0, 0.0023055741246550926
1128.0, 0.0009804602974001916
1129.0, 0.0005539223597213824
1130.0, 0.0006324892520267395
1131.0, 0.0002077704735789581
1132.0, 0.0005402101634749533
1133.0, 0.0008571739853615063
1134.0, 0.0007182752191098113
1135.0, 0.0006089979275379462
1136.0, 0.0008222908684705896
1137.0, 0.0004075298444936276
1138.0, 0.0009415490440587195
1139.0, 0.0005419731219807484
1140.0, 0.0007643579580553738
1141.0, 0.0015371760693831023
1142.0, 0.00030220305613613065
1143.0, 0.0003482971253951964
1144.0, 0.00044283731809955913
1145.0, 0.0009695201167999199
1146.0, 0.0015138628921887007
1147.0, 0.0013710630793375622
1148.0, 0.0016367009529399284
1149.0, 0.0019281288750523412
1150.0, 0.0016284856476778097
1151.0, 0.0009816217074666061
1152.0, 0.00047642785660679735
1153.0, 0.0005944313738430733
1154.0, 0.00016774383070477966
1155.0, 0.0008279219334226966
1156.0, 0.0011982512387785967
1157.0, 0.0009564531436633959
1158.0, 0.0014287872335248706
1159.0, 0.0013057703829143037
1160.0, 0.001274015938049351
1161.0, 0.002120625207248189
1162.0, 0.003430457732729344
1163.0, 0.004147274626605563
1164.0, 0.0034011820825155217
1165.0, 0.004489749882628945
1166.0, 0.004214568377758233
1167.0, 0.004250925709654829
1168.0, 0.005324240855058454
1169.0, 0.003719523761516362
1170.0, 0.005096596080178071
1171.0, 0.0037233785151445787
1172.0, 0.002880340922929503
1173.0, 0.003599514037293355
1174.0, 0.004320156382216023
1175.0, 0.002060420472108585
1176.0, 0.001502598980432656
1177.0, 0.0016685767589236285
1178.0, 0.0013555437487725555
1179.0, 0.00012546452467912414
1180.0, 0.000434970605275799
1181.0, 0.0001779200459558811
1182.0, 0.0005788942160568891
1183.0, 0.0009493653503269539
1184.0, 0.000978029145888071
1185.0, 0.0010734065545017239
1186.0, 0.0012429597169219457
1187.0, 0.0006880338994948237
1188.0, 0.0005084853711482597
1189.0, 0.0008183728198594222
1190.0, 0.001280688601423957
1191.0, 0.0017493376070029777
1192.0, 0.0005215999566007083
1193.0, 0.0005673284057589789
1194.0, 0.0009268969387149411
1195.0, 0.0008248776963905786
1196.0, 0.0006561446646053711
1197.0, 0.0009566956289243727
1198.0, 0.0004748182084288935
1199.0, 0.00018935075035853168
1200.0, 0.0003968478624008951
1201.0, 0.000817523954160785
1202.0, 0.0002779286394541773
1203.0, 0.00011606794379124302
1204.0, 0.0003504438493356749
1205.0, 0.0005075670864685359
1206.0, 0.0003310292274763051
1207.0, 4.8337275900037756e-05
1208.0, 0.00037268010214801717
1209.0, 0.00017736436832231352
1210.0, 0.0003750348406967573
1211.0, 0.0007136944110665682
1212.0, 0.000512884718006884
1213.0, 9.805090842607639e-05
1214.0, 0.00030445522049684726
1215.0, 0.00043411178947045753
1216.0, 0.0007165701980056326
1217.0, 0.000936858058437357
1218.0, 0.000208960126461223
1219.0, 0.0010492111895973025
1220.0, 0.0012104778203919336
1221.0, 0.0009682990330144524
1222.0, 0.0009692064364258832
1223.0, 0.0015534749617923554
1224.0, 0.0013275547270469085
1225.0, 0.0005843950555877753
1226.0, 0.0005413354067239111
1227.0, 0.0009044914227478918
1228.0, 0.0014170556336414036
1229.0, 0.0020102553850576393
1230.0, 0.001798238937624845
1231.0, 0.0022939872764140426
1232.0, 0.0020765421410710713
1233.0, 0.0016397080521122255
1234.0, 0.0017527641191259187
1235.0, 0.00218497624275421
1236.0, 0.0017858412342423213
1237.0, 0.0019471293546340935
1238.0, 0.0014254600411662862
1239.0, 0.0009963945619124919
1240.0, 0.0023059155449106222
1241.0, 0.0014824577686195055
1242.0, 0.0017869284444963578
1243.0, 0.002284183184485457
1244.0, 0.0024225240662049488
1245.0, 0.001958938740729644
1246.0, 0.0010654792883840428
1247.0, 0.0010380685778048784
1248.0, 0.0012271866622646486
1249.0, 0.001807101896341044
1250.0, 0.001879573829851731
1251.0, 0.0012790978292109446
1252.0, 0.00411966363505375
1253.0, 0.002175018051389954
1254.0, 0.0017595889365968336
1255.0, 0.0020514115456056613
1256.0, 0.001974874269214437
1257.0, 0.0010934083760214468
1258.0, 0.001077029999165037
1259.0, 0.002489053566281069
1260.0, 0.00251825655201629
1261.0, 0.002368048938765394
1262.0, 0.0026613016136188784
1263.0, 0.0015093611445906772
1264.0, 0.0018187833710571412
1265.0, 0.0022095462682393215
1266.0, 0.002251960799870784
1267.0, 0.002014616968981048
1268.0, 0.0018955707722167012
1269.0, 0.0025611762914123527
1270.0, 0.0026463005615375594
1271.0, 0.002736997122134981
1272.0, 0.0029301722504215763
1273.0, 0.0029172766614273763
1274.0, 0.002395362652872297
1275.0, 0.0029753038908951644
1276.0, 0.0026620927138485246
1277.0, 0.002052437106412922
1278.0, 0.0022536532058257085
1279.0, 0.0030226896132098807
1280.0, 0.0025553067591115985
1281.0, 0.004089582537357982
1282.0, 0.0032307490087139755
1283.0, 0.0025724046430169825
1284.0, 0.0025511396322099524
1285.0, 0.0026416538402820613
1286.0, 0.0018907013017587658
1287.0, 0.0026650389613795994
1288.0, 0.0024710296641070693
1289.0, 0.002989862521335124
1290.0, 0.003682189690531083
1291.0, 0.0032392012759146025
1292.0, 0.001827770005653595
1293.0, 0.002771456310413689
1294.0, 0.002796957991142178
1295.0, 0.002851035157020217
1296.0, 0.0028667460871369017
1297.0, 0.0022454739528205707
1298.0, 0.0030610670559764325
1299.0, 0.0020373936088684988
1300.0, 0.00333597452618397
1301.0, 0.004028331671798221
1302.0, 0.0028003238767602893
1303.0, 0.0012926025133312767
1304.0, 0.0014584127250579903
1305.0, 0.0031684247853937123
1306.0, 0.0035499447351394486
1307.0, 0.003033144910782338
1308.0, 0.002403466041683955
1309.0, 0.001838468323529456
1310.0, 0.0021743999645561026
1311.0, 0.002224202540101209
1312.0, 0.0026164096576017184
1313.0, 0.003075804334703397
1314.0, 0.003006254539931318
1315.0, 0.001866283299220375
1316.0, 0.0017736207581816638
1317.0, 0.0021503842830569004
1318.0, 0.002062245459289418
1319.0, 0.0017215067303240354
1320.0, 0.0016063990888286058
1321.0, 0.0016155566377555092
1322.0, 0.002115325897156328
1323.0, 0.002701095311841382
1324.0, 0.0018450172480975423
1325.0, 0.0011857406771597645
1326.0, 0.00220242609384936
1327.0, 0.0011534894457689284
1328.0, 0.002188842842108439
1329.0, 0.001682470791490666
1330.0, 0.0008900581596599234
1331.0, 0.0011591998487198744
1332.0, 0.0025509695044755084
1333.0, 0.0013026493378588576
1334.0, 0.0017056820060555216
1335.0, 0.0011129592008606096
1336.0, 0.0004154671084278843
1337.0, 0.000654299901309837
1338.0, 0.0019685243577165883
1339.0, 0.0014424957478656783
1340.0, 0.0013529627680606846
1341.0, 0.0017048048432730233
1342.0, 0.0018971272692304933
1343.0, 0.0015927523754728898
1344.0, 0.0008799538647336826
1345.0, 0.0005064725665964709
1346.0, 0.0005158639118382167
1347.0, 0.0020536398735981716
1348.0, 0.0024622390272447782
1349.0, 0.0017203601153732084
1350.0, 0.0015444378835807408
1351.0, 0.0007815381016643997
1352.0, 0.00018224528475338498
1353.0, 0.0014299618364131707
1354.0, 0.0014864046639671152
1355.0, 0.0009202726430736467
1356.0, 0.002090663164020084
1357.0, 0.0011054891923439898
1358.0, 0.0013499376408383037
1359.0, 0.0021378916153124592
1360.0, 0.0032411018800155007
1361.0, 0.003164718622561796
1362.0, 0.0011611631076743384
1363.0, 0.0032931635997328675
1364.0, 0.002423289281120141
1365.0, 0.0017787471587363017
1366.0, 0.0018294048911905907
1367.0, 0.00233491737066729
1368.0, 0.0025972146830719823
1369.0, 0.001531383461624947
1370.0, 0.0014971790255619388
1371.0, 0.001769910435046466
1372.0, 0.001784654097541689
1373.0, 0.0016699130267547773
1374.0, 0.0017122597012781977
1375.0, 0.00124908201756435
1376.0, 0.001221371093792378
1377.0, 0.0021477246207690917
1378.0, 0.0024072232991385212
1379.0, 0.00207679105976308
1380.0, 0.002392281607252424
1381.0, 0.004755307419732025
1382.0, 0.0028895639293112845
1383.0, 0.0015167423337719762
1384.0, 0.0017283787879410987
1385.0, 0.0028142893715995742
1386.0, 0.003319031300399883
1387.0, 0.0021960631753009997
1388.0, 0.0024028747750164427
1389.0, 0.001636318299798055
1390.0, 0.0016116237865234867
1391.0, 0.0023416299692999827
1392.0, 0.0030651900286799904
1393.0, 0.0030086600852071467
1394.0, 0.0023291979525970966
1395.0, 0.0014815581887229463
1396.0, 0.0019609614322557366
1397.0, 0.002437295412308753
1398.0, 0.00237402661949919
1399.0, 0.0031531000055095583
1400.0, 0.0028079925325927074
1401.0, 0.0036769214204478416
1402.0, 0.003956241937989321
1403.0, 0.0033234529621699125
1404.0, 0.0026199640105698174
1405.0, 0.003028667854317008
1406.0, 0.002819778896109779
1407.0, 0.002071955179869335
1408.0, 0.0016370963513491822
1409.0, 0.0021983316326007847
1410.0, 0.0032398111597759112
1411.0, 0.003879002196773312
1412.0, 0.005211406415102189
1413.0, 0.0037865044192966595
1414.0, 0.003213804850309896
1415.0, 0.0033542788431573183
1416.0, 0.0035199367652496093
1417.0, 0.0031992027868807714
1418.0, 0.0027283041428203592
1419.0, 0.0022049614051777465
1420.0, 0.0031384234800388043
1421.0, 0.003336806360235167
1422.0, 0.002785493705176543
1423.0, 0.002591679449523417
1424.0, 0.003782030901559131
1425.0, 0.0023861149751280867
1426.0, 0.003582528565919709
1427.0, 0.0034443364627365805
1428.0, 0.0032668230799187486
1429.0, 0.0031553258690398215
1430.0, 0.0016463347309835805
1431.0, 0.0026606315384028766
1432.0, 0.00124143201510131
1433.0, 0.0015064763597887176
1434.0, 0.0018472954870451187
1435.0, 0.0018384751102000535
1436.0, 0.0022013392251264813
1437.0, 0.003158957013221511
1438.0, 0.0030339273348437847
1439.0, 0.00315569331070258
1440.0, 0.0029754822583072504
1441.0, 0.0027044361108438273
1442.0, 0.0030619035885574553
1443.0, 0.004704864741853305
1444.0, 0.004303633961239013
1445.0, 0.004352710167390606
1446.0, 0.004024248800083124
1447.0, 0.0033039956014928027
1448.0, 0.0028416124221349835
1449.0, 0.003328910480366549
1450.0, 0.003449567534097919
1451.0, 0.0018771420072654487
1452.0, 0.002498358948103112
1453.0, 0.0035549050931236686
1454.0, 0.0038842810958871856
1455.0, 0.0033182132228724453
1456.0, 0.002247848743628819
1457.0, 0.0037778191739504326
1458.0, 0.0034956994708740382
1459.0, 0.003827217970732336
1460.0, 0.004578082550952179
1461.0, 0.00455259467568124
1462.0, 0.0031245116178059786
1463.0, 0.004011424510605008
1464.0, 0.002543224496993084
1465.0, 0.0027232085446569094
1466.0, 0.0028739239335818976
1467.0, 0.0023144522230217554
1468.0, 0.0019318761946907168
1469.0, 0.002974991344396438
1470.0, 0.0028256302442252563
1471.0, 0.0013242220413434182
1472.0, 0.0012561830308985746
1473.0, 0.0021056113029319545
1474.0, 0.002251286573253878
1475.0, 0.0010910460876122903
1476.0, 0.0026580895614079234
1477.0, 0.0017308932930218954
1478.0, 0.0016250005167800813
1479.0, 0.001392596540047932
1480.0, 0.0011334275396106754
1481.0, 0.001580920301558316
1482.0, 0.0014230738032199486
1483.0, 0.0028633110513955505
1484.0, 0.002156796285156769
1485.0, 0.0017049764542228874
1486.0, 0.0020539999253545655
1487.0, 0.0023921101378512727
1488.0, 0.0015536158370113404
1489.0, 0.0010327249382054773
1490.0, 0.0009771463687305994
1491.0, 0.001179741835030289
1492.0, 0.000910867728277249
1493.0, 0.0007082234311133757
1494.0, 0.0012986256356403837
1495.0, 0.0016218402972020657
1496.0, 0.0010846926659714361
1497.0, 0.0008406783516676638
1498.0, 0.0007870695096864715
1499.0, 0.0005082225188799885
1500.0, 0.00025732089519017623
1501.0, 0.0006717491276932098
1502.0, 0.00012570606150242994
1503.0, 8.311781898369248e-05
1504.0, 0.00012830149795644823
1505.0, 0.00019187747354606463
1506.0, 0.0004375560424392918
1507.0, 0.0007869717712415472
1508.0, 0.0006247713833874556
1509.0, 0.0001880704826237199
1510.0, 0.0005172449143862228
1511.0, 0.0004233986889341736
1512.0, 0.0006549534614492675
1513.0, 0.0009958108808566803
1514.0, 0.0007624574304278706
1515.0, 0.0010380961610522055
1516.0, 0.0018174385005197918
1517.0, 0.0005941567465826767
1518.0, 0.0008214439604757315
1519.0, 0.0016340686060492453
1520.0, 0.0016999951365488668
1521.0, 0.0012649859276480536
1522.0, 0.001885763513812248
1523.0, 0.0004789285911801647
1524.0, 0.00031698423503166815
1525.0, 0.0002016233650840751
1526.0, 1.2490507053363486e-06
1527, 0.0
1528, 0.0
1529, 0.0
1530, 0.0
1531, 0.0
1532, 0.0
1533, 0.0
1534, 0.0
1535, 0.0
1536, 0.0
1537, 0.0
1538, 0.0
1539, 0.0
1540, 0.0
1541, 0.0
1542, 0.0
1543, 0.0
1544, 0.0
1545, 0.0
1546, 0.0
1547, 0.0
1548, 0.0
1549, 0.0
1550, 0.0
1551, 0.0
1552, 0.0
1553, 0.0
1554, 0.0
1555, 0.0
1556, 0.0
1557, 0.0
1558, 0.0
1559, 0.0
1560, 0.0
1561, 0.0
1562, 0.0
1563, 0.0
1564, 0.0
1565, 0.0
1566, 0.0
1567, 0.0
1568, 0.0
1569, 0.0
1570, 0.0
1571, 0.0
1572, 0.0
1573, 0.0
1574, 0.0
1575, 0.0
1576, 0.0
1577, 0.0
1578, 0.0
1579, 0.0
1580, 0.0
1581, 0.0
1582, 0.0
1583, 0.0
1584, 0.0
1585, 0.0
1586, 0.0
1587, 0.0
1588, 0.0
1589, 0.0
1590, 0.0
1591, 0.0
1592, 0.0
1593, 0.0
1594, 0.0
1595, 0.0
1596, 0.0
1597, 0.0
1598, 0.0
1599, 0.0
