30, 0.0
31, 0.0
32, 0.0
33, 0.0
34, 0.0
35, 0.0
36, 0.0
37, 0.0
38, 0.0
39, 0.0
40, 0.0
41, 0.0
42, 0.0
43, 0.0
44, 0.0
45, 0.0
46, 0.0
47, 0.0
48, 0.0
49, 0.0
50, 0.0
51, 0.0
52, 0.0
53, 0.0
54, 0.0
55, 0.0
56, 0.0
57, 0.0
58, 0.0
59, 0.0
60, 0.0
61, 0.0
62, 0.0
63, 0.0
64, 0.0
65, 0.0
66, 0.0
67, 0.0
68, 0.0
69, 0.0
70, 0.0
71, 0.0
72, 0.0
73, 0.0
74, 0.0
75, 0.0
76, 0.0
77, 0.0
78, 0.0
79, 0.0
80, 0.0
81, 0.0
82, 0.0
83, 0.0
84, 0.0
85, 0.0
86, 0.0
87, 0.0
88, 0.0
89, 0.0
90, 0.0
91, 0.0
92, 0.0
93, 0.0
94, 0.0
95, 0.0
96, 0.0
97.0, 0.00014917654053059868
98.0, 0.001199715558351746
99.0, 0.0007229280708123945
100.0, 0.0005307805380146345
101.0, 0.001779434056963184
102.0, 0.0013852177754836686
103.0, 0.002674042950122529
104.0, 0.004972828332509628
105.0, 0.005926425428291631
106.0, 0.00903950314921605
107.0, 0.01737426159726189
108.0, 0.03280492388050585
109.0, 0.0517496850659464
110.0, 0.056270600922442675
111.0, 0.05067648656040401
112.0, 0.04156688824054419
113.0, 0.035688394420629675
114.0, 0.02892608985658334
115.0, 0.020621621649726956
116.0, 0.019855944291021995
117.0, 0.017592528992988295
118.0, 0.0151190073369328
119.0, 0.014146586741278028
120.0, 0.01260833151309373
121.0, 0.010333520609161451
122.0, 0.007633199042181416
123.0, 0.007163038156609674
124.0, 0.006570783064661253
125.0, 0.006238548177061355
126.0, 0.006547929424030673
127.0, 0.006356942707748203
128.0, 0.004982863239856659
129.0, 0.003410013952905067
130.0, 0.005771077575604695
131.0, 0.006167888714273263
132.0, 0.006030448181120213
133.0, 0.005966271474638931
134.0, 0.004512671392427859
135.0, 0.004551136604751987
136.0, 0.005383211391688076
137.0, 0.005647320819838081
138.0, 0.00601110537973577
139.0, 0.006285660788662128
140.0, 0.0062596789878160315
141.0, 0.0037412676268013196
142.0, 0.003408288745738732
143.0, 0.004054531526296027
144.0, 0.004546161562582806
145.0, 0.004328676927454085
146.0, 0.00449355299371434
147.0, 0.005160665319827727
148.0, 0.006349178804563507
149.0, 0.008513865081439536
150.0, 0.011007755526572528
151.0, 0.013508279960308674
152.0, 0.01942372311540491
153.0, 0.029033934630598116
154.0, 0.04066913985779286
155.0, 0.05072655236991078
156.0, 0.04816872553123862
157.0, 0.03823150352497116
158.0, 0.022918216530721756
159.0, 0.016564479160741035
160.0, 0.011156474971741291
161.0, 0.007382296040999396
162.0, 0.006439281780925016
163.0, 0.007158059087987897
164.0, 0.007517615798875871
165.0, 0.007758986715740994
166.0, 0.00998816092098861
167.0, 0.007806142123736386
168.0, 0.006147655820920543
169.0, 0.007506663827256879
170.0, 0.004437372638696893
171.0, 0.003628819183774677
172.0, 0.003456053284119824
173.0, 0.0008957664404300007
174.0, 0.0014782831774351737
175.0, 0.0027890768581068865
176.0, 0.003937807938889971
177.0, 0.0014114586588733578
178.0, 0.0016236214945760735
179.0, 0.001959236513408839
180.0, 0.0003922281200083788
181.0, 0.001607352951973763
182.0, 0.0023922968251070213
183.0, 0.002346437722500844
184.0, 0.0005890698954438956
185.0, 0.001595051458904773
186.0, 0.0018921145229667483
187.0, 0.0005793853853159738
188.0, 0.000739628146356555
189.0, 0.0014095499961497837
190.0, 0.0016394097185496895
191.0, 0.0003003630957291128
192.0, 0.0007521059733305183
193.0, 0.0011674738233734593
194.0, 0.0013509008090626861
195.0, 0.0011447932494848888
196.0, 0.001367422918941943
197.0, 0.0013726041344324738
198.0, 0.0009336274230471499
199.0, 0.0011187133294871176
200.0, 0.0008641213166815653
201.0, 0.0009668522152900027
202.0, 0.002548740578793078
203.0, 0.002052806188084954
204.0, 0.0015886681713398842
205.0, 0.0013969507280418235
206.0, 0.0015089775910634327
207.0, 0.0006934903034806298
208.0, 0.0006082349647850037
209.0, 0.0019283839323208439
210.0, 0.0009519671528053504
211.0, 0.0003710103150052933
212.0, 0.000702819060678277
213.0, 0.002859419732601858
214.0, 0.0014221083808020798
215.0, 0.0008459653928847577
216.0, 0.001195475018133078
217.0, 0.0005051118330326423
218.0, 0.001123467659879271
219.0, 0.001414556063960291
220.0, 0.0007165898748350076
221.0, 0.000892045550353982
222.0, 0.0006308623832391063
223.0, 0.0002734965481616612
224.0, 0.0002400680176762639
225.0, 9.910776330739982e-05
226.0, 0.001110831103338278
227.0, 0.003027674139814892
228.0, 0.004520966529866238
229.0, 0.005330487799487108
230.0, 0.007741020384262393
231.0, 0.012668251902001933
232.0, 0.01930511991443762
233.0, 0.03072581545315576
234.0, 0.04840974815267763
235.0, 0.07510770926591184
236.0, 0.10825309036963532
237.0, 0.15189650525823145
238.0, 0.20919465056612063
239.0, 0.2910036039891085
240.0, 0.34223872834406477
241.0, 0.3349777543759436
242.0, 0.26431874090284113
243.0, 0.1816703773094212
244.0, 0.1226358785538814
245.0, 0.07971999939934334
246.0, 0.04944817305493965
247.0, 0.03858066665130468
248.0, 0.029714898951735236
249.0, 0.023335512796644125
250.0, 0.021812310977165694
251.0, 0.01947910254051411
252.0, 0.018407057755191334
253.0, 0.018698236472093007
254.0, 0.018812501692156463
255.0, 0.01878257781758754
256.0, 0.019325537135182966
257.0, 0.020849333997428495
258.0, 0.02362668135540684
259.0, 0.030703091214547437
260.0, 0.041656888597450994
261.0, 0.056642210040256984
262.0, 0.09574908993916367
263.0, 0.15213085342002702
264.0, 0.22307490558273232
265.0, 0.30423602966900487
266.0, 0.48597852192911456
267.0, 0.6786909222840282
268.0, 0.8356695177807146
269.0, 0.7632992506915892
270.0, 0.5686791745108517
271.0, 0.3604942089076943
272.0, 0.20955700140714154
273.0, 0.14244263306802554
274.0, 0.09876774193720006
275.0, 0.07514137989713485
276.0, 0.0695568230204361
277.0, 0.07215394501170831
278.0, 0.08597886275494412
279.0, 0.1128093770163757
280.0, 0.15937769514018993
281.0, 0.23191660343451495
282.0, 0.3301995701568344
283.0, 0.45757517552983107
284.0, 0.6369425745341222
285.0, 0.8519856876743995
286.0, 0.9938056988445265
287.0, 0.9763076729816066
288.0, 0.7843879800368317
289.0, 0.5849731248539525
290.0, 0.39969522670614266
291.0, 0.26308882174037107
292.0, 0.18476173571236587
293.0, 0.12869623845455438
294.0, 0.09042162104314053
295.0, 0.07147933135841014
296.0, 0.059075565233727714
297.0, 0.04907404936284231
298.0, 0.04089141409289216
299.0, 0.0393794751912151
300.0, 0.032749476689343866
301.0, 0.027512395552238715
302.0, 0.027702669927102033
303.0, 0.025266520760296337
304.0, 0.02291821582981302
305.0, 0.02117231291442231
306.0, 0.02077988326973206
307.0, 0.018567334784044435
308.0, 0.01912870637560776
309.0, 0.020744957534285364
310.0, 0.018192067335100336
311.0, 0.02027807089181969
312.0, 0.021882026201333466
313.0, 0.02201137287626784
314.0, 0.021136453310566614
315.0, 0.022965817463840247
316.0, 0.024613414949002946
317.0, 0.025170782693144385
318.0, 0.029799370443923102
319.0, 0.029394384090094584
320.0, 0.02867960765130916
321.0, 0.03148389562976063
322.0, 0.034668044360030986
323.0, 0.039532150855017725
324.0, 0.04901539285282778
325.0, 0.06825654970202014
326.0, 0.09172426074302063
327.0, 0.13282171304816254
328.0, 0.19111019735446125
329.0, 0.2633419756748134
330.0, 0.3769889343060462
331.0, 0.49892390934146463
332.0, 0.6030992400630732
333.0, 0.5861237525295592
334.0, 0.49865999994804233
335.0, 0.38103764647251315
336.0, 0.25360468956239685
337.0, 0.17915149185083573
338.0, 0.12615170338824158
339.0, 0.08845609483788992
340.0, 0.06265860488416498
341.0, 0.04967035788534761
342.0, 0.038335032144614846
343.0, 0.030137782851705656
344.0, 0.027353087038757842
345.0, 0.023575047658825024
346.0, 0.019480740356573868
347.0, 0.016427016434762576
348.0, 0.017431681569446248
349.0, 0.01344391499728242
350.0, 0.01147206737565319
351.0, 0.01201471141618164
352.0, 0.012786101410166032
353.0, 0.011059352628079184
354.0, 0.010361221848772384
355.0, 0.01121731946509549
356.0, 0.010021418335908685
357.0, 0.010801943858811048
358.0, 0.01076973723237879
359.0, 0.008942167830785344
360.0, 0.011596477761822837
361.0, 0.009294847894419611
362.0, 0.006609816625556155
363.0, 0.006972294833360246
364.0, 0.0059358629073000225
365.0, 0.00445726135462522
366.0, 0.0037509694940172067
367.0, 0.005372752136059445
368.0, 0.0038003046512743357
369.0, 0.0035623611103840014
370.0, 0.004318075943786453
371.0, 0.00508833833266792
372.0, 0.00414599043658877
373.0, 0.004380433689192596
374.0, 0.004839367064760054
375.0, 0.0018370406055564093
376.0, 0.0038773796306614374
377.0, 0.00509958571025832
378.0, 0.0048131924293696275
379.0, 0.005275344803104879
380.0, 0.006937689074150655
381.0, 0.0072358505876721204
382.0, 0.005833061683848768
383.0, 0.006314589219058262
384.0, 0.007509588954993025
385.0, 0.00783207614801909
386.0, 0.007020765600125715
387.0, 0.011698277290611632
388.0, 0.013276387106452665
389.0, 0.014437818437761141
390.0, 0.016869262904573443
391.0, 0.017858359130403748
392.0, 0.024403446324679178
393.0, 0.032145346292931816
394.0, 0.03708411745789299
395.0, 0.048769961884197424
396.0, 0.06569399697947222
397.0, 0.08730070913613362
398.0, 0.1132060767761785
399.0, 0.15824196629918677
400.0, 0.20812033053031556
401.0, 0.2651651291037407
402.0, 0.335469847774181
403.0, 0.370236854313612
404.0, 0.3633688939818613
405.0, 0.3218733913928195
406.0, 0.26053095902839724
407.0, 0.19288169232443614
408.0, 0.1372664292169142
409.0, 0.09654591478404188
410.0, 0.07176317307466033
411.0, 0.05156840709837498
412.0, 0.03804458895402621
413.0, 0.02995673645814118
414.0, 0.02052573386863014
415.0, 0.01754037433967956
416.0, 0.014753887142547398
417.0, 0.01070806355683435
418.0, 0.0070349474293789765
419.0, 0.007705505253122955
420.0, 0.007099292035299759
421.0, 0.004163169390951416
422.0, 0.006168609352065196
423.0, 0.004195174390280362
424.0, 0.0025457469021891548
425.0, 0.0029798240469850142
426.0, 0.003521125930862702
427.0, 0.0020363351166930886
428.0, 0.0014095867159106081
429.0, 0.002947913886543527
430.0, 0.002118385811575732
431.0, 0.0010915945586973807
432.0, 0.0010874075668108978
433.0, 0.0027245724663746414
434.0, 0.000992106884242998
435.0, 0.002119952461012024
436.0, 0.003326571757501292
437.0, 0.0025779465720134013
438.0, 0.004712367192592499
439.0, 0.006190587159172233
440.0, 0.006579700210149604
441.0, 0.005491449895524267
442.0, 0.01005474532155131
443.0, 0.011803436275476243
444.0, 0.013586213506908312
445.0, 0.01834421598918647
446.0, 0.02072070379489831
447.0, 0.02943149807180598
448.0, 0.04186591405569592
449.0, 0.0549886700690843
450.0, 0.07732393099832184
451.0, 0.11449143175398763
452.0, 0.16504578725787183
453.0, 0.22752594816119348
454.0, 0.33073919894900816
455.0, 0.4306185228842902
456.0, 0.5179767609543938
457.0, 0.5818353109689188
458.0, 0.5492029982712292
459.0, 0.47018390045869146
460.0, 0.3700000073560411
461.0, 0.2814405213373306
462.0, 0.21168407123832508
463.0, 0.1569243097684778
464.0, 0.11561407822376499
465.0, 0.08639410046543969
466.0, 0.06594871037462909
467.0, 0.0542320024898653
468.0, 0.04710933929932079
469.0, 0.03805066648995698
470.0, 0.03226989126466454
471.0, 0.028732741869815396
472.0, 0.02550423936930001
473.0, 0.01949467838037849
474.0, 0.02008225403215168
475.0, 0.017737592809913678
476.0, 0.014660713902902404
477.0, 0.015707018955826275
478.0, 0.013613952334736905
479.0, 0.010788306703878644
480.0, 0.009183650202647418
481.0, 0.01182105054055944
482.0, 0.007574358936818479
483.0, 0.006396383319052607
484.0, 0.007835756276814144
485.0, 0.010083278477704464
486.0, 0.006828887519782551
487.0, 0.007719730898406408
488.0, 0.010570904976211645
489.0, 0.011003726129732981
490.0, 0.010399852603144228
491.0, 0.010189199263814655
492.0, 0.009063720926711436
493.0, 0.004917849432796512
494.0, 0.006510336587610413
495.0, 0.004943157798172899
496.0, 0.0034239317785949106
497.0, 0.007072227597896136
498.0, 0.0032050829764580903
499.0, 0.0009480594051023709
500.0, 0.0006264974575296168
501.0, 0.002202852950474189
502.0, 0.001935645440309554
503.0, 0.0020529738217939936
504.0, 0.0019143819985750084
505.0, 0.0006955140343854365
506.0, 0.001520712472481656
507.0, 0.0018553565932767947
508.0, 0.0015423548568405101
509.0, 0.00046076496655615717
510.0, 0.0008932698997804082
511.0, 0.0010510324725988218
512.0, 0.0011963385796132128
513.0, 0.0015652706970187631
514.0, 0.0015977104477939061
515.0, 0.0010681856210408706
516.0, 0.0009342059264064542
517.0, 0.001874713641260016
518.0, 0.0011369211040522
519.0, 0.0033137275008173657
520.0, 0.005133563440240165
521.0, 0.0044460072270818924
522.0, 0.003670950296709198
523.0, 0.0044882587849217545
524.0, 0.003872818643221136
525.0, 0.0007576198220938621
526.0, 0.003270519727000377
527.0, 0.001769239427604265
528.0, 0.00028150974500922016
529.0, 0.0006961321169387813
530.0, 0.002194921233634308
531.0, 0.0018829163697622363
532.0, 0.0019317773983147683
533.0, 0.0027039030475338524
534.0, 0.0012046313601628703
535.0, 0.0006746635505382038
536.0, 0.0012061825857408116
537.0, 0.002278380439319726
538.0, 0.0014392655957276674
539.0, 0.003127066098839282
540.0, 0.003271414732311982
541.0, 0.0019429572730620616
542.0, 0.002823439591889431
543.0, 0.003992012454098916
544.0, 0.004897063639908474
545.0, 0.005997619242680113
546.0, 0.008754181599429284
547.0, 0.008953865505603729
548.0, 0.011494391488628092
549.0, 0.014318633876433048
550.0, 0.012117062873780716
551.0, 0.00979538154884577
552.0, 0.00965347135020006
553.0, 0.011302195584486691
554.0, 0.0138831293264571
555.0, 0.01658077737891242
556.0, 0.019383946988105374
557.0, 0.02356381482592195
558.0, 0.03050943617726785
559.0, 0.03625016502400504
560.0, 0.03618240389722311
561.0, 0.03502387728433943
562.0, 0.03627844512221713
563.0, 0.027547009076214095
564.0, 0.021467956947220018
565.0, 0.01798240174031723
566.0, 0.01637565426803969
567.0, 0.009794336861279715
568.0, 0.009720819576371496
569.0, 0.00849065573487977
570.0, 0.003893694223660584
571.0, 0.003340323498507168
572.0, 0.00524233625287659
573.0, 0.004657373962123585
574.0, 0.0019507237844730188
575.0, 0.0045132300223780985
576.0, 0.0018487053047377463
577.0, 0.0006409794032410287
578.0, 0.001560190805327306
579.0, 0.0027880405566734845
580.0, 0.001978143280785543
581.0, 0.001431700696091264
582.0, 0.0010568752730134193
583.0, 0.00020013111938780518
584.0, 0.0009936721322680235
585.0, 0.0035350031175205555
586.0, 0.004772426968024011
587.0, 0.0011395872504406897
588.0, 0.0024839921164180622
589.0, 0.0019038423577140895
590.0, 0.001393916935858623
591.0, 0.002396222985840835
592.0, 0.0013969381538646822
593.0, 0.0024242726910505964
594.0, 0.0040024616243121425
595.0, 0.004787320967321989
596.0, 0.0009185035238231415
597.0, 0.0005481506256523185
598.0, 0.0016377432218427765
599.0, 0.003376820334909003
600.0, 0.005373018096656201
601.0, 0.004920816226739519
602.0, 0.003911891875015982
603.0, 0.0028356326230848656
604.0, 0.0019170493612961762
605.0, 0.0035568533837666643
606.0, 0.003335092004900087
607.0, 0.003094667167827434
608.0, 0.006368473502916463
609.0, 0.0030891058440060933
610.0, 0.003693733219310804
611.0, 0.004260076597235242
612.0, 0.0009936687665377767
613.0, 0.0033849234745712193
614.0, 0.005500636046338672
615.0, 0.005276033200307403
616.0, 0.0025260254160489274
617.0, 0.005939133108796478
618.0, 0.0072502030367441374
619.0, 0.007072275672239781
620.0, 0.006757160497267408
621.0, 0.01083985225677385
622.0, 0.008589021990371022
623.0, 0.009320033665990412
624.0, 0.012451432004957637
625.0, 0.012311119573439937
626.0, 0.010155030093639507
627.0, 0.0113543148108511
628.0, 0.012518226304961485
629.0, 0.008533087847498583
630.0, 0.010795865424541593
631.0, 0.01185180693901114
632.0, 0.011026707773009486
633.0, 0.00848885589020345
634.0, 0.012345274203131225
635.0, 0.012244288147728316
636.0, 0.013808054408146081
637.0, 0.018374984324787833
638.0, 0.019346070186666856
639.0, 0.021271277650860065
640.0, 0.02551290280153154
641.0, 0.03126683649663844
642.0, 0.035539807488335795
643.0, 0.05080561188388183
644.0, 0.054851733287512604
645.0, 0.04861006885736026
646.0, 0.03722706786526596
647.0, 0.03293967347260208
648.0, 0.028208706742275814
649.0, 0.02287915747651994
650.0, 0.01730145404181981
651.0, 0.016281574312790086
652.0, 0.013300222675693047
653.0, 0.010793222746166644
654.0, 0.009328810613058798
655.0, 0.006487177220433243
656.0, 0.007421379273808623
657.0, 0.0070815946223165395
658.0, 0.005508441298067669
659.0, 0.005373746473860958
660.0, 0.003885957544737439
661.0, 0.002822104095974047
662.0, 0.0018565190497122016
663.0, 0.000502547977466717
664.0, 0.003518167436137116
665.0, 0.0036977795153280155
666.0, 0.003995242762828944
667.0, 0.005468068547208158
668.0, 0.0013140891737780569
669.0, 0.002050275632511697
670.0, 0.002165606246369859
671.0, 0.0009267165092215978
672.0, 0.001736616647121634
673.0, 0.0030197751080835826
674.0, 0.002303115244399798
675.0, 0.0010271709318167253
676.0, 0.0019278846535514267
677.0, 0.003312169595817831
678.0, 0.0019491030843526954
679.0, 0.0005809747720567027
680.0, 0.0012436750779444394
681.0, 0.0012420329778692928
682.0, 0.0016604278533405455
683.0, 0.0017345695392423964
684.0, 0.0012033331071781548
685.0, 0.00023035514067851236
686.0, 0.0022914841670066957
687.0, 0.0026928004192979587
688.0, 0.0021072399589855766
689.0, 0.00305550605750992
690.0, 0.0009187049589668942
691.0, 0.0004356170163399006
692.0, 0.0006318249183904158
693.0, 0.0005178676252643664
694.0, 0.0001364218967991225
695.0, 0.0009728275159772758
696.0, 0.0014414284182955681
697.0, 0.0011864773698337999
698.0, 0.0013156107077024212
699.0, 0.0036055333110252153
700.0, 0.0032484802604255676
701.0, 0.0017770049699264879
702.0, 0.0030197768301313153
703.0, 0.0019574644814361226
704.0, 0.0009004352371928176
705.0, 0.0008020509083240694
706.0, 0.001986610678178411
707.0, 0.0009071048054764724
708.0, 0.0018563947445625647
709.0, 0.0018776265288002305
710.0, 0.0006657573843559753
711.0, 0.0006318182040899189
712.0, 0.00034856765982839747
713.0, 0.0017512840638325678
714.0, 0.0033037998280991228
715.0, 0.0025965083434540803
716.0, 0.0009255448354230968
717.0, 0.00030076609258261345
718.0, 0.0009613289939215
719.0, 0.0026070033646168065
720.0, 0.0026164544633575505
721.0, 0.0012883222223315533
722.0, 0.0004105916318889422
723.0, 0.0004940601328500334
724.0, 0.0015872533129606026
725.0, 0.0007630304012436127
726.0, 0.0005134746663199121
727.0, 0.0006610186437530012
728.0, 0.0008205555206382665
729.0, 0.000763066410360345
730.0, 0.0007913668957079058
731.0, 0.0011404811843286253
732.0, 0.00168282969805718
733.0, 0.0015605012716210437
734.0, 0.0014397096302258307
735.0, 0.001373545744169727
736.0, 0.0011244614611053579
737.0, 0.00035026681303150444
738.0, 0.0011555822866390387
739.0, 0.0009401071908713891
740.0, 0.0009434312710328171
741.0, 0.001999400498093745
742.0, 0.004166721941954572
743.0, 0.002389634967952308
744.0, 0.0023199739697065424
745.0, 0.003339809009766349
746.0, 0.0011956346701516606
747.0, 0.000837516060280203
748.0, 0.0015450104740288432
749.0, 0.00211178709073014
750.0, 0.0017214309946092074
751.0, 0.0024817937389139686
752.0, 0.0019321897042617884
753.0, 0.0015896865704527576
754.0, 0.0016305368164248298
755.0, 0.0010717689559574754
756.0, 0.001172454853775739
757.0, 0.0022172062049293974
758.0, 0.0025199562605359807
759.0, 0.0006157230402939005
760.0, 0.0025662680412661394
761.0, 0.004802032291021682
762.0, 0.004580943633977446
763.0, 0.0023967077962737194
764.0, 0.004007934394575442
765.0, 0.0028586033044645832
766.0, 0.0021686602450486977
767.0, 0.002442503509749858
768.0, 0.003601804911893718
769.0, 0.0018166926664072902
770.0, 0.002522221703794676
771.0, 0.00222519593571836
772.0, 0.0006571887901784005
773.0, 0.003807829035110865
774.0, 0.0037577782087391213
775.0, 0.0020765021970501492
776.0, 0.0009485043196533473
777.0, 0.002898394970913681
778.0, 0.003828874989635679
779.0, 0.002151767511963964
780.0, 0.002455796728103211
781.0, 0.005520293640818504
782.0, 0.004074311572244201
783.0, 0.004817212186849195
784.0, 0.005616553942610667
785.0, 0.005737824494542677
786.0, 0.0047881709305845
787.0, 0.008068346224861246
788.0, 0.00587749384138811
789.0, 0.004090230635993725
790.0, 0.005428092970131849
791.0, 0.0076510245091851075
792.0, 0.0042598642004253225
793.0, 0.005228167091270639
794.0, 0.007490284040305771
795.0, 0.004965698120518736
796.0, 0.00815543032888276
797.0, 0.009266776815156419
798.0, 0.008628502326240342
799.0, 0.007390907795067003
800.0, 0.009057201206060465
801.0, 0.009070401230116097
802.0, 0.011245572615757702
803.0, 0.013195898534253134
804.0, 0.011478139999511508
805.0, 0.00825277365627917
806.0, 0.011464890979311356
807.0, 0.01251378530986021
808.0, 0.01004062286782662
809.0, 0.011867029618788993
810.0, 0.012437264507245898
811.0, 0.01238768754142822
812.0, 0.013135939536926867
813.0, 0.015573354451974834
814.0, 0.013687939273829178
815.0, 0.015261192525368826
816.0, 0.01813951081043971
817.0, 0.020015452977167038
818.0, 0.0172508387511264
819.0, 0.017240614794103833
820.0, 0.018735495923930656
821.0, 0.01932370273035225
822.0, 0.018292574619646087
823.0, 0.024648764994273882
824.0, 0.024976843570096562
825.0, 0.02523825247063539
826.0, 0.02769569810964747
827.0, 0.03346057066625216
828.0, 0.033220096807814486
829.0, 0.037582932253618064
830.0, 0.041294415889307254
831.0, 0.0418787567985119
832.0, 0.04377668109329846
833.0, 0.04886427010688043
834.0, 0.053261789059666075
835.0, 0.05826704832499254
836.0, 0.06618106701597308
837.0, 0.07316563719180735
838.0, 0.08503924142674592
839.0, 0.09883986593403954
840.0, 0.11395579524254788
841.0, 0.13238142305520867
842.0, 0.157306257890665
843.0, 0.18269156136352432
844.0, 0.21119411677105857
845.0, 0.244981432267537
846.0, 0.2802234187884757
847.0, 0.3139297206827747
848.0, 0.34400575121849764
849.0, 0.36990076851517517
850.0, 0.39188632567969167
851.0, 0.42552220630601506
852.0, 0.4443267967383785
853.0, 0.4623446246338757
854.0, 0.4818882408186338
855.0, 0.47986456738439603
856.0, 0.4732920997035765
857.0, 0.4542174264818034
858.0, 0.4224840821767712
859.0, 0.3801696439083974
860.0, 0.3324285208455331
861.0, 0.2900085775518785
862.0, 0.2520658050000248
863.0, 0.21946244976316376
864.0, 0.19422375544504938
865.0, 0.1677968295225043
866.0, 0.1469899693415578
867.0, 0.13215782164202777
868.0, 0.12190300712900665
869.0, 0.11079373346191324
870.0, 0.10102505838187159
871.0, 0.09262361790750002
872.0, 0.08573432257295688
873.0, 0.08026369655334006
874.0, 0.07426929535993357
875.0, 0.07397449368823582
876.0, 0.06983824985725125
877.0, 0.062379777391624085
878.0, 0.058948094420540324
879.0, 0.05867211439042191
880.0, 0.056116207427790415
881.0, 0.052630860324556786
882.0, 0.04930937127085809
883.0, 0.04675818165860422
884.0, 0.05067158084322118
885.0, 0.05002821492896092
886.0, 0.04714470829017724
887.0, 0.04599908567484664
888.0, 0.04744354396216329
889.0, 0.046973416371385704
890.0, 0.04762761710011046
891.0, 0.04964182615360462
892.0, 0.05189253758860162
893.0, 0.05074232138743529
894.0, 0.053543012086101266
895.0, 0.06337555580421282
896.0, 0.07600459079644119
897.0, 0.07542493987857972
898.0, 0.07005392796681685
899.0, 0.0699753833222916
900.0, 0.07270873796228555
901.0, 0.07571052473342708
902.0, 0.07993801796517269
903.0, 0.08907476306816342
904.0, 0.09452690193804464
905.0, 0.09816560510802219
906.0, 0.10451688490429104
907.0, 0.11639010378450992
908.0, 0.1261750595284898
909.0, 0.13484013692415422
910.0, 0.144798132184067
911.0, 0.1597847976867826
912.0, 0.17326725833905923
913.0, 0.19243409268458944
914.0, 0.2149621575759136
915.0, 0.24005876229665732
916.0, 0.26951249775440483
917.0, 0.3006291118766689
918.0, 0.3397924645482532
919.0, 0.38150077567949997
920.0, 0.42204421993181446
921.0, 0.46772691825120144
922.0, 0.5095180258564868
923.0, 0.5459008438790738
924.0, 0.572561076080118
925.0, 0.5861790769028142
926.0, 0.5934661697019996
927.0, 0.5709805937676131
928.0, 0.5478849417138124
929.0, 0.5223518439218647
930.0, 0.47922781888991434
931.0, 0.43945641836826826
932.0, 0.4052818522479675
933.0, 0.3733153815238471
934.0, 0.34289857074275537
935.0, 0.31589620686124337
936.0, 0.286895589160059
937.0, 0.254925757291424
938.0, 0.22694455663443597
939.0, 0.20456632696232332
940.0, 0.17928652532376047
941.0, 0.16005522965843055
942.0, 0.13803104371414693
943.0, 0.1211265531765399
944.0, 0.11312185900408675
945.0, 0.0986944338771805
946.0, 0.0954762256117239
947.0, 0.08690921788076462
948.0, 0.0772419893014449
949.0, 0.07306923756305723
950.0, 0.06907595984103823
951.0, 0.06152351583213428
952.0, 0.05592361657234862
953.0, 0.05301667195934124
954.0, 0.05152839962642039
955.0, 0.046291882142018216
956.0, 0.045216976004955785
957.0, 0.04053282338574583
958.0, 0.03422106227908093
959.0, 0.03390062361420487
960.0, 0.03633786715410771
961.0, 0.03385709132947716
962.0, 0.03109909268648575
963.0, 0.029575051017793078
964.0, 0.028101598215082506
965.0, 0.021886383644933078
966.0, 0.02423420596996904
967.0, 0.026010929243568816
968.0, 0.02337363573101319
969.0, 0.019913891927946053
970.0, 0.025701475559611966
971.0, 0.021779101002216732
972.0, 0.018679682752357665
973.0, 0.021234534729038156
974.0, 0.020127909375998555
975.0, 0.017764966755972552
976.0, 0.019364126695346543
977.0, 0.01995126562339877
978.0, 0.016562141968133322
979.0, 0.014198488629230661
980.0, 0.014867591671100943
981.0, 0.014497823679623245
982.0, 0.012905865707527954
983.0, 0.011474769927741817
984.0, 0.015758090555656325
985.0, 0.011363227754725749
986.0, 0.011718483210059895
987.0, 0.011851144159238814
988.0, 0.006877483983127524
989.0, 0.010444776884778193
990.0, 0.01031901286002759
991.0, 0.0077878507834575365
992.0, 0.007199222804532951
993.0, 0.011278739207934117
994.0, 0.006945650369883857
995.0, 0.007694855161914401
996.0, 0.00998467703008567
997.0, 0.010765759836150772
998.0, 0.008578973724685714
999.0, 0.014435370132531319
1000.0, 0.016315378686080007
1001.0, 0.016802558573815504
1002.0, 0.018588425877479917
1003.0, 0.02325284139071054
1004.0, 0.020354734314593715
1005.0, 0.023969328278616725
1006.0, 0.026428294233805227
1007.0, 0.02620972726201481
1008.0, 0.02478831661185676
1009.0, 0.029812778789406746
1010.0, 0.02577233160296964
1011.0, 0.02414703337713995
1012.0, 0.024824328664902452
1013.0, 0.023026126341230108
1014.0, 0.01845358656253148
1015.0, 0.02106993540679182
1016.0, 0.01915176684502465
1017.0, 0.014589912512854563
1018.0, 0.014600092657943008
1019.0, 0.014566779597780763
1020.0, 0.008732520384367424
1021.0, 0.009643977215046324
1022.0, 0.013988121352412682
1023.0, 0.012200510239378185
1024.0, 0.008633846832899025
1025.0, 0.011812413106405817
1026.0, 0.010493221879350121
1027.0, 0.007078428688851038
1028.0, 0.008764903674729752
1029.0, 0.00840107491765945
1030.0, 0.00466390298487375
1031.0, 0.005670599415753411
1032.0, 0.008018516808867103
1033.0, 0.005140756064346342
1034.0, 0.006156655486317103
1035.0, 0.007599771163398768
1036.0, 0.005284635594852007
1037.0, 0.003603988192618414
1038.0, 0.008058566953927331
1039.0, 0.007378428174130817
1040.0, 0.005877320065059956
1041.0, 0.008512800457225607
1042.0, 0.010033462203760996
1043.0, 0.004875140126333092
1044.0, 0.006607976964720314
1045.0, 0.007924448147323682
1046.0, 0.005144825723789043
1047.0, 0.003839919190424531
1048.0, 0.008506353855660767
1049.0, 0.005663612553967461
1050.0, 0.003730044672474158
1051.0, 0.00614176411920784
1052.0, 0.006435163518494244
1053.0, 0.0011414821663409415
1054.0, 0.006711040307216272
1055.0, 0.006951660521112016
1056.0, 0.0033568085523539046
1057.0, 0.0022093212861960866
1058.0, 0.0060735430589780905
1059.0, 0.004486207023804941
1060.0, 0.004376453347696832
1061.0, 0.006979214477119385
1062.0, 0.007632285136605558
1063.0, 0.004975014385526758
1064.0, 0.006152617376501264
1065.0, 0.006586360711641539
1066.0, 0.0040523172394058725
1067.0, 0.004922148907233907
1068.0, 0.008645524665924754
1069.0, 0.002988540321423613
1070.0, 0.004813705889184904
1071.0, 0.007031572850762985
1072.0, 0.006068356529679026
1073.0, 0.004171349730268165
1074.0, 0.00957929684700641
1075.0, 0.007397568113124186
1076.0, 0.0041802877335307825
1077.0, 0.004442074411202282
1078.0, 0.006185198545393643
1079.0, 0.003314358066229861
1080.0, 0.007316136942171338
1081.0, 0.008826698695964209
1082.0, 0.006111360064798059
1083.0, 0.003922095475895692
1084.0, 0.008443198633546737
1085.0, 0.008935338328077589
1086.0, 0.004369255843679362
1087.0, 0.004717574634415157
1088.0, 0.006444091950454499
1089.0, 0.004256946657205765
1090.0, 0.005619748737755567
1091.0, 0.006897397750105311
1092.0, 0.005261996064661007
1093.0, 0.0046617458371620655
1094.0, 0.0064522822733080985
1095.0, 0.0009581927183650368
1096.0, 0.0036062723347908172
1097.0, 0.007768673732658367
1098.0, 0.006608289544776594
1099.0, 0.0017564410625964043
1100.0, 0.008652233618387248
1101.0, 0.0057914649831697015
1102.0, 0.004738157417995631
1103.0, 0.005755630455629765
1104.0, 0.006586549676930179
1105.0, 0.0032191716508107016
1106.0, 0.0014993935074285494
1107.0, 0.0028504796539975787
1108.0, 0.0025008946962263583
1109.0, 0.001507544396316271
1110.0, 0.003265094371792667
1111.0, 0.003161371934816704
1112.0, 0.0010183312996422055
1113.0, 0.003977022643492039
1114.0, 0.006312917381654097
1115.0, 0.00235752647549051
1116.0, 0.001805725050724217
1117.0, 0.0026827082944841625
1118.0, 0.0016441536721916337
1119.0, 0.0017817714180555504
1120.0, 0.004178394577895558
1121.0, 0.004139806934773611
1122.0, 0.003023235818593531
1123.0, 0.00676803734292124
1124.0, 0.005837920015545671
1125.0, 0.0007617567733398635
1126.0, 0.002469331348808372
1127.0, 0.005151831845919126
1128.0, 0.0033391715577394806
1129.0, 0.004193495857060004
1130.0, 0.004995787346931525
1131.0, 0.00032887494340198614
1132.0, 0.002428595528727956
1133.0, 0.0059754821981774925
1134.0, 0.003851253110161363
1135.0, 0.0008155828763905147
1136.0, 0.0020192520345451576
1137.0, 0.0051122073434504535
1138.0, 0.0025314089610808652
1139.0, 0.004822502383854869
1140.0, 0.004697882087240241
1141.0, 0.0006144275084015319
1142.0, 0.0007067270807580364
1143.0, 0.007569419087092733
1144.0, 0.006432607552303062
1145.0, 0.004836605776926822
1146.0, 0.0047388966227625545
1147.0, 0.004613599707282263
1148.0, 0.005297598582828064
1149.0, 0.0069867323520543005
1150.0, 0.0050147018138359005
1151.0, 0.002044065992293366
1152.0, 0.002140000826815872
1153.0, 0.007499982040257492
1154.0, 0.0031340522444887045
1155.0, 0.0025638423504939236
1156.0, 0.002283332952517135
1157.0, 0.0008779009141399426
1158.0, 0.0015090120782255815
1159.0, 0.004108696862682395
1160.0, 0.004906416650673472
1161.0, 0.004451854847773327
1162.0, 0.005439835418326431
1163.0, 0.009254159016066368
1164.0, 0.0013847414319773659
1165.0, 0.004540671991149143
1166.0, 0.006043701798542841
1167.0, 0.004472775767058467
1168.0, 0.0028859978565395827
1169.0, 0.008850710718558176
1170.0, 0.0028926640694652197
1171.0, 0.0010116704417103464
1172.0, 0.003662384440697022
1173.0, 0.006027745863248364
1174.0, 0.0010094282047319947
1175.0, 0.0033052910092179833
1176.0, 0.004236683832466665
1177.0, 0.0030778649584218354
1178.0, 0.0043047347241369
1179.0, 0.009378644592089298
1180.0, 0.0031154819751653576
1181.0, 0.0012838221723925872
1182.0, 0.005471839443786432
1183.0, 0.00616760937112013
1184.0, 0.002938497388104577
1185.0, 0.007208517751746542
1186.0, 0.0037522176209747508
1187.0, 0.0024124007821789755
1188.0, 0.005644569174423612
1189.0, 0.007082082575705625
1190.0, 0.000664666344616507
1191.0, 0.0004430257902689925
1192.0, 0.005542937823420323
1193.0, 0.003536916639564631
1194.0, 0.0020116028312056286
1195.0, 0.004224444942781565
1196.0, 0.002738332461796601
1197.0, 0.0007877156620356899
1198.0, 0.0036655022838636146
1199.0, 0.0036231824718863533
1200.0, 0.0015837789022072354
1201.0, 0.002775483762550498
1202.0, 0.009710400207623539
1203.0, 0.002908435324619591
1204.0, 0.004001280759025557
1205.0, 0.0077921016001891745
1206.0, 0.007490583160643723
1207.0, 0.0012800778742843725
1208.0, 0.007503937337103339
1209.0, 0.004929863142109776
1210.0, 0.0033284807941498075
1211.0, 0.005796461932561108
1212.0, 0.00992854407687848
1213.0, 0.005729100090180578
1214.0, 0.007300865914439958
1215.0, 0.009441656884784426
1216.0, 0.008056647979753716
1217.0, 0.004884143491415239
1218.0, 0.008712764752280824
1219.0, 0.008461555442488528
1220.0, 0.005304355313843601
1221.0, 0.008580884330912798
1222.0, 0.011981349281614534
1223.0, 0.007520159022553287
1224.0, 0.0080906873830958
1225.0, 0.007870785794449024
1226.0, 0.005609085796697532
1227.0, 0.007492424994099405
1228.0, 0.011069067243517486
1229.0, 0.00536913154272831
1230.0, 0.004838999934033712
1231.0, 0.00953202921645316
1232.0, 0.009324694276746596
1233.0, 0.007161715354598114
1234.0, 0.008428421871119973
1235.0, 0.013088592869684997
1236.0, 0.004307621734750373
1237.0, 0.009027490369211208
1238.0, 0.010444749851794173
1239.0, 0.006229869952556435
1240.0, 0.00649294135920465
1241.0, 0.015460057139698828
1242.0, 0.0075513251181253405
1243.0, 0.004191298497495713
1244.0, 0.00666251689054944
1245.0, 0.009667687885935613
1246.0, 0.004899183255611664
1247.0, 0.00962860654591066
1248.0, 0.009879461339140931
1249.0, 0.006872671871483053
1250.0, 0.007262307881976682
1251.0, 0.013715628337222872
1252.0, 0.0066970604825513326
1253.0, 0.009214281633081876
1254.0, 0.012221928909454217
1255.0, 0.00907396775001506
1256.0, 0.0052829222634321205
1257.0, 0.012850279507189581
1258.0, 0.005705844132789871
1259.0, 0.0031539341787806987
1260.0, 0.010435030634424995
1261.0, 0.01338005908850534
1262.0, 0.0061659060488937064
1263.0, 0.004757072653847889
1264.0, 0.012855453921789323
1265.0, 0.010213894073501213
1266.0, 0.010014578744429101
1267.0, 0.011796378005864213
1268.0, 0.009836309836954533
1269.0, 0.0028572352507089355
1270.0, 0.01478045923335701
1271.0, 0.011130530725115693
1272.0, 0.006256532351330272
1273.0, 0.008323259136582172
1274.0, 0.014477650404076494
1275.0, 0.005189016589547131
1276.0, 0.009001400206365438
1277.0, 0.009114291525878804
1278.0, 0.005282022790395426
1279.0, 0.0037458443786920937
1280.0, 0.01300707533383673
1281.0, 0.010450689272376737
1282.0, 0.00670894480554203
1283.0, 0.007967993794843453
1284.0, 0.008008707386646743
1285.0, 0.0038970554468160607
1286.0, 0.007734152861246112
1287.0, 0.012119472405161568
1288.0, 0.005188992572084612
1289.0, 0.00569213195286424
1290.0, 0.010586898478422315
1291.0, 0.009306869501757629
1292.0, 0.006441590211900357
1293.0, 0.00991032908226545
1294.0, 0.005689744599428482
1295.0, 0.004850707809468116
1296.0, 0.010169305453879411
1297.0, 0.014895508197475118
1298.0, 0.004153051586643305
1299.0, 0.008326391780370389
1300.0, 0.009135157023443563
1301.0, 0.0054773464689653025
1302.0, 0.004884589022900974
1303.0, 0.016376958617438746
1304.0, 0.005624956246167844
1305.0, 0.003942088985698762
1306.0, 0.008322455374208955
1307.0, 0.009632199416862448
1308.0, 0.006054707309972485
1309.0, 0.007664240168261129
1310.0, 0.01258582177061345
1311.0, 0.004831081244186813
1312.0, 0.007509889294323899
1313.0, 0.012272055041980073
1314.0, 0.008319510698214488
1315.0, 3.9848363568183414e-05
1316.0, 6.446550015640279e-06
1317, 0.0
1318, 0.0
1319, 0.0
1320, 0.0
1321, 0.0
1322, 0.0
1323, 0.0
1324, 0.0
1325, 0.0
1326, 0.0
1327, 0.0
1328, 0.0
1329, 0.0
1330, 0.0
1331, 0.0
1332, 0.0
1333, 0.0
1334, 0.0
1335, 0.0
1336, 0.0
1337, 0.0
1338, 0.0
1339, 0.0
1340, 0.0
1341, 0.0
1342, 0.0
1343, 0.0
1344, 0.0
1345, 0.0
1346, 0.0
1347, 0.0
1348, 0.0
1349, 0.0
1350, 0.0
1351, 0.0
1352, 0.0
1353, 0.0
1354, 0.0
1355, 0.0
1356, 0.0
1357, 0.0
1358, 0.0
1359, 0.0
1360, 0.0
1361, 0.0
1362, 0.0
1363, 0.0
1364, 0.0
1365, 0.0
1366, 0.0
1367, 0.0
1368, 0.0
1369, 0.0
1370, 0.0
1371, 0.0
1372, 0.0
1373, 0.0
1374, 0.0
1375, 0.0
1376, 0.0
1377, 0.0
1378, 0.0
1379, 0.0
1380, 0.0
1381, 0.0
1382, 0.0
1383, 0.0
1384, 0.0
1385, 0.0
1386, 0.0
1387, 0.0
1388, 0.0
1389, 0.0
1390, 0.0
1391, 0.0
1392, 0.0
1393, 0.0
1394, 0.0
1395, 0.0
1396, 0.0
1397, 0.0
1398, 0.0
1399, 0.0
1400, 0.0
1401, 0.0
1402, 0.0
1403, 0.0
1404, 0.0
1405, 0.0
1406, 0.0
1407, 0.0
1408, 0.0
1409, 0.0
1410, 0.0
1411, 0.0
1412, 0.0
1413, 0.0
1414, 0.0
1415, 0.0
1416, 0.0
1417, 0.0
1418, 0.0
1419, 0.0
1420, 0.0
1421, 0.0
1422, 0.0
1423, 0.0
1424, 0.0
1425, 0.0
1426, 0.0
1427, 0.0
1428, 0.0
1429, 0.0
1430, 0.0
1431, 0.0
1432, 0.0
1433, 0.0
1434, 0.0
1435, 0.0
1436, 0.0
1437, 0.0
1438, 0.0
1439, 0.0
1440, 0.0
1441, 0.0
1442, 0.0
1443, 0.0
1444, 0.0
1445, 0.0
1446, 0.0
1447, 0.0
1448, 0.0
1449, 0.0
1450, 0.0
1451, 0.0
1452, 0.0
1453, 0.0
1454, 0.0
1455, 0.0
1456, 0.0
1457, 0.0
1458, 0.0
1459, 0.0
1460, 0.0
1461, 0.0
1462, 0.0
1463, 0.0
1464, 0.0
1465, 0.0
1466, 0.0
1467, 0.0
1468, 0.0
1469, 0.0
1470, 0.0
1471, 0.0
1472, 0.0
1473, 0.0
1474, 0.0
1475, 0.0
1476, 0.0
1477, 0.0
1478, 0.0
1479, 0.0
1480, 0.0
1481, 0.0
1482, 0.0
1483, 0.0
1484, 0.0
1485, 0.0
1486, 0.0
1487, 0.0
1488, 0.0
1489, 0.0
1490, 0.0
1491, 0.0
1492, 0.0
1493, 0.0
1494, 0.0
1495, 0.0
1496, 0.0
1497, 0.0
1498, 0.0
1499, 0.0
1500, 0.0
1501, 0.0
1502, 0.0
1503, 0.0
1504, 0.0
1505, 0.0
1506, 0.0
1507, 0.0
1508, 0.0
1509, 0.0
1510, 0.0
1511, 0.0
1512, 0.0
1513, 0.0
1514, 0.0
1515, 0.0
1516, 0.0
1517, 0.0
1518, 0.0
1519, 0.0
1520, 0.0
1521, 0.0
1522, 0.0
1523, 0.0
1524, 0.0
1525, 0.0
1526, 0.0
1527, 0.0
1528, 0.0
1529, 0.0
1530, 0.0
1531, 0.0
1532, 0.0
1533, 0.0
1534, 0.0
1535, 0.0
1536, 0.0
1537, 0.0
1538, 0.0
1539, 0.0
1540, 0.0
1541, 0.0
1542, 0.0
1543, 0.0
1544, 0.0
1545, 0.0
1546, 0.0
1547, 0.0
1548, 0.0
1549, 0.0
1550, 0.0
1551, 0.0
1552, 0.0
1553, 0.0
1554, 0.0
1555, 0.0
1556, 0.0
1557, 0.0
1558, 0.0
1559, 0.0
1560, 0.0
1561, 0.0
1562, 0.0
1563, 0.0
1564, 0.0
1565, 0.0
1566, 0.0
1567, 0.0
1568, 0.0
1569, 0.0
1570, 0.0
1571, 0.0
1572, 0.0
1573, 0.0
1574, 0.0
1575, 0.0
1576, 0.0
1577, 0.0
1578, 0.0
1579, 0.0
1580, 0.0
1581, 0.0
1582, 0.0
1583, 0.0
1584, 0.0
1585, 0.0
1586, 0.0
1587, 0.0
1588, 0.0
1589, 0.0
1590, 0.0
1591, 0.0
1592, 0.0
1593, 0.0
1594, 0.0
1595, 0.0
1596, 0.0
1597, 0.0
1598, 0.0
1599, 0.0
