30, 0.0
31, 0.0
32, 0.0
33, 0.0
34, 0.0
35, 0.0
36, 0.0
37, 0.0
38, 0.0
39, 0.0
40, 0.0
41, 0.0
42, 0.0
43, 0.0
44, 0.0
45, 0.0
46, 0.0
47, 0.0
48, 0.0
49, 0.0
50, 0.0
51, 0.0
52, 0.0
53, 0.0
54, 0.0
55, 0.0
56, 0.0
57, 0.0
58, 0.0
59, 0.0
60, 0.0
61, 0.0
62, 0.0
63, 0.0
64, 0.0
65, 0.0
66, 0.0
67, 0.0
68, 0.0
69, 0.0
70, 0.0
71, 0.0
72, 0.0
73, 0.0
74, 0.0
75, 0.0
76, 0.0
77, 0.0
78, 0.0
79, 0.0
80, 0.0
81, 0.0
82, 0.0
83, 0.0
84, 0.0
85, 0.0
86, 0.0
87, 0.0
88, 0.0
89, 0.0
90, 0.0
91, 0.0
92, 0.0
93, 0.0
94, 0.0
95, 0.0
96, 0.0
97, 0.0
98, 0.0
99, 0.0
100, 0.0
101, 0.0
102, 0.0
103, 0.0
104, 0.0
105, 0.0
106, 0.0
107, 0.0
108, 0.0
109, 0.0
110, 0.0
111, 0.0
112, 0.0
113, 0.0
114, 0.0
115, 0.0
116, 0.0
117, 0.0
118, 0.0
119, 0.0
120, 0.0
121, 0.0
122, 0.0
123, 0.0
124, 0.0
125, 0.0
126, 0.0
127, 0.0
128, 0.0
129, 0.0
130, 0.0
131, 0.0
132, 0.0
133, 0.0
134, 0.0
135, 0.0
136, 0.0
137, 0.0
138, 0.0
139, 0.0
140, 0.0
141, 0.0
142, 0.0
143, 0.0
144, 0.0
145, 0.0
146, 0.0
147, 0.0
148, 0.0
149.0, 0.001683275802125214
150.0, 0.015627176425806688
151.0, 0.0023147468154753954
152.0, 0.014394447804771693
153.0, 0.0037653892081818295
154.0, 0.0036897617968692765
155.0, 0.014875109569785163
156.0, 0.017069014389371317
157.0, 0.009947768776937262
158.0, 0.01728340661749113
159.0, 0.026291104211821858
160.0, 0.03129868931587906
161.0, 0.043581690628294575
162.0, 0.02907811439009705
163.0, 0.020559324030766053
164.0, 0.02280054634344978
165.0, 0.015255835796814268
166.0, 0.002265663342630489
167.0, 0.006667493589725699
168.0, 0.016341104018740334
169.0, 0.01023018606241229
170.0, 0.013572222725410943
171.0, 0.02619448780470481
172.0, 0.027524088637389293
173.0, 0.015615322447222555
174.0, 0.021706314049986984
175.0, 0.03215992654409549
176.0, 0.03128902013785578
177.0, 0.022217423389931823
178.0, 0.01819486580819761
179.0, 0.011172481904965975
180.0, 0.018455525996138922
181.0, 0.03689945782966782
182.0, 0.04784148422753078
183.0, 0.009477186100088426
184.0, 0.006301389043793544
185.0, 0.02122090697228081
186.0, 0.02513979867313868
187.0, 0.0022718341393188225
188.0, 0.0062955551271423795
189.0, 0.007788121060697307
190.0, 0.0023351122234456676
191.0, 0.007018454453229343
192.0, 0.02082244805142424
193.0, 0.029077267850647282
194.0, 0.02317011966745489
195.0, 0.004303405261763953
196.0, 0.007673354816359681
197.0, 0.010315736637464906
198.0, 0.011592909356120397
199.0, 0.0074063131420854895
200.0, 0.002500706144605446
201.0, 0.01750526880192762
202.0, 0.02514345300800062
203.0, 0.02244114990519112
204.0, 0.015433676342112844
205.0, 0.023680807837978293
206.0, 0.03292705766789852
207.0, 0.032496222557975935
208.0, 0.024480847696513753
209.0, 0.024094946983501737
210.0, 0.01809397228849352
211.0, 0.02815808015921541
212.0, 0.04199094390118709
213.0, 0.038833854228347536
214.0, 0.041263949862055005
215.0, 0.03687411812603028
216.0, 0.03690549205799935
217.0, 0.045042521082941295
218.0, 0.051875604111319334
219.0, 0.06338329951222164
220.0, 0.07903135201131663
221.0, 0.08500743782930976
222.0, 0.07430994807288091
223.0, 0.08328609229734417
224.0, 0.10092541072230875
225.0, 0.1192987254409034
226.0, 0.13157801525603716
227.0, 0.1252679036759541
228.0, 0.12564914358310358
229.0, 0.10632820438093546
230.0, 0.0827591268961295
231.0, 0.0924905856972977
232.0, 0.08029246376380911
233.0, 0.059994045980747986
234.0, 0.051310908567959494
235.0, 0.05823993205704256
236.0, 0.05980821831102808
237.0, 0.043756612833337365
238.0, 0.05653784772625269
239.0, 0.08104044423293297
240.0, 0.07576233522328871
241.0, 0.047691133290334274
242.0, 0.05170604421181848
243.0, 0.05225461138913043
244.0, 0.03927696032151013
245.0, 0.05359523868655334
246.0, 0.06961579832253699
247.0, 0.05858474910438226
248.0, 0.04229305903341173
249.0, 0.04717070233499471
250.0, 0.03637330197944974
251.0, 0.03686497498273903
252.0, 0.021577412752234362
253.0, 0.006556848234435275
254.0, 0.03320743706777243
255.0, 0.04557809142982373
256.0, 0.0250325854779437
257.0, 0.005622271047371919
258.0, 0.010989103291447663
259.0, 0.02625800596234534
260.0, 0.030514776048649807
261.0, 0.01268066852957977
262.0, 0.009546312280329018
263.0, 0.04631743716323983
264.0, 0.03704821191803006
265.0, 0.020325038601206366
266.0, 0.00976292487029104
267.0, 0.007013840529219338
268.0, 0.014933916263233964
269.0, 0.029227708257919427
270.0, 0.041363656302968815
271.0, 0.04124408737142624
272.0, 0.026150716876802135
273.0, 0.030948254999223136
274.0, 0.040453018979605015
275.0, 0.03302402018431704
276.0, 0.014192687970708147
277.0, 0.009511844752043024
278.0, 0.0036318825322405788
279.0, 0.011233499961753322
280.0, 0.0297563096949308
281.0, 0.03481248693608738
282.0, 0.03575836816288532
283.0, 0.044578408488283185
284.0, 0.01842361353970637
285.0, 0.005956540517181922
286.0, 0.02874019234870564
287.0, 0.015821137390420004
288.0, 0.042232640264400594
289.0, 0.03526430856583863
290.0, 0.010424107339762213
291.0, 0.02288623541515515
292.0, 0.012146558192316761
293.0, 0.00895597913293326
294.0, 0.014863483481485133
295.0, 0.02197827180591294
296.0, 0.0215297006017429
297.0, 0.02202645430140558
298.0, 0.03038823191318621
299.0, 0.03211404899740536
300.0, 0.016780662674419543
301.0, 0.011928371897805231
302.0, 0.022388100749113144
303.0, 0.020955280482562885
304.0, 0.008554495929052715
305.0, 0.005019731940447536
306.0, 0.009272930379308247
307.0, 0.01575219595253456
308.0, 0.018056941691879647
309.0, 0.013103885429586024
310.0, 0.00211157604648649
311.0, 0.009520198167857919
312.0, 0.0033266916077743032
313.0, 0.013527093756209033
314.0, 0.009946725106850816
315.0, 0.006354886008776624
316.0, 0.020491272530655698
317.0, 0.01817999465552809
318.0, 0.00899091686818563
319.0, 0.005336481364696922
320.0, 0.003275440844480018
321.0, 0.007255099075928294
322.0, 0.01701765252109587
323.0, 0.018487835363608242
324.0, 0.0069385573997632335
325.0, 0.02004345622221545
326.0, 0.023259272145060125
327.0, 0.026406457227604485
328.0, 0.023465265791438504
329.0, 0.013138697851061282
330.0, 0.034176157703789616
331.0, 0.012421999923232164
332.0, 0.004385770050720195
333.0, 0.004245277696281982
334.0, 0.007703212272515161
335.0, 0.0026457368707302953
336.0, 0.0004712324455869916
337.0, 0.0009584699651423803
338.0, 0.007773146674179458
339.0, 0.005584008400331703
340.0, 0.01745407400284656
341.0, 0.011254685609658335
342.0, 0.009503227435639222
343.0, 0.012437702675905746
344.0, 0.002412685669669957
345.0, 0.02515792245359451
346.0, 0.02565562059874482
347.0, 0.012154996449574408
348.0, 0.003234737698879413
349.0, 0.0011818991401054458
350.0, 0.01951680014334694
351.0, 0.025432872698035718
352.0, 0.02372487471139144
353.0, 0.027210098809102214
354.0, 0.035089061662689804
355.0, 0.04364799237994037
356.0, 0.06728101031645804
357.0, 0.08402472129439627
358.0, 0.07799203002642965
359.0, 0.07622359426309895
360.0, 0.10400087178133664
361.0, 0.11561733676422124
362.0, 0.11559100254391906
363.0, 0.12504636192756624
364.0, 0.14669639850677937
365.0, 0.1713392783816195
366.0, 0.20377019136387584
367.0, 0.25102091584321495
368.0, 0.32003909130707026
369.0, 0.41507249978246225
370.0, 0.5256942905185954
371.0, 0.6945398829016188
372.0, 0.862436630339185
373.0, 0.9694483726106197
374.0, 0.9892534779418153
375.0, 0.8409920929309176
376.0, 0.607104126807924
377.0, 0.4111653228963709
378.0, 0.30719382313284493
379.0, 0.23998849994584884
380.0, 0.2059177061518775
381.0, 0.17099031492596906
382.0, 0.1434867299756112
383.0, 0.13614974173849737
384.0, 0.13735122326197569
385.0, 0.12151410234659249
386.0, 0.12167235123250134
387.0, 0.12441214597302502
388.0, 0.11861832119576508
389.0, 0.11875311443534305
390.0, 0.13910788519080877
391.0, 0.16249569405925077
392.0, 0.19780553878420665
393.0, 0.2532088698963395
394.0, 0.32285741118690653
395.0, 0.38092337542604277
396.0, 0.45587528118290827
397.0, 0.5053418234458231
398.0, 0.4898652358459751
399.0, 0.40935987807962193
400.0, 0.28159540270915434
401.0, 0.22159927042288444
402.0, 0.1986181356759402
403.0, 0.18360431660780788
404.0, 0.1905654888269247
405.0, 0.23350350888836974
406.0, 0.2529728392476723
407.0, 0.2519428599828659
408.0, 0.24363797372991924
409.0, 0.22344683215759545
410.0, 0.1719025287367829
411.0, 0.11582393197571778
412.0, 0.1053133566059612
413.0, 0.09638278106192316
414.0, 0.0603232056649239
415.0, 0.05220732911495981
416.0, 0.03720391298253254
417.0, 0.03467806987823088
418.0, 0.031479746658729144
419.0, 0.02383459118833478
420.0, 0.03874243015568278
421.0, 0.025435258484212166
422.0, 0.005166781352370131
423.0, 0.0052877240226608035
424.0, 0.020077297109334025
425.0, 0.018528408532858833
426.0, 0.018782206924019235
427.0, 0.022090885748430458
428.0, 0.017031586452076367
429.0, 0.002992522706820752
430.0, 0.007055179275138963
431.0, 0.016897002464646132
432.0, 0.017095479192403538
433.0, 0.01806806537145453
434.0, 0.01393395552671569
435.0, 0.017688756117105173
436.0, 0.008007071070859056
437.0, 0.00368608831567102
438.0, 0.00451107109721937
439.0, 0.01507497002981357
440.0, 0.014467740133966185
441.0, 0.006559915231369009
442.0, 0.014732517692228015
443.0, 0.013908425800512152
444.0, 0.0005097968349161088
445.0, 0.005374496378064396
446.0, 0.009889261608309524
447.0, 0.0013598488895270949
448.0, 0.008147093382694252
449.0, 0.018888405975884558
450.0, 0.020771350693147006
451.0, 0.019631635438191984
452.0, 0.018620918580673433
453.0, 0.027834895020003865
454.0, 0.03518112021116288
455.0, 0.02940763875157796
456.0, 0.021616896122362624
457.0, 0.03359905349503891
458.0, 0.02525078313411253
459.0, 0.05671170064719868
460.0, 0.06268467278408064
461.0, 0.04563253012403272
462.0, 0.04902506032665927
463.0, 0.04538886186321215
464.0, 0.06475182699124474
465.0, 0.08060806709973053
466.0, 0.07305179498096233
467.0, 0.058157612409819426
468.0, 0.0839770347484882
469.0, 0.0958839047045127
470.0, 0.10287475222041934
471.0, 0.10333920466047385
472.0, 0.09751525064844109
473.0, 0.09250699369286967
474.0, 0.0889666969263885
475.0, 0.10470841028018078
476.0, 0.11309402419491262
477.0, 0.11866119793059031
478.0, 0.14324003077462885
479.0, 0.18001745082090265
480.0, 0.1984873039801156
481.0, 0.21566846983813617
482.0, 0.2062813255265267
483.0, 0.18175431381208815
484.0, 0.19130020329596775
485.0, 0.16862377840546028
486.0, 0.13641635315485776
487.0, 0.1256862413215425
488.0, 0.12872951325564747
489.0, 0.12211277866227155
490.0, 0.10837036293911423
491.0, 0.10165326259809589
492.0, 0.10897931200235864
493.0, 0.09978745622081626
494.0, 0.07973907040861936
495.0, 0.07732484381994481
496.0, 0.07290856155319667
497.0, 0.05904180333654605
498.0, 0.04782902659960057
499.0, 0.034445003039953
500.0, 0.015740688600710612
501.0, 0.009755676396381096
502.0, 0.03314243844542431
503.0, 0.034465784690776595
504.0, 0.017992706828020448
505.0, 0.012685028735073878
506.0, 0.02495883729264976
507.0, 0.018330035440584938
508.0, 0.01971285352031354
509.0, 0.010107229667666234
510.0, 0.000857356696328181
511.0, 0.0005933597063623085
512.0, 0.0013191485412143071
513.0, 0.005055390218322378
514.0, 0.011055398412487153
515.0, 0.004882994946746484
516.0, 0.011870564038304849
517.0, 0.034347918193343714
518.0, 0.005389627516103676
519.0, 0.0017800646484132517
520.0, 0.012639216269212557
521.0, 0.005828643109427741
522.0, 0.008382405220016887
523.0, 0.004375047246132911
524.0, 0.009870967087262575
525.0, 0.02489237214239644
526.0, 0.009019831683528622
527.0, 0.0014015894952693962
528.0, 0.010823887275584556
529.0, 0.018428378471105445
530.0, 0.018756760311963144
531.0, 0.011472767573979716
532.0, 0.016756985704954003
533.0, 0.020575336467532727
534.0, 0.010784435500463228
535.0, 0.006119452022029144
536.0, 0.02762691807971413
537.0, 0.033544101558869895
538.0, 0.032124709602072074
539.0, 0.04112588899273566
540.0, 0.0554818176065783
541.0, 0.057810551646996534
542.0, 0.08114700060502998
543.0, 0.09769429943402944
544.0, 0.1043554478734254
545.0, 0.12160487168338693
546.0, 0.15404000253609385
547.0, 0.17527469480072175
548.0, 0.2462096057828286
549.0, 0.3036231822135638
550.0, 0.3782161461524408
551.0, 0.46855538005619507
552.0, 0.5271886585718604
553.0, 0.5493226239244364
554.0, 0.4997475474519516
555.0, 0.38792422315179637
556.0, 0.27652733778242605
557.0, 0.19501291844617846
558.0, 0.1342562541851989
559.0, 0.08742185442944406
560.0, 0.06797422811675613
561.0, 0.07271178529495692
562.0, 0.062307235771620645
563.0, 0.03765079860291171
564.0, 0.03197587528320076
565.0, 0.01999148773251641
566.0, 0.01036553719889963
567.0, 0.010097375580325644
568.0, 0.017525736360229208
569.0, 0.02507723077270957
570.0, 0.022391977452530912
571.0, 0.0035103239812469206
572.0, 0.007401532364268596
573.0, 0.006126791868457469
574.0, 0.012815074035982177
575.0, 0.02302358809387796
576.0, 0.00906705910576272
577.0, 0.012392971558202522
578.0, 0.03095226406650316
579.0, 0.03200355632753147
580.0, 0.02626955713914641
581.0, 0.023661774650118473
582.0, 0.021917490850933703
583.0, 0.028558864123702763
584.0, 0.023208761241072975
585.0, 0.02961822944586585
586.0, 0.03854132044303077
587.0, 0.0504178825890848
588.0, 0.07529560618383714
589.0, 0.07527842874803292
590.0, 0.06671144198505576
591.0, 0.0915392486950592
592.0, 0.11346596664433047
593.0, 0.11921669900408371
594.0, 0.12798982855672106
595.0, 0.12742067211581895
596.0, 0.14221133708297568
597.0, 0.1790734297603554
598.0, 0.19059183762215198
599.0, 0.18963832581372933
600.0, 0.21091287288013127
601.0, 0.2331125795073826
602.0, 0.25940009651354107
603.0, 0.28389644549179616
604.0, 0.3201073568747025
605.0, 0.3420639191605167
606.0, 0.3340913490365428
607.0, 0.33607587481516904
608.0, 0.3131440955766818
609.0, 0.2987477362320482
610.0, 0.26412051951305454
611.0, 0.2292360773663003
612.0, 0.20673153386600732
613.0, 0.17171151060956005
614.0, 0.14267169931057588
615.0, 0.09813560138297696
616.0, 0.08255008160616978
617.0, 0.08190756867493595
618.0, 0.07376375277256142
619.0, 0.06281112290226672
620.0, 0.052060170140171565
621.0, 0.04970516338875458
622.0, 0.05734234284728918
623.0, 0.059170849109943295
624.0, 0.050182777287682404
625.0, 0.03887482294574376
626.0, 0.033898187151352475
627.0, 0.03379076468017588
628.0, 0.03120479589376261
629.0, 0.023271726604351575
630.0, 0.021727535777221686
631.0, 0.02789980826175702
632.0, 0.024752583962250482
633.0, 0.015421600706075527
634.0, 0.026662041228295304
635.0, 0.022827310741061875
636.0, 0.015901742268306873
637.0, 0.02242871415808964
638.0, 0.03015371030998044
639.0, 0.019893831149104212
640.0, 0.012086444221034304
641.0, 0.024600395585993817
642.0, 0.014818779569531284
643.0, 0.006103275072191035
644.0, 0.008838283456404215
645.0, 0.032679398093875205
646.0, 0.00656841487267406
647.0, 0.021250902552252905
648.0, 0.010006817222377985
649.0, 0.0038704332895346727
650.0, 0.031132353924815996
651.0, 0.033791145552204284
652.0, 0.029075409506519333
653.0, 0.010364059372711265
654.0, 0.006505068824818249
655.0, 0.01097824333100768
656.0, 0.009932728835196372
657.0, 0.01016454835616475
658.0, 0.01961008496066809
659.0, 0.02157870744805575
660.0, 0.005408426395725214
661.0, 0.005120866687125275
662.0, 0.012973782645708844
663.0, 0.011822257180184943
664.0, 0.00360359112768019
665.0, 0.0081310792323976
666.0, 0.00890207140778893
667.0, 0.009932069366969781
668.0, 0.013602664390256954
669.0, 0.004989006416239441
670.0, 0.0068442355111261255
671.0, 0.0032544413668718765
672.0, 0.009981448412931878
673.0, 0.007627838856273218
674.0, 0.002663345398895332
675.0, 0.014431320450533285
676.0, 0.030552739962326554
677.0, 0.039544528834022256
678.0, 0.008225210654219592
679.0, 0.01608830127588907
680.0, 0.004595171100909075
681.0, 0.0018830986783111795
682.0, 0.016025202371490393
683.0, 0.027806393493262478
684.0, 0.021400173013462413
685.0, 0.02404867836003514
686.0, 0.03143046374213171
687.0, 0.02873169388942023
688.0, 0.037216828424481145
689.0, 0.031804587524896
690.0, 0.01698810966115263
691.0, 0.03954047657875113
692.0, 0.06022393622596959
693.0, 0.0768594332356795
694.0, 0.08613211926240844
695.0, 0.09759982021793445
696.0, 0.1126962266819035
697.0, 0.12566391058010928
698.0, 0.13618755103621802
699.0, 0.15801391993207362
700.0, 0.18296887316273522
701.0, 0.2143603775744703
702.0, 0.2507411986497791
703.0, 0.2955600435011775
704.0, 0.3484744187645244
705.0, 0.3973096257868857
706.0, 0.427977618172692
707.0, 0.4203172528689414
708.0, 0.39516314614564874
709.0, 0.3510552189566906
710.0, 0.30262401516995685
711.0, 0.2602458562120016
712.0, 0.20033938598005221
713.0, 0.12011419476456431
714.0, 0.14481784689187185
715.0, 0.1322133522087695
716.0, 0.10339684729300291
717.0, 0.08462595201471064
718.0, 0.07231527548079364
719.0, 0.09120768854824217
720.0, 0.09539356821670097
721.0, 0.05764857823903727
722.0, 0.060542304548059256
723.0, 0.07741932372145159
724.0, 0.06979117337712011
725.0, 0.06700040177661946
726.0, 0.09649809421908882
727.0, 0.11345867895279114
728.0, 0.11405172680483126
729.0, 0.12282419310296419
730.0, 0.13552184921810706
731.0, 0.15305930171560478
732.0, 0.17547820253225058
733.0, 0.19562257819607418
734.0, 0.2216252376720527
735.0, 0.23556364683669803
736.0, 0.250795534327503
737.0, 0.2703481629149667
738.0, 0.3045711811352185
739.0, 0.34096701210043945
740.0, 0.3573105030286706
741.0, 0.37964053104617973
742.0, 0.37562617106029433
743.0, 0.38205566805883523
744.0, 0.374260544950497
745.0, 0.36444778241158193
746.0, 0.349827913057557
747.0, 0.3253276904898961
748.0, 0.3074745409472596
749.0, 0.24215808637131864
750.0, 0.21748119252535777
751.0, 0.19064885061296305
752.0, 0.16816656191785212
753.0, 0.1594392542484675
754.0, 0.14988959670183344
755.0, 0.1330118954873721
756.0, 0.11576683270696668
757.0, 0.08416618166265337
758.0, 0.07519748448169104
759.0, 0.06301372695604776
760.0, 0.06014128214525027
761.0, 0.0605288073716093
762.0, 0.03481062920280138
763.0, 0.04212971220561099
764.0, 0.04036938798834558
765.0, 0.01692948922817714
766.0, 0.009337179121175357
767.0, 0.005675471017906011
768.0, 0.00036180651065803246
769.0, 0.001025142340022316
770.0, 0.0034678213345134988
771.0, 0.002670226654355232
772.0, 0.015860818696084977
773.0, 0.0054762867277432905
774.0, 0.002821609093703943
775.0, 0.0036594145716551153
776.0, 0.00545176399563977
777.0, 0.019655078764610975
778.0, 0.0038929796188388504
779.0, 0.008038724730286799
780.0, 0.01580785304145465
781.0, 0.020163633614051744
782.0, 0.007722655656856469
783.0, 0.0014129138800017048
784.0, 0.007195304904912814
785.0, 0.011676133645746382
786.0, 0.0072295792659870925
787.0, 0.018102047693038317
788.0, 0.02258918523955267
789.0, 0.023725451502867912
790.0, 0.02396542764713856
791.0, 0.02332303386654454
792.0, 0.02604728328022035
793.0, 0.03113415920135163
794.0, 0.02839711766171164
795.0, 0.04282799589611237
796.0, 0.04574242442757337
797.0, 0.03867286660479192
798.0, 0.022789118347173145
799.0, 0.0202540905448871
800.0, 0.04020555028650029
801.0, 0.023389710138087414
802.0, 0.018977677516671773
803.0, 0.012145518231798732
804.0, 0.004823360284766043
805.0, 0.012859723321428533
806.0, 0.021471605640257223
807.0, 0.01745475830113202
808.0, 0.010962438050522617
809.0, 0.019789432611309155
810.0, 0.02054519959463907
811.0, 0.02764138831074209
812.0, 0.020807292394036992
813.0, 0.01818757926449551
814.0, 0.010794628609384316
815.0, 0.014483056853672483
816.0, 0.034565032040752446
817.0, 0.019624903484162102
818.0, 0.005858119018148816
819.0, 0.0012359478859941043
820.0, 0.00210001662812083
821.0, 0.0009828343623272165
822.0, 0.010680585113045867
823.0, 0.024560995416690875
824.0, 0.03312220466671924
825.0, 0.021496616618992007
826.0, 0.01953494338664943
827.0, 0.028676140883349143
828.0, 0.02521552605712161
829.0, 0.027884347303334063
830.0, 0.03574680754104236
831.0, 0.03656953126457062
832.0, 0.029097172271395837
833.0, 0.018273862228604405
834.0, 0.03499859809351241
835.0, 0.061211026202426876
836.0, 0.041242555314249627
837.0, 0.04930340426526017
838.0, 0.07174885916915555
839.0, 0.08772743857398992
840.0, 0.08634527489880081
841.0, 0.07012591891747827
842.0, 0.09727457081671408
843.0, 0.1323996196369751
844.0, 0.15860894919620216
845.0, 0.15782435553029753
846.0, 0.17397314339914602
847.0, 0.2073254890005557
848.0, 0.2480674928224123
849.0, 0.29340392947021493
850.0, 0.31034245288337536
851.0, 0.34344471433692697
852.0, 0.3960575898549858
853.0, 0.44765102000053186
854.0, 0.53251281150722
855.0, 0.622346323626248
856.0, 0.6992495821531627
857.0, 0.7899559119293929
858.0, 0.8871200838008828
859.0, 0.9573421326066549
860.0, 0.9722629776521775
861.0, 0.977039964124935
862.0, 0.8925899064695597
863.0, 0.7947069524293154
864.0, 0.6992939378026237
865.0, 0.5796853104123546
866.0, 0.4657297285665888
867.0, 0.40053009432322717
868.0, 0.3440639684715123
869.0, 0.2845982297615649
870.0, 0.24466674189667142
871.0, 0.21065323683864964
872.0, 0.18320998342600706
873.0, 0.17752613499063546
874.0, 0.16711012660064165
875.0, 0.12975391317380472
876.0, 0.10750571812286412
877.0, 0.0946205768941833
878.0, 0.07634329252364572
879.0, 0.0777229603177668
880.0, 0.07370389833922683
881.0, 0.060436100515331624
882.0, 0.05602621228017879
883.0, 0.04914123922750682
884.0, 0.03362471967377748
885.0, 0.04803561969774227
886.0, 0.04242884840842081
887.0, 0.03765865067259357
888.0, 0.0417076984300748
889.0, 0.02953394795887764
890.0, 0.015029279200253553
891.0, 0.023149796477378654
892.0, 0.02491142283956044
893.0, 0.004422288869299311
894.0, 0.024148809358800143
895.0, 0.019193962679571457
896.0, 0.015226665453874163
897.0, 0.004568595989324641
898.0, 0.005887496947637517
899.0, 0.005211059715932636
900.0, 0.0021104982598421093
901.0, 0.006671334329278031
902.0, 0.016909726124068453
903.0, 0.0010974546059588162
904.0, 0.011008866908102065
905.0, 0.02323299437863916
906.0, 0.008202112685985693
907.0, 0.006728607354751525
908.0, 0.024394304150790972
909.0, 0.022466812247526148
910.0, 0.013569631239062121
911.0, 0.02056530123979359
912.0, 0.01815807081246669
913.0, 0.002783778436519014
914.0, 0.028552698226441416
915.0, 0.018581618397443808
916.0, 0.007158095704373722
917.0, 0.008663200876041605
918.0, 0.022272243239894535
919.0, 0.03153472086743727
920.0, 0.02908831210492403
921.0, 0.03031214826088957
922.0, 0.01797459768047047
923.0, 0.03637736835638056
924.0, 0.04900595424597747
925.0, 0.033374388855688254
926.0, 0.05512689654754078
927.0, 0.07139038031371069
928.0, 0.06851060473105314
929.0, 0.06296126554876141
930.0, 0.06947212754950605
931.0, 0.09474659847274682
932.0, 0.09944574959729512
933.0, 0.12642233161254104
934.0, 0.1419284934584937
935.0, 0.14871924272372009
936.0, 0.15207743413970964
937.0, 0.1780300674664157
938.0, 0.20757026407654475
939.0, 0.2149484598222481
940.0, 0.22913292859175594
941.0, 0.2612207919394623
942.0, 0.278591736915443
943.0, 0.24791729783381516
944.0, 0.23875313479462024
945.0, 0.250590598705779
946.0, 0.2352614057488981
947.0, 0.21199565742770374
948.0, 0.1875974866162887
949.0, 0.15633576146956646
950.0, 0.1358946598894179
951.0, 0.12400931904425351
952.0, 0.10037555972906197
953.0, 0.09769138903471647
954.0, 0.07921776830404678
955.0, 0.05908503024654322
956.0, 0.0615994763098854
957.0, 0.04512505003787681
958.0, 0.028868304896096545
959.0, 0.036235116103941034
960.0, 0.035168836517654095
961.0, 0.033604977567198414
962.0, 0.03169515849081736
963.0, 0.02614100693579925
964.0, 0.0368034693239796
965.0, 0.016143987848466178
966.0, 0.02771078134633884
967.0, 0.038777927096440346
968.0, 0.03339897031707763
969.0, 0.022316774484945512
970.0, 0.019440548487347463
971.0, 0.019952988042371306
972.0, 0.011085205654274665
973.0, 0.0023249003466084637
974.0, 0.015816028780957826
975.0, 0.03507334850507899
976.0, 0.015093458852492804
977.0, 0.022503469853039554
978.0, 0.031531521003869356
979.0, 0.014112891468407206
980.0, 0.008023458616838902
981.0, 0.009377614462631733
982.0, 0.005883356930159581
983.0, 0.005671201013385656
984.0, 0.011096631122919512
985.0, 0.009322308987104433
986.0, 0.025333567190858004
987.0, 0.012999518754275224
988.0, 0.0026141513111034324
989.0, 0.007954973645946096
990.0, 0.0056667822887307975
991.0, 0.004717411982659984
992.0, 0.01155966032709242
993.0, 0.0008259549886377008
994.0, 0.010131624460571791
995.0, 0.002234344188096725
996.0, 0.0035902517060217524
997.0, 0.019020804050916874
998.0, 0.005441002721355824
999.0, 0.011433542982817516
1000.0, 0.012417137893936996
1001.0, 0.017374720612429548
1002.0, 0.029387652172063187
1003.0, 0.014997656880202154
1004.0, 0.007735047450941079
1005.0, 0.01731155521197641
1006.0, 0.02757204755757342
1007.0, 0.005317459827527022
1008.0, 0.02246901547762315
1009.0, 0.02061467852206309
1010.0, 0.013305082757526124
1011.0, 0.008840797693315552
1012.0, 0.004521696537753132
1013.0, 0.003682846764408657
1014.0, 0.0012124580291052191
1015.0, 0.0018643078189001273
1016.0, 0.012137648816497176
1017.0, 0.014051941016978826
1018.0, 0.010943699667124298
1019.0, 0.024699785470018505
1020.0, 0.009061344377849345
1021.0, 0.010381343123919948
1022.0, 0.016336290991182917
1023.0, 0.012459155413819598
1024.0, 0.017365348164979533
1025.0, 0.03238992041409952
1026.0, 0.03625006024387648
1027.0, 0.030991145509435842
1028.0, 0.035294607764227104
1029.0, 0.019745118281426905
1030.0, 0.00550888629266238
1031.0, 0.02619989488866019
1032.0, 0.015982346774119423
1033.0, 0.006209105564342888
1034.0, 0.020572322566404497
1035.0, 0.0501959557096289
1036.0, 0.06082116001165518
1037.0, 0.05561568016130229
1038.0, 0.06503349664241284
1039.0, 0.0561107860987831
1040.0, 0.07307143836800693
1041.0, 0.12368812896014905
1042.0, 0.09305831332019963
1043.0, 0.08261490487240833
1044.0, 0.09307451350743337
1045.0, 0.10480010635232155
1046.0, 0.10208268121701555
1047.0, 0.10149950018490736
1048.0, 0.09076358795233656
1049.0, 0.0696806357122015
1050.0, 0.0721110673537747
1051.0, 0.08136228678107328
1052.0, 0.05218206248391871
1053.0, 0.028929361435799304
1054.0, 0.025883095145168313
1055.0, 0.0265913120423173
1056.0, 0.02373910160609747
1057.0, 0.0374809445188563
1058.0, 0.0338701255626624
1059.0, 0.020968109176448244
1060.0, 0.01646757988887031
1061.0, 0.010025489796875012
1062.0, 0.015438011659750013
1063.0, 0.033051236559172296
1064.0, 0.014600594218711353
1065.0, 0.006238349516768056
1066.0, 0.023536310901457067
1067.0, 0.023629683489840136
1068.0, 0.01626153886642577
1069.0, 0.002615124440210586
1070.0, 0.004249354735520024
1071.0, 0.015834459988368355
1072.0, 0.017727245113226948
1073.0, 0.0053104162809704146
1074.0, 0.004569163078411202
1075.0, 0.015501312123917367
1076.0, 0.01811665579867429
1077.0, 0.023575009027927772
1078.0, 0.026188020580682845
1079.0, 0.0017266409494735508
1080.0, 0.004430774996358602
1081.0, 0.015144420816906734
1082.0, 0.02700321728720091
1083.0, 0.022708940036308804
1084.0, 0.020506621107056575
1085.0, 0.014773628563814865
1086.0, 0.01953322037197378
1087.0, 0.022638807388951382
1088.0, 0.014388214263097453
1089.0, 0.01758108125868885
1090.0, 0.024747899013372807
1091.0, 0.015892952733358678
1092.0, 0.01579849844505664
1093.0, 0.010762172637555512
1094.0, 0.015636259294772588
1095.0, 0.004079648248699467
1096.0, 0.007500250917628421
1097.0, 0.018360132766346716
1098.0, 0.011700269037797919
1099.0, 0.006574990502454762
1100.0, 0.0118289662102647
1101.0, 0.02029629982962764
1102.0, 0.02032876434305688
1103.0, 0.0060217752860396
1104.0, 0.0010984102729364685
1105.0, 0.025811058085145513
1106.0, 0.013622004758196929
1107.0, 0.0035871566375599876
1108.0, 0.021964319921153923
1109.0, 0.020373313458310772
1110.0, 0.021710470977410187
1111.0, 0.012875897926540682
1112.0, 0.005306492418996558
1113.0, 0.004272635555893874
1114.0, 0.001325368202206354
1115.0, 0.010118288249414704
1116.0, 0.020615140398390637
1117.0, 0.014541925800498293
1118.0, 0.0025853548375876566
1119.0, 0.0017602627201431995
1120.0, 0.005082161950906373
1121.0, 0.004721256787055841
1122.0, 0.01304088427691763
1123.0, 0.000627337980123938
1124.0, 0.014625325034060173
1125.0, 0.0036865348401431378
1126.0, 0.007823488936243244
1127.0, 0.022650151424949565
1128.0, 0.027796593753092187
1129.0, 0.02666375434109425
1130.0, 0.019377567271846863
1131.0, 0.015206796540843687
1132.0, 0.00971861021427324
1133.0, 0.006991531649475311
1134.0, 0.006441807840411554
1135.0, 0.021678957634011432
1136.0, 0.012964462843353348
1137.0, 0.009152284994157128
1138.0, 0.004247101769285858
1139.0, 0.00790340926747317
1140.0, 0.003740274853120897
1141.0, 0.013258857165334141
1142.0, 0.007285736539478256
1143.0, 0.00676586555660334
1144.0, 0.01388385286673381
1145.0, 0.01684212074325405
1146.0, 0.012594812292048457
1147.0, 0.006571199424239667
1148.0, 0.02016406097905238
1149.0, 0.037668955558909374
1150.0, 0.029415379113470086
1151.0, 0.025301018648920547
1152.0, 0.028107046850865337
1153.0, 0.0243445469944432
1154.0, 0.021589030114587335
1155.0, 0.02102524487308647
1156.0, 0.0390816550763514
1157.0, 0.03404929085773183
1158.0, 0.024534556552180134
1159.0, 0.0016921835630372363
1160.0, 0.002142054865041051
1161.0, 0.0584578293614074
1162.0, 0.05628474521211297
1163.0, 0.022296576787210993
1164.0, 0.020773229614552576
1165.0, 0.02036088048707073
1166.0, 0.013660647199614361
1167.0, 0.01493061148055422
1168.0, 0.0208749741834064
1169.0, 0.039089542495001926
1170.0, 0.031808603946815464
1171.0, 0.01388140058193857
1172.0, 0.04396478442226643
1173.0, 0.024280782368765887
1174.0, 0.024268753525427417
1175.0, 0.01434392632977811
1176.0, 0.009160839822911982
1177.0, 0.028214698074957942
1178.0, 0.03606199948526938
1179.0, 0.027135739357390526
1180.0, 0.03004973356710414
1181.0, 0.018942205485698867
1182.0, 0.013328933524242454
1183.0, 0.025814096820368424
1184.0, 0.029846674594699595
1185.0, 0.029612648227390497
1186.0, 0.023878549977410065
1187.0, 0.020579035936055257
1188.0, 0.015170306235732234
1189.0, 0.029083480766387042
1190.0, 0.027705118848785248
1191.0, 0.027729178836511627
1192.0, 0.02325731111347381
1193.0, 0.03152232016210054
1194.0, 0.0193905439257187
1195.0, 0.03816976148350887
1196.0, 0.0289104261726282
1197.0, 0.022039962610316297
1198.0, 0.03563286051659504
1199.0, 0.02948156837960078
1200.0, 0.029535994518156847
1201.0, 0.03948386165388937
1202.0, 0.02747941803385912
1203.0, 0.01387339733873354
1204.0, 0.025358293789203505
1205.0, 0.039328191240343834
1206.0, 0.0317126851431775
1207.0, 0.03375590983893602
1208.0, 0.04113066212651148
1209.0, 0.03361249832614479
1210.0, 0.026032556484062497
1211.0, 0.017200724856855257
1212.0, 0.02246765178002778
1213.0, 0.0011219315768648897
1214.0, 0.002463971734165772
1215.0, 0.014450700425255173
1216.0, 0.02914790142995165
1217.0, 0.016832538582843067
1218.0, 0.01793839991267072
1219.0, 0.021949909982755658
1220.0, 0.01731127130998265
1221.0, 0.01818849219124662
1222.0, 0.018968451620426416
1223.0, 0.019468640000177256
1224.0, 0.023103196289244864
1225.0, 0.01502370265842777
1226.0, 0.010620555293318474
1227.0, 0.02690359934691873
1228.0, 0.01404900343275047
1229.0, 0.008926230515741585
1230.0, 0.01654990323068065
1231.0, 0.01680661482375897
1232.0, 0.008927080412618804
1233.0, 0.001919062622635182
1234.0, 0.0035028087523915974
1235.0, 0.0026507617417380813
1236.0, 0.02004194259181689
1237.0, 0.038700986610049226
1238.0, 0.02151512257048576
1239.0, 0.010158826391246477
1240.0, 0.020523862400508488
1241.0, 0.021055725378177303
1242.0, 0.022569538444771907
1243.0, 0.014566980032365463
1244.0, 0.009742994142265772
1245.0, 0.01326535303019243
1246.0, 0.01624496935269222
1247.0, 0.027132002186374904
1248.0, 0.0336064929817216
1249.0, 0.02163168411179663
1250.0, 0.017235498026731782
1251.0, 0.02460956501393573
1252.0, 0.015477630571674937
1253.0, 0.002914076127673829
1254.0, 0.0023835956521627774
1255.0, 0.015637527059613993
1256.0, 0.01089520233529902
1257.0, 0.02868633499789585
1258.0, 0.037509012079177256
1259.0, 0.021691454241192547
1260.0, 0.02474714880751351
1261.0, 0.021174093116978057
1262.0, 0.013437332669013695
1263.0, 0.006214514048069462
1264.0, 0.0007003507427314915
1265.0, 0.008100698253223303
1266.0, 0.006538447586895596
1267.0, 0.0016720468977274776
1268.0, 0.013642622628657699
1269.0, 0.021181372497381664
1270.0, 0.013458180660368656
1271.0, 0.012948778408762388
1272.0, 0.019953186164147887
1273.0, 0.01619119368137207
1274.0, 0.003571812583843605
1275.0, 0.004694399230041605
1276.0, 0.012621119209658313
1277.0, 0.009752664837568079
1278.0, 0.003773581650954288
1279.0, 0.004604279676071428
1280.0, 0.002848959431666053
1281.0, 0.002443721031979118
1282.0, 0.006862690831215293
1283.0, 0.006706557033756621
1284.0, 0.00036933988875214913
1285, 0.0
1286, 0.0
1287, 0.0
1288, 0.0
1289, 0.0
1290, 0.0
1291, 0.0
1292, 0.0
1293, 0.0
1294, 0.0
1295, 0.0
1296, 0.0
1297, 0.0
1298, 0.0
1299, 0.0
1300, 0.0
1301, 0.0
1302, 0.0
1303, 0.0
1304, 0.0
1305, 0.0
1306, 0.0
1307, 0.0
1308, 0.0
1309, 0.0
1310, 0.0
1311, 0.0
1312, 0.0
1313, 0.0
1314, 0.0
1315, 0.0
1316, 0.0
1317, 0.0
1318, 0.0
1319, 0.0
1320, 0.0
1321, 0.0
1322, 0.0
1323, 0.0
1324, 0.0
1325, 0.0
1326, 0.0
1327, 0.0
1328, 0.0
1329, 0.0
1330, 0.0
1331, 0.0
1332, 0.0
1333, 0.0
1334, 0.0
1335, 0.0
1336, 0.0
1337, 0.0
1338, 0.0
1339, 0.0
1340, 0.0
1341, 0.0
1342, 0.0
1343, 0.0
1344, 0.0
1345, 0.0
1346, 0.0
1347, 0.0
1348, 0.0
1349, 0.0
1350, 0.0
1351, 0.0
1352, 0.0
1353, 0.0
1354, 0.0
1355, 0.0
1356, 0.0
1357, 0.0
1358, 0.0
1359, 0.0
1360, 0.0
1361, 0.0
1362, 0.0
1363, 0.0
1364, 0.0
1365, 0.0
1366, 0.0
1367, 0.0
1368, 0.0
1369, 0.0
1370, 0.0
1371, 0.0
1372, 0.0
1373, 0.0
1374, 0.0
1375, 0.0
1376, 0.0
1377, 0.0
1378, 0.0
1379, 0.0
1380, 0.0
1381, 0.0
1382, 0.0
1383, 0.0
1384, 0.0
1385, 0.0
1386, 0.0
1387, 0.0
1388, 0.0
1389, 0.0
1390, 0.0
1391, 0.0
1392, 0.0
1393, 0.0
1394, 0.0
1395, 0.0
1396, 0.0
1397, 0.0
1398, 0.0
1399, 0.0
1400, 0.0
1401, 0.0
1402, 0.0
1403, 0.0
1404, 0.0
1405, 0.0
1406, 0.0
1407, 0.0
1408, 0.0
1409, 0.0
1410, 0.0
1411, 0.0
1412, 0.0
1413, 0.0
1414, 0.0
1415, 0.0
1416, 0.0
1417, 0.0
1418, 0.0
1419, 0.0
1420, 0.0
1421, 0.0
1422, 0.0
1423, 0.0
1424, 0.0
1425, 0.0
1426, 0.0
1427, 0.0
1428, 0.0
1429, 0.0
1430, 0.0
1431, 0.0
1432, 0.0
1433, 0.0
1434, 0.0
1435, 0.0
1436, 0.0
1437, 0.0
1438, 0.0
1439, 0.0
1440, 0.0
1441, 0.0
1442, 0.0
1443, 0.0
1444, 0.0
1445, 0.0
1446, 0.0
1447, 0.0
1448, 0.0
1449, 0.0
1450, 0.0
1451, 0.0
1452, 0.0
1453, 0.0
1454, 0.0
1455, 0.0
1456, 0.0
1457, 0.0
1458, 0.0
1459, 0.0
1460, 0.0
1461, 0.0
1462, 0.0
1463, 0.0
1464, 0.0
1465, 0.0
1466, 0.0
1467, 0.0
1468, 0.0
1469, 0.0
1470, 0.0
1471, 0.0
1472, 0.0
1473, 0.0
1474, 0.0
1475, 0.0
1476, 0.0
1477, 0.0
1478, 0.0
1479, 0.0
1480, 0.0
1481, 0.0
1482, 0.0
1483, 0.0
1484, 0.0
1485, 0.0
1486, 0.0
1487, 0.0
1488, 0.0
1489, 0.0
1490, 0.0
1491, 0.0
1492, 0.0
1493, 0.0
1494, 0.0
1495, 0.0
1496, 0.0
1497, 0.0
1498, 0.0
1499, 0.0
1500, 0.0
1501, 0.0
1502, 0.0
1503, 0.0
1504, 0.0
1505, 0.0
1506, 0.0
1507, 0.0
1508, 0.0
1509, 0.0
1510, 0.0
1511, 0.0
1512, 0.0
1513, 0.0
1514, 0.0
1515, 0.0
1516, 0.0
1517, 0.0
1518, 0.0
1519, 0.0
1520, 0.0
1521, 0.0
1522, 0.0
1523, 0.0
1524, 0.0
1525, 0.0
1526, 0.0
1527, 0.0
1528, 0.0
1529, 0.0
1530, 0.0
1531, 0.0
1532, 0.0
1533, 0.0
1534, 0.0
1535, 0.0
1536, 0.0
1537, 0.0
1538, 0.0
1539, 0.0
1540, 0.0
1541, 0.0
1542, 0.0
1543, 0.0
1544, 0.0
1545, 0.0
1546, 0.0
1547, 0.0
1548, 0.0
1549, 0.0
1550, 0.0
1551, 0.0
1552, 0.0
1553, 0.0
1554, 0.0
1555, 0.0
1556, 0.0
1557, 0.0
1558, 0.0
1559, 0.0
1560, 0.0
1561, 0.0
1562, 0.0
1563, 0.0
1564, 0.0
1565, 0.0
1566, 0.0
1567, 0.0
1568, 0.0
1569, 0.0
1570, 0.0
1571, 0.0
1572, 0.0
1573, 0.0
1574, 0.0
1575, 0.0
1576, 0.0
1577, 0.0
1578, 0.0
1579, 0.0
1580, 0.0
1581, 0.0
1582, 0.0
1583, 0.0
1584, 0.0
1585, 0.0
1586, 0.0
1587, 0.0
1588, 0.0
1589, 0.0
1590, 0.0
1591, 0.0
1592, 0.0
1593, 0.0
1594, 0.0
1595, 0.0
1596, 0.0
1597, 0.0
1598, 0.0
1599, 0.0
