30, 0.0
31, 0.0
32, 0.0
33, 0.0
34, 0.0
35, 0.0
36, 0.0
37, 0.0
38, 0.0
39, 0.0
40, 0.0
41, 0.0
42, 0.0
43, 0.0
44, 0.0
45, 0.0
46, 0.0
47, 0.0
48, 0.0
49, 0.0
50, 0.0
51, 0.0
52, 0.0
53, 0.0
54, 0.0
55, 0.0
56, 0.0
57, 0.0
58, 0.0
59, 0.0
60, 0.0
61, 0.0
62, 0.0
63, 0.0
64, 0.0
65, 0.0
66, 0.0
67, 0.0
68, 0.0
69, 0.0
70, 0.0
71, 0.0
72, 0.0
73, 0.0
74, 0.0
75, 0.0
76, 0.0
77, 0.0
78, 0.0
79, 0.0
80, 0.0
81, 0.0
82, 0.0
83, 0.0
84, 0.0
85, 0.0
86, 0.0
87, 0.0
88, 0.0
89, 0.0
90, 0.0
91, 0.0
92, 0.0
93, 0.0
94, 0.0
95, 0.0
96, 0.0
97, 0.0
98, 0.0
99, 0.0
100, 0.0
101, 0.0
102, 0.0
103, 0.0
104, 0.0
105, 0.0
106, 0.0
107, 0.0
108, 0.0
109, 0.0
110, 0.0
111, 0.0
112, 0.0
113, 0.0
114, 0.0
115, 0.0
116, 0.0
117, 0.0
118, 0.0
119, 0.0
120, 0.0
121, 0.0
122, 0.0
123, 0.0
124, 0.0
125, 0.0
126, 0.0
127, 0.0
128, 0.0
129, 0.0
130, 0.0
131, 0.0
132, 0.0
133, 0.0
134, 0.0
135, 0.0
136.0, 0.00037358268507170527
137.0, 0.001508565551069965
138.0, 0.0005248278619939932
139.0, 0.0008071971583130058
140.0, 0.0016387845567043308
141.0, 0.001854999497886917
142.0, 0.0009291198717606762
143.0, 0.0016170660469773388
144.0, 0.0020655424666189215
145.0, 0.00216693837176289
146.0, 0.0017892497229783288
147.0, 0.001002967184088252
148.0, 0.0002065100863465796
149.0, 0.0002706183021587762
150.0, 0.0005094844469410319
151.0, 0.0019018274916288902
152.0, 0.0035573712293666916
153.0, 0.003585344575213277
154.0, 0.005683298238771131
155.0, 0.008512150517893252
156.0, 0.010024657979018501
157.0, 0.010438372550309301
158.0, 0.010557851181028994
159.0, 0.010366938634696168
160.0, 0.013353813558788192
161.0, 0.018022572061787992
162.0, 0.023452488155585847
163.0, 0.02961758304948446
164.0, 0.037693277062331325
165.0, 0.04629007776459864
166.0, 0.06035689957539687
167.0, 0.07840808117243303
168.0, 0.09760329926043679
169.0, 0.11444647183424608
170.0, 0.12573373557225975
171.0, 0.14564961482101066
172.0, 0.17443974972101006
173.0, 0.20996202714517673
174.0, 0.24734260257531543
175.0, 0.277361445370334
176.0, 0.30128092325888667
177.0, 0.31207469996786474
178.0, 0.31195219069846386
179.0, 0.30316292120243593
180.0, 0.2874642121503083
181.0, 0.26857755755891116
182.0, 0.24526075146395943
183.0, 0.22236245275873184
184.0, 0.21533485514642622
185.0, 0.23540523438129082
186.0, 0.2675757207874396
187.0, 0.30744961810971794
188.0, 0.3359573970863523
189.0, 0.34855892221873425
190.0, 0.34495920380291006
191.0, 0.3279231647316626
192.0, 0.2907989968055886
193.0, 0.24402748963876011
194.0, 0.19177732336170336
195.0, 0.140949318062889
196.0, 0.09860783382754962
197.0, 0.06783376515294287
198.0, 0.048462294775444455
199.0, 0.03781505062826657
200.0, 0.03142745277707509
201.0, 0.02675682171190454
202.0, 0.024855781812562722
203.0, 0.02146761359397073
204.0, 0.020886132260704956
205.0, 0.020722168814949864
206.0, 0.019308463388769573
207.0, 0.016756199070248497
208.0, 0.019859578500137223
209.0, 0.020943201382078124
210.0, 0.024314972913113294
211.0, 0.030340252117212235
212.0, 0.03689153772966446
213.0, 0.0394109584428487
214.0, 0.04816542327615544
215.0, 0.05468584177828172
216.0, 0.06538965532592607
217.0, 0.07967058683490576
218.0, 0.09364798257541718
219.0, 0.10722734803363178
220.0, 0.11885381650458564
221.0, 0.1219067637400129
222.0, 0.11946559242590303
223.0, 0.11272576971532057
224.0, 0.098035731618517
225.0, 0.08268687993632212
226.0, 0.061535451679314644
227.0, 0.04717974058063545
228.0, 0.03695252712663967
229.0, 0.024079498246817085
230.0, 0.016471247922835518
231.0, 0.01430155633108607
232.0, 0.013368482981030305
233.0, 0.011998451796453499
234.0, 0.00964913004695499
235.0, 0.006912207532745264
236.0, 0.005251824414196598
237.0, 0.0046237571619542174
238.0, 0.006062825556469822
239.0, 0.006806773490616282
240.0, 0.00521932001989927
241.0, 0.007172302904001807
242.0, 0.00782704578740862
243.0, 0.007947714813925127
244.0, 0.0079350877021993
245.0, 0.008001341473310573
246.0, 0.008204776283403131
247.0, 0.008814438960109788
248.0, 0.009907602912602448
249.0, 0.008548575784422434
250.0, 0.008200500762909528
251.0, 0.010648098862359862
252.0, 0.011355239604301584
253.0, 0.00973279831634066
254.0, 0.01027423156478759
255.0, 0.011897550645719825
256.0, 0.012937364243515988
257.0, 0.012130099604178761
258.0, 0.011002370234564497
259.0, 0.013975864033684914
260.0, 0.015173362644924356
261.0, 0.015251471051082753
262.0, 0.01442049839650525
263.0, 0.011630955857281243
264.0, 0.01035601933508999
265.0, 0.01197666358003266
266.0, 0.011891886467112811
267.0, 0.011050033399559447
268.0, 0.010913284143088054
269.0, 0.009650043970760613
270.0, 0.009570984336392186
271.0, 0.01150740538235769
272.0, 0.010928119250988548
273.0, 0.01029045689276528
274.0, 0.014531992571075679
275.0, 0.016827876915442623
276.0, 0.017763394967734093
277.0, 0.018248398576268244
278.0, 0.019578703295203035
279.0, 0.021415685461294555
280.0, 0.02169049154917116
281.0, 0.02247642207681245
282.0, 0.02336082805007577
283.0, 0.027219307280820608
284.0, 0.02984476035417058
285.0, 0.02912582237486487
286.0, 0.03219005965456263
287.0, 0.03529083712869817
288.0, 0.035528900398296044
289.0, 0.038909616459250874
290.0, 0.04333814228466967
291.0, 0.04385849629809124
292.0, 0.04322050768788807
293.0, 0.048241815822711566
294.0, 0.05082979182255737
295.0, 0.05258641503886168
296.0, 0.05511485421402562
297.0, 0.058784660029884965
298.0, 0.062414497860917816
299.0, 0.06754673474171553
300.0, 0.0728836114996787
301.0, 0.07678874272929945
302.0, 0.07894353039183603
303.0, 0.08108133065460489
304.0, 0.08543779564367765
305.0, 0.08904390694113076
306.0, 0.0897764440803151
307.0, 0.08947134370692136
308.0, 0.08958344420259631
309.0, 0.08727675323119208
310.0, 0.0838590188768878
311.0, 0.08284522924042724
312.0, 0.0803461182094872
313.0, 0.07863758652213662
314.0, 0.08099283280702214
315.0, 0.08127579855006471
316.0, 0.08723288370159461
317.0, 0.09212592652870469
318.0, 0.09859029279479412
319.0, 0.11031667198987367
320.0, 0.12929903005725366
321.0, 0.14809818290689117
322.0, 0.17411812747167066
323.0, 0.20436369400803445
324.0, 0.23509974288657648
325.0, 0.2675869435769057
326.0, 0.30727975393308465
327.0, 0.3452343461155816
328.0, 0.3947885184351394
329.0, 0.4475968888356356
330.0, 0.4958018889219968
331.0, 0.5323583166649669
332.0, 0.5520741529033303
333.0, 0.546470335192424
334.0, 0.5208508186507878
335.0, 0.46968701981153704
336.0, 0.4084673408268461
337.0, 0.3504262854600281
338.0, 0.2903661417405464
339.0, 0.2488094788667658
340.0, 0.21591897868349952
341.0, 0.19198687090066713
342.0, 0.17933755274990865
343.0, 0.1770594880331486
344.0, 0.17518157091675304
345.0, 0.17123335099518022
346.0, 0.16727307668318916
347.0, 0.16121176412928434
348.0, 0.15191246171879919
349.0, 0.1397937475344099
350.0, 0.12787245341071993
351.0, 0.10482441411711504
352.0, 0.08498336475926262
353.0, 0.06933943044959179
354.0, 0.057068451049639375
355.0, 0.046925060010709244
356.0, 0.03913318330130477
357.0, 0.035068945336222096
358.0, 0.029753456228321415
359.0, 0.025654194641828314
360.0, 0.023794831804188322
361.0, 0.023294776208030697
362.0, 0.021683560364790244
363.0, 0.021183101347307706
364.0, 0.020378733729563513
365.0, 0.020578953202518537
366.0, 0.021993125637296444
367.0, 0.024007731736069442
368.0, 0.027277766885702295
369.0, 0.03276473007738965
370.0, 0.03764268519997782
371.0, 0.04253391577055711
372.0, 0.04859624028759657
373.0, 0.05699276412484026
374.0, 0.0687909105649939
375.0, 0.07148934816773117
376.0, 0.08148118495433056
377.0, 0.09132502067775444
378.0, 0.09873715353604487
379.0, 0.10704332601925945
380.0, 0.11303930451836199
381.0, 0.11195643078158936
382.0, 0.10965695928065172
383.0, 0.1050778706375889
384.0, 0.09739502191945432
385.0, 0.08716946813030783
386.0, 0.07731375967630856
387.0, 0.06832925683187478
388.0, 0.05698025164072756
389.0, 0.04687025527729343
390.0, 0.037656750540121214
391.0, 0.027322993390825917
392.0, 0.02381933979277065
393.0, 0.016867817595290997
394.0, 0.013283292739095981
395.0, 0.010777896259496674
396.0, 0.00803071911974915
397.0, 0.00512146373341648
398.0, 0.0016116046192361064
399.0, 0.00042123208483847073
400.0, 0.0006689791295152998
401.0, 0.001707054926447654
402.0, 0.0025073740189870564
403.0, 0.0025369234348055912
404.0, 0.0036384720958625456
405.0, 0.0035266466748028976
406.0, 0.00436567384821561
407.0, 0.003960671978257218
408.0, 0.002869495555036575
409.0, 0.00251607905080446
410.0, 0.0014844739931753359
411.0, 0.003029734410935503
412.0, 0.005434776610416845
413.0, 0.0034404268389917826
414.0, 0.002053405693076722
415.0, 0.0060993859974861194
416.0, 0.007666281872006188
417.0, 0.0036072536275339557
418.0, 0.004027829142157939
419.0, 0.002927772598854074
420.0, 0.001655497724059083
421.0, 0.002105452719549679
422.0, 0.0013685688037741429
423.0, 0.0030801535141916176
424.0, 0.0015785342842862858
425.0, 0.000539506301951973
426.0, 0.0017761200217266215
427.0, 0.003673206886052398
428.0, 0.0015959797261818427
429.0, 0.002226516125785362
430.0, 0.0006498218996530123
431.0, 0.002658922546187785
432.0, 0.003703510323963659
433.0, 0.00266673163245884
434.0, 0.0043644802037284235
435.0, 0.007737060269498657
436.0, 0.007642778191224158
437.0, 0.0072785241021087336
438.0, 0.007641779966170384
439.0, 0.00923701177253927
440.0, 0.011632298190968554
441.0, 0.011238231770958649
442.0, 0.015498853847783541
443.0, 0.0178382974132779
444.0, 0.019804995530805242
445.0, 0.022001727184342845
446.0, 0.02424823463621089
447.0, 0.02717721157318726
448.0, 0.030086865416121527
449.0, 0.03529919526645574
450.0, 0.040467791483341765
451.0, 0.0446007892074148
452.0, 0.04849563675757405
453.0, 0.054761348538106054
454.0, 0.06554360794747811
455.0, 0.0734192290165727
456.0, 0.08463483693438663
457.0, 0.09840987362486618
458.0, 0.11390149803398218
459.0, 0.13282057520567744
460.0, 0.1568998852177007
461.0, 0.18643362966472518
462.0, 0.2226527652409847
463.0, 0.26710688667941557
464.0, 0.32130269664460465
465.0, 0.38476387700555365
466.0, 0.45016178916494337
467.0, 0.526048479799634
468.0, 0.6060856174130095
469.0, 0.6870484029649168
470.0, 0.7706376718497662
471.0, 0.8564399348878371
472.0, 0.9335448723924145
473.0, 0.9833831316556827
474.0, 0.997566939424919
475.0, 0.9742833664822236
476.0, 0.915877048816885
477.0, 0.8290871444406434
478.0, 0.7237350581293591
479.0, 0.6066934046475486
480.0, 0.5013473068413414
481.0, 0.41399788363271167
482.0, 0.33838119765055236
483.0, 0.2748870600561746
484.0, 0.2286144578561091
485.0, 0.19380613128390847
486.0, 0.17021259119132515
487.0, 0.14827534679960788
488.0, 0.13159694534401872
489.0, 0.1193545214439669
490.0, 0.11068026041805937
491.0, 0.10897051013161643
492.0, 0.10295720852890375
493.0, 0.10370519484853334
494.0, 0.10416760787701736
495.0, 0.1049117124119597
496.0, 0.1065538506638351
497.0, 0.10807110852745283
498.0, 0.11187913429443541
499.0, 0.11706765493942221
500.0, 0.11789074313588264
501.0, 0.1148343529145461
502.0, 0.10988029942196047
503.0, 0.10304099785389559
504.0, 0.08899383038695934
505.0, 0.07648439073942609
506.0, 0.06616958137698578
507.0, 0.056431680944729584
508.0, 0.04844648393602112
509.0, 0.0417927638007853
510.0, 0.03401976500220162
511.0, 0.029933400862188497
512.0, 0.03201685821069877
513.0, 0.0297422663326169
514.0, 0.02772877050931196
515.0, 0.026517100079182936
516.0, 0.0242582396503342
517.0, 0.023433014420025152
518.0, 0.021435893452082768
519.0, 0.021766707441227787
520.0, 0.024993959695398412
521.0, 0.02662583803168553
522.0, 0.02669758377155198
523.0, 0.030996856356045703
524.0, 0.03376532047367452
525.0, 0.04096537201047473
526.0, 0.046327233593320354
527.0, 0.05518234370406409
528.0, 0.06478228311554585
529.0, 0.07253205795721687
530.0, 0.0886536984072798
531.0, 0.1013691274835834
532.0, 0.11669968190397778
533.0, 0.1349692153672883
534.0, 0.1520778479641176
535.0, 0.16799664543082762
536.0, 0.18487041499020537
537.0, 0.18807484170851724
538.0, 0.19022419550487957
539.0, 0.18159695929848277
540.0, 0.1675648520153093
541.0, 0.15027309466305164
542.0, 0.13203042525036351
543.0, 0.11863173801284599
544.0, 0.10701071431512069
545.0, 0.09889010743564716
546.0, 0.09513005164010127
547.0, 0.09523225145741412
548.0, 0.09890826522965156
549.0, 0.10532059906147466
550.0, 0.11081213578402517
551.0, 0.11720359254350066
552.0, 0.13116962431914175
553.0, 0.1385786093170421
554.0, 0.14452546889006423
555.0, 0.1543780250057839
556.0, 0.1633187057676898
557.0, 0.1583739010926737
558.0, 0.15530792617395053
559.0, 0.1431772823452072
560.0, 0.12792454866282993
561.0, 0.11180093624364346
562.0, 0.09541307348088332
563.0, 0.08117584182483305
564.0, 0.06494278235911957
565.0, 0.05583044206019197
566.0, 0.044271256307300395
567.0, 0.03460626320062199
568.0, 0.028510941623088017
569.0, 0.024100304703725994
570.0, 0.02113348299466124
571.0, 0.016696578693689276
572.0, 0.014344766948099762
573.0, 0.011918655425687217
574.0, 0.010744317673642279
575.0, 0.009554274240842507
576.0, 0.006050952897402901
577.0, 0.00831019732989913
578.0, 0.003980877096852478
579.0, 0.004278351056923379
580.0, 0.0038226023175795512
581.0, 0.0018237492983617482
582.0, 0.00012607564331827776
583.0, 0.0004467870807674149
584.0, 0.0014939269483326893
585.0, 0.003992739790260419
586.0, 0.0028019263739535033
587.0, 0.0009192094198198449
588.0, 0.00028163672470099836
589.0, 0.001169313777886888
590.0, 0.0029792906642275886
591.0, 0.006341646235493262
592.0, 0.006273657918861248
593.0, 0.005106489866821799
594.0, 0.007104887988186702
595.0, 0.00973843658498914
596.0, 0.009967953831761002
597.0, 0.012697719627441787
598.0, 0.018430606016019955
599.0, 0.025875199750183406
600.0, 0.0286154752526836
601.0, 0.03149988281108535
602.0, 0.037972457734761746
603.0, 0.046892800762632414
604.0, 0.053693490404418114
605.0, 0.06218297810011836
606.0, 0.07175823475139874
607.0, 0.08405425672412328
608.0, 0.09460813800850719
609.0, 0.10465277150582197
610.0, 0.11761087709100936
611.0, 0.12727815201766504
612.0, 0.1367548786926813
613.0, 0.14159462293818498
614.0, 0.14547717596326712
615.0, 0.14569944842340005
616.0, 0.14153022687451855
617.0, 0.13525443107755558
618.0, 0.12812856949555396
619.0, 0.11432855783922657
620.0, 0.10189963187623978
621.0, 0.09079418253149256
622.0, 0.08085353292421193
623.0, 0.07150761705124828
624.0, 0.0630874945324657
625.0, 0.0591877410527635
626.0, 0.0526724249469782
627.0, 0.05044379346629201
628.0, 0.05073466665047224
629.0, 0.052316568720125696
630.0, 0.05429338070987032
631.0, 0.05609724230635208
632.0, 0.057599091829213474
633.0, 0.060983540878070626
634.0, 0.06317717145789302
635.0, 0.06325436236323105
636.0, 0.06167177808000983
637.0, 0.05999212167792502
638.0, 0.0585317326259882
639.0, 0.05324297070637649
640.0, 0.05111853847152791
641.0, 0.04655032962024276
642.0, 0.04078639770914461
643.0, 0.035410239278971016
644.0, 0.03079978996352125
645.0, 0.025528544886047302
646.0, 0.017276046389124628
647.0, 0.01796636567692074
648.0, 0.01524321722152481
649.0, 0.011810642070623727
650.0, 0.011595717947229684
651.0, 0.01145757385385922
652.0, 0.00830118846722195
653.0, 0.008705503751343784
654.0, 0.00517929921910425
655.0, 0.004623671707960119
656.0, 0.005626863003982384
657.0, 0.006742253645037018
658.0, 0.006297902666997395
659.0, 0.004407312508491036
660.0, 0.003597472150013571
661.0, 0.0009930458326072066
662.0, 0.003409346796862105
663.0, 0.0022216878989746334
664.0, 0.0025718050192286355
665.0, 0.003010484315522452
666.0, 0.001716301818000755
667.0, 0.0017768494686674875
668.0, 0.004559503495109784
669.0, 0.002404915954748084
670.0, 0.0013554459541672724
671.0, 0.00340987674550309
672.0, 0.004210179405038821
673.0, 0.0027944341297338033
674.0, 0.0034827308913644244
675.0, 0.0063318933995336404
676.0, 0.007067456674692891
677.0, 0.006208260117295444
678.0, 0.00606644765496853
679.0, 0.006945474969175422
680.0, 0.007554423598790505
681.0, 0.007414787775551818
682.0, 0.009444955613007894
683.0, 0.010083761304602087
684.0, 0.009580514824465586
685.0, 0.008642748692862167
686.0, 0.01165675985363151
687.0, 0.01405205394208853
688.0, 0.012790565049099653
689.0, 0.015422659649266673
690.0, 0.014804354175315473
691.0, 0.015720515470006902
692.0, 0.018926705092817183
693.0, 0.019702125083705262
694.0, 0.020415675428006198
695.0, 0.022634877325808583
696.0, 0.0232645961828281
697.0, 0.020551264398845373
698.0, 0.023063766543791445
699.0, 0.024370721955316373
700.0, 0.02390898333147852
701.0, 0.026660929714989772
702.0, 0.030939810444739257
703.0, 0.031076381456750866
704.0, 0.028175703893064404
705.0, 0.030605075023753373
706.0, 0.03247097506490657
707.0, 0.033286763983291924
708.0, 0.033810528299267104
709.0, 0.03323519665601132
710.0, 0.03141246384686619
711.0, 0.029786265434901316
712.0, 0.026958524413711653
713.0, 0.026858125267131383
714.0, 0.025918796700778846
715.0, 0.025486741481586632
716.0, 0.022438684496445985
717.0, 0.020707545110203524
718.0, 0.024259359414757868
719.0, 0.020841675861754064
720.0, 0.01491539305512231
721.0, 0.016803043483859192
722.0, 0.01523879320989043
723.0, 0.013489835089145403
724.0, 0.013149602225430955
725.0, 0.012820835223835413
726.0, 0.011049348008280961
727.0, 0.010992018967688661
728.0, 0.012806347709517269
729.0, 0.01264669804693569
730.0, 0.011707742507516591
731.0, 0.01178058912956201
732.0, 0.012475379763652112
733.0, 0.01246701570617021
734.0, 0.012532991650446655
735.0, 0.013601358014412448
736.0, 0.013324529716118085
737.0, 0.012926743923378893
738.0, 0.01343082067558815
739.0, 0.013489733518056992
740.0, 0.01274209312427479
741.0, 0.013084909753923802
742.0, 0.015552023217036753
743.0, 0.013159343801783397
744.0, 0.015485737940348125
745.0, 0.018335158406991483
746.0, 0.017211822476991195
747.0, 0.015540162180342114
748.0, 0.017810716892774154
749.0, 0.021385128187679646
750.0, 0.02096409751418205
751.0, 0.021768146198562856
752.0, 0.022090428537074686
753.0, 0.02168590001941787
754.0, 0.021032538376923014
755.0, 0.021172498156557945
756.0, 0.021745235242693246
757.0, 0.019816403601898652
758.0, 0.019270005619738087
759.0, 0.017832817694804347
760.0, 0.01869917067137365
761.0, 0.017696895632701253
762.0, 0.016982947707616505
763.0, 0.016761310783354227
764.0, 0.014818401015962483
765.0, 0.015343252355654076
766.0, 0.012203555982847707
767.0, 0.012265829628721558
768.0, 0.01255020525491704
769.0, 0.012292075090413083
770.0, 0.012184861802753744
771.0, 0.011031834727713045
772.0, 0.007015270454184692
773.0, 0.005656765229408797
774.0, 0.008921278638989503
775.0, 0.006398366338531088
776.0, 0.006610051381936141
777.0, 0.008027057969559045
778.0, 0.007655680513202718
779.0, 0.0057649655401076855
780.0, 0.005138926471748035
781.0, 0.003022098997518483
782.0, 0.005199866411741213
783.0, 0.0029429473782951357
784.0, 0.00329817799279207
785.0, 0.004629607146074592
786.0, 0.003623997121114023
787.0, 0.001881566029623539
788.0, 0.0047739846423127215
789.0, 0.005461357680209344
790.0, 0.0018463654084901243
791.0, 0.003047186476024814
792.0, 0.0016018734987423146
793.0, 0.0005713862022788456
794.0, 0.0017599172280727423
795.0, 0.0028468137323278326
796.0, 0.0010858760524828186
797.0, 0.0013193302222434683
798.0, 0.0008911400411976166
799.0, 0.0007828378130314587
800.0, 0.001900877396540792
801.0, 0.0017594518439854585
802.0, 0.0015290882061013405
803.0, 0.0023721493683297253
804.0, 0.0022196833035802886
805.0, 0.003009785782069007
806.0, 0.00266395376696171
807.0, 0.004283383042220597
808.0, 0.002765588254398204
809.0, 0.0014331984359756788
810.0, 0.0015270625763637916
811.0, 0.001484079097121015
812.0, 0.0006839797714511544
813.0, 0.00299782184717096
814.0, 0.002526981578190509
815.0, 0.0013950803094433587
816.0, 0.0021626765548246807
817.0, 0.0024127275661169826
818.0, 0.001390144125748247
819.0, 0.0017443508593610257
820.0, 0.004703666793624798
821.0, 0.0015637225896952323
822.0, 0.00021587355233449249
823.0, 0.002450368257376564
824.0, 0.0031273661166978176
825.0, 0.0034144404468111488
826.0, 0.0028605191130466746
827.0, 0.002201023180073462
828.0, 0.002456586381487896
829.0, 0.0004109565848991075
830.0, 0.00046316849623305966
831.0, 0.0012197350908619911
832.0, 0.0011346894394300131
833.0, 0.0006170658690155878
834.0, 0.0010040717124505814
835.0, 0.001365489481327684
836.0, 0.0009319434375504386
837.0, 0.0020396213755002443
838.0, 0.00025361777318354674
839.0, 0.0014129409157339942
840.0, 0.001344282064557171
841.0, 0.0010169561639570578
842.0, 0.00048211845908091317
843.0, 0.0009937141355466801
844.0, 0.002187193094899797
845.0, 0.0016876635667182982
846.0, 0.0027837875401078055
847.0, 0.002109975919079962
848.0, 0.003479880580840949
849.0, 0.0025296648152606065
850.0, 0.0023122851562781964
851.0, 0.001689173894684687
852.0, 0.0004535737754723517
853.0, 0.0009678433364361342
854.0, 0.002526671105353834
855.0, 0.004085076362052288
856.0, 0.005507082093463053
857.0, 0.0054879934615551925
858.0, 0.003922755386519218
859.0, 0.0035301067225632873
860.0, 0.0028115208377704234
861.0, 0.0007160106236497662
862.0, 0.0013226487283260527
863.0, 0.0015559721640534263
864.0, 0.0032410239439800608
865.0, 0.0027772714224315446
866.0, 0.0021392955691457442
867.0, 0.003631586385409625
868.0, 0.0030790749728787994
869.0, 0.0018941534570909905
870.0, 0.004595950043382407
871.0, 0.002323696512468062
872.0, 0.0015353656057409304
873.0, 0.0005776416374675704
874.0, 0.002362266128275088
875.0, 0.0034884953036168793
876.0, 0.002170735826007021
877.0, 0.0018110768484203752
878.0, 0.0029162499419621707
879.0, 0.000595592530153005
880.0, 0.00126128995441439
881.0, 0.003674768174212235
882.0, 0.0034091358733958537
883.0, 0.004168585181894991
884.0, 0.003481900145153696
885.0, 0.0020466235308552235
886.0, 0.0009386531842056448
887.0, 0.00025229580619129117
888.0, 0.0005378612157714579
889.0, 0.002630826299754916
890.0, 0.001959402095236955
891.0, 0.001562225709617464
892.0, 0.003416306494559913
893.0, 0.0027525924684226543
894.0, 0.0012493197540484214
895.0, 0.0017053568919833642
896.0, 0.0029406766085317863
897.0, 0.0026219620328619695
898.0, 0.0007833157225841012
899.0, 0.0039172431771008435
900.0, 0.002318630007779827
901.0, 0.0015366714186531567
902.0, 0.001808428504388251
903.0, 0.0020964274435126646
904.0, 0.0020376525969904137
905.0, 0.002336738640593251
906.0, 0.004264194479154549
907.0, 0.0037058358461416704
908.0, 0.00511960658919019
909.0, 0.005011210343658077
910.0, 0.004561833463659797
911.0, 0.005478055289667909
912.0, 0.005287755626184537
913.0, 0.004024730972333798
914.0, 0.0060148855257728135
915.0, 0.00767006808220845
916.0, 0.004412565743357744
917.0, 0.006460991244884045
918.0, 0.007443171779080295
919.0, 0.007609698676689837
920.0, 0.0069166438765086245
921.0, 0.006663147084430856
922.0, 0.00557582213442014
923.0, 0.002316592640246362
924.0, 0.006753282547835601
925.0, 0.0039899179232015655
926.0, 0.006474908707971381
927.0, 0.0062837428561717725
928.0, 0.0056011529957237065
929.0, 0.006494116247424054
930.0, 0.006659602810458866
931.0, 0.005485751322825493
932.0, 0.006253861344793044
933.0, 0.00757617561385957
934.0, 0.008460005651586585
935.0, 0.006925488801171417
936.0, 0.008068686992433242
937.0, 0.006844630594026258
938.0, 0.005725056803564282
939.0, 0.006666387754709205
940.0, 0.00728793185386049
941.0, 0.005644550784914359
942.0, 0.006724797060804356
943.0, 0.006570690394998958
944.0, 0.010070459415619378
945.0, 0.008005474087735918
946.0, 0.006774732319351997
947.0, 0.004830559988864185
948.0, 0.003828083057426912
949.0, 0.004743694355191667
950.0, 0.005473408041372487
951.0, 0.00517448323678053
952.0, 0.0067835719014183084
953.0, 0.006118008012895421
954.0, 0.005726634275768554
955.0, 0.006533171506352106
956.0, 0.006501076916783187
957.0, 0.006141043230533091
958.0, 0.006125691321054327
959.0, 0.006276980678561518
960.0, 0.006505471266175823
961.0, 0.006815365110506159
962.0, 0.006790957168608548
963.0, 0.006709255722884675
964.0, 0.006235549695721579
965.0, 0.006817037419973181
966.0, 0.006296911730650411
967.0, 0.005353868896421963
968.0, 0.004733172024087658
969.0, 0.0034149730812102386
970.0, 0.002667822898549615
971.0, 0.003205897318754661
972.0, 0.0029817576170996546
973.0, 0.005715998960352304
974.0, 0.005860677136889254
975.0, 0.0039055698389938933
976.0, 0.00459928088086212
977.0, 0.005967646417606332
978.0, 0.005631231686823049
979.0, 0.007631203550232883
980.0, 0.004840997592207463
981.0, 0.005117175524653817
982.0, 0.003850177203998265
983.0, 0.004556043109819909
984.0, 0.004265369174329424
985.0, 0.005073275351745909
986.0, 0.005894533740927331
987.0, 0.0056200589786629
988.0, 0.006242795123793595
989.0, 0.007919563765966125
990.0, 0.0016920373644493795
991.0, 0.0057015799375953104
992.0, 0.006715490002391396
993.0, 0.00229269236523684
994.0, 0.0026313075456670942
995.0, 0.004418231287771453
996.0, 0.0033734788468787373
997.0, 0.003060993707336958
998.0, 0.006049163751663104
999.0, 0.0026154652472665705
1000.0, 0.008747564552774072
1001.0, 0.008177694321129785
1002.0, 0.00597212205348325
1003.0, 0.004377905382396453
1004.0, 0.004910385895196483
1005.0, 0.0064326651903314006
1006.0, 0.005183014651977795
1007.0, 0.002995427845757178
1008.0, 0.005029310862814806
1009.0, 0.0029656837946380942
1010.0, 0.005394585753550643
1011.0, 0.006002203843423158
1012.0, 0.007196651384516101
1013.0, 0.005005204173090602
1014.0, 0.004514381767830722
1015.0, 0.006257325276129324
1016.0, 0.005810467700544229
1017.0, 0.003638544890459377
1018.0, 0.0055456516193084365
1019.0, 0.006728486246024314
1020.0, 0.004546471608869883
1021.0, 0.005456131138427683
1022.0, 0.005165521712245124
1023.0, 0.005086848441670075
1024.0, 0.005325709548210002
1025.0, 0.005989950555119061
1026.0, 0.006404912825487396
1027.0, 0.0054075048962967075
1028.0, 0.003574661269997802
1029.0, 0.00408482183537373
1030.0, 0.003806659755078912
1031.0, 0.005285049904896285
1032.0, 0.004915538774105577
1033.0, 0.005349783875609262
1034.0, 0.005549809913743429
1035.0, 0.0058856809276917705
1036.0, 0.005475532088461298
1037.0, 0.004291021721310802
1038.0, 0.0035072431741069166
1039.0, 0.0025246793220605737
1040.0, 0.006470293290822445
1041.0, 0.006259514779790494
1042.0, 0.0029672918916054175
1043.0, 0.00374433032836469
1044.0, 0.002771374388056367
1045.0, 0.003687606413373378
1046.0, 0.004110581053046873
1047.0, 0.0032043083993696236
1048.0, 0.0036620935386012118
1049.0, 0.0030089637671139547
1050.0, 0.0016072358781190953
1051.0, 0.003817847522901074
1052.0, 0.004125202835246785
1053.0, 0.0037673998587243185
1054.0, 0.0014144991126267751
1055.0, 0.001898729802554751
1056.0, 0.0024836552766136673
1057.0, 0.00315170220756746
1058.0, 0.003829349740193722
1059.0, 0.0013311283061015176
1060.0, 0.001187724090542669
1061.0, 0.004174809424451144
1062.0, 0.0014244940083882225
1063.0, 0.005542649231898465
1064.0, 0.003417440395419201
1065.0, 0.0030996689916602486
1066.0, 0.003438657011550305
1067.0, 0.0042561628425785755
1068.0, 0.004905655268764392
1069.0, 0.004258937244053496
1070.0, 0.003988914470295717
1071.0, 0.002616476193022107
1072.0, 0.004042350698284392
1073.0, 0.0032514953810440193
1074.0, 0.004570178331018096
1075.0, 0.003761998569144755
1076.0, 0.0028351731535475075
1077.0, 0.0013717822121582508
1078.0, 0.002241204964282376
1079.0, 0.0046085605076680485
1080.0, 0.004026161078218395
1081.0, 0.002645658255289362
1082.0, 0.0006897480488891655
1083.0, 0.0034686169645543577
1084.0, 0.0015381440894351578
1085.0, 0.005299974786324112
1086.0, 0.001974359749648935
1087.0, 0.00272997412210232
1088.0, 0.0037159114305111355
1089.0, 0.003128995999686246
1090.0, 0.004349484259752383
1091.0, 0.005083142434430263
1092.0, 0.0006197856815421432
1093.0, 0.0016099227476935732
1094.0, 0.001092165303566743
1095.0, 0.004727594623591906
1096.0, 0.002015156355746105
1097.0, 0.0004415997892605049
1098.0, 0.00016941984903605676
1099.0, 0.002857419894736183
1100.0, 0.0037795552836500084
1101.0, 0.002979439449711599
1102.0, 0.00436433338161968
1103.0, 0.0022576501176890845
1104.0, 0.0036761983171980954
1105.0, 0.0041020444614395316
1106.0, 0.005522679158272365
1107.0, 0.001536566500775636
1108.0, 0.0016718245746748447
1109.0, 0.0008179014676659162
1110.0, 0.0017416481023014227
1111.0, 0.0028386341917678013
1112.0, 0.0026978328756644175
1113.0, 0.00260733403341401
1114.0, 0.001152017503222719
1115.0, 0.0003790317354884158
1116.0, 0.0028764335317643373
1117.0, 0.002734791240517576
1118.0, 0.003119300943143625
1119.0, 0.0035709954238130766
1120.0, 0.003317129542661447
1121.0, 0.0022461142790147133
1122.0, 0.0011690656733519583
1123.0, 0.0024059723720583665
1124.0, 0.003909331469679699
1125.0, 0.002552396373007234
1126.0, 0.005125968744345108
1127.0, 0.0060413817231228534
1128.0, 0.0014436566632823988
1129.0, 0.001020749819814479
1130.0, 0.0040051102045733766
1131.0, 0.004043269921698457
1132.0, 0.003473678687457518
1133.0, 0.0017036787599515426
1134.0, 0.002113392041548954
1135.0, 0.004249495058992228
1136.0, 0.0032783945459843615
1137.0, 0.0011964670827718945
1138.0, 0.0037034128100842155
1139.0, 0.0047807591794203855
1140.0, 0.000854793126232004
1141.0, 0.004269524002967737
1142.0, 0.004189743230102013
1143.0, 0.005321827061637791
1144.0, 0.0036633331772549
1145.0, 0.00386082718128319
1146.0, 0.004543322984920223
1147.0, 0.004187420367622815
1148.0, 0.005110561036647233
1149.0, 0.004220477985141937
1150.0, 0.002878714341069549
1151.0, 0.004512699235915137
1152.0, 0.0022135824384711825
1153.0, 0.00629796871255845
1154.0, 0.002426994155200447
1155.0, 0.00214711827325313
1156.0, 0.0014667802573370516
1157.0, 0.0028122396004584293
1158.0, 0.0026451939044640576
1159.0, 0.00023285819072034475
1160.0, 0.00043313199807074623
1161.0, 0.0006473978483747212
1162.0, 0.001944281761849419
1163.0, 0.001637892744895042
1164.0, 0.0006213200243076182
1165.0, 0.005199086743787617
1166.0, 0.004967693124537102
1167.0, 0.0048335581061959764
1168.0, 0.002544913277362673
1169.0, 0.0024174587053482624
1170.0, 0.002180641666681201
1171.0, 0.0005761811221996614
1172.0, 0.00031517896692610786
1173.0, 0.00012036430092477041
1174.0, 0.00013993098346340617
1175.0, 0.0008490154472307393
1176.0, 0.0017979088651514656
1177.0, 0.00237473139803397
1178.0, 0.004043883586979043
1179.0, 0.003704897288384405
1180.0, 0.0038548035225686294
1181.0, 0.0040990112482615065
1182.0, 0.0030813072739438764
1183.0, 0.002304791923059934
1184.0, 0.003120389389534374
1185.0, 0.0031407573290183157
1186.0, 0.000835965471859043
1187.0, 0.0011991318745786478
1188.0, 0.001993528615206838
1189.0, 0.00042512914317755835
1190.0, 0.00025283547313550194
1191.0, 0.0006737706088924798
1192.0, 0.0010189124986100925
1193.0, 0.0016539824886005786
1194.0, 0.0024918191567468357
1195.0, 0.001973033630595123
1196.0, 0.0008198918371588027
1197.0, 0.00042556833292692873
1198.0, 0.0007305993811219602
1199.0, 0.0027884538170996746
1200.0, 0.002634457717069054
1201.0, 0.00014461973654199484
1202.0, 0.005440971596462571
1203.0, 0.005106031315925015
1204.0, 0.0015037579321591876
1205.0, 0.002397001677137293
1206.0, 0.006819796958372709
1207.0, 0.005231983065354068
1208.0, 0.0030931714052992066
1209.0, 0.0034474708597896954
1210.0, 0.0020390391084777913
1211.0, 0.0007586849081348443
1212.0, 0.0012266664036083865
1213.0, 0.002155310497138903
1214.0, 0.002841392891025606
1215.0, 0.0010457120033924028
1216.0, 0.0022030561318756242
1217.0, 0.002479495295951608
1218.0, 0.0007462920263017097
1219.0, 0.0032172491711265202
1220.0, 0.004233700166603831
1221.0, 0.002969825035234284
1222.0, 0.0020783858250780344
1223.0, 0.001425663258390883
1224.0, 0.0013707419654887536
1225.0, 0.003097663649301485
1226.0, 0.0017350467425787345
1227.0, 0.005056994500868112
1228.0, 0.00681994397879767
1229.0, 0.004275590414332547
1230.0, 0.005430731694512004
1231.0, 0.004853238729906281
1232.0, 0.0037974044641867558
1233.0, 0.0021396213907352245
1234.0, 0.0017992475688635083
1235.0, 0.0015760891345592935
1236.0, 0.0013369171850433513
1237.0, 0.0017571084006588868
1238.0, 0.0016638279090648034
1239.0, 0.0029656843921886033
1240.0, 0.00458671306421953
1241.0, 0.0027535878477131055
1242.0, 0.0002479647853159059
1243.0, 0.0039020095049465617
1244.0, 0.0012827845003763032
1245.0, 0.0001770438691382902
1246.0, 0.002028852790935634
1247.0, 0.0037492701990193707
1248.0, 0.00242211721711297
1249.0, 0.0005703399479823748
1250.0, 0.0005918456660939883
1251.0, 0.0012455434982174593
1252.0, 0.0016459693473624523
1253.0, 0.0018829743474070909
1254.0, 0.0005353673527423951
1255.0, 0.0009123309120343534
1256.0, 0.0009304495930866153
1257.0, 0.0009300364661901247
1258.0, 0.0013331378001138507
1259.0, 0.0016589281789669008
1260.0, 0.002023601921574708
1261.0, 0.002088962720427109
1262.0, 0.0017016631027784626
1263.0, 0.0014579711849456044
1264.0, 0.0015309223968809145
1265.0, 0.002096766679370883
1266.0, 0.0029657430278658575
1267.0, 0.002909472913371609
1268.0, 0.0034296352944219975
1269.0, 0.005163802776367833
1270.0, 0.003769561951000483
1271.0, 0.005291554462336115
1272.0, 0.005403615672686043
1273.0, 0.005479165474246313
1274.0, 0.005406301575044055
1275.0, 0.003135550450845174
1276.0, 0.002126581451323908
1277.0, 0.0023872685203893437
1278.0, 0.0024917047884776495
1279.0, 0.002544254890098817
1280.0, 0.002325694328926636
1281.0, 0.0012993011149894417
1282.0, 0.0007815748045670256
1283.0, 0.00106304358419854
1284.0, 0.00215171579510176
1285.0, 0.0006604248286538646
1286.0, 0.0021622618162667655
1287.0, 0.0021713991059516178
1288.0, 0.0009240483937029398
1289.0, 0.0003100692931803401
1290.0, 0.0003203630733374234
1291.0, 0.002031582757035654
1292.0, 0.0025298279437060847
1293.0, 0.0020035824837051357
1294.0, 0.001960999134181401
1295.0, 0.0015178847388345091
1296.0, 0.0027258350081335774
1297.0, 0.006296382019907668
1298.0, 0.00101463992909127
1299.0, 0.0020044302254355485
1300.0, 0.003835849508704887
1301.0, 0.0006338588883254075
1302.0, 0.004626442660447539
1303.0, 0.0028701506713123804
1304.0, 0.001872001342301737
1305.0, 0.003094793877673257
1306.0, 0.0030968945134080407
1307.0, 0.0029779993028856335
1308.0, 0.0027586969187715555
1309.0, 0.002655745451355558
1310.0, 0.0028935328389306223
1311.0, 0.0027931161733268286
1312.0, 0.0025528345868605236
1313.0, 0.002079103332281472
1314.0, 0.0008792803180277034
1315.0, 0.0030714950619502345
1316.0, 0.00019530689206907108
1317.0, 0.004055976529002682
1318.0, 0.002870276402073443
1319.0, 0.005755460180080364
1320.0, 0.004911132054228407
1321.0, 0.002917043507023188
1322.0, 0.002951145112759926
1323.0, 0.0027359323435779954
1324.0, 0.003021936789640928
1325.0, 0.003526155896755965
1326.0, 0.0032329842636192583
1327.0, 0.0029938552429689446
1328.0, 0.0028346956554905086
1329.0, 0.002482410058423837
1330.0, 0.003891641754943376
1331.0, 0.00478283235516566
1332.0, 0.006746779806805839
1333.0, 0.005269958492231887
1334.0, 0.004603895749534216
1335.0, 0.002292105263997368
1336.0, 0.004178509164660289
1337.0, 0.0030163122253771533
1338.0, 0.004904764190306114
1339.0, 0.006563371933825189
1340.0, 0.004748052888768514
1341.0, 0.0025678165794188117
1342.0, 0.0025519678311305646
1343.0, 0.0021601268467563244
1344.0, 0.0017674938072174142
1345.0, 0.003193917085928548
1346.0, 0.0014985436912778186
1347.0, 0.001208436265774333
1348.0, 0.003232671636128755
1349.0, 0.002628556827096848
1350.0, 0.0032755870803751284
1351.0, 0.0026945710944811176
1352.0, 0.0059301089425556576
1353.0, 0.005693735934383523
1354.0, 0.004306091592880463
1355.0, 0.0024722201166173813
1356.0, 0.003706248657363375
1357.0, 0.003121756015410409
1358.0, 0.0011813289856401398
1359.0, 0.0011579418420968506
1360.0, 0.0027944535728429082
1361.0, 0.004607299116208935
1362.0, 0.004407888632731875
1363.0, 0.0023380308251546612
1364.0, 0.00341607495399011
1365.0, 0.00100761508730593
1366.0, 0.004584282125546399
1367.0, 0.004846639225872101
1368.0, 0.0017076728273142216
1369.0, 0.004092936320975761
1370.0, 0.0023460506394773293
1371.0, 0.0034296342140106625
1372.0, 0.0023155398186839268
1373.0, 0.0031180885292684197
1374.0, 0.0023435423419602597
1375.0, 0.005143948491375439
1376.0, 0.00567455401801006
1377.0, 0.004449527002568603
1378.0, 0.00255966972113792
1379.0, 0.0018003871889206175
1380.0, 0.0030666628493175104
1381.0, 0.0010712556517842142
1382.0, 0.0006286554996876115
1383.0, 0.0014134091640333022
1384.0, 0.004004747684740701
1385.0, 0.003469108482736642
1386.0, 0.007067515963586971
1387.0, 0.0029645046638279576
1388.0, 0.0019293429185125274
1389.0, 0.005078585655423615
1390.0, 0.0015168085671780711
1391.0, 0.0004508538614572884
1392.0, 0.002417448146973843
1393.0, 0.005305571191594656
1394.0, 0.004875084679345982
1395.0, 0.005135157328260171
1396.0, 0.005056399876881317
1397.0, 0.003530240278254171
1398.0, 0.0023954474483958354
1399.0, 0.0036687901671860782
1400.0, 0.005558586894530626
1401.0, 0.0035468566538454744
1402.0, 0.006050432506904105
1403.0, 0.006232009508135645
1404.0, 0.0064428415034949865
1405.0, 0.003257216673701239
1406.0, 0.001930468084129384
1407.0, 0.004861749464602289
1408.0, 0.0040582105622898644
1409.0, 0.0044050677957278555
1410.0, 0.001345385124517357
1411.0, 0.0021101556638340986
1412.0, 0.0011407985746791165
1413.0, 0.0024080134992164786
1414.0, 0.004420070016760387
1415.0, 0.005248346808667072
1416.0, 0.006812199072496806
1417.0, 0.006131551343027066
1418.0, 0.004829416177526904
1419.0, 0.006708999508380971
1420.0, 0.006851505890219937
1421.0, 0.0038409805276332096
1422.0, 0.002038845134424786
1423.0, 0.0031015902140881426
1424.0, 0.0023232635038593703
1425.0, 0.006205474001188812
1426.0, 0.007584148687760776
1427.0, 0.007254881358777176
1428.0, 0.008525372523901745
1429.0, 0.004956153962681391
1430.0, 0.0033226905690657347
1431.0, 0.004514118233852633
1432.0, 0.007443054973256308
1433.0, 0.005482111715516266
1434.0, 0.004738742754723419
1435.0, 0.004472751902156423
1436.0, 0.005379403723472154
1437.0, 0.0035963713760078083
1438.0, 0.0018530621157847038
1439.0, 0.0034047703802113655
1440.0, 0.00578383123878944
1441.0, 0.0065480694155791806
1442.0, 0.005958281133833842
1443.0, 0.006902220740239539
1444.0, 0.006471856909951469
1445.0, 0.005111379619812853
1446.0, 0.005540926323685437
1447.0, 0.005988623563043056
1448.0, 0.004891612480477816
1449.0, 0.004948188915208222
1450.0, 0.005401872446497721
1451.0, 0.002302354761108194
1452.0, 0.005176577201670996
1453.0, 0.005114330470245059
1454.0, 0.0034739331027713216
1455.0, 0.004122927538959334
1456.0, 0.003850196312988684
1457.0, 0.00485224576974955
1458.0, 0.0049585586888802324
1459.0, 0.005388793681962502
1460.0, 0.006210432510976646
1461.0, 0.004983193441584735
1462.0, 0.0032607583128516685
1463.0, 0.0030036644203449672
1464.0, 0.0028240303114937812
1465.0, 0.0018596641251624572
1466.0, 0.0016329326274927506
1467.0, 0.0037187609611171236
1468.0, 0.0042232522093835715
1469.0, 0.005365178489287897
1470.0, 0.00437838575491491
1471.0, 0.004215017819033843
1472.0, 0.004433939865931199
1473.0, 0.005150778821438637
1474.0, 0.0072611295423515645
1475.0, 0.0019892789275709885
1476.0, 0.0034137024410081382
1477.0, 0.004485255253136289
1478.0, 0.0021134789371681584
1479.0, 0.0039372054707363805
1480.0, 0.002016798780852813
1481.0, 0.0018942564256093633
1482.0, 0.003944677845649405
1483.0, 0.005412480689700884
1484.0, 0.006431875599334433
1485.0, 0.005146369000075514
1486.0, 0.00430794682031119
1487.0, 0.00517387646100295
1488.0, 0.006527911539226829
1489.0, 0.005530255743477307
1490.0, 0.002671162086613718
1491.0, 0.00491454688412807
1492.0, 0.00567040275889142
1493.0, 0.003960560436282011
1494.0, 0.006381796851877007
1495.0, 0.006219548708391639
1496.0, 0.0031449529236489684
1497.0, 0.004072500951467563
1498.0, 0.006137386925293445
1499.0, 0.0017248618898503057
1500.0, 0.005915148700428751
1501.0, 0.0006054678304290516
1502.0, 0.0008608715519299876
1503.0, 0.0005897513255564903
1504.0, 0.0028957118380360126
1505.0, 0.0006565408042892823
1506.0, 0.001022436549750872
1507.0, 0.002809963830730191
1508.0, 0.0025000855679143084
1509.0, 0.0014959099105033746
1510.0, 0.001745698432348175
1511.0, 0.001342489160562768
1512.0, 0.0017056548752941414
1513.0, 0.0019131391057419166
1514.0, 0.0022597588220558042
1515.0, 0.0023248647867611235
1516.0, 0.0019650599120916734
1517.0, 0.0034037651286522954
1518.0, 0.003884297889489594
1519.0, 0.0037592090710471667
1520.0, 0.0047018513547623115
1521.0, 0.0008465700155325695
1522.0, 0.0022965239613976776
1523.0, 0.001973171263068986
1524.0, 0.0047964820614465305
1525.0, 0.00449521533402383
1526.0, 0.004947217756437354
1527.0, 0.00410782979244669
1528.0, 0.0022640995127240493
1529.0, 0.001412829337235923
1530.0, 0.004918508155621216
1531.0, 0.006859304470504975
1532.0, 0.0019047572702931086
1533.0, 0.006729178981237401
1534.0, 0.006719550646025529
1535.0, 0.002887004354886806
1536.0, 0.000604400319928058
1537.0, 0.0022042505060175677
1538.0, 0.003174124787272721
1539.0, 0.00455477307747385
1540.0, 0.004616731168647415
1541.0, 0.0026901516662033204
1542.0, 0.0015881338691418742
1543.0, 0.0024602794899861407
1544.0, 0.002687836723584342
1545.0, 0.0036025357509807056
1546.0, 0.004171969070458596
1547.0, 0.003717677494047423
1548.0, 0.003045387082881005
1549.0, 0.0011646063080942238
1550.0, 0.0004357778512570812
1551.0, 0.0011995757338458734
1552.0, 0.002588369960445152
1553.0, 0.0027436923095340337
1554.0, 0.0025045373386624915
1555.0, 0.005822163730212869
1556.0, 0.005347835767705654
1557.0, 0.0009609782973879013
1558.0, 0.0008381791443517188
1559.0, 0.003956185427904612
1560.0, 0.0003978948073156243
1561.0, 0.003382401507890445
1562, 0.0
1563, 0.0
1564, 0.0
1565, 0.0
1566, 0.0
1567, 0.0
1568, 0.0
1569, 0.0
1570, 0.0
1571, 0.0
1572, 0.0
1573, 0.0
1574, 0.0
1575, 0.0
1576, 0.0
1577, 0.0
1578, 0.0
1579, 0.0
1580, 0.0
1581, 0.0
1582, 0.0
1583, 0.0
1584, 0.0
1585, 0.0
1586, 0.0
1587, 0.0
1588, 0.0
1589, 0.0
1590, 0.0
1591, 0.0
1592, 0.0
1593, 0.0
1594, 0.0
1595, 0.0
1596, 0.0
1597, 0.0
1598, 0.0
1599, 0.0
