30, 0.0
31, 0.0
32, 0.0
33, 0.0
34, 0.0
35, 0.0
36, 0.0
37, 0.0
38, 0.0
39, 0.0
40, 0.0
41, 0.0
42, 0.0
43, 0.0
44, 0.0
45, 0.0
46, 0.0
47, 0.0
48, 0.0
49, 0.0
50, 0.0
51, 0.0
52.0, 0.00040943597088647304
53.0, 0.0011742870678342755
54.0, 0.0019576726253745153
55.0, 0.0019947099661933496
56.0, 0.002568907740214795
57.0, 0.003748070078644413
58.0, 0.004857899482768209
59.0, 0.005000011471993146
60.0, 0.0031613824345835644
61.0, 0.0015228088049196004
62.0, 0.0007376877738591322
63.0, 0.000594724009171999
64.0, 0.0007830835060432496
65.0, 0.0011463462935840656
66.0, 0.000839109567748551
67.0, 0.0007466247977385176
68.0, 0.004827442123437149
69.0, 0.011058234332776236
70.0, 0.009322657583508786
71.0, 0.02135432818559799
72.0, 0.01741700325695213
73.0, 0.012765375232605066
74.0, 0.013430650090469
75.0, 0.017402263338892804
76.0, 0.021207692340446133
77.0, 0.018346714729742968
78.0, 0.016094370988017463
79.0, 0.01735485228238
80.0, 0.022535521478785125
81.0, 0.029132449395071452
82.0, 0.03945666829968228
83.0, 0.04854799358142774
84.0, 0.052102465759706305
85.0, 0.048800214377554114
86.0, 0.04521134441126623
87.0, 0.04769637327767834
88.0, 0.053375803594447234
89.0, 0.06147182429894826
90.0, 0.07235484910853475
91.0, 0.08798185835452006
92.0, 0.09560892232921638
93.0, 0.10074305954099623
94.0, 0.10633064117536409
95.0, 0.11278076403673296
96.0, 0.11883203387910128
97.0, 0.13024352595417166
98.0, 0.1514245422050055
99.0, 0.18165732116457756
100.0, 0.22393591994881087
101.0, 0.2859446122478038
102.0, 0.39713318864103286
103.0, 0.5780379075713857
104.0, 0.799170112503221
105.0, 0.9587318219132788
106.0, 0.9781593297377958
107.0, 0.8601016526448021
108.0, 0.645267163212735
109.0, 0.531703590648866
110.0, 0.4007280030595507
111.0, 0.23916495588260883
112.0, 0.16854180836043936
113.0, 0.13844147548876617
114.0, 0.1246580496735559
115.0, 0.11951017407629858
116.0, 0.11499175671632422
117.0, 0.10489634054757598
118.0, 0.09582925226737808
119.0, 0.08737412981976579
120.0, 0.08177225153700246
121.0, 0.07966262096955842
122.0, 0.080297475893158
123.0, 0.08060604406309865
124.0, 0.08983067932165756
125.0, 0.08800654777332648
126.0, 0.08244896385440491
127.0, 0.07665675512384097
128.0, 0.0671668467210578
129.0, 0.06169864430476333
130.0, 0.05972584649792551
131.0, 0.058290533238932865
132.0, 0.0555127915320392
133.0, 0.05102393606602092
134.0, 0.049898510359558224
135.0, 0.05007691818083354
136.0, 0.051331798017931016
137.0, 0.05347621662340266
138.0, 0.05536155311798386
139.0, 0.053649613485779866
140.0, 0.05659695589225194
141.0, 0.05331625017913108
142.0, 0.04862152489845809
143.0, 0.045605603334189004
144.0, 0.044400495875339105
145.0, 0.041846081438760487
146.0, 0.04142174278531681
147.0, 0.0410595285576069
148.0, 0.04158774038847372
149.0, 0.04366868296334953
150.0, 0.04221605505594898
151.0, 0.044531900414885875
152.0, 0.047415677856998024
153.0, 0.04718624845975299
154.0, 0.043704259696559764
155.0, 0.042423128175930865
156.0, 0.04177023745709743
157.0, 0.04006127725237416
158.0, 0.03937462207393671
159.0, 0.04022902987355566
160.0, 0.042051161504596785
161.0, 0.04446143960395874
162.0, 0.04910020021757473
163.0, 0.05453674317402863
164.0, 0.05965659440753021
165.0, 0.06455903768436068
166.0, 0.07197866112982285
167.0, 0.07547543449446137
168.0, 0.08085843929787749
169.0, 0.08668786373850296
170.0, 0.09315650942328216
171.0, 0.1018494634616
172.0, 0.11083686511331244
173.0, 0.12549116207489353
174.0, 0.15169169930578347
175.0, 0.19240269042783392
176.0, 0.2540976165578285
177.0, 0.3586423567902785
178.0, 0.5139773379847019
179.0, 0.6510336945583285
180.0, 0.6861927889483963
181.0, 0.5970388959289347
182.0, 0.4315002007004025
183.0, 0.29471300284041896
184.0, 0.20959941885312322
185.0, 0.15890845740112167
186.0, 0.1325357809997803
187.0, 0.12506128430143448
188.0, 0.14173548205671785
189.0, 0.21945386974271544
190.0, 0.2108258757405933
191.0, 0.21118469149022434
192.0, 0.2501095273231587
193.0, 0.2597107685858371
194.0, 0.21638868158404223
195.0, 0.17020534182535385
196.0, 0.13273822203611388
197.0, 0.10787983378303724
198.0, 0.0947476995392591
199.0, 0.08816601317300926
200.0, 0.09533257448731747
201.0, 0.10316287098341215
202.0, 0.10372920198003512
203.0, 0.09493799126967088
204.0, 0.08051816234746367
205.0, 0.06063595242457102
206.0, 0.049360359898057246
207.0, 0.042647512305673284
208.0, 0.03872163747953045
209.0, 0.036391215269499656
210.0, 0.03427165552596319
211.0, 0.03563978329566841
212.0, 0.03476668089860598
213.0, 0.034736195845114545
214.0, 0.03581254102613883
215.0, 0.03556390884950402
216.0, 0.03548941631329061
217.0, 0.03555268017822974
218.0, 0.03686918551567772
219.0, 0.039831881407824725
220.0, 0.04470448101780044
221.0, 0.051981583407681164
222.0, 0.05967786339246131
223.0, 0.06787844112414126
224.0, 0.06884393572041361
225.0, 0.061354597694450286
226.0, 0.049526650994135245
227.0, 0.03973218743184376
228.0, 0.03463021007788069
229.0, 0.02994690626488009
230.0, 0.02662810371228949
231.0, 0.02504619272081796
232.0, 0.02340455958058829
233.0, 0.02220303355351453
234.0, 0.02246180289636288
235.0, 0.021479017645247594
236.0, 0.020541790971324695
237.0, 0.021253144253038682
238.0, 0.01970909393529773
239.0, 0.020021510847348146
240.0, 0.01968499467115672
241.0, 0.020296649565068367
242.0, 0.020965492625861257
243.0, 0.018902296202233743
244.0, 0.019924947606739428
245.0, 0.02168958730595849
246.0, 0.02203224954342234
247.0, 0.02173368323835392
248.0, 0.021961804556242717
249.0, 0.022981179070234004
250.0, 0.023025851813541196
251.0, 0.022136654587373156
252.0, 0.02162655441093618
253.0, 0.022247613143173334
254.0, 0.023694198396236158
255.0, 0.022862098376023692
256.0, 0.02424189761183728
257.0, 0.02828905825221987
258.0, 0.03514379879257737
259.0, 0.04032366729830525
260.0, 0.036878029028356456
261.0, 0.04058776111263093
262.0, 0.033490372994878524
263.0, 0.02856712356051654
264.0, 0.025697724438115833
265.0, 0.022913687543239712
266.0, 0.021786817862259465
267.0, 0.02146328461796606
268.0, 0.02229090261479291
269.0, 0.021481957985421435
270.0, 0.02020596563430754
271.0, 0.0209257776220212
272.0, 0.023032319895235107
273.0, 0.022447351070072678
274.0, 0.02284130132533984
275.0, 0.023789676791959095
276.0, 0.025058682914001245
277.0, 0.02649699130347961
278.0, 0.024496870066815245
279.0, 0.025369435948340287
280.0, 0.026304671909259458
281.0, 0.027433971545616536
282.0, 0.029096579143669456
283.0, 0.031065029567884116
284.0, 0.03323568888416011
285.0, 0.033773851112219255
286.0, 0.03605610311456248
287.0, 0.03856241337503835
288.0, 0.03975060639454455
289.0, 0.04232306678370951
290.0, 0.043782921334364934
291.0, 0.045518792101549285
292.0, 0.047732256939246036
293.0, 0.050050515508217396
294.0, 0.052071335195725564
295.0, 0.05450003746272126
296.0, 0.05627208272487255
297.0, 0.059268601681652704
298.0, 0.06239857711905885
299.0, 0.0660430637363433
300.0, 0.07129231280001475
301.0, 0.07374829302263064
302.0, 0.0820357950073772
303.0, 0.0901625850818067
304.0, 0.10016976542420822
305.0, 0.11278855520175772
306.0, 0.12538424102085358
307.0, 0.13518149248241554
308.0, 0.14223988368731352
309.0, 0.14165976992694543
310.0, 0.13474103996709055
311.0, 0.12419321607168327
312.0, 0.1117239088563587
313.0, 0.09909989864181376
314.0, 0.09305655143889727
315.0, 0.08399841821013115
316.0, 0.07435966346335568
317.0, 0.06888310376121932
318.0, 0.065923664604101
319.0, 0.06365782527810253
320.0, 0.0639768160362194
321.0, 0.06496991660113996
322.0, 0.06681634783819757
323.0, 0.07033069661094962
324.0, 0.0745754322085164
325.0, 0.08162107716924172
326.0, 0.08989147936570809
327.0, 0.100044833109147
328.0, 0.11349661599951028
329.0, 0.13154925795215686
330.0, 0.15385755410033727
331.0, 0.1890542969853918
332.0, 0.22646091129782409
333.0, 0.25967633106562305
334.0, 0.2783470506734642
335.0, 0.2709567923629789
336.0, 0.2322079703485565
337.0, 0.1886535311976504
338.0, 0.14852080903416937
339.0, 0.11647230843382247
340.0, 0.09383615115846416
341.0, 0.0790031169173957
342.0, 0.07144787249678576
343.0, 0.06776879829600062
344.0, 0.06715192377377958
345.0, 0.06939271580636151
346.0, 0.07360199203690633
347.0, 0.07831491642313382
348.0, 0.08345928968630162
349.0, 0.08305189345487993
350.0, 0.07488042872757612
351.0, 0.06219952926389963
352.0, 0.05008636541048534
353.0, 0.042785642533260435
354.0, 0.03298493617466652
355.0, 0.02730083414064149
356.0, 0.021109516675454097
357.0, 0.015943600684291008
358.0, 0.013465862248931048
359.0, 0.013253667494527714
360.0, 0.011088146558979078
361.0, 0.010271487909926545
362.0, 0.009699094788624116
363.0, 0.00945833738018818
364.0, 0.009721799126135808
365.0, 0.010172647005811039
366.0, 0.007637442393394149
367.0, 0.008707772681892205
368.0, 0.00959149299557219
369.0, 0.010761548265881413
370.0, 0.01296822697630023
371.0, 0.015693221377019
372.0, 0.016481645807861444
373.0, 0.02009458976268673
374.0, 0.02577554376937241
375.0, 0.032607025354092545
376.0, 0.04175460378233273
377.0, 0.05623175781282479
378.0, 0.06927875940522069
379.0, 0.07956257992919452
380.0, 0.08098631081274102
381.0, 0.07653889175304736
382.0, 0.06885323063686158
383.0, 0.0576860905079355
384.0, 0.04887729471561425
385.0, 0.04024871180651472
386.0, 0.034208999132241326
387.0, 0.02864422050594996
388.0, 0.02274034554384853
389.0, 0.018048294793636562
390.0, 0.013401898868308868
391.0, 0.009405429135847816
392.0, 0.007512532065543196
393.0, 0.0058244200268328175
394.0, 0.003827497198452203
395.0, 0.0027669325981898732
396.0, 0.001370209911172439
397.0, 0.0007862996242997511
398.0, 0.0004880727325239042
399.0, 0.0006404498753536573
400.0, 0.0012829478412009617
401.0, 0.0021384929991702505
402.0, 0.0023498301823696517
403.0, 0.001920771798588122
404.0, 0.002489869751343405
405.0, 0.0037774482086606795
406.0, 0.004515596964443177
407.0, 0.0039027727492846774
408.0, 0.004946374699733606
409.0, 0.005352281306916336
410.0, 0.0052788258938215515
411.0, 0.005587643137912874
412.0, 0.005849809045661784
413.0, 0.005307769118814341
414.0, 0.004734328651531478
415.0, 0.005076440500274975
416.0, 0.0055349200789862
417.0, 0.005462774815122712
418.0, 0.005035003198049706
419.0, 0.004791246622189682
420.0, 0.005075485128858715
421.0, 0.004674055322525617
422.0, 0.005114506625957851
423.0, 0.0045028741371186745
424.0, 0.004100372895823813
425.0, 0.0042428462367987375
426.0, 0.00221761293352724
427.0, 0.0026531751342941095
428.0, 0.002918426385945639
429.0, 0.0023676692442732095
430.0, 0.0018742365755875549
431.0, 0.0015970665315610158
432.0, 0.0005829527599940484
433.0, 5.689366845769352e-05
434.0, 0.0005111259767857836
435.0, 0.0003334461617844927
436.0, 0.0003888918673134853
437.0, 0.000584094879522593
438.0, 5.009178503362056e-05
439.0, 6.064354039936209e-05
440.0, 0.0009842455983867585
441.0, 0.0020939450844845967
442.0, 0.002521562491392261
443.0, 0.0033665089193891584
444.0, 0.005100904189428558
445.0, 0.0030811112003081165
446.0, 0.002252450228205351
447.0, 0.0027428628700086246
448.0, 0.0034735684900342513
449.0, 0.0038604788572872135
450.0, 0.004331329268414099
451.0, 0.006301261790373242
452.0, 0.0056354012733076785
453.0, 0.007754793456718357
454.0, 0.007685798262610859
455.0, 0.008385038913662376
456.0, 0.010693904827585388
457.0, 0.011415938146278925
458.0, 0.014936456534154343
459.0, 0.016493002193428644
460.0, 0.018280144854191025
461.0, 0.02164842318974562
462.0, 0.025668825612199145
463.0, 0.029200001243882397
464.0, 0.03609497791959319
465.0, 0.04358319640036216
466.0, 0.05097947033295021
467.0, 0.06064585122385563
468.0, 0.07342322612866152
469.0, 0.08947846610235087
470.0, 0.10930343099854464
471.0, 0.1323517082021364
472.0, 0.1659682978038511
473.0, 0.20196621113805593
474.0, 0.23813812679987117
475.0, 0.26843752989310476
476.0, 0.28186602696509805
477.0, 0.27242285406373706
478.0, 0.24296693936355546
479.0, 0.2065498322967586
480.0, 0.17051951577321237
481.0, 0.13732290505098066
482.0, 0.10778990730431849
483.0, 0.08764331072270598
484.0, 0.07250820797678344
485.0, 0.06486165760938571
486.0, 0.05519545782320993
487.0, 0.045914605529774145
488.0, 0.04064622008389463
489.0, 0.03715467581124826
490.0, 0.03648306642975033
491.0, 0.03485703746123933
492.0, 0.03365639996071427
493.0, 0.034451250014988985
494.0, 0.03647349214695781
495.0, 0.037875599710284
496.0, 0.040489878631666004
497.0, 0.04567023159069627
498.0, 0.05183771580659535
499.0, 0.06046565794833025
500.0, 0.07144885434591726
501.0, 0.081920281155624
502.0, 0.08630745254862751
503.0, 0.0829148032969064
504.0, 0.07531135184716342
505.0, 0.06408274542172049
506.0, 0.05298292068827541
507.0, 0.043261075828565525
508.0, 0.03399461728847766
509.0, 0.02841460196217403
510.0, 0.02144006698375063
511.0, 0.018619828477042175
512.0, 0.016808793851220687
513.0, 0.014991410314552114
514.0, 0.013610178438223056
515.0, 0.01305423942849394
516.0, 0.011617546893780478
517.0, 0.011728953474114902
518.0, 0.010421678302249252
519.0, 0.009661879772304767
520.0, 0.01012604609605671
521.0, 0.010772711748475213
522.0, 0.012173740198731195
523.0, 0.01089157404962205
524.0, 0.011254330963426372
525.0, 0.01182967272058163
526.0, 0.013159215760283295
527.0, 0.015200927528167651
528.0, 0.016038227636478067
529.0, 0.018348016133442113
530.0, 0.019941959050422123
531.0, 0.023012093347973054
532.0, 0.02806424189951171
533.0, 0.03376452413182648
534.0, 0.03936513860062965
535.0, 0.04856333861195507
536.0, 0.05751995786675497
537.0, 0.0670145327321463
538.0, 0.07536803578764943
539.0, 0.07962833416674849
540.0, 0.07792597496013892
541.0, 0.07052532624717482
542.0, 0.05900499551828729
543.0, 0.04873491145101377
544.0, 0.04161618477822845
545.0, 0.03634416720658553
546.0, 0.0319689185421849
547.0, 0.028677694226778662
548.0, 0.027707280941727964
549.0, 0.02710304759148501
550.0, 0.02728601445856525
551.0, 0.02850506743901167
552.0, 0.02992257216871633
553.0, 0.03224216925245029
554.0, 0.03593289730788007
555.0, 0.03689632475461018
556.0, 0.04414788420941751
557.0, 0.04660290667017284
558.0, 0.04853961199802513
559.0, 0.049240771326338105
560.0, 0.04703235342649295
561.0, 0.04185769158923468
562.0, 0.036486358351030354
563.0, 0.033249228000122685
564.0, 0.029072524632389383
565.0, 0.025581345926686892
566.0, 0.02265486082142851
567.0, 0.019357394545543884
568.0, 0.01555055956507548
569.0, 0.014613298288056005
570.0, 0.014454511387478296
571.0, 0.012065200555066343
572.0, 0.010892362418018301
573.0, 0.010680188803250307
574.0, 0.009598167609034317
575.0, 0.008934575728233597
576.0, 0.007567154016684799
577.0, 0.006915942307338306
578.0, 0.0066751724093157975
579.0, 0.0062291880679524346
580.0, 0.0057332675348611955
581.0, 0.005940034971751308
582.0, 0.0071974985046087065
583.0, 0.005776867516247362
584.0, 0.00683070399739941
585.0, 0.006502564887080549
586.0, 0.006062649400705825
587.0, 0.006537069645211874
588.0, 0.007212189211800394
589.0, 0.008026264663043868
590.0, 0.009885047087761155
591.0, 0.009850484230893054
592.0, 0.010490929857520127
593.0, 0.011866228604232256
594.0, 0.013638130192471795
595.0, 0.01605037058474634
596.0, 0.01846325800052154
597.0, 0.021255434369486934
598.0, 0.024249988969735375
599.0, 0.027613932036592657
600.0, 0.031617600227546755
601.0, 0.0360163584157503
602.0, 0.04043207324549378
603.0, 0.04789563588994766
604.0, 0.05457494956890943
605.0, 0.06127168110840315
606.0, 0.06980999763475548
607.0, 0.08065144549193529
608.0, 0.09293932393741416
609.0, 0.10544963559454372
610.0, 0.11964886026923871
611.0, 0.13810417460782948
612.0, 0.1523321421590834
613.0, 0.16831916359762308
614.0, 0.18642003978531496
615.0, 0.20179424751900416
616.0, 0.2093331120658863
617.0, 0.21485190699121615
618.0, 0.20862381561564508
619.0, 0.20274230464332016
620.0, 0.1939329720698252
621.0, 0.1851303991620415
622.0, 0.17978134023149722
623.0, 0.1759257596709979
624.0, 0.1752621927849877
625.0, 0.18238257518198348
626.0, 0.19474957278757482
627.0, 0.21053650350680536
628.0, 0.23019260783906065
629.0, 0.2557837490260361
630.0, 0.2891199335696099
631.0, 0.3279113856508846
632.0, 0.37862413663831734
633.0, 0.43363147310973976
634.0, 0.4940030152370358
635.0, 0.553110436042953
636.0, 0.603174699414841
637.0, 0.6404418745808935
638.0, 0.6558314511623097
639.0, 0.6383152340302609
640.0, 0.6042069480499167
641.0, 0.5489427363489869
642.0, 0.48255535419528395
643.0, 0.4178398259802603
644.0, 0.36004766849973696
645.0, 0.3095846095587234
646.0, 0.2624277857846218
647.0, 0.22363397541967625
648.0, 0.19308373293614423
649.0, 0.16808284238094476
650.0, 0.14686491991252065
651.0, 0.12909549410443308
652.0, 0.1117701188406947
653.0, 0.10044693972701575
654.0, 0.0890839443658558
655.0, 0.07966465696280185
656.0, 0.07223407399405155
657.0, 0.06565334853333823
658.0, 0.05913980482761004
659.0, 0.054155178865069147
660.0, 0.05007619345976479
661.0, 0.045799715100466744
662.0, 0.04249216746677644
663.0, 0.03923827037836916
664.0, 0.03638549597522144
665.0, 0.03438651168924833
666.0, 0.031100677483173307
667.0, 0.030417453308906942
668.0, 0.028644141317054547
669.0, 0.027266781989327676
670.0, 0.026265402060864904
671.0, 0.02533420791596269
672.0, 0.024747715629488288
673.0, 0.025247993861706685
674.0, 0.023620639633672388
675.0, 0.02233164836104905
676.0, 0.021745043952667728
677.0, 0.0206316529572625
678.0, 0.019767078175633453
679.0, 0.01961739863318857
680.0, 0.019411874423492608
681.0, 0.020667120970150676
682.0, 0.020405265525988293
683.0, 0.020877963378037177
684.0, 0.020577458375691242
685.0, 0.020537881425052005
686.0, 0.020932459439589823
687.0, 0.020823290808788985
688.0, 0.02083679039618834
689.0, 0.020820013641633668
690.0, 0.020887481979906117
691.0, 0.021305318291689333
692.0, 0.023239105285508842
693.0, 0.02451683861477376
694.0, 0.02355977765499008
695.0, 0.02385805038054869
696.0, 0.027168856115596336
697.0, 0.026146169039661153
698.0, 0.028121565372463443
699.0, 0.028860574178891363
700.0, 0.02995923791959672
701.0, 0.032222428528414566
702.0, 0.033274771545774795
703.0, 0.036676133684277495
704.0, 0.03596395234630173
705.0, 0.037709487328508526
706.0, 0.0389618854603409
707.0, 0.039064259382214195
708.0, 0.038376276249819194
709.0, 0.037946230761720066
710.0, 0.039174132058003026
711.0, 0.03893102387772641
712.0, 0.03738900915639419
713.0, 0.036060117091152
714.0, 0.03424687812914772
715.0, 0.03192262748629731
716.0, 0.029846218365916742
717.0, 0.028573730030055092
718.0, 0.02649450230910531
719.0, 0.024639553529629585
720.0, 0.022461882307734778
721.0, 0.020877829473694105
722.0, 0.01949822185981185
723.0, 0.018172341544973273
724.0, 0.01721010675586737
725.0, 0.01656154011400953
726.0, 0.01367357217781317
727.0, 0.013439327959806702
728.0, 0.012056846223789225
729.0, 0.011619478540227862
730.0, 0.011773807480772993
731.0, 0.011463083312978847
732.0, 0.010767949413521551
733.0, 0.010410019800066136
734.0, 0.00961467017786189
735.0, 0.010242199857040057
736.0, 0.011261485195354757
737.0, 0.011700920870348146
738.0, 0.011253048865088352
739.0, 0.010833964806466881
740.0, 0.011885142264991773
741.0, 0.011696033279087586
742.0, 0.012671180125134294
743.0, 0.01246440475442965
744.0, 0.012928690283084476
745.0, 0.014106854142083914
746.0, 0.014559753077577156
747.0, 0.01398322689378286
748.0, 0.015627918251525683
749.0, 0.01588984200388874
750.0, 0.015627048392484525
751.0, 0.016710839566645062
752.0, 0.01717200463757073
753.0, 0.017348783883480958
754.0, 0.017606966674534895
755.0, 0.01739457175124695
756.0, 0.01828763398681615
757.0, 0.017408833787944146
758.0, 0.0185853146057457
759.0, 0.017472544596570185
760.0, 0.016412822049086968
761.0, 0.015575137111455023
762.0, 0.014234652459788586
763.0, 0.013483395839618079
764.0, 0.013800714986964087
765.0, 0.013521065494973231
766.0, 0.012456832833210927
767.0, 0.010864706285751393
768.0, 0.010495143404495678
769.0, 0.009992880772370637
770.0, 0.008211001576726164
771.0, 0.008078877581484928
772.0, 0.008059953983884878
773.0, 0.007084288621468407
774.0, 0.006636841422007624
775.0, 0.006376543040467584
776.0, 0.006199481295287858
777.0, 0.006078874302592681
778.0, 0.006015619984078603
779.0, 0.0059976444806525055
780.0, 0.005212167944246358
781.0, 0.004770835825534356
782.0, 0.004706233728068859
783.0, 0.004276158005122549
784.0, 0.003867912663738577
785.0, 0.0037259224939399454
786.0, 0.0032165155901860117
787.0, 0.0015403157049523194
788.0, 0.0023978674387706853
789.0, 0.003085343726526951
790.0, 0.003962197773726936
791.0, 0.0030267950585335743
792.0, 0.002331057268406997
793.0, 0.0018823303112001678
794.0, 0.0005283008076120354
795.0, 0.0013929963961235
796.0, 0.001874483590034104
797.0, 0.0003752082502544898
798.0, 0.0014357915809667292
799.0, 0.0012956475330903358
800.0, 0.000510429942162178
801.0, 0.0002545425498022359
802.0, 0.0005461741216285939
803.0, 0.0013470815228912771
804.0, 0.0010048721090645868
805.0, 0.0009138451128833881
806.0, 0.0004336947529384221
807.0, 0.00027420300162365254
808.0, 0.00031664477859563256
809.0, 0.0005030009527031103
810.0, 0.0007711205212501275
811.0, 0.0005787570054790557
812.0, 0.0006812682361541018
813.0, 0.00017823755692616974
814.0, 0.0010516319646703231
815.0, 0.001717508450196257
816.0, 0.0017530768047041782
817.0, 0.0012144531903800014
818.0, 0.0005620078807119306
819.0, 0.0006398085550822525
820.0, 0.0010731205435454277
821.0, 0.0023763439022052254
822.0, 0.0026739965589991943
823.0, 0.002244060016334778
824.0, 0.001128101409937516
825.0, 0.00033253979053089007
826.0, 0.0004915818409399863
827.0, 0.0009789008026635983
828.0, 0.0023059688682273826
829.0, 0.0013057157522887964
830.0, 0.0007608896851974445
831.0, 0.0012141683308297315
832.0, 0.000938845977203201
833.0, 0.0006679222675024686
834.0, 0.0010233436809213739
835.0, 0.0013586469286315703
836.0, 0.0029116492588749806
837.0, 0.0010491980369217637
838.0, 0.0014007893751463146
839.0, 0.0013161005523126541
840.0, 0.0006924436259170936
841.0, 0.0004773543505904287
842.0, 0.0005236299764307681
843.0, 0.0002711825787837047
844.0, 0.0007919100401630429
845.0, 0.0011232887733961744
846.0, 0.0012664594390471846
847.0, 0.0013106571069980688
848.0, 0.0010712833904971744
849.0, 0.0006942732529990692
850.0, 0.0004285555830979456
851.0, 0.0005530967379338565
852.0, 0.0010329397149441567
853.0, 0.0005697048590224248
854.0, 0.000669931217018907
855.0, 0.00043498190830080694
856.0, 0.00022632654607417796
857.0, 0.0005866722860760033
858.0, 0.000780987540162514
859.0, 0.0005660825451044043
860.0, 0.0006739447848646588
861.0, 0.0010053704317749537
862.0, 0.00039146201917332626
863.0, 0.0014356714840153939
864.0, 0.0017508430454674267
865.0, 0.0018347642389803717
866.0, 0.0015544043605554099
867.0, 0.0012969433581105567
868.0, 0.0014564907042747897
869.0, 0.0016185976980122687
870.0, 0.0017949454380868863
871.0, 0.0022621873170437373
872.0, 0.0020145486689012605
873.0, 0.002159233907664282
874.0, 0.0017765630420746457
875.0, 0.0009259714205109421
876.0, 0.0011439011589007625
877.0, 0.0024454173132971153
878.0, 0.0011136659285109277
879.0, 0.0025777260741954976
880.0, 0.0012489706790860021
881.0, 0.002171792282720199
882.0, 0.0019044181748283252
883.0, 0.0023853561387262813
884.0, 0.0027355158631861636
885.0, 0.002201533593215354
886.0, 0.002419337073130434
887.0, 0.001257508375062137
888.0, 0.0031855114793341794
889.0, 0.00287937354067132
890.0, 0.0029722483437175824
891.0, 0.002171106612429121
892.0, 0.0020834995412292332
893.0, 0.002641231358622944
894.0, 0.0027900280293831447
895.0, 0.0034228477789406
896.0, 0.004869729088959147
897.0, 0.004464966395685052
898.0, 0.0045162922226405396
899.0, 0.0032222019440118353
900.0, 0.004993182803763766
901.0, 0.004710979170730351
902.0, 0.002704409904154193
903.0, 0.004055792302079019
904.0, 0.0054548624574721465
905.0, 0.002951037482970305
906.0, 0.004266022580051975
907.0, 0.005033573850115058
908.0, 0.00501126695095885
909.0, 0.004959214448949132
910.0, 0.004667145279348032
911.0, 0.004781275692433171
912.0, 0.005625065511065729
913.0, 0.004874844210561394
914.0, 0.004757921528946364
915.0, 0.005599801107738216
916.0, 0.005236339250488712
917.0, 0.006254970443739844
918.0, 0.006534142916619032
919.0, 0.0062637202130141605
920.0, 0.0057519465243399065
921.0, 0.0046323691231177685
922.0, 0.004310071127055345
923.0, 0.005209680270551925
924.0, 0.004880467854300089
925.0, 0.005261873466522072
926.0, 0.004541458037610314
927.0, 0.0056464568744472084
928.0, 0.006115275936801831
929.0, 0.005470594566986149
930.0, 0.006146892297000956
931.0, 0.00621694502452908
932.0, 0.005205451029479044
933.0, 0.005717402779557012
934.0, 0.0048405664163763944
935.0, 0.0057917533277137365
936.0, 0.006242250452899408
937.0, 0.005403900437570332
938.0, 0.004465703852427571
939.0, 0.004729251350624863
940.0, 0.005867207774505921
941.0, 0.0054984685300934096
942.0, 0.006867890249562957
943.0, 0.005167230212934124
944.0, 0.005779079461439993
945.0, 0.0046952818367245385
946.0, 0.0046671798449397905
947.0, 0.006253940592989247
948.0, 0.007117538113187964
949.0, 0.006892500346830761
950.0, 0.004254453383413776
951.0, 0.005398141981065691
952.0, 0.0050464981974605505
953.0, 0.004579010419901423
954.0, 0.005668163024241495
955.0, 0.005048760352376123
956.0, 0.004479147103104718
957.0, 0.005554707389370364
958.0, 0.005701952637609748
959.0, 0.006289574426481201
960.0, 0.00517392551940409
961.0, 0.004867276507700067
962.0, 0.004255488402329972
963.0, 0.004566169285875526
964.0, 0.0046065866000570286
965.0, 0.004091551458239653
966.0, 0.003990383540594764
967.0, 0.004454112762001525
968.0, 0.004028522470471581
969.0, 0.004664657086815784
970.0, 0.004412864040251696
971.0, 0.004824662538389468
972.0, 0.004511802432459083
973.0, 0.003408639693610195
974.0, 0.003373816093604239
975.0, 0.003504533547980302
976.0, 0.003318524100288449
977.0, 0.0046464553175153914
978.0, 0.005148433296630619
979.0, 0.004370944373485129
980.0, 0.0036271005052972588
981.0, 0.004040277073239416
982.0, 0.0046308146160562585
983.0, 0.003949285870947757
984.0, 0.0037169434446007875
985.0, 0.004327124859679125
986.0, 0.0046395832913213985
987.0, 0.005219542856235961
988.0, 0.004840856408075062
989.0, 0.005270758494605715
990.0, 0.004608078840424603
991.0, 0.004757538467824873
992.0, 0.004899143244779937
993.0, 0.004653723947417429
994.0, 0.004579857181507486
995.0, 0.004856901705338352
996.0, 0.00476351326417738
997.0, 0.004150329449641984
998.0, 0.00505612712995341
999.0, 0.004574616178833902
1000.0, 0.005415957472048139
1001.0, 0.004753262840495399
1002.0, 0.005308960720468699
1003.0, 0.0057230324345502025
1004.0, 0.005158288445013056
1005.0, 0.004630224016094463
1006.0, 0.004928436860792828
1007.0, 0.005561978049097727
1008.0, 0.005977572586029993
1009.0, 0.005427303370413422
1010.0, 0.005541033635600489
1011.0, 0.005462403982579267
1012.0, 0.004818203456437718
1013.0, 0.004713390266344564
1014.0, 0.005007635903213531
1015.0, 0.004916466134126192
1016.0, 0.004746580787781799
1017.0, 0.0048787929811581355
1018.0, 0.0038520768643343023
1019.0, 0.004982119518340075
1020.0, 0.004532988326493501
1021.0, 0.004321715478277767
1022.0, 0.0045343962637584365
1023.0, 0.003988498361166735
1024.0, 0.0033455162922487224
1025.0, 0.0039789238895351796
1026.0, 0.004878765173983206
1027.0, 0.0034363519401064213
1028.0, 0.0030262889490618138
1029.0, 0.004608413689063102
1030.0, 0.003961354274428664
1031.0, 0.0038240516495327637
1032.0, 0.005032921816668863
1033.0, 0.005085295741921812
1034.0, 0.00480344402101964
1035.0, 0.004593853685455641
1036.0, 0.0037003107618284246
1037.0, 0.005489490330920597
1038.0, 0.004399625688493219
1039.0, 0.004612839886465393
1040.0, 0.0037086172313726008
1041.0, 0.003918156300354597
1042.0, 0.003952515766737608
1043.0, 0.004182310778511214
1044.0, 0.004535417180659672
1045.0, 0.004557434277140777
1046.0, 0.003915055750874968
1047.0, 0.0031568623036743546
1048.0, 0.005597229260644585
1049.0, 0.004906339247536042
1050.0, 0.008062913592534932
1051.0, 0.005068768882306628
1052.0, 0.004305376331903114
1053.0, 0.003558149560903292
1054.0, 0.00337361659804796
1055.0, 0.0042552891063120605
1056.0, 0.004914896478172474
1057.0, 0.005028661411856415
1058.0, 0.005408016988506933
1059.0, 0.0037461311408891126
1060.0, 0.003907019456253507
1061.0, 0.004917686901325916
1062.0, 0.004195115294996235
1063.0, 0.004505449357613313
1064.0, 0.005379543826120826
1065.0, 0.0057079810873095285
1066.0, 0.0052534553630787855
1067.0, 0.004618566134947954
1068.0, 0.004338291742579474
1069.0, 0.0032855403614934025
1070.0, 0.005117202113566606
1071.0, 0.0035468331961850327
1072.0, 0.0038030985901669596
1073.0, 0.0030976532833954
1074.0, 0.0031540928021742036
1075.0, 0.0033795454981559877
1076.0, 0.0035713280536791175
1077.0, 0.0038757123962844487
1078.0, 0.0038517937171513934
1079.0, 0.0038272724517212785
1080.0, 0.003475702503819741
1081.0, 0.0036751234707781575
1082.0, 0.0032712594257341813
1083.0, 0.0028466888762332977
1084.0, 0.0030240177813984103
1085.0, 0.003688388516425108
1086.0, 0.004048621524110361
1087.0, 0.00383025032452612
1088.0, 0.0038184425399668005
1089.0, 0.00430482641810671
1090.0, 0.004005515553714702
1091.0, 0.005176887119520875
1092.0, 0.003090308768713047
1093.0, 0.003954492250548925
1094.0, 0.003299990629314793
1095.0, 0.0031024596972342388
1096.0, 0.0031044984707296786
1097.0, 0.00298881720325713
1098.0, 0.002390326410535716
1099.0, 0.0018851511645120035
1100.0, 0.00226940305548084
1101.0, 0.0019933322006277193
1102.0, 0.0016050461697338955
1103.0, 0.0022316707547867833
1104.0, 0.002192353157399097
1105.0, 0.003045999285162853
1106.0, 0.003555216969116175
1107.0, 0.002985043248606817
1108.0, 0.0026036354436058838
1109.0, 0.0024542831442570974
1110.0, 0.002673266015341506
1111.0, 0.003287032979915681
1112.0, 0.002388026643109187
1113.0, 0.0036202690424425635
1114.0, 0.003251503040551698
1115.0, 0.005008506553958738
1116.0, 0.0033250512624577572
1117.0, 0.0034716323624939018
1118.0, 0.0033233813405802305
1119.0, 0.0022651476906112426
1120.0, 0.0026899447253281223
1121.0, 0.004008682099884424
1122.0, 0.004055262171384247
1123.0, 0.004123506875058064
1124.0, 0.0037786364069885186
1125.0, 0.003828859614887397
1126.0, 0.0038224558912827965
1127.0, 0.0033031568424610374
1128.0, 0.0038131360822294875
1129.0, 0.002883059664163826
1130.0, 0.0021870116390251848
1131.0, 0.002134594375343917
1132.0, 0.00237200637700714
1133.0, 0.00257306426395597
1134.0, 0.002185622388783439
1135.0, 0.0013298755805291188
1136.0, 0.001603034617699139
1137.0, 0.0019031323401506176
1138.0, 0.002246577166100855
1139.0, 0.00240711555089174
1140.0, 0.0022768748021135244
1141.0, 0.0019148953897765674
1142.0, 0.002010299801760638
1143.0, 0.0019044867653706592
1144.0, 0.002046859830297077
1145.0, 0.002560397492353624
1146.0, 0.0019561218368321733
1147.0, 0.0016363716015527063
1148.0, 0.003354146909152198
1149.0, 0.0028669251603716194
1150.0, 0.0010676514827903695
1151.0, 0.0009425616934642363
1152.0, 0.0007731804544193271
1153.0, 0.0013163437540289799
1154.0, 0.001696551536844431
1155.0, 0.001660742659083128
1156.0, 0.0017056862533247228
1157.0, 0.001733363458670976
1158.0, 0.0014172581974980288
1159.0, 0.0015553926379375457
1160.0, 0.0018241024888968555
1161.0, 0.0010731072505476345
1162.0, 0.0007808369021786417
1163.0, 0.000815999864214831
1164.0, 0.0007896297142459736
1165.0, 0.000959007553292178
1166.0, 0.0007202659094226921
1167.0, 0.0007650184093161526
1168.0, 0.0014666170600388605
1169.0, 0.0019359490020801615
1170.0, 0.0014452528141444502
1171.0, 0.0008819018439523303
1172.0, 0.00227971218136383
1173.0, 0.0011114093601914204
1174.0, 0.0008868969161165269
1175.0, 0.0007427611954986395
1176.0, 0.000776067770514208
1177.0, 0.0005177507783842956
1178.0, 0.00037759123116979786
1179.0, 0.00027410056056893827
1180.0, 0.00012128272778903662
1181.0, 0.0003493766169468058
1182.0, 0.0008329715962708949
1183.0, 0.0006633509854074779
1184.0, 0.0005469003521213435
1185.0, 0.00024609716526749844
1186.0, 0.0010343443791500978
1187.0, 0.0015670962298941818
1188.0, 0.0006850846258445618
1189.0, 0.001973067551239355
1190.0, 0.0009375310354858652
1191.0, 0.0008796221103243109
1192.0, 0.001524100418628951
1193.0, 0.001130305911436215
1194.0, 0.0004282087045619372
1195.0, 0.0003747875035946428
1196.0, 0.0006353168752759214
1197.0, 0.000626365292153499
1198.0, 0.00026754725457973395
1199.0, 0.0016683268764394249
1200.0, 0.001181376232350204
1201.0, 0.001614853659039572
1202.0, 0.0015931269258543505
1203.0, 0.0009867659208056385
1204.0, 0.0009033692465706831
1205.0, 0.0009092837871025718
1206.0, 0.0006865347112255474
1207.0, 0.0008659864793256705
1208.0, 0.0011266044991769815
1209.0, 0.000754274402573067
1210.0, 0.0019432041895643345
1211.0, 0.0005288126649976173
1212.0, 0.001361333949656954
1213.0, 0.0013269752349076033
1214.0, 0.0011458893124655478
1215.0, 0.0009600213257905445
1216.0, 0.000714236747304426
1217.0, 0.0014490165465489752
1218.0, 0.0018461093854790053
1219.0, 0.001894011858844542
1220.0, 0.0017307582466231295
1221.0, 0.0010002625966893002
1222.0, 0.0015078018763191481
1223.0, 0.0016934556060779725
1224.0, 0.0024932763725408974
1225.0, 0.0032099764894136236
1226.0, 0.0026239832089432935
1227.0, 0.0016395277630758419
1228.0, 0.001561244147571498
1229.0, 0.0012714837858977541
1230.0, 0.001365426586100043
1231.0, 0.0017712800947692982
1232.0, 0.0016054273942275122
1233.0, 0.001154530684930229
1234.0, 0.0010623048452589562
1235.0, 0.000792615782991827
1236.0, 0.00038135116215122294
1237.0, 0.00020587237179765095
1238.0, 0.00011409811117678962
1239.0, 0.0005365231275352874
1240.0, 0.0018174698398299822
1241.0, 0.0005365093661982058
1242.0, 0.0011468804215796083
1243.0, 0.0017298354513861191
1244.0, 0.0014964806625285068
1245.0, 0.0006705529476935762
1246.0, 0.00019847413055203478
1247.0, 0.00044432522231091336
1248.0, 0.0009158258507033648
1249.0, 0.0013009755303193334
1250.0, 0.0012000190655516144
1251.0, 0.0007083348220272801
1252.0, 0.0008837464820356791
1253.0, 0.0018143241188152575
1254.0, 0.0009274737133823493
1255.0, 0.0011066978822813186
1256.0, 0.001216538401144963
1257.0, 0.0018053626358804475
1258.0, 0.0017268521346794233
1259.0, 0.00143983910825588
1260.0, 0.0014315712218298724
1261.0, 0.0017952000465613614
1262.0, 0.0018108147375166962
1263.0, 0.0010708381803858458
1264.0, 0.0017197726012162637
1265.0, 0.002599453119813788
1266.0, 0.0019754588179604735
1267.0, 0.0014901984701033689
1268.0, 0.002619628027898237
1269.0, 0.0019574441229014195
1270.0, 0.001808061914600483
1271.0, 0.0017952790722601177
1272.0, 0.0013406225370509036
1273.0, 0.0016078337302089054
1274.0, 0.0017675285420328897
1275.0, 0.0014496524794962353
1276.0, 0.0014067957994188687
1277.0, 0.0014606351456410286
1278.0, 0.0012020095028942373
1279.0, 0.0011414399301069888
1280.0, 0.0008075232839745507
1281.0, 0.0004988450702168143
1282.0, 0.0001762316828329903
1283.0, 0.0017393225953662602
1284.0, 0.0021266377142332214
1285.0, 0.0016278276378974756
1286.0, 0.0008974764191941218
1287.0, 0.0005441991065833634
1288.0, 0.0004714794321175329
1289.0, 0.000682311822653123
1290.0, 0.001030673065027391
1291.0, 0.0011857044427628436
1292.0, 0.0008000277709094317
1293.0, 0.0004063013063767431
1294.0, 0.0012292279108869594
1295.0, 0.0005151942593970616
1296.0, 0.0019689404665795243
1297.0, 0.0013165311908059857
1298.0, 0.00018987340864625119
1299.0, 0.0005085990104718423
1300.0, 0.0008804887208365529
1301.0, 0.00033648939987106756
1302.0, 0.0004943695969849215
1303.0, 0.0007402527928851051
1304.0, 0.0012506271159576636
1305.0, 0.0014648207660743636
1306.0, 0.0014387235379612572
1307.0, 0.001623611752517398
1308.0, 0.0014324866740927189
1309.0, 0.001185342025504509
1310.0, 0.0013010555578388645
1311.0, 0.0011699562817081256
1312.0, 0.001412417267563493
1313.0, 0.0012656635662385294
1314.0, 0.0012641381239521562
1315.0, 0.0016965137352530448
1316.0, 0.0009875188213520774
1317.0, 0.0005877420888608505
1318.0, 0.00028209151080030054
1319.0, 0.0004665989190160088
1320.0, 0.0012011107355962057
1321.0, 0.0016135735021300444
1322.0, 0.0016774442144355326
1323.0, 0.0017426812677211097
1324.0, 0.0014260441744831918
1325.0, 0.0012973430100308779
1326.0, 0.0019750088945343428
1327.0, 0.0009167691330233184
1328.0, 0.002329350560471965
1329.0, 0.0013726200372022577
1330.0, 0.0017938244217818183
1331.0, 0.0011074568896477781
1332.0, 0.0007368803812453961
1333.0, 0.001066193143681553
1334.0, 0.0011118930219345584
1335.0, 0.0004090628323484821
1336.0, 0.0004963685738336384
1337.0, 0.000694655276149
1338.0, 0.0008850136645231131
1339.0, 0.0009089739132348455
1340.0, 0.0007857933646064756
1341.0, 0.0011098090421180326
1342.0, 0.0002582262852870499
1343.0, 0.0007072553182789048
1344.0, 0.0016304866136188497
1345.0, 0.0003363878898449093
1346.0, 0.0015327772181562263
1347.0, 0.0020916786909082902
1348.0, 0.0012989703583022364
1349.0, 0.0006242467563848701
1350.0, 0.00018738307108684166
1351.0, 0.0005783943889305299
1352.0, 0.0009032770871315998
1353.0, 0.0007142036921389825
1354.0, 0.0009281507885163122
1355.0, 0.00088326599208278
1356.0, 0.0008927952399893213
1357.0, 0.00126191217593224
1358.0, 0.0008615784365608585
1359.0, 0.0005725632034433921
1360.0, 0.00041235906370118045
1361.0, 0.0010960988397068843
1362.0, 0.00115482540960347
1363.0, 0.0013318678434107827
1364.0, 0.0014433906316535501
1365.0, 0.0015442823411156098
1366.0, 0.0012321312761246067
1367.0, 0.0007818945171107419
1368.0, 0.00026871158718599035
1369.0, 0.0006390843370468425
1370.0, 0.0007999250376817589
1371.0, 0.0014746814204954278
1372.0, 0.0012200146961285057
1373.0, 0.0014647868178860924
1374.0, 0.0015050764593426166
1375.0, 0.0005903824203406288
1376.0, 0.0009199697903336617
1377.0, 0.0007362051911054436
1378.0, 0.0006634633310900524
1379.0, 0.0010254835153305473
1380.0, 0.0010416986734554522
1381.0, 0.0016578297550466285
1382.0, 0.0013467289041291246
1383.0, 0.0018457030099279469
1384.0, 0.0021296468908603605
1385.0, 0.001214138855481959
1386.0, 0.0009310065585974434
1387.0, 0.0006066786000480712
1388.0, 0.001155150002231718
1389.0, 0.0012939616521604825
1390.0, 0.0014893555849388907
1391.0, 0.0014322698154493052
1392.0, 0.0016744604741126183
1393.0, 0.002030821780725242
1394.0, 0.0014978835044870806
1395.0, 0.0013847657088612078
1396.0, 0.0017917134162681039
1397.0, 0.0007487887397644238
1398.0, 0.0017996294567699967
1399.0, 0.0019052899407535216
1400.0, 0.0013540586639216447
1401.0, 0.002220372190497758
1402.0, 0.0013725870740155409
1403.0, 0.0014266370993704887
1404.0, 0.001125400278303093
1405.0, 0.0013600485226178318
1406.0, 0.0013391022384048777
1407.0, 0.0014177595546485885
1408.0, 0.0013327896295586225
1409.0, 0.0016256243280204001
1410.0, 0.0016927623579050355
1411.0, 0.0016945494762806708
1412.0, 0.0019067318418381496
1413.0, 0.0018775680899306626
1414.0, 0.0019777433040996167
1415.0, 0.0020912320067174653
1416.0, 0.0013303326726802891
1417.0, 0.001685285437991764
1418.0, 0.002876341272279863
1419.0, 0.002245485884141902
1420.0, 0.0023628061568588903
1421.0, 0.0021645669441203138
1422.0, 0.002365973724704007
1423.0, 0.0024198434817558675
1424.0, 0.0030554196977807166
1425.0, 0.002151621347546215
1426.0, 0.0021172448616765395
1427.0, 0.0008890268540309185
1428.0, 0.0012783718319248965
1429.0, 0.0015043769132241356
1430.0, 0.0029740368389872813
1431.0, 0.0029465492433569406
1432.0, 0.002215773852478894
1433.0, 0.0021393934131323958
1434.0, 0.001945704605855024
1435.0, 0.002414286852427291
1436.0, 0.0028336670850199266
1437.0, 0.001883952631091102
1438.0, 0.0018481649247460712
1439.0, 0.0007076287172715522
1440.0, 0.0011279394303116202
1441.0, 0.0020282271252830344
1442.0, 0.0015862848432981762
1443.0, 0.0010632119816580826
1444.0, 0.0016716313720198678
1445.0, 0.0026007026726773876
1446.0, 0.0006686705890923423
1447.0, 0.001403536795584617
1448.0, 0.001204569231554805
1449.0, 0.0013577260587136985
1450.0, 0.0013598897012128525
1451.0, 0.0010270012577025451
1452.0, 0.0013293615034171496
1453.0, 0.0014805943726914305
1454.0, 0.0012662021794244047
1455.0, 0.000730374287555461
1456.0, 0.0008309031341060129
1457.0, 0.0012526326842567759
1458.0, 0.0013834240721420387
1459.0, 0.0016935276458610892
1460.0, 0.0017592077990806721
1461.0, 0.0020944265111360084
1462.0, 0.0023186873155168226
1463.0, 0.0024386504946115628
1464.0, 0.0020883924089105024
1465.0, 0.0019635637191334843
1466.0, 0.0016570682840395096
1467.0, 0.001343024691461195
1468.0, 0.0011623621463951244
1469.0, 0.0011326531945398332
1470.0, 0.001654153127419172
1471.0, 0.0015033100432504378
1472.0, 0.001369000794192703
1473.0, 0.0009484715222784868
1474.0, 0.0008900411309498708
1475.0, 0.001284910121074351
1476.0, 0.001120148409909791
1477.0, 0.0017838004641554126
1478.0, 0.002295034327648843
1479.0, 0.0017133279749145967
1480.0, 0.0017635496460714686
1481.0, 0.0013045509233974605
1482.0, 0.0009334591721306335
1483.0, 0.0023207458535821914
1484.0, 0.0031201262813836048
1485.0, 0.0022731653018032293
1486.0, 0.0004509012343817021
1487.0, 0.0012612836363580385
1488.0, 0.0007558993377012578
1489.0, 0.0006192103544658711
1490.0, 0.00200062401715621
1491.0, 0.000565230886239453
1492.0, 0.0014254315259912141
1493.0, 0.001500593164445676
1494.0, 0.002369453600963781
1495.0, 0.0005078277145014642
1496.0, 0.002208593400000521
1497.0, 0.0009865395532541355
1498.0, 0.0015389180749098223
1499.0, 0.0014103354369737005
1500.0, 0.0012889847995252205
1501.0, 0.001162187144354295
1502.0, 0.0011722042475406191
1503.0, 0.002114273325085126
1504.0, 0.002040780595895112
1505.0, 0.001752319095062105
1506.0, 0.001321256247140319
1507.0, 0.0010373049284815126
1508.0, 0.0012713886020031327
1509.0, 0.0014676595925245811
1510.0, 0.0011373979043753047
1511.0, 0.0008136061491194213
1512.0, 0.0010212063363533022
1513.0, 0.0008855699153168444
1514.0, 0.0010671070255859907
1515.0, 0.0008792069560090976
1516.0, 0.0005974811056850839
1517.0, 0.0015449775830163124
1518.0, 0.002095787694711462
1519.0, 0.0015745840346818364
1520.0, 0.0008212469748039911
1521.0, 0.0005790972826832864
1522.0, 0.0011867031945499618
1523.0, 0.0017185582769897586
1524.0, 0.0009491952284327384
1525.0, 0.0002898485619680911
1526.0, 0.0017146835420799454
1527.0, 0.0015038511806121134
1528.0, 0.0008342379842870779
1529.0, 0.0010712473841158548
1530.0, 0.0019611653766717085
1531.0, 0.001652304868897388
1532.0, 0.0018498778816956917
1533.0, 0.0011144335057726579
1534.0, 0.001481643602173307
1535.0, 0.0011352605911177844
1536.0, 0.0015572865987838877
1537.0, 0.0016327697337868703
1538.0, 0.0010254001556538905
1539.0, 0.000985820974294023
1540.0, 0.000554725709195591
1541.0, 0.0006196471105514902
1542.0, 0.0008877853985879757
1543.0, 1.584379525772342e-07
1544, 0.0
1545, 0.0
1546, 0.0
1547, 0.0
1548, 0.0
1549, 0.0
1550, 0.0
1551, 0.0
1552, 0.0
1553, 0.0
1554, 0.0
1555, 0.0
1556, 0.0
1557, 0.0
1558, 0.0
1559, 0.0
1560, 0.0
1561, 0.0
1562, 0.0
1563, 0.0
1564, 0.0
1565, 0.0
1566, 0.0
1567, 0.0
1568, 0.0
1569, 0.0
1570, 0.0
1571, 0.0
1572, 0.0
1573, 0.0
1574, 0.0
1575, 0.0
1576, 0.0
1577, 0.0
1578, 0.0
1579, 0.0
1580, 0.0
1581, 0.0
1582, 0.0
1583, 0.0
1584, 0.0
1585, 0.0
1586, 0.0
1587, 0.0
1588, 0.0
1589, 0.0
1590, 0.0
1591, 0.0
1592, 0.0
1593, 0.0
1594, 0.0
1595, 0.0
1596, 0.0
1597, 0.0
1598, 0.0
1599, 0.0
