30, 0.0
31, 0.0
32, 0.0
33, 0.0
34, 0.0
35, 0.0
36, 0.0
37, 0.0
38, 0.0
39, 0.0
40, 0.0
41, 0.0
42, 0.0
43, 0.0
44, 0.0
45, 0.0
46, 0.0
47, 0.0
48, 0.0
49, 0.0
50, 0.0
51, 0.0
52.0, 0.00046829969288619605
53.0, 0.0012358788130225743
54.0, 0.0019455959233322284
55.0, 0.0032135993364728714
56.0, 0.004370861898017752
57.0, 0.005167950846350432
58.0, 0.005876147481390399
59.0, 0.006575240997029223
60.0, 0.005873997778144904
61.0, 0.004006797871960997
62.0, 0.0023500396373997714
63.0, 0.001030754624506779
64.0, 0.0002953162725968558
65.0, 0.0011883385917650668
66.0, 0.0016024870607110817
67.0, 0.0016724372594797766
68.0, 0.0014689836943437154
69.0, 0.0011675962443086737
70.0, 0.001071492100079455
71.0, 0.0033399205433229428
72.0, 0.004540833955784662
73.0, 0.005007115679575417
74.0, 0.006239869974331066
75.0, 0.01017580330761147
76.0, 0.012086095821864035
77.0, 0.01526189336137529
78.0, 0.018953874924429966
79.0, 0.022420130740223494
80.0, 0.025385630437016783
81.0, 0.03051946706690009
82.0, 0.03446210479789618
83.0, 0.03820290658584323
84.0, 0.04178086122374618
85.0, 0.045084163556545216
86.0, 0.04814170014560212
87.0, 0.05166629131753617
88.0, 0.056203693795884246
89.0, 0.06408811677964156
90.0, 0.07558094932348938
91.0, 0.087637906937311
92.0, 0.10818754038087894
93.0, 0.13504787710745497
94.0, 0.1651718220774386
95.0, 0.19371291932986023
96.0, 0.2140579844120054
97.0, 0.20904852760920878
98.0, 0.19208855926012156
99.0, 0.1755436858194884
100.0, 0.16074379871205408
101.0, 0.1454396855561928
102.0, 0.1325359914681367
103.0, 0.12452231200588436
104.0, 0.11738880136735566
105.0, 0.11223089747464869
106.0, 0.11020066918030322
107.0, 0.11061530591402385
108.0, 0.110374284402428
109.0, 0.11140032650273508
110.0, 0.1063265506095951
111.0, 0.09597102731485715
112.0, 0.09048277977640935
113.0, 0.08812957967793686
114.0, 0.08579874765079469
115.0, 0.08517769575592635
116.0, 0.08483831645401414
117.0, 0.08242056302137575
118.0, 0.08072536866776249
119.0, 0.07659924556444445
120.0, 0.07569429629505346
121.0, 0.0753753026379843
122.0, 0.0729356685786285
123.0, 0.07080855548536054
124.0, 0.07008568260020576
125.0, 0.06896405871608684
126.0, 0.06763296350244047
127.0, 0.06600165894117914
128.0, 0.06358134995517312
129.0, 0.0641595204607352
130.0, 0.06346669195328437
131.0, 0.06307206839705815
132.0, 0.06301456738675865
133.0, 0.06261567566285058
134.0, 0.06202819533069274
135.0, 0.06184806507794804
136.0, 0.06125211966324516
137.0, 0.0607046967209558
138.0, 0.06083051310732298
139.0, 0.06198320585951722
140.0, 0.06103178764927792
141.0, 0.060803414484434215
142.0, 0.05965922774819875
143.0, 0.05858062519774908
144.0, 0.06083172817795482
145.0, 0.060683258174735064
146.0, 0.0622921540853541
147.0, 0.06315391747429763
148.0, 0.06391547267111745
149.0, 0.06601279947053879
150.0, 0.06872961331773511
151.0, 0.07034960354763463
152.0, 0.07258428390675842
153.0, 0.07479811349193884
154.0, 0.07685921168242885
155.0, 0.07992567971219786
156.0, 0.08203226070751943
157.0, 0.08457619994117034
158.0, 0.08908848390014719
159.0, 0.09457026735306562
160.0, 0.09903949926036099
161.0, 0.10541681255837482
162.0, 0.1161546000482774
163.0, 0.12786962965273715
164.0, 0.14257248423493274
165.0, 0.16376446263463557
166.0, 0.19575351575736988
167.0, 0.24771495599674542
168.0, 0.3163390058743344
169.0, 0.3880968488419272
170.0, 0.44008732917210047
171.0, 0.44618124271532517
172.0, 0.40764586269517156
173.0, 0.37115708530395825
174.0, 0.3422602862501845
175.0, 0.3216185581525302
176.0, 0.3096572707655166
177.0, 0.31185303430225175
178.0, 0.34953843743236274
179.0, 0.4233821328776383
180.0, 0.5451913009932212
181.0, 0.7104793703040303
182.0, 0.8930873078672313
183.0, 0.9839994610413553
184.0, 0.9527793066900293
185.0, 0.8490312293467456
186.0, 0.7275826423816272
187.0, 0.6294536570856102
188.0, 0.5406548385755013
189.0, 0.46249165463091146
190.0, 0.39687695881986534
191.0, 0.34547481309772715
192.0, 0.30848306176333506
193.0, 0.2840397928965912
194.0, 0.25950461143157205
195.0, 0.24044697643632953
196.0, 0.21935666413538427
197.0, 0.1982528246509718
198.0, 0.18107703087547267
199.0, 0.16615243126255358
200.0, 0.15748226495581247
201.0, 0.15005347329272306
202.0, 0.14453114471711737
203.0, 0.13982733068098976
204.0, 0.13295980036877303
205.0, 0.12581930291866456
206.0, 0.11929320126830237
207.0, 0.11491001267670152
208.0, 0.11245047468164786
209.0, 0.11136979675437397
210.0, 0.11214956050885797
211.0, 0.1119095876088703
212.0, 0.11284861244170721
213.0, 0.11466512327436318
214.0, 0.11591320055314665
215.0, 0.11458861038271674
216.0, 0.11055816791293921
217.0, 0.10312544785635287
218.0, 0.0993713599960118
219.0, 0.09574044956503178
220.0, 0.08986670651768539
221.0, 0.08829006893510144
222.0, 0.0861614880482758
223.0, 0.083907842030608
224.0, 0.08228399770459703
225.0, 0.08144761117579732
226.0, 0.08100423380040996
227.0, 0.07992791481351828
228.0, 0.08094525355758424
229.0, 0.07908986676861385
230.0, 0.07599370880600743
231.0, 0.07450419783320326
232.0, 0.0769698459951359
233.0, 0.07537987986692438
234.0, 0.0767181454632913
235.0, 0.07792080604688179
236.0, 0.07876730810132118
237.0, 0.07984517967881581
238.0, 0.07971564494541725
239.0, 0.08063017500960247
240.0, 0.08145064944664795
241.0, 0.08180931763020373
242.0, 0.08212468306451358
243.0, 0.08332370344058927
244.0, 0.08467283452242208
245.0, 0.0845629477662832
246.0, 0.08562035281185235
247.0, 0.08672499450183381
248.0, 0.08738556930041932
249.0, 0.09026701952198378
250.0, 0.09169167598217806
251.0, 0.09360930462894546
252.0, 0.0940319356920612
253.0, 0.09314941128752414
254.0, 0.09216538091276574
255.0, 0.09092652804161301
256.0, 0.08925199875946718
257.0, 0.08758808766892666
258.0, 0.08739509702328054
259.0, 0.0879126894212065
260.0, 0.08657908645936478
261.0, 0.08807635213784655
262.0, 0.08627187492299429
263.0, 0.08525389647290656
264.0, 0.08506735601126633
265.0, 0.08516028940559385
266.0, 0.08602491365937096
267.0, 0.08741725528544506
268.0, 0.08990944747826127
269.0, 0.0913643616598731
270.0, 0.09267208838849814
271.0, 0.09525028985811225
272.0, 0.09644263305834617
273.0, 0.10078386712149937
274.0, 0.10505245738200737
275.0, 0.1096521145549796
276.0, 0.11475295169224904
277.0, 0.11988401896800993
278.0, 0.12336952262529961
279.0, 0.12817151597192383
280.0, 0.13472229283143458
281.0, 0.1394656947191366
282.0, 0.14248043965422566
283.0, 0.14959426169294535
284.0, 0.15191254737851367
285.0, 0.15610504762297922
286.0, 0.15958055117517952
287.0, 0.16602665954250062
288.0, 0.17618838192213684
289.0, 0.17888571043058482
290.0, 0.1891549030269097
291.0, 0.1993268341446513
292.0, 0.20944588954134408
293.0, 0.2214938948260791
294.0, 0.2374817611392072
295.0, 0.2559682212564461
296.0, 0.2854262561272673
297.0, 0.3103633687808695
298.0, 0.3338796576768517
299.0, 0.3545079980585123
300.0, 0.36536350418157293
301.0, 0.35806893743829393
302.0, 0.34837017241452184
303.0, 0.33078104139765546
304.0, 0.31095578263155876
305.0, 0.2927342524658107
306.0, 0.2749502052432169
307.0, 0.2582653649312722
308.0, 0.24124091520614735
309.0, 0.22806772411246953
310.0, 0.2171600198857789
311.0, 0.20644416710382044
312.0, 0.19613647258351735
313.0, 0.19214303881692982
314.0, 0.18664310728710148
315.0, 0.1822528574734231
316.0, 0.1801926254533821
317.0, 0.17941923679124835
318.0, 0.1753145688104909
319.0, 0.1760964837913742
320.0, 0.1780559417950995
321.0, 0.18034789922824365
322.0, 0.18163941709476034
323.0, 0.18158860598181803
324.0, 0.1835505005742683
325.0, 0.18375146107300472
326.0, 0.18055234488498048
327.0, 0.1779948092215999
328.0, 0.17648421764714975
329.0, 0.1746019479717061
330.0, 0.17523499435627904
331.0, 0.18212384259388847
332.0, 0.19462162352266038
333.0, 0.21675829689257228
334.0, 0.24766433342047037
335.0, 0.28501671760480823
336.0, 0.3438888782801423
337.0, 0.4101993483878307
338.0, 0.4890712304881602
339.0, 0.558572249304525
340.0, 0.6052331943136757
341.0, 0.6272140053223731
342.0, 0.6074656394652073
343.0, 0.5592682074641522
344.0, 0.5023503210402778
345.0, 0.44537984549335724
346.0, 0.3905628334715631
347.0, 0.3359986812620329
348.0, 0.2933621173096712
349.0, 0.2536939435802151
350.0, 0.22227326516075047
351.0, 0.19446843011444698
352.0, 0.1678353989163508
353.0, 0.14515609970419852
354.0, 0.12765410280636327
355.0, 0.10960310501347276
356.0, 0.09627212670832298
357.0, 0.08719515825176578
358.0, 0.08009197472895413
359.0, 0.072691439973722
360.0, 0.06710953404275968
361.0, 0.06631960308245018
362.0, 0.06471085192713609
363.0, 0.06528812143976513
364.0, 0.06852335694172011
365.0, 0.06964662500490991
366.0, 0.07684134913322815
367.0, 0.08855980341558019
368.0, 0.10331903899947918
369.0, 0.12096144591130141
370.0, 0.13921053205847106
371.0, 0.15302353775597807
372.0, 0.15963616521173601
373.0, 0.161127032972172
374.0, 0.15881966258843144
375.0, 0.1564439252310484
376.0, 0.15353271668365007
377.0, 0.14436065284593388
378.0, 0.134865320651699
379.0, 0.12393640311427832
380.0, 0.11020528727296285
381.0, 0.0963409086744638
382.0, 0.08439485885163174
383.0, 0.07410706874694821
384.0, 0.0638747975480538
385.0, 0.05617101392312535
386.0, 0.0487783203004731
387.0, 0.04158029384339443
388.0, 0.034207228883524496
389.0, 0.026233833211759393
390.0, 0.023222427871806617
391.0, 0.017254933573401875
392.0, 0.012029786291984219
393.0, 0.009673644736387271
394.0, 0.009397345722341832
395.0, 0.007863039051567803
396.0, 0.002333452724429762
397.0, 0.0010685309186485522
398.0, 0.0022391122656049704
399.0, 0.0029777288622645916
400.0, 0.002703910605368413
401.0, 0.002936969573466932
402.0, 0.004051462576525388
403.0, 0.00739312182132651
404.0, 0.009722354302447915
405.0, 0.010353136964657566
406.0, 0.01090368375914757
407.0, 0.012741480882683084
408.0, 0.010467596656015883
409.0, 0.010097696391949388
410.0, 0.011564413697112646
411.0, 0.012058413572149766
412.0, 0.011761974950025721
413.0, 0.0117717682533088
414.0, 0.009786525448748484
415.0, 0.008983383254450772
416.0, 0.00979230602090535
417.0, 0.009503926562794765
418.0, 0.007712192490791607
419.0, 0.005843680768775644
420.0, 0.006275678814888802
421.0, 0.0061471602703798995
422.0, 0.004129863795754099
423.0, 0.002424748174061575
424.0, 0.0018647749547170784
425.0, 0.0018579825832649166
426.0, 0.0007018752413888087
427.0, 0.00038954510207230063
428.0, 0.0007794209601012587
429.0, 0.0013115959956561023
430.0, 0.001032609084667687
431.0, 0.00045778047278017663
432.0, 0.001497399732241193
433.0, 0.00225951457879762
434.0, 0.0014718413829470616
435.0, 0.003319686807720972
436.0, 0.005015707791491161
437.0, 0.00528804796890394
438.0, 0.005289002147694063
439.0, 0.005519462152521171
440.0, 0.005436555679057565
441.0, 0.006316703526680031
442.0, 0.006705927353768855
443.0, 0.00748691177439276
444.0, 0.009696303994290409
445.0, 0.010240668468876559
446.0, 0.00894223160860265
447.0, 0.010649975794426749
448.0, 0.012422362867462457
449.0, 0.014032559644111762
450.0, 0.015710703629152847
451.0, 0.016357641644541985
452.0, 0.01894001957865282
453.0, 0.020868524294976914
454.0, 0.024115022844544236
455.0, 0.02691057412117817
456.0, 0.030031859312823168
457.0, 0.03706455178085104
458.0, 0.04234420067520708
459.0, 0.04610863086110835
460.0, 0.0561373774888786
461.0, 0.06875006941236354
462.0, 0.0827611694176718
463.0, 0.09955966516546438
464.0, 0.11786275899780353
465.0, 0.13912789512411974
466.0, 0.16048837538378338
467.0, 0.1780928019207329
468.0, 0.1873723491034219
469.0, 0.18626592158040503
470.0, 0.17785933970641551
471.0, 0.1642407450168978
472.0, 0.15134569139374995
473.0, 0.1309133657979219
474.0, 0.10953911754101084
475.0, 0.09258410770193037
476.0, 0.07819692843607814
477.0, 0.06188243678328334
478.0, 0.053493579909851055
479.0, 0.04599580164740863
480.0, 0.03909012619767867
481.0, 0.03263212316476557
482.0, 0.027165690579739235
483.0, 0.02624973600770893
484.0, 0.021576341255275786
485.0, 0.0199028170334594
486.0, 0.019899140067593767
487.0, 0.01981395462579015
488.0, 0.01916284894875262
489.0, 0.019359864690926144
490.0, 0.020063698527596742
491.0, 0.02198667059605088
492.0, 0.023086018012525605
493.0, 0.0241885600098145
494.0, 0.024350305906939193
495.0, 0.022279652174217696
496.0, 0.022740984327678904
497.0, 0.019717998547215173
498.0, 0.016998365342472278
499.0, 0.016210938208688356
500.0, 0.015658368730240842
501.0, 0.013725024812510362
502.0, 0.011756069459836545
503.0, 0.01055221105778276
504.0, 0.00959216720361027
505.0, 0.007356254919696803
506.0, 0.005558504413852426
507.0, 0.004760414627250047
508.0, 0.0038098532844629716
509.0, 0.0020528610555745346
510.0, 0.004192623666060382
511.0, 0.0027385609659684685
512.0, 0.002514301424027599
513.0, 0.003017991683799436
514.0, 0.002498009045015229
515.0, 0.002436346992082368
516.0, 0.003863149064412852
517.0, 0.006190315496081482
518.0, 0.008148806723550504
519.0, 0.008369319664312055
520.0, 0.00846110794060641
521.0, 0.010763523881775573
522.0, 0.010890240464459506
523.0, 0.01392607068784013
524.0, 0.01477565903392995
525.0, 0.01609699499511408
526.0, 0.018090208166870316
527.0, 0.020154475638919766
528.0, 0.022345656997407426
529.0, 0.023983689493770485
530.0, 0.02734166061540739
531.0, 0.029913417006469104
532.0, 0.031384832454160745
533.0, 0.03268102537157382
534.0, 0.03424979726258718
535.0, 0.03367304451831629
536.0, 0.037886340309190095
537.0, 0.03673397918314062
538.0, 0.03828110957017457
539.0, 0.04144928851709001
540.0, 0.044808575115114865
541.0, 0.05014216965358111
542.0, 0.058207490839876974
543.0, 0.06470885294052242
544.0, 0.07405337103969206
545.0, 0.08367002962819267
546.0, 0.0945412900170503
547.0, 0.10893493364906737
548.0, 0.1266577959315141
549.0, 0.14136817697487433
550.0, 0.15208037358289841
551.0, 0.15731043957794344
552.0, 0.15697828759008597
553.0, 0.15237987970448283
554.0, 0.1446235318511308
555.0, 0.13206703578435877
556.0, 0.12257198829765623
557.0, 0.10931375025328033
558.0, 0.09743824050665001
559.0, 0.08660886712129019
560.0, 0.07685728861495046
561.0, 0.06983576059640687
562.0, 0.06250502436473623
563.0, 0.05459649285995536
564.0, 0.04751154572885537
565.0, 0.03983418263556947
566.0, 0.0338070812390495
567.0, 0.03144988054658497
568.0, 0.030784077442413033
569.0, 0.024525357449071222
570.0, 0.021845273513833106
571.0, 0.0200060053544942
572.0, 0.01768962706751354
573.0, 0.014914421818607412
574.0, 0.012917839094767694
575.0, 0.013309919895298457
576.0, 0.010045618453508997
577.0, 0.008630045192398697
578.0, 0.009752152362453146
579.0, 0.010359143317932024
580.0, 0.009918593280282037
581.0, 0.009994870659919641
582.0, 0.009944133075874382
583.0, 0.010393336726019345
584.0, 0.010682640525862337
585.0, 0.011661648897749285
586.0, 0.013124647927316187
587.0, 0.014848341223007544
588.0, 0.016860720261027355
589.0, 0.018918103360046158
590.0, 0.02180888129649741
591.0, 0.02536180081726232
592.0, 0.02908967635929453
593.0, 0.03389758414970847
594.0, 0.039562000340129404
595.0, 0.044790334807131744
596.0, 0.052420074492788384
597.0, 0.05982932639210589
598.0, 0.0686333551876605
599.0, 0.0765656999156075
600.0, 0.08751239751141249
601.0, 0.10095883388752211
602.0, 0.10965399060065739
603.0, 0.1228799831191885
604.0, 0.13014999531179863
605.0, 0.1369894765369927
606.0, 0.14166707551590232
607.0, 0.14555951390741179
608.0, 0.14899003343098302
609.0, 0.1489154803869839
610.0, 0.147466435927317
611.0, 0.1409449999480213
612.0, 0.1352047510198079
613.0, 0.12810505889013477
614.0, 0.12056862588957505
615.0, 0.11375730914981246
616.0, 0.10665135896014769
617.0, 0.10263604101253607
618.0, 0.09909107979782532
619.0, 0.0986276651423051
620.0, 0.10146433018602549
621.0, 0.10589548093670684
622.0, 0.11174357315759792
623.0, 0.12193175300346941
624.0, 0.13497654631836556
625.0, 0.15320739663052624
626.0, 0.17415221143810322
627.0, 0.19541767666509918
628.0, 0.21529195951085703
629.0, 0.23362215199019468
630.0, 0.25118956426559547
631.0, 0.2634630903543568
632.0, 0.25983180006451934
633.0, 0.2513451604126539
634.0, 0.2395221286216685
635.0, 0.22265271621596466
636.0, 0.20121181355084516
637.0, 0.18009174526877944
638.0, 0.16134205614622665
639.0, 0.1438217301842913
640.0, 0.12632430603579564
641.0, 0.10922093136482551
642.0, 0.0939301538952739
643.0, 0.08122390029018178
644.0, 0.07039884263913318
645.0, 0.060607394367897895
646.0, 0.05271771631214401
647.0, 0.04762636101391722
648.0, 0.04324764189823406
649.0, 0.03872797356366329
650.0, 0.03483778184696946
651.0, 0.03240800214292326
652.0, 0.02820849736193834
653.0, 0.02453851917220404
654.0, 0.02457189256432309
655.0, 0.022989937181729213
656.0, 0.021832024910693342
657.0, 0.021879228872057788
658.0, 0.020715799211916734
659.0, 0.017790600509186964
660.0, 0.01919859167389256
661.0, 0.017687878343095233
662.0, 0.016366241941952506
663.0, 0.017117280375159413
664.0, 0.01802899187551963
665.0, 0.01699202892444458
666.0, 0.017417121643266684
667.0, 0.01863940302801401
668.0, 0.01940773477883168
669.0, 0.019516730668930844
670.0, 0.019201259713970943
671.0, 0.019250763086963954
672.0, 0.01967492851113591
673.0, 0.019294028353845014
674.0, 0.021576020012541417
675.0, 0.021837991587893266
676.0, 0.022832201208011136
677.0, 0.024780866647992523
678.0, 0.026887404455220604
679.0, 0.028863031076542093
680.0, 0.030945642481973387
681.0, 0.030725535617518288
682.0, 0.033338158315865646
683.0, 0.034245079214000336
684.0, 0.035141763767570576
685.0, 0.037100011016914965
686.0, 0.039535946720723227
687.0, 0.04141669596173876
688.0, 0.04388582051361064
689.0, 0.04527862556040292
690.0, 0.050694891022663224
691.0, 0.055053238054148884
692.0, 0.057810508084579174
693.0, 0.06095276980477338
694.0, 0.06464729979978506
695.0, 0.0652786920425865
696.0, 0.06914535007920844
697.0, 0.07283973762257064
698.0, 0.07635722249988205
699.0, 0.07862992236867747
700.0, 0.0814078101426668
701.0, 0.08441889443621396
702.0, 0.08490972263539709
703.0, 0.08572767970470123
704.0, 0.08096690299879465
705.0, 0.08251789510126604
706.0, 0.08026412852386033
707.0, 0.07710988878197027
708.0, 0.0747231983091846
709.0, 0.07119276570570042
710.0, 0.06607076558586014
711.0, 0.06315595462475145
712.0, 0.05847837222974063
713.0, 0.053182330508949376
714.0, 0.04939311344880747
715.0, 0.04715960218883965
716.0, 0.044638745692450056
717.0, 0.040491454508711014
718.0, 0.03872122571141623
719.0, 0.034182458804232374
720.0, 0.032988629712247156
721.0, 0.03036692945767414
722.0, 0.026864481375843983
723.0, 0.02399088265372276
724.0, 0.022614446208382526
725.0, 0.022923522221252362
726.0, 0.021335329588493507
727.0, 0.019888249953033305
728.0, 0.018794310194835167
729.0, 0.017647806361244113
730.0, 0.017266793961717167
731.0, 0.017261422044062672
732.0, 0.016364634582081577
733.0, 0.017262868748402542
734.0, 0.01431981515454767
735.0, 0.015246191968088282
736.0, 0.015064924534420515
737.0, 0.014697023260294557
738.0, 0.014648114085703894
739.0, 0.014651714205482716
740.0, 0.014985361306007118
741.0, 0.014586578058930514
742.0, 0.014987388428940315
743.0, 0.014546001120369932
744.0, 0.014220574591518632
745.0, 0.014438991624633295
746.0, 0.015255052285513266
747.0, 0.01570234623734488
748.0, 0.013452383858038406
749.0, 0.014054771688217999
750.0, 0.012926699297380431
751.0, 0.012283473949933833
752.0, 0.01247448165998736
753.0, 0.01207234080645227
754.0, 0.011454794749290188
755.0, 0.012367993201013299
756.0, 0.011404735142005785
757.0, 0.010469919702655577
758.0, 0.011177007335941893
759.0, 0.008857519146240082
760.0, 0.009150704270552422
761.0, 0.010517059924322135
762.0, 0.009084239866233952
763.0, 0.006632619521816968
764.0, 0.0069522388159211
765.0, 0.0071810499550336694
766.0, 0.007357801747114044
767.0, 0.0059395972448937325
768.0, 0.004729888447753963
769.0, 0.004865312132942079
770.0, 0.005843619741156015
771.0, 0.006427580903050499
772.0, 0.00541501112461152
773.0, 0.005219756962542082
774.0, 0.002988150152862928
775.0, 0.0025820477145666967
776.0, 0.002571633258601538
777.0, 0.0025921004949050145
778.0, 0.003383909013470345
779.0, 0.00332203230501461
780.0, 0.0026981066102089207
781.0, 0.0025639071363733833
782.0, 0.0023278702114249233
783.0, 0.0018574155294137763
784.0, 0.0017513097995048704
785.0, 0.0018766830964140214
786.0, 0.001796002573062374
787.0, 0.0020182823307514776
788.0, 0.0006197258947963024
789.0, 0.0002867209714985998
790.0, 0.0008440708441671826
791.0, 0.001361532693269162
792.0, 0.0014689132673227658
793.0, 0.0013647983332597175
794.0, 0.0017492795000608016
795.0, 0.003112956626365459
796.0, 0.0005149458045612353
797.0, 0.002534374871213546
798.0, 0.0029386821403976885
799.0, 0.0012577743397760284
800.0, 0.0007187730191002128
801.0, 0.0013594949848006264
802.0, 0.0013367880903351567
803.0, 0.0027066423588355056
804.0, 0.001712421755427898
805.0, 0.002319337186246552
806.0, 0.0023774226516122344
807.0, 0.0023554451974621814
808.0, 0.0023228057916724223
809.0, 0.002137417496439979
810.0, 0.0018650888127365965
811.0, 0.0018484564431082288
812.0, 0.0016283126845501336
813.0, 0.001741953765444798
814.0, 0.0012965916292024995
815.0, 0.0012699577871164444
816.0, 0.0011317443523753557
817.0, 0.0008978458112776505
818.0, 0.0009336921785910593
819.0, 0.0009480876599414708
820.0, 0.0015890188619754623
821.0, 0.000911363109780304
822.0, 0.0010868441491026595
823.0, 0.0005367179420643362
824.0, 0.0010235898006354688
825.0, 0.0012056528711631108
826.0, 0.00019649226342870709
827.0, 0.0006606269245622587
828.0, 0.001081632632751322
829.0, 0.0003342774266208408
830.0, 0.0012660240242787545
831.0, 0.0010126935964514033
832.0, 0.0009719863144714162
833.0, 0.001476452052551224
834.0, 0.001354210270682762
835.0, 0.00010446279746904828
836.0, 0.00031460527858242625
837.0, 0.0013994689239536244
838.0, 0.0005270314830261221
839.0, 0.0010527903481021995
840.0, 0.001437543244924811
841.0, 0.0008280276124393708
842.0, 0.00020703991638289508
843.0, 0.0005320455488570237
844.0, 0.0004898287326704178
845.0, 0.0008310565681337151
846.0, 0.0006323988503750649
847.0, 0.0022262811446042566
848.0, 0.001401080752772079
849.0, 0.0016268050129276356
850.0, 0.002400171857526067
851.0, 0.0016188756129477291
852.0, 0.001439391528934133
853.0, 0.0025757373526530715
854.0, 0.0030370355440417747
855.0, 0.0030092240879426055
856.0, 0.0039878697649765845
857.0, 0.0033986868864389597
858.0, 0.003058730215750494
859.0, 0.003510244297508535
860.0, 0.002989536249149179
861.0, 0.003919661713603541
862.0, 0.004863547971638366
863.0, 0.004715178055126305
864.0, 0.004383332522915659
865.0, 0.0045465957599077796
866.0, 0.00463400247220298
867.0, 0.004661922843845221
868.0, 0.004913981491295097
869.0, 0.005006564145806311
870.0, 0.004935299969048526
871.0, 0.00568759756694585
872.0, 0.005770424045722768
873.0, 0.0064203190866329776
874.0, 0.00672645137431406
875.0, 0.007202955677032381
876.0, 0.00744764824155579
877.0, 0.00632853367972901
878.0, 0.0050639249621382346
879.0, 0.004597499668060178
880.0, 0.004649381038662529
881.0, 0.004425711405470902
882.0, 0.004426978096929755
883.0, 0.004724046974818823
884.0, 0.005168571548346986
885.0, 0.005622542397585911
886.0, 0.006047690212271378
887.0, 0.006384782086475967
888.0, 0.0058224155251521085
889.0, 0.006855225118617622
890.0, 0.00726750357337346
891.0, 0.007268314345052983
892.0, 0.007741565983318476
893.0, 0.008279967310078422
894.0, 0.007980984761818043
895.0, 0.00738700614429831
896.0, 0.008306857326036463
897.0, 0.0078069667155161275
898.0, 0.007014984606278592
899.0, 0.007282405718691223
900.0, 0.00805045964186347
901.0, 0.008820623130793043
902.0, 0.009378953970507163
903.0, 0.009220047077744657
904.0, 0.007989323774668797
905.0, 0.009397753334930486
906.0, 0.009627780886314776
907.0, 0.007890487060882941
908.0, 0.008416531958162577
909.0, 0.008087948858784978
910.0, 0.007459822886572231
911.0, 0.007963846013643435
912.0, 0.00898414679602999
913.0, 0.009345712675189629
914.0, 0.009476339313406629
915.0, 0.00966752541913245
916.0, 0.009307841874190096
917.0, 0.00935963924188379
918.0, 0.009072681332998052
919.0, 0.008658490177373537
920.0, 0.00849620418767152
921.0, 0.008393936873577102
922.0, 0.008150995363992754
923.0, 0.007996373351639139
924.0, 0.008728579902779384
925.0, 0.008372598366984927
926.0, 0.00913526072249874
927.0, 0.008631128469868856
928.0, 0.00759434140721525
929.0, 0.007549940230624256
930.0, 0.008148698922873851
931.0, 0.008437546394965339
932.0, 0.010248931690423378
933.0, 0.009768009439530979
934.0, 0.009452134158663032
935.0, 0.009751046052255444
936.0, 0.009045350803312625
937.0, 0.008084927726006759
938.0, 0.007598546117321163
939.0, 0.007423341500879226
940.0, 0.0077067851703964425
941.0, 0.00746513321949966
942.0, 0.007835450956266076
943.0, 0.007987763861897989
944.0, 0.008419735473761432
945.0, 0.008285923464113228
946.0, 0.008065618197213577
947.0, 0.00770660398173027
948.0, 0.007282886364676999
949.0, 0.00766787234075091
950.0, 0.007204577811733467
951.0, 0.007911528794333274
952.0, 0.007323051497457207
953.0, 0.006576342580728314
954.0, 0.005502929712218854
955.0, 0.005832669311301083
956.0, 0.006371253983756392
957.0, 0.006369767138770812
958.0, 0.007288123759845805
959.0, 0.007283049157574148
960.0, 0.006787020861028228
961.0, 0.006736000865272183
962.0, 0.00597036283137479
963.0, 0.005625346318512117
964.0, 0.004452313178837035
965.0, 0.004180622126575707
966.0, 0.004706312832217768
967.0, 0.004133321982407484
968.0, 0.004036524236354507
969.0, 0.005636215557180737
970.0, 0.006580676945545312
971.0, 0.006293564340551656
972.0, 0.006733997529703102
973.0, 0.006124558480682032
974.0, 0.006102553953425749
975.0, 0.006119872428906491
976.0, 0.005336184027634571
977.0, 0.0052148905966554115
978.0, 0.0051436531157418135
979.0, 0.007332499931248027
980.0, 0.005734848316779223
981.0, 0.006118587068959116
982.0, 0.006525842872442016
983.0, 0.005748784575573446
984.0, 0.005101652501672543
985.0, 0.005750959693725365
986.0, 0.006515851031069286
987.0, 0.005605021829091655
988.0, 0.005881411737189944
989.0, 0.006903052057753811
990.0, 0.005131327419104996
991.0, 0.005456462101874901
992.0, 0.005323355398004925
993.0, 0.006051919977144158
994.0, 0.005798007272739271
995.0, 0.004892344918771629
996.0, 0.0059923780105140215
997.0, 0.0058394601770980934
998.0, 0.0067827088886023455
999.0, 0.005626703237250166
1000.0, 0.00672124267293085
1001.0, 0.0055611117940736
1002.0, 0.005841092653408759
1003.0, 0.005291811617757073
1004.0, 0.004730632081479851
1005.0, 0.005885446889485786
1006.0, 0.006284465237265589
1007.0, 0.00404326484988566
1008.0, 0.004455709755090442
1009.0, 0.005411447181077532
1010.0, 0.004864290909954963
1011.0, 0.004291762910483977
1012.0, 0.005113578296816207
1013.0, 0.006029464031594158
1014.0, 0.0058589683091380875
1015.0, 0.004980066136089786
1016.0, 0.0044603398094294954
1017.0, 0.004579553274449379
1018.0, 0.0038023538111336816
1019.0, 0.003857488309084443
1020.0, 0.004079955139243525
1021.0, 0.005290223402541111
1022.0, 0.005676640844393674
1023.0, 0.005286088704265032
1024.0, 0.0055793119740660336
1025.0, 0.006233244091414632
1026.0, 0.005828292397810189
1027.0, 0.006298559404037722
1028.0, 0.005433561319912598
1029.0, 0.005836031808290352
1030.0, 0.0056040604576368626
1031.0, 0.004894899487418182
1032.0, 0.004320640141172413
1033.0, 0.003733676188910205
1034.0, 0.004034480414462345
1035.0, 0.004225700518060878
1036.0, 0.00301800085769252
1037.0, 0.004249214939482071
1038.0, 0.005531298564849194
1039.0, 0.002922369431972654
1040.0, 0.004075741510755036
1041.0, 0.004124696378829058
1042.0, 0.004434506657808126
1043.0, 0.0036015179287207304
1044.0, 0.003043680930701416
1045.0, 0.0033401697679177633
1046.0, 0.0030227558961841137
1047.0, 0.0026928995786214107
1048.0, 0.003401782975088282
1049.0, 0.004795883244277089
1050.0, 0.0031726275811419253
1051.0, 0.004290595094576555
1052.0, 0.0032399984936097646
1053.0, 0.0034378832201615505
1054.0, 0.003959963941018547
1055.0, 0.003830573501683238
1056.0, 0.0036210695977854854
1057.0, 0.003250758321477049
1058.0, 0.0031898549084276454
1059.0, 0.001768509140999011
1060.0, 0.002692257733284315
1061.0, 0.0026052582290724794
1062.0, 0.0012959883508960608
1063.0, 0.002506086241536715
1064.0, 0.0031894656771645396
1065.0, 0.003149709018879045
1066.0, 0.0030936785014501894
1067.0, 0.002693783035468344
1068.0, 0.003032231369264151
1069.0, 0.0026508320278710498
1070.0, 0.002738634161708577
1071.0, 0.002193288265963012
1072.0, 0.0019360633574584131
1073.0, 0.001904748458799141
1074.0, 0.0014683938395604415
1075.0, 0.0019312761290727666
1076.0, 0.001901217211684934
1077.0, 0.0013996609123404216
1078.0, 0.002421280628543903
1079.0, 0.002251581803194932
1080.0, 0.002373756792878608
1081.0, 0.002258112296509945
1082.0, 0.002413413176746882
1083.0, 0.0016291788003169872
1084.0, 0.0005726624317767826
1085.0, 0.00084441211887941
1086.0, 0.0014609562707659461
1087.0, 0.001678962444129286
1088.0, 0.0012413317401306306
1089.0, 0.0007687941059405527
1090.0, 0.0026609040708691994
1091.0, 0.0005851268318156875
1092.0, 0.001178936037070236
1093.0, 0.00021760752410212068
1094.0, 0.0005825011143715941
1095.0, 0.002083833873951681
1096.0, 0.002069633684746184
1097.0, 0.0014004943483946087
1098.0, 0.000753968404673084
1099.0, 0.000659560671557094
1100.0, 0.0016936962966661254
1101.0, 0.0012959689037828237
1102.0, 0.0004620387601069304
1103.0, 0.0024055269222871566
1104.0, 0.0016267369441043292
1105.0, 0.000807122522447818
1106.0, 0.0007948469518019954
1107.0, 0.00043426238274805546
1108.0, 0.00017279210689179233
1109.0, 0.00020560117801433138
1110.0, 0.0001950278102917804
1111.0, 0.00029582540924453387
1112.0, 0.0006085845545763351
1113.0, 5.106857802831383e-05
1114.0, 0.00034825606716857086
1115.0, 0.0008100064088145776
1116.0, 0.0007372600797959964
1117.0, 0.0016592059862020026
1118.0, 0.0035341617327005626
1119.0, 0.0036216807384858336
1120.0, 0.0030800564324627313
1121.0, 0.0037544844820072633
1122.0, 0.004332359576407436
1123.0, 0.003473190544796073
1124.0, 0.003349619739425175
1125.0, 0.002464223879213695
1126.0, 0.002782887764570805
1127.0, 0.0019064857586733005
1128.0, 0.0005346990152683029
1129.0, 0.00025057360160216097
1130.0, 0.0011370105340386709
1131.0, 0.0010183880481473464
1132.0, 0.000406372933119792
1133.0, 0.0005667221286140088
1134.0, 0.0007142196271726248
1135.0, 0.0012054533502008637
1136.0, 0.0030559536924884795
1137.0, 0.000676125321055395
1138.0, 0.0023086120318612353
1139.0, 0.001967158842764046
1140.0, 0.001218430099793865
1141.0, 0.0015912881208734236
1142.0, 0.0014701590743104744
1143.0, 0.0007068771335265783
1144.0, 0.0009904557718061649
1145.0, 0.002332984811540064
1146.0, 0.002288432026166377
1147.0, 0.0007170184180424768
1148.0, 0.0019108349968751167
1149.0, 0.000689335775294534
1150.0, 0.00013436894614534485
1151.0, 0.0009894824052233122
1152.0, 0.0009151960047824291
1153.0, 0.0015239054587665043
1154.0, 0.0013754336212202494
1155.0, 0.0006937725373880124
1156.0, 0.0003670852239571863
1157.0, 0.0007514670111277128
1158.0, 0.0018195407801011123
1159.0, 0.0019101068885474372
1160.0, 0.0011571219803900394
1161.0, 0.0007295688413198657
1162.0, 0.0001609644782487868
1163.0, 0.0013795352920660615
1164.0, 0.0012183593777832394
1165.0, 0.0010834836850996837
1166.0, 0.001416186113385754
1167.0, 0.001442532745480326
1168.0, 0.0013457164677606686
1169.0, 0.0016022275224128653
1170.0, 0.0017894727445825565
1171.0, 0.0018516475911626996
1172.0, 0.0018360355848135502
1173.0, 0.0019451797352514374
1174.0, 0.0011652316284697772
1175.0, 0.002305488217802711
1176.0, 0.0019476268496627907
1177.0, 0.002600103874042084
1178.0, 0.0012758487520647538
1179.0, 0.0010049509452977046
1180.0, 0.0012644410748347767
1181.0, 0.0005476035608941871
1182.0, 0.0007955390316049146
1183.0, 0.0014758908461886236
1184.0, 0.0007924909754153902
1185.0, 0.0026725293151207206
1186.0, 0.0019870925061664085
1187.0, 0.002457068331882434
1188.0, 0.0013276335739813338
1189.0, 0.0015681662735056007
1190.0, 0.0007432333745365839
1191.0, 0.0011259434304437235
1192.0, 0.0010221934088001027
1193.0, 0.00017066292766479603
1194.0, 0.00018857261905607387
1195.0, 0.000466723621824063
1196.0, 0.0008448392511943186
1197.0, 0.0008976729813943911
1198.0, 0.0006992911527894478
1199.0, 0.0008779487008334418
1200.0, 0.001117478717285699
1201.0, 0.0006142752005953249
1202.0, 0.0016513409574175914
1203.0, 0.0013447199344262164
1204.0, 0.0004476412435386809
1205.0, 0.0005703094426725105
1206.0, 0.0012320126762899147
1207.0, 0.001327588221460892
1208.0, 0.001470630327288463
1209.0, 0.002289562834196241
1210.0, 0.0010289979700142814
1211.0, 0.001751806960705686
1212.0, 0.002428248707018697
1213.0, 0.003687603046995847
1214.0, 0.0027545080626395486
1215.0, 0.00361513581144096
1216.0, 0.003672980127150508
1217.0, 0.004176218034759465
1218.0, 0.00433427289838144
1219.0, 0.004287016203169579
1220.0, 0.004509135228592582
1221.0, 0.004525221052568714
1222.0, 0.005250615058202762
1223.0, 0.004721361270811303
1224.0, 0.00422812869437419
1225.0, 0.0038109368360988863
1226.0, 0.003853600669448054
1227.0, 0.003021269465447146
1228.0, 0.0029137097709848
1229.0, 0.0011091501349152235
1230.0, 0.0015940205960403389
1231.0, 0.0022999052203925207
1232.0, 0.0018648315304976779
1233.0, 0.0021927159251428066
1234.0, 0.0030997440438679026
1235.0, 0.0021524257822051075
1236.0, 0.0008204578498711019
1237.0, 0.002559956398448485
1238.0, 0.0014466326096393483
1239.0, 0.0030552795393378983
1240.0, 0.003202152816265959
1241.0, 0.00215886506444512
1242.0, 0.0007873639296267316
1243.0, 0.001978545051738938
1244.0, 0.00302565436114123
1245.0, 0.002778068857487989
1246.0, 0.0016272890126188802
1247.0, 0.0015194686749685836
1248.0, 0.0023824742136024342
1249.0, 0.0011627076969189971
1250.0, 0.0008506829201442082
1251.0, 0.003673193499217969
1252.0, 0.0014815163176431158
1253.0, 0.0024214290013664917
1254.0, 0.0033158192976337026
1255.0, 0.002099806361509528
1256.0, 0.0008768922964959844
1257.0, 0.0018698393418388865
1258.0, 0.002127114670014587
1259.0, 0.0020068307667454673
1260.0, 0.001983270297273623
1261.0, 0.0019359594431603803
1262.0, 0.0017637754491404186
1263.0, 0.0012717038166072338
1264.0, 0.0013498488278670844
1265.0, 0.0007123451044031943
1266.0, 0.0007429765045224091
1267.0, 0.0011860615820488331
1268.0, 0.0012282104683485511
1269.0, 0.0017839055568123433
1270.0, 0.003177602558403424
1271.0, 0.0014609941024810143
1272.0, 0.002423985080284523
1273.0, 0.00248473919998833
1274.0, 0.0016740750347702328
1275.0, 0.0019299793777710656
1276.0, 0.0021723420879093645
1277.0, 0.0017622918790983451
1278.0, 0.0018801116752419924
1279.0, 0.0019581093829360687
1280.0, 0.0012737080213998035
1281.0, 0.0018763551566734794
1282.0, 0.00275266597613351
1283.0, 0.00153224929793735
1284.0, 0.0035538883060173263
1285.0, 0.0020238798419575316
1286.0, 0.0008714456580787784
1287.0, 0.0010583373050628813
1288.0, 0.0011064190990653356
1289.0, 0.0013405684733416461
1290.0, 0.0010989399094311774
1291.0, 0.00041159479446252776
1292.0, 0.0007353629488446782
1293.0, 0.0011771424025936693
1294.0, 0.001001155600518258
1295.0, 0.0018386275618332614
1296.0, 0.0014709267691655281
1297.0, 0.0018181641513956434
1298.0, 0.0033595306739444275
1299.0, 0.0012721068762795006
1300.0, 0.00195253662849396
1301.0, 0.0006864908304664027
1302.0, 0.00028020468524916296
1303.0, 0.002106420651681167
1304.0, 0.0018773040641925525
1305.0, 0.001396403159644747
1306.0, 0.0025796190303884617
1307.0, 0.0029039024269245247
1308.0, 0.001795631383200423
1309.0, 0.0008044177750160026
1310.0, 0.0010203651620599513
1311.0, 0.000638506676112853
1312.0, 0.0009790026401487201
1313.0, 0.0026462660897341723
1314.0, 0.0025923660098663417
1315.0, 0.002189712171008869
1316.0, 0.0016054975927071418
1317.0, 0.001234985994197285
1318.0, 0.0020251625957256668
1319.0, 0.0011363723848924429
1320.0, 0.0014577175004476682
1321.0, 0.0016689287450934011
1322.0, 0.0014266237515025233
1323.0, 0.002179612888343469
1324.0, 0.002253792794320549
1325.0, 0.002282316768106377
1326.0, 0.0015464949319664897
1327.0, 0.0008425268114824408
1328.0, 0.0010061254450709264
1329.0, 0.00011639384148054643
1330.0, 0.0015264576849423597
1331.0, 0.0013641367992528637
1332.0, 0.0013925401728580916
1333.0, 0.0028597004735868175
1334.0, 0.0015351248864485226
1335.0, 0.0018555821790697175
1336.0, 0.001448486721946518
1337.0, 0.002065654502399763
1338.0, 0.002076922923243517
1339.0, 0.0008689955875163021
1340.0, 0.0016313398407768627
1341.0, 0.0018826154269722685
1342.0, 0.0004720381023696459
1343.0, 0.001278057964378704
1344.0, 0.001739253306079124
1345.0, 0.001309432714776885
1346.0, 0.00043409496545999466
1347.0, 0.002395435195053949
1348.0, 0.0018549252767599623
1349.0, 0.0003639351857830022
1350.0, 0.0017285488229917777
1351.0, 0.00110559507723108
1352.0, 0.002099818472208801
1353.0, 0.0021543335250994882
1354.0, 0.001175658383699775
1355.0, 0.0014203853160543996
1356.0, 0.0023082045278735894
1357.0, 0.0020895542154909397
1358.0, 0.001457807181138937
1359.0, 0.0018145260981574994
1360.0, 0.0020747004352232095
1361.0, 0.002506471779558688
1362.0, 0.0024494828779794966
1363.0, 0.0026708971356085034
1364.0, 0.0022646116940231234
1365.0, 0.00295291094749644
1366.0, 0.002983277136383326
1367.0, 0.0033227279380173133
1368.0, 0.0025455729368603535
1369.0, 0.002940095947846219
1370.0, 0.0023357396653076123
1371.0, 0.0012130940743605321
1372.0, 0.000788583484954152
1373.0, 0.0011936375136366566
1374.0, 0.0014626129744600594
1375.0, 0.0013869948648598353
1376.0, 0.0016112750605422094
1377.0, 0.0016633204979175354
1378.0, 0.001685036894638382
1379.0, 0.0018928190565940797
1380.0, 0.0017341507293280043
1381.0, 0.002196105069884471
1382.0, 0.0013066354293677879
1383.0, 0.0012503050889743168
1384.0, 0.0007881152072572589
1385.0, 0.001083605219511561
1386.0, 0.0034588901205417585
1387.0, 0.0023897630182392743
1388.0, 0.0024809318972395657
1389.0, 0.0026848150079109385
1390.0, 0.002199367008726784
1391.0, 0.002626102809005523
1392.0, 0.0028783398850949246
1393.0, 0.0020556789658113125
1394.0, 0.0020279617996542413
1395.0, 0.003271178935383468
1396.0, 0.004101436978592886
1397.0, 0.003656833225759169
1398.0, 0.0019488047153763907
1399.0, 0.001581999863917912
1400.0, 0.0022787695909847992
1401.0, 0.003974422331023342
1402.0, 0.0035391981023783032
1403.0, 0.0031044400039586403
1404.0, 0.0033860116417243078
1405.0, 0.002260367482630679
1406.0, 0.0020523235345965606
1407.0, 0.002019269808950507
1408.0, 0.001408812543731569
1409.0, 0.001704040602385457
1410.0, 0.0026027440736325212
1411.0, 0.0024114801653060164
1412.0, 0.002415800785523467
1413.0, 0.002545440197036295
1414.0, 0.002160159434347061
1415.0, 0.002278027808362477
1416.0, 0.0020091153227184927
1417.0, 0.0017650486694275394
1418.0, 0.0008404930622865729
1419.0, 0.001413187923970167
1420.0, 0.0025224280542048886
1421.0, 0.0026456946340402926
1422.0, 0.0013377582983057116
1423.0, 0.0011310224828777378
1424.0, 0.002964428160045631
1425.0, 0.0019657210942088032
1426.0, 0.00222826062955135
1427.0, 0.0010494422544689067
1428.0, 0.002147304537310301
1429.0, 0.0026792653937985312
1430.0, 0.002571676162249861
1431.0, 0.001880490229716384
1432.0, 0.0013330163195104394
1433.0, 0.001261401179435592
1434.0, 0.0014491020522779997
1435.0, 0.0020453867913598073
1436.0, 0.0028591059337261374
1437.0, 0.0029448939241100897
1438.0, 0.002191339786796057
1439.0, 0.0021066822024000506
1440.0, 0.0016715485468363155
1441.0, 0.002791526799935595
1442.0, 0.0029999228933598864
1443.0, 0.001312324682068337
1444.0, 0.0025073920648397675
1445.0, 0.0008043769765359585
1446.0, 0.0006555769403815959
1447.0, 0.0013189714315823796
1448.0, 0.0016313441912260472
1449.0, 0.002952237385573973
1450.0, 0.0014643728648176513
1451.0, 0.001810953484676105
1452.0, 0.0009108097569070027
1453.0, 0.0007482829589588801
1454.0, 0.001780597994741855
1455.0, 0.0017900246638226879
1456.0, 0.0024472826678299466
1457.0, 0.0022150527330430277
1458.0, 0.0009034894831767529
1459.0, 0.0016685141516372321
1460.0, 0.0018593201485284905
1461.0, 0.001544948236444196
1462.0, 0.00012255122595232682
1463.0, 0.0001845265531355253
1464.0, 0.0004526407506640585
1465.0, 0.00038416720700047626
1466.0, 0.0017189415672218213
1467.0, 0.0016954283828827204
1468.0, 0.0020760914541131568
1469.0, 0.0019636858650192482
1470.0, 0.0016402631558272065
1471.0, 0.0010794394361586495
1472.0, 0.0006952232069287813
1473.0, 0.0003442789568030979
1474.0, 0.0005363167665183346
1475.0, 0.0003807393125986367
1476.0, 0.00038167093430376464
1477.0, 0.0013704331754248306
1478.0, 0.003212475443119956
1479.0, 0.0037949958967858325
1480.0, 0.0032778773615779184
1481.0, 0.0026909332084841947
1482.0, 0.0023663367594898084
1483.0, 0.0015582678091758575
1484.0, 0.0011181545953931385
1485.0, 0.0019653325386292174
1486.0, 0.0005923244881465813
1487.0, 0.0009253714504715369
1488.0, 0.00241336327944288
1489.0, 0.011892019524691953
1490.0, 0.014011159295199176
1491.0, 0.01544660715271521
1492.0, 0.002599803659141593
1493.0, 0.0025141591347122337
1494.0, 0.0016428849894652344
1495.0, 0.0012422082749019006
1496.0, 0.0019358005958234835
1497.0, 0.0033240105250848155
1498.0, 0.002391211114275479
1499.0, 0.002320678479783172
1500.0, 0.0007154895388178452
1501.0, 0.0010865310726234066
1502.0, 0.0007463550384652275
1503.0, 0.0010483387040357334
1504.0, 0.0010962286901401736
1505.0, 0.000898215042615192
1506.0, 0.0014650461518444025
1507.0, 0.0016396252112483932
1508.0, 0.0012969609014917517
1509.0, 0.0017026058955710685
1510.0, 0.0016717914218047723
1511.0, 0.0009813870106721728
1512.0, 0.0012370026331297043
1513.0, 0.0008482050741039227
1514.0, 0.0002931830506784545
1515.0, 0.0012045072335104849
1516.0, 0.00211233903095714
1517.0, 0.0027599776833956004
1518.0, 0.0017737246400533393
1519.0, 0.0011926460903081075
1520.0, 0.0019416426588987445
1521.0, 0.00023719874935984985
1522.0, 0.0003212345335842821
1523.0, 0.0025745491137456502
1524.0, 0.0016645680929173652
1525.0, 0.0011706939535185254
1526.0, 0.000964689118333867
1527.0, 0.0015974408450086476
1528.0, 0.0007404545511233811
1529.0, 0.0010540832638456397
1530.0, 0.0008944781785344276
1531.0, 0.0007865032207800126
1532.0, 0.0010718788066436018
1533.0, 0.0019833841729636585
1534.0, 0.002467447894509746
1535.0, 0.002047113563300043
1536.0, 0.0018133618587731245
1537.0, 0.0009830009447667873
1538.0, 0.000492500678584914
1539.0, 0.0008850937434056269
1540.0, 0.0008740501070778598
1541.0, 0.0014137529300873148
1542.0, 0.002057189989798843
1543.0, 0.001959745460218256
1544.0, 0.002050418779322039
1545.0, 0.000531731936639069
1546.0, 0.0010753859778657522
1547.0, 0.0026473678372859323
1548.0, 0.0024446529199417125
1549.0, 0.0018337713486701488
1550.0, 0.0018205622236785416
1551.0, 0.0027927204219522416
1552.0, 0.0029688407382912983
1553.0, 0.004166076466526022
1554.0, 0.004022450373682061
1555.0, 0.004662647886167941
1556.0, 0.0030679734669345005
1557.0, 0.0009995000419547031
1558.0, 0.001847733286502007
1559.0, 0.0009747197026464406
1560.0, 0.00023249334568655491
1561.0, 0.002510130689702509
1562.0, 0.0017882255073492761
1563.0, 0.00200991276361449
1564.0, 0.0010534941504883565
1565.0, 0.0016672480105712649
1566.0, 0.002079840604837032
1567.0, 0.0019815932444796854
1568.0, 0.0008875666388614725
1569.0, 0.0009676138349672986
1570.0, 0.00047730802793200487
1571, 0.0
1572, 0.0
1573, 0.0
1574, 0.0
1575, 0.0
1576, 0.0
1577, 0.0
1578, 0.0
1579, 0.0
1580, 0.0
1581, 0.0
1582, 0.0
1583, 0.0
1584, 0.0
1585, 0.0
1586, 0.0
1587, 0.0
1588, 0.0
1589, 0.0
1590, 0.0
1591, 0.0
1592, 0.0
1593, 0.0
1594, 0.0
1595, 0.0
1596, 0.0
1597, 0.0
1598, 0.0
1599, 0.0
