30, 0.0
31, 0.0
32, 0.0
33, 0.0
34, 0.0
35, 0.0
36, 0.0
37, 0.0
38, 0.0
39, 0.0
40, 0.0
41.0, 1.4196240448274065e-06
42.0, 3.0851046221094084e-05
43.0, 0.00011111772752277821
44.0, 0.00021575981940197606
45.0, 0.0003042589074381136
46.0, 0.00031480788194568647
47.0, 0.0003444427903779707
48.0, 0.00045822832839703903
49.0, 0.00048584008185480876
50.0, 0.00048302528907553645
51.0, 0.0005706418073493657
52.0, 0.0006674170461945512
53.0, 0.0007043632094857564
54.0, 0.0007147523707744827
55.0, 0.0008227409662742778
56.0, 0.0009118625365904591
57.0, 0.0008882087349596894
58.0, 0.0008535771453062491
59.0, 0.001250041961972374
60.0, 0.0013489876256010888
61.0, 0.00133304028938979
62.0, 0.0013045640605045602
63.0, 0.001301469874398484
64.0, 0.001286259416961201
65.0, 0.0011084222728154737
66.0, 0.000883646027537327
67.0, 0.0007234105946649839
68.0, 0.0006255916524669557
69.0, 0.0004968436734337762
70.0, 0.0003151147864557512
71.0, 0.0003234237270703075
72.0, 0.00031002989897101923
73.0, 0.0002618738621382173
74.0, 0.00024239824061377977
75.0, 4.3891511891089186e-05
76.0, 4.501556791049514e-05
77.0, 0.00010641413929151765
78.0, 0.00012735353744626666
79.0, 9.153039382762742e-05
80.0, 0.000354996303695767
81.0, 0.00022663825067777816
82.0, 0.0002897516725060158
83.0, 0.00028737482704820967
84.0, 3.6765467457080204e-05
85.0, 1.753648537636861e-05
86.0, 0.00011641229619778743
87.0, 0.0005314381497160501
88.0, 0.0009874108231541212
89.0, 0.0014479408239496832
90.0, 0.0023570362321405423
91.0, 0.00368819418546379
92.0, 0.005086460584973902
93.0, 0.006816090486401854
94.0, 0.009316998599363868
95.0, 0.0131259529902346
96.0, 0.01761398867920195
97.0, 0.02434050381306685
98.0, 0.033119948383061704
99.0, 0.043976756087938315
100.0, 0.05636197007458971
101.0, 0.0639973820895469
102.0, 0.0670882704777685
103.0, 0.06634703701620512
104.0, 0.061607474894858974
105.0, 0.05304384174875685
106.0, 0.04239560269177943
107.0, 0.0334855456553102
108.0, 0.02651850229511423
109.0, 0.021138677434634028
110.0, 0.016997560320484127
111.0, 0.01411421608600683
112.0, 0.012755171417815883
113.0, 0.01102754067863114
114.0, 0.010405767843481208
115.0, 0.01070561864726115
116.0, 0.009838921445372838
117.0, 0.008787174825425403
118.0, 0.00864516681062874
119.0, 0.008320981248792358
120.0, 0.007873589965627441
121.0, 0.007929765564666381
122.0, 0.008276584760166978
123.0, 0.008179675391825344
124.0, 0.008123916715281098
125.0, 0.0081753972099537
126.0, 0.008235486200587104
127.0, 0.008036434365575471
128.0, 0.008247040789726951
129.0, 0.008214140153335934
130.0, 0.00810009534108931
131.0, 0.008154198077066384
132.0, 0.00860494349041613
133.0, 0.008224860100652634
134.0, 0.008249750094808592
135.0, 0.008407513598602196
136.0, 0.008624978754324662
137.0, 0.008961452060015371
138.0, 0.00891594007723964
139.0, 0.009515615714087714
140.0, 0.009949977456327438
141.0, 0.009965698320477254
142.0, 0.009734525043282118
143.0, 0.010340090869446754
144.0, 0.010450351992103575
145.0, 0.01017352427289058
146.0, 0.010318363278739357
147.0, 0.011133367363407651
148.0, 0.011728330834645346
149.0, 0.011897534095182289
150.0, 0.012340236309500638
151.0, 0.01248017888145386
152.0, 0.01259587649381509
153.0, 0.01348516605338181
154.0, 0.01394627695444639
155.0, 0.014599788175274159
156.0, 0.01532332808359777
157.0, 0.01612599744174986
158.0, 0.017160519010415775
159.0, 0.018979649774097142
160.0, 0.019968804824437945
161.0, 0.021720006335768288
162.0, 0.02412444049797137
163.0, 0.02731756605091133
164.0, 0.032049661997613915
165.0, 0.03896720156873277
166.0, 0.04722431116665554
167.0, 0.05721894323766921
168.0, 0.0678440345111635
169.0, 0.07767286066424436
170.0, 0.0896349752668038
171.0, 0.10782529620040476
172.0, 0.13726047805570962
173.0, 0.17476797856757195
174.0, 0.21489203971253787
175.0, 0.25230837879001156
176.0, 0.27974728081743816
177.0, 0.2972847853333755
178.0, 0.30369914618884375
179.0, 0.29776780400310504
180.0, 0.2787323775656009
181.0, 0.24980193020487484
182.0, 0.2231880767683324
183.0, 0.20425365615436564
184.0, 0.20148687933731638
185.0, 0.22157277898367259
186.0, 0.26357507528825985
187.0, 0.31851279656292264
188.0, 0.3680803748720629
189.0, 0.40410756498604206
190.0, 0.4212887323592688
191.0, 0.4168304379007943
192.0, 0.3794396679285615
193.0, 0.32108649731453165
194.0, 0.2553030951178435
195.0, 0.1904065216542528
196.0, 0.1321684366768673
197.0, 0.08794299579701156
198.0, 0.06132850852706066
199.0, 0.0441543610776209
200.0, 0.03366676002674379
201.0, 0.027155297227529324
202.0, 0.021446927702586577
203.0, 0.018261901954219308
204.0, 0.015651055502392614
205.0, 0.013830616389747903
206.0, 0.012454542089862556
207.0, 0.010942106751206972
208.0, 0.009100993117583348
209.0, 0.008681241077432709
210.0, 0.008091689008066704
211.0, 0.007888679625554186
212.0, 0.008173073052112187
213.0, 0.007846208638766223
214.0, 0.007824147315610574
215.0, 0.007933170619250083
216.0, 0.008787587840239842
217.0, 0.009934062360802855
218.0, 0.010636360169129956
219.0, 0.011679898754238662
220.0, 0.011948941910931585
221.0, 0.011940803207862944
222.0, 0.01150921288187483
223.0, 0.01052557502331264
224.0, 0.009041348905354688
225.0, 0.008097355718033928
226.0, 0.006614962630643264
227.0, 0.005327738584848719
228.0, 0.00406803140853854
229.0, 0.0025649673137481026
230.0, 0.0019729723247846756
231.0, 0.001812484175855222
232.0, 0.0014677838276232606
233.0, 0.0013916662780697818
234.0, 0.0014679578137908908
235.0, 0.0008860295739014227
236.0, 0.0011555842509431901
237.0, 0.0011398703478049971
238.0, 0.001225773821074928
239.0, 0.0013248149708336274
240.0, 0.0012243280478341568
241.0, 0.0008774607943678563
242.0, 0.0006164147667701426
243.0, 0.0007460485949751947
244.0, 0.0005490131653519211
245.0, 0.00022989566279710817
246.0, 0.0006557183186204655
247.0, 0.0007610779322633285
248.0, 0.0003459155652330994
249.0, 0.0003764235196045983
250.0, 0.0004490638205901714
251.0, 0.00028945050952473747
252.0, 0.0005377262851143401
253.0, 0.0005337663847482731
254.0, 0.0006714235261556183
255.0, 0.0007713676572410504
256.0, 0.0006301782921592273
257.0, 0.0002590029794553422
258.0, 0.0006593977160704948
259.0, 0.0007156034424061097
260.0, 0.0008130748082635585
261.0, 0.0010100038231832694
262.0, 0.0010591100358068168
263.0, 0.000501316894243094
264.0, 8.211190957181668e-05
265.0, 0.00023445120488070438
266.0, 0.00047280431676722384
267.0, 0.00045834947161216163
268.0, 0.00019684494876788278
269.0, 0.00036380830093231663
270.0, 0.0008725181605239333
271.0, 0.0009334140717872977
272.0, 0.0010546151198210039
273.0, 0.0012795198144672092
274.0, 0.001399991630192674
275.0, 0.0017388116891976953
276.0, 0.0022018423952459244
277.0, 0.002055106376564584
278.0, 0.0024216914218233446
279.0, 0.0032251473390013516
280.0, 0.0028843684649791567
281.0, 0.0036308175176833525
282.0, 0.004193608905935716
283.0, 0.004510760784783831
284.0, 0.0048995849658168625
285.0, 0.005516889149638065
286.0, 0.005919190610988958
287.0, 0.006492671221885809
288.0, 0.006881155700164997
289.0, 0.007288740523800393
290.0, 0.00794486453264863
291.0, 0.008928725896815105
292.0, 0.009754292010457546
293.0, 0.011338419854737825
294.0, 0.012684579261329614
295.0, 0.014294044456848433
296.0, 0.016400730091699664
297.0, 0.01883814545138196
298.0, 0.021595317551397823
299.0, 0.025216099998547705
300.0, 0.028549162055804378
301.0, 0.03216438526555348
302.0, 0.03638366394735729
303.0, 0.04063128306083928
304.0, 0.04475699963041959
305.0, 0.047205860173335175
306.0, 0.04797561877357711
307.0, 0.04799148106165913
308.0, 0.047477003914914565
309.0, 0.044276145722290425
310.0, 0.040056941764492274
311.0, 0.03579956341789912
312.0, 0.03140146633294579
313.0, 0.02721300420789044
314.0, 0.023851409301579703
315.0, 0.02201179165885081
316.0, 0.019441528301307055
317.0, 0.018135208562365446
318.0, 0.017743832050621584
319.0, 0.01775214083367916
320.0, 0.017885917802881103
321.0, 0.01898168581492061
322.0, 0.020018335789554222
323.0, 0.021985497538940912
324.0, 0.02428576599876518
325.0, 0.026763961030188414
326.0, 0.029908287684700153
327.0, 0.032823749260907274
328.0, 0.0378744338974121
329.0, 0.04290801745722452
330.0, 0.04773795430990575
331.0, 0.05204158159020528
332.0, 0.05480316099238284
333.0, 0.057539950832945774
334.0, 0.057493462798859626
335.0, 0.057394545449922965
336.0, 0.05732810132202042
337.0, 0.05800212683648196
338.0, 0.06270396096758449
339.0, 0.06750004066599899
340.0, 0.07396183559645793
341.0, 0.0833334860904037
342.0, 0.09621110699289076
343.0, 0.11178570280186317
344.0, 0.1268756072691314
345.0, 0.14181133588932154
346.0, 0.14968603083222734
347.0, 0.15162934891465948
348.0, 0.14744864015905984
349.0, 0.13654922431025368
350.0, 0.11935351297600161
351.0, 0.1023226714583189
352.0, 0.08335546877970318
353.0, 0.06749374186177617
354.0, 0.054434893109452716
355.0, 0.04172230441985205
356.0, 0.03251786814642411
357.0, 0.026798198646772384
358.0, 0.02158060701034764
359.0, 0.017824800738406296
360.0, 0.015184109011296744
361.0, 0.012634665566270282
362.0, 0.011029174080380422
363.0, 0.010009410307289671
364.0, 0.008428155874378614
365.0, 0.007722145338121299
366.0, 0.007656640008847581
367.0, 0.007176242263729208
368.0, 0.008402934730829965
369.0, 0.0074546921001034045
370.0, 0.007023863791827667
371.0, 0.007491620817885238
372.0, 0.008811705213084607
373.0, 0.010576069538680174
374.0, 0.01140133581038397
375.0, 0.013068929826614333
376.0, 0.015468512369128658
377.0, 0.017436310432793437
378.0, 0.019002848697063146
379.0, 0.021076555091195638
380.0, 0.023288297028223943
381.0, 0.02428479114859999
382.0, 0.02508346170176746
383.0, 0.02515681467765388
384.0, 0.024190609854801644
385.0, 0.022267706072390862
386.0, 0.019656870765821847
387.0, 0.01702209743169362
388.0, 0.014270075311414113
389.0, 0.0115377109717991
390.0, 0.009187859782282991
391.0, 0.007452650561963095
392.0, 0.00536617021866535
393.0, 0.0037657254932008397
394.0, 0.002853875795304153
395.0, 0.002095461144713427
396.0, 0.0011623717909559478
397.0, 0.00017356404632275465
398.0, 6.283812025769409e-05
399.0, 0.00020748687157195344
400.0, 0.00035992435133008527
401.0, 0.0004953967264649638
402.0, 0.0004580344352613071
403.0, 0.00030169168391691673
404.0, 0.0011196071793105407
405.0, 0.0006326653129503006
406.0, 0.0007466960181021653
407.0, 0.0009193944386295131
408.0, 0.0006976558380694944
409.0, 0.0003455742121530684
410.0, 0.0016630265379481016
411.0, 0.0007265844094038709
412.0, 0.0004948181411935081
413.0, 0.0005063075960188596
414.0, 0.0009445222375798331
415.0, 0.001757922419003485
416.0, 0.0015161981768025193
417.0, 0.0006706023390284134
418.0, 0.0009255088846427141
419.0, 0.0007720215665380593
420.0, 0.0005557139158507207
421.0, 0.0007014060631149138
422.0, 0.0003236424847181023
423.0, 0.00021390642514785386
424.0, 0.0003972390357613738
425.0, 0.000403404042068673
426.0, 0.000769207655943483
427.0, 0.001488209267897059
428.0, 0.0014807447647085083
429.0, 0.00210430222895662
430.0, 0.002534593337222465
431.0, 0.002899779436895283
432.0, 0.003391323674594723
433.0, 0.003986147477415536
434.0, 0.0045053311792663964
435.0, 0.00554386962222072
436.0, 0.005889672015875857
437.0, 0.006990779615705723
438.0, 0.00824147657035688
439.0, 0.009430899078857592
440.0, 0.010902171383498884
441.0, 0.01263914617439557
442.0, 0.013857460113829096
443.0, 0.01565857632694465
444.0, 0.017313205523938235
445.0, 0.01918698511264686
446.0, 0.021805143793175618
447.0, 0.023920730799245834
448.0, 0.026367430349734575
449.0, 0.029477256609537057
450.0, 0.03310584993995506
451.0, 0.0375758244419311
452.0, 0.04273925049966049
453.0, 0.047426552179535154
454.0, 0.055808742643061154
455.0, 0.06439454831416713
456.0, 0.07347085886864672
457.0, 0.08440226605490468
458.0, 0.0979398649287779
459.0, 0.11382410803433463
460.0, 0.13384283417278076
461.0, 0.15828599383636252
462.0, 0.18884890648942226
463.0, 0.22538497986782674
464.0, 0.2687930611401387
465.0, 0.3203433117349701
466.0, 0.3785776334170477
467.0, 0.4511036165859865
468.0, 0.5331150684733293
469.0, 0.6239168612697342
470.0, 0.723265702087117
471.0, 0.8258016473640359
472.0, 0.9153551164810771
473.0, 0.98042998532964
474.0, 0.9974663923631023
475.0, 0.9939393421596869
476.0, 0.956045350964222
477.0, 0.8745604341524782
478.0, 0.7661587679174698
479.0, 0.6446352421211179
480.0, 0.528718360514084
481.0, 0.42782079045753546
482.0, 0.34520203331578003
483.0, 0.27918101971053405
484.0, 0.22630790176876622
485.0, 0.18887166558249321
486.0, 0.16092403066350439
487.0, 0.13723709052408187
488.0, 0.11831684370660663
489.0, 0.1034774844419533
490.0, 0.09182750907429517
491.0, 0.08341022662355996
492.0, 0.07579602287453815
493.0, 0.0704219909695798
494.0, 0.0652456406862783
495.0, 0.06093800646060794
496.0, 0.05812943790999467
497.0, 0.05648054930476636
498.0, 0.05532417561316051
499.0, 0.053083080476978746
500.0, 0.050958367984740606
501.0, 0.04914793928145328
502.0, 0.046002404318518514
503.0, 0.04090676049099418
504.0, 0.03800378403244441
505.0, 0.03434311763996052
506.0, 0.030671679002212963
507.0, 0.027427687347834705
508.0, 0.02434818822648699
509.0, 0.021449084334108002
510.0, 0.0192209456151202
511.0, 0.017110767214916202
512.0, 0.01645005202314269
513.0, 0.014932903327239063
514.0, 0.013385042612554842
515.0, 0.012681555546813756
516.0, 0.012750044709529567
517.0, 0.011925733479517232
518.0, 0.010930841200816119
519.0, 0.010233821556547314
520.0, 0.009675119916118568
521.0, 0.009059500595733886
522.0, 0.008608331941765855
523.0, 0.008762946963487969
524.0, 0.008180648788153307
525.0, 0.009024458214963347
526.0, 0.00904364697055707
527.0, 0.009266724129306951
528.0, 0.00973607901018336
529.0, 0.010118514961430385
530.0, 0.011158289193158836
531.0, 0.012691953297125087
532.0, 0.013527776779310476
533.0, 0.014742048659609755
534.0, 0.01660505583358834
535.0, 0.018725201347932433
536.0, 0.020567039527336763
537.0, 0.022940080131712164
538.0, 0.02242969450368056
539.0, 0.022528470886464886
540.0, 0.02324381114471166
541.0, 0.02474285762738744
542.0, 0.02639005137464677
543.0, 0.02634787967160265
544.0, 0.0286894446416116
545.0, 0.03258786071678663
546.0, 0.03741493879786051
547.0, 0.043520029860348405
548.0, 0.05063867305633145
549.0, 0.05806853398797527
550.0, 0.06573835445982568
551.0, 0.07645383407378023
552.0, 0.08963903410937468
553.0, 0.10080885382788113
554.0, 0.11249738284962449
555.0, 0.12429733300456608
556.0, 0.13032044597789086
557.0, 0.13125300346819277
558.0, 0.1257882424686573
559.0, 0.11632212901449149
560.0, 0.10344872203330682
561.0, 0.08956885238472818
562.0, 0.07638738095117946
563.0, 0.06277668285810034
564.0, 0.050863414375175754
565.0, 0.039855252103147186
566.0, 0.03297610586143243
567.0, 0.027366715668980336
568.0, 0.02207446152111516
569.0, 0.01794120194015976
570.0, 0.014111404395128644
571.0, 0.01120392868728124
572.0, 0.008923515784563614
573.0, 0.007058040501364542
574.0, 0.0056102738570790725
575.0, 0.004836775071588814
576.0, 0.0046500234276824525
577.0, 0.0029452842010468817
578.0, 0.0022685058667824298
579.0, 0.0013425009959599575
580.0, 0.0007496318468718417
581.0, 0.00045584250647750125
582.0, 0.00031284681276642646
583.0, 0.0003362826834602701
584.0, 7.332470695969791e-05
585.0, 0.0009508137323695465
586.0, 0.0011372793776251722
587.0, 0.0008416795745552143
588.0, 0.0010151407992496433
589.0, 0.001637637891070178
590.0, 0.0010108451390061415
591.0, 0.0006802148551624078
592.0, 0.0003369489693660549
593.0, 0.0002596164585412438
594.0, 0.0002455107582003367
595.0, 0.0003514721901326358
596.0, 0.0007918882044194878
597.0, 0.001632852004937414
598.0, 0.0026888138424071696
599.0, 0.0034736959030186466
600.0, 0.004280237881065756
601.0, 0.005576674429162024
602.0, 0.007130168035035275
603.0, 0.00852516599989976
604.0, 0.010273127796355117
605.0, 0.014360889592690527
606.0, 0.01768620153506969
607.0, 0.02044464303337566
608.0, 0.02375694706388789
609.0, 0.028262357689433658
610.0, 0.03333576854562945
611.0, 0.03687632152654345
612.0, 0.04155045221473001
613.0, 0.04441556484426373
614.0, 0.04655536168508139
615.0, 0.047353106556904154
616.0, 0.04647044355181623
617.0, 0.04426577909871204
618.0, 0.041163322201270426
619.0, 0.03691220738167935
620.0, 0.03223769999191891
621.0, 0.028517286643978436
622.0, 0.02520198709601405
623.0, 0.022016889665774184
624.0, 0.019639398492285853
625.0, 0.01914330549344711
626.0, 0.01714787804922773
627.0, 0.017742195003766798
628.0, 0.01821827079920716
629.0, 0.018621004372293422
630.0, 0.01956113852914951
631.0, 0.020901662794535463
632.0, 0.02117012394700543
633.0, 0.022537029691791728
634.0, 0.02401962352298931
635.0, 0.023393108594067485
636.0, 0.023131269205526855
637.0, 0.02342206618887328
638.0, 0.02234769224553357
639.0, 0.02078859008151602
640.0, 0.01948023031247817
641.0, 0.017324468513886623
642.0, 0.01516359840960643
643.0, 0.01295964373186738
644.0, 0.010926378002965151
645.0, 0.009501082820831537
646.0, 0.008665519937251454
647.0, 0.006588370408558865
648.0, 0.0064528707401294875
649.0, 0.0056626704063242874
650.0, 0.004845314324470428
651.0, 0.004342704557575806
652.0, 0.00385529960336686
653.0, 0.0032775599610021097
654.0, 0.003521258032795607
655.0, 0.0029638557093816277
656.0, 0.0025467236733779687
657.0, 0.0025453887690170774
658.0, 0.002494243974542676
659.0, 0.002034446824555445
660.0, 0.001625801906234371
661.0, 0.0014260263934168889
662.0, 0.002430145350723377
663.0, 0.001766197112920387
664.0, 0.0019836663138087106
665.0, 0.002364695726824107
666.0, 0.0019050754771455366
667.0, 0.0018048603770901247
668.0, 0.002404169098424067
669.0, 0.002265484788386212
670.0, 0.0021064391516236384
671.0, 0.002079726109719327
672.0, 0.002180926693673092
673.0, 0.0022810173640551066
674.0, 0.0023512853499686602
675.0, 0.0029236902220974997
676.0, 0.0028085530788732166
677.0, 0.002967285960225622
678.0, 0.003029151023767951
679.0, 0.0027955669784444285
680.0, 0.002592047970661354
681.0, 0.0028692509433100393
682.0, 0.0034062191441387663
683.0, 0.0035742069729746005
684.0, 0.003016379800025554
685.0, 0.0034818343399831155
686.0, 0.0039999466069492035
687.0, 0.003919282128894395
688.0, 0.0037960041357040977
689.0, 0.004803962523246039
690.0, 0.0048964607021709594
691.0, 0.004251035084693313
692.0, 0.005229087527320571
693.0, 0.005336990955829172
694.0, 0.004990903062458791
695.0, 0.004995927887230085
696.0, 0.00504340355217423
697.0, 0.0055767550506271675
698.0, 0.005925963681037467
699.0, 0.005876550459989722
700.0, 0.006269637256997456
701.0, 0.0065354339426044565
702.0, 0.006863310020452903
703.0, 0.007610729357169212
704.0, 0.007568543952154556
705.0, 0.006932133559660418
706.0, 0.007456036777911355
707.0, 0.007433432422105208
708.0, 0.007433191579940209
709.0, 0.007488111999768571
710.0, 0.007390884814106237
711.0, 0.007313065742366231
712.0, 0.007700306503504077
713.0, 0.007368204924142983
714.0, 0.007213116711704283
715.0, 0.00690995097500334
716.0, 0.006880239807453093
717.0, 0.006971623928645898
718.0, 0.006710705465086848
719.0, 0.0065830745783830875
720.0, 0.0067889160654669226
721.0, 0.006286951352330991
722.0, 0.00585422067132534
723.0, 0.0055762787346065
724.0, 0.005232089879864995
725.0, 0.0049246297861120425
726.0, 0.005129594418761259
727.0, 0.0053695800801065495
728.0, 0.004921404725208457
729.0, 0.004953495204468964
730.0, 0.004653106813874497
731.0, 0.00486825608564852
732.0, 0.005257074373263569
733.0, 0.005047127790313253
734.0, 0.005320233564737995
735.0, 0.0053824802090045734
736.0, 0.0059238969925185705
737.0, 0.00593357238683071
738.0, 0.005786589047326374
739.0, 0.005678013952595668
740.0, 0.0056236052595720855
741.0, 0.005653643241540579
742.0, 0.005910520277914731
743.0, 0.005977140598962907
744.0, 0.006412945825496156
745.0, 0.006644617683791554
746.0, 0.006686000391106863
747.0, 0.00700104006101746
748.0, 0.007560052316145248
749.0, 0.0075738191119873784
750.0, 0.007912393680435613
751.0, 0.0077477383956642285
752.0, 0.007831269066919631
753.0, 0.007774871557259666
754.0, 0.007752996145545196
755.0, 0.007958950254955357
756.0, 0.008135778530124342
757.0, 0.007559856121250721
758.0, 0.006531177450287196
759.0, 0.006939030905168306
760.0, 0.006832790154437114
761.0, 0.006242803899171399
762.0, 0.0057913474042067025
763.0, 0.005657767615970552
764.0, 0.005395828480665045
765.0, 0.004767302596169454
766.0, 0.005686107945457731
767.0, 0.004996282791202113
768.0, 0.004517164836098674
769.0, 0.004118343832765403
770.0, 0.0035924533786341386
771.0, 0.003086689903486847
772.0, 0.0030383756451126923
773.0, 0.0037420983735261225
774.0, 0.0027273949385315747
775.0, 0.0023863581655269796
776.0, 0.002794495096171002
777.0, 0.0027389384596083286
778.0, 0.0023766011496875123
779.0, 0.002104273911394094
780.0, 0.0016186036644148447
781.0, 0.0016773671170888082
782.0, 0.0021938756014033677
783.0, 0.001906862737240495
784.0, 0.001665744613941644
785.0, 0.001638402720125163
786.0, 0.001590469236995581
787.0, 0.0013133692557658594
788.0, 0.0009573867926483649
789.0, 0.00101117934748621
790.0, 0.0017370958398962514
791.0, 0.0012148694291676217
792.0, 0.0012110569788015741
793.0, 0.001443879455386166
794.0, 0.0011194511506477417
795.0, 0.000772212879938312
796.0, 0.001751218874562492
797.0, 0.0007204196281039332
798.0, 0.0010499556784003417
799.0, 0.001260511902355606
800.0, 0.0007311826545468547
801.0, 0.0006540165623589241
802.0, 0.0007110164536359309
803.0, 0.0005901222411555417
804.0, 0.0010990089343169932
805.0, 0.00022279850120827407
806.0, 9.036597911278361e-05
807.0, 0.0005484199406373899
808.0, 0.000868504607897776
809.0, 0.000538734430476736
810.0, 0.00016336652744352315
811.0, 0.000250315142911005
812.0, 0.00035285170697033313
813.0, 0.0002985278463072797
814.0, 0.00038121123403392744
815.0, 0.00048688878447721896
816.0, 0.0003914793775525573
817.0, 0.0003461227914035709
818.0, 0.00024346524743082756
819.0, 0.00016673236671640822
820.0, 0.0003568877975501089
821.0, 9.500122253314214e-05
822.0, 0.0006345579918860895
823.0, 0.0002641426095354735
824.0, 0.0002662517838036115
825.0, 0.0001715969709309754
826.0, 0.00012011388999537081
827.0, 0.00016380948522884485
828.0, 0.00019605966795691366
829.0, 0.0007129185075674636
830.0, 0.0002372247755793899
831.0, 0.00019886403414231561
832.0, 0.0003141902413423936
833.0, 0.00027592227576175133
834.0, 0.00013556287728299572
835.0, 0.00023636438669299512
836.0, 0.000513687919504934
837.0, 0.00025242464834987645
838.0, 0.0006226516890149836
839.0, 0.0007247510662816506
840.0, 0.0005956577016669023
841.0, 0.000411323713300224
842.0, 0.00044615432240327794
843.0, 0.00042724063291159597
844.0, 0.0003417695482239279
845.0, 0.000652379933774361
846.0, 0.0003594309168195572
847.0, 5.9719945859768996e-05
848.0, 0.00010308649002089106
849.0, 0.00011021445730338484
850.0, 0.00024688242499920274
851.0, 0.0002357108908719076
852.0, 9.725095861673721e-05
853.0, 0.0001882470767227275
854.0, 0.000255418672254234
855.0, 6.650330036760486e-05
856.0, 0.00012305475596790553
857.0, 0.0001580679456793108
858.0, 0.00020164774783158014
859.0, 0.00018000864948455062
860.0, 9.872795889741281e-05
861.0, 6.286939929601265e-05
862.0, 0.00017152196156442653
863.0, 0.0004381146702146845
864.0, 0.0001281393525524414
865.0, 0.0004360038391844769
866.0, 0.0002001978623156765
867.0, 2.9442100407703216e-05
868.0, 0.00018202884316175202
869.0, 0.0004445466842792107
870.0, 0.0005914312652980862
871.0, 0.0006810101854024167
872.0, 0.0007944991040136231
873.0, 0.0007985839854851692
874.0, 0.0007165608490508514
875.0, 0.0005591633353354084
876.0, 0.0005280510993512364
877.0, 0.0006085998542910166
878.0, 0.0006498075936927258
879.0, 0.0006425673833029229
880.0, 0.0007430383686371296
881.0, 0.000655856972690093
882.0, 0.00039151556411881107
883.0, 0.00024976710440771714
884.0, 0.0008230753422712135
885.0, 0.0009551385111581954
886.0, 0.0005284497496257213
887.0, 0.00040875824048232346
888.0, 0.00035126932537761155
889.0, 0.0005052790363247615
890.0, 0.0007148341226642085
891.0, 0.0011351070857883534
892.0, 0.0008343289136827586
893.0, 0.0008353392010778998
894.0, 0.0007856289971807233
895.0, 0.00045486036693959104
896.0, 0.000520052780893771
897.0, 0.0009402682299972651
898.0, 0.0006958863382841376
899.0, 0.00062692844594827
900.0, 0.00021285253807381652
901.0, 0.0002996082115362366
902.0, 0.0004794071096772055
903.0, 0.0006384051320201034
904.0, 0.0007824967934142634
905.0, 0.0007085443484491255
906.0, 0.0005511040126118695
907.0, 0.00045741916874636403
908.0, 0.0007349741139175862
909.0, 0.0008808377043982144
910.0, 0.0012208199308590768
911.0, 0.0010102267831934946
912.0, 0.0005238761090929399
913.0, 0.0005141790308473272
914.0, 0.0008124737676717336
915.0, 0.00045745834292219736
916.0, 0.000348081477361656
917.0, 0.0005805330263191324
918.0, 0.0007754101608938339
919.0, 0.000666887585796064
920.0, 0.0007407776878955056
921.0, 0.0007941031813852036
922.0, 0.0006819146890429192
923.0, 0.0008964003880611847
924.0, 0.0011011001541006435
925.0, 0.000891307828775544
926.0, 0.001011892309824764
927.0, 0.0011631153731993529
928.0, 0.0008956319599881517
929.0, 0.0007293806570793874
930.0, 0.0008271744835754509
931.0, 0.0010536884629559658
932.0, 0.0012445989704240933
933.0, 0.0008821641810249661
934.0, 0.0010077974853018035
935.0, 0.0014268921056148059
936.0, 0.0010156596409520585
937.0, 0.0008503518319584091
938.0, 0.0009629743380514503
939.0, 0.0012081406345527724
940.0, 0.0012149279250079047
941.0, 0.0007632648525313172
942.0, 0.0006761680013907296
943.0, 0.0008672012517541342
944.0, 0.0009347902421917543
945.0, 0.001122224564198597
946.0, 0.0013270933727672508
947.0, 0.0013117700553279702
948.0, 0.0010801023734939407
949.0, 0.0009414309704738398
950.0, 0.0010278063373314705
951.0, 0.0009434361503773343
952.0, 0.0008985710706152788
953.0, 0.0010658466920830513
954.0, 0.0008567343917620393
955.0, 0.0008845231737297655
956.0, 0.0010034779623666241
957.0, 0.0011484735745766715
958.0, 0.0012509228731905915
959.0, 0.001213556537089084
960.0, 0.0010317193847984402
961.0, 0.0008026768337347824
962.0, 0.0006691956062140845
963.0, 0.0011806194268349488
964.0, 0.0008303586066905901
965.0, 0.0008232830334030006
966.0, 0.0006255170606280472
967.0, 0.0008180100799239324
968.0, 0.0012320415468228263
969.0, 0.0008736879584928624
970.0, 0.0011824007788205216
971.0, 0.0007945741482746604
972.0, 0.0010755234362489429
973.0, 0.0005309937102987194
974.0, 0.0009557566555912997
975.0, 0.0007636578305182508
976.0, 0.0008195764612453761
977.0, 0.001123276525342769
978.0, 0.0007504782607250631
979.0, 0.0004969756261682019
980.0, 0.0014201823062203825
981.0, 0.0009282394983275354
982.0, 0.0006561378362756107
983.0, 0.0006965504508116093
984.0, 0.000592494861880351
985.0, 0.00044094033204808
986.0, 0.0006030724899034014
987.0, 0.0009486524192487632
988.0, 0.001048647401942103
989.0, 0.0010827927805713638
990.0, 0.0013302526821037258
991.0, 0.0009302854124796647
992.0, 0.0006171850773507394
993.0, 0.0007930137536937115
994.0, 0.0008332137946542366
995.0, 0.0010430533726857023
996.0, 0.0010981606566893309
997.0, 0.0009132007693719681
998.0, 0.0010719019614059441
999.0, 0.0010403777754481593
1000.0, 0.0008260885958140457
1001.0, 0.0009090383082471269
1002.0, 0.0010168932097448175
1003.0, 0.001146195418945906
1004.0, 0.0011116223534657617
1005.0, 0.0012195143498950833
1006.0, 0.0011795244722083733
1007.0, 0.0008202167173633044
1008.0, 0.0007430575497886185
1009.0, 0.0008632644381031636
1010.0, 0.000969044327697381
1011.0, 0.001019663728558914
1012.0, 0.0008222436554298848
1013.0, 0.0006441557582807911
1014.0, 0.0007604689805926731
1015.0, 0.0009529178799525577
1016.0, 0.0012013469723165492
1017.0, 0.0013377422417890244
1018.0, 0.0009770079304724144
1019.0, 0.000834038849620004
1020.0, 0.0009804972537052494
1021.0, 0.000956547047318822
1022.0, 0.0006551075441739077
1023.0, 0.0010580132012638467
1024.0, 0.0011797996674018027
1025.0, 0.0009045459597979203
1026.0, 0.0006330816079852053
1027.0, 0.0006754625504838715
1028.0, 0.000858510345952286
1029.0, 0.00044159913849364525
1030.0, 0.0005109249255194034
1031.0, 0.0012097634899006465
1032.0, 0.0011575876678876058
1033.0, 0.0005832992495686737
1034.0, 0.0007004877004739993
1035.0, 0.000879984620673723
1036.0, 0.000763160896539806
1037.0, 0.000650536895897481
1038.0, 0.0007061088092412175
1039.0, 0.0008994880791550534
1040.0, 0.0012056786561389123
1041.0, 0.0009763970347159289
1042.0, 0.0010527475691741522
1043.0, 0.0005394815821544944
1044.0, 0.0002947578791639253
1045.0, 0.0006912671813846681
1046.0, 0.0008091259177225835
1047.0, 0.0005951011649062169
1048.0, 0.0007109572803953174
1049.0, 0.0007003299011668969
1050.0, 0.0008927996024728439
1051.0, 0.0007485250570786836
1052.0, 0.0008262668948144725
1053.0, 0.0006386649419951623
1054.0, 0.0005620757279288922
1055.0, 0.0008462246750258842
1056.0, 0.0009410609661106274
1057.0, 0.0008364073585885115
1058.0, 0.0008653217178111599
1059.0, 0.0007855898906792354
1060.0, 0.00039265052501285115
1061.0, 0.0008805153668135635
1062.0, 0.0007883583638691756
1063.0, 0.00042501953881342737
1064.0, 0.0006538688929943545
1065.0, 0.0008615841998255728
1066.0, 0.0005006592758083228
1067.0, 0.00029083288876311425
1068.0, 0.00036434428609052275
1069.0, 0.0003456500656306938
1070.0, 0.0007469203434163587
1071.0, 0.0010550387276036179
1072.0, 0.00038485125884063596
1073.0, 0.0006315654663959663
1074.0, 0.000782066994868399
1075.0, 0.0009421097010833603
1076.0, 0.000690491140257959
1077.0, 0.0003197034676702911
1078.0, 0.000474170905908896
1079.0, 0.0006291800177143931
1080.0, 0.00024173505863946782
1081.0, 0.0005758637390829208
1082.0, 0.0005906501276282661
1083.0, 0.0005012044449809088
1084.0, 0.0006325340512096142
1085.0, 0.0007320506365110165
1086.0, 0.0007285418229012672
1087.0, 0.0006178346502184669
1088.0, 0.000729600551497654
1089.0, 0.0009649237878296282
1090.0, 0.0009600662741423167
1091.0, 0.0007714953934404984
1092.0, 0.0008019305189811517
1093.0, 0.0007403996091529844
1094.0, 0.0001073630080587432
1095.0, 9.539495582182459e-05
1096.0, 0.0007284031613139523
1097.0, 0.0003134267398341064
1098.0, 0.00040192280468831493
1099.0, 0.0005961112719386517
1100.0, 0.0006691662875186095
1101.0, 0.0006673308217674833
1102.0, 0.0005459377432060612
1103.0, 0.0007850132263891619
1104.0, 0.0004985475367735816
1105.0, 0.00010954732701814364
1106.0, 9.646013626639385e-05
1107.0, 0.00042101566085078594
1108.0, 0.0005135714966082866
1109.0, 0.0002902169989948232
1110.0, 0.00032570680837028026
1111.0, 0.00028385473027556734
1112.0, 8.170864635862165e-05
1113.0, 0.00011825211560077158
1114.0, 0.00013160816471501435
1115.0, 0.00015388597570980566
1116.0, 0.0006038060838806116
1117.0, 0.0003410377085382956
1118.0, 0.0005781967988753886
1119.0, 0.00018039368213465266
1120.0, 0.0004884863268395385
1121.0, 0.0006331763825159005
1122.0, 0.0003789788796705241
1123.0, 0.00040044939573419735
1124.0, 0.0005488139170605521
1125.0, 0.00018586781641092494
1126.0, 0.00022437171667147074
1127.0, 0.00017836199639455636
1128.0, 0.00018051025292625445
1129.0, 0.00011456479878908666
1130.0, 0.00045084014175743114
1131.0, 0.0003110829499374132
1132.0, 0.0002588523475592603
1133.0, 0.00022012613224963793
1134.0, 0.00024715594017495854
1135.0, 0.0004147577445177718
1136.0, 0.000495648175872682
1137.0, 0.0004126794689229859
1138.0, 0.0005230530106636578
1139.0, 0.00045994370856843297
1140.0, 0.0005716145790476501
1141.0, 0.000643202247006156
1142.0, 0.0006882819371113739
1143.0, 0.000500444716286176
1144.0, 0.00046883798478791484
1145.0, 0.00041943228389373254
1146.0, 0.00036176372363602065
1147.0, 0.00039620250844776475
1148.0, 0.00044116624234050806
1149.0, 0.0005549629348038672
1150.0, 0.0007610109633752793
1151.0, 0.000791854415039967
1152.0, 0.000271461254414912
1153.0, 0.0006662616063652582
1154.0, 0.0005150184063830026
1155.0, 0.00027519765007013203
1156.0, 0.00031015105477427273
1157.0, 0.00033655448655443376
1158.0, 0.00022607358755729972
1159.0, 0.00021801540966588342
1160.0, 0.0003864319921815241
1161.0, 0.0003944160511697629
1162.0, 0.0001653514238435188
1163.0, 0.0005746776100623603
1164.0, 0.00047094363106134406
1165.0, 0.00048770649779713557
1166.0, 0.000599813474400909
1167.0, 0.0005267644129973058
1168.0, 0.0006392574991900121
1169.0, 0.00044690896358597364
1170.0, 0.0003393821953761057
1171.0, 0.00044554372422290253
1172.0, 0.0005746683962606487
1173.0, 0.0009328621108708162
1174.0, 0.0005592913242302151
1175.0, 0.0003656931611925856
1176.0, 0.00015799563432545752
1177.0, 7.41649289251609e-05
1178.0, 3.821614434685199e-05
1179.0, 9.070804331895247e-05
1180.0, 6.699007082449465e-05
1181.0, 0.00011854137871189217
1182.0, 0.0003591438869090602
1183.0, 0.00035722037790409164
1184.0, 7.100878258226258e-05
1185.0, 0.00015816948054997562
1186.0, 0.0005580579709898413
1187.0, 0.0005236906888420662
1188.0, 0.00046497906393302025
1189.0, 0.00022278745296031477
1190.0, 0.00020684194321420046
1191.0, 0.00013161389158307767
1192.0, 0.00021548025409170402
1193.0, 0.00016714430624006067
1194.0, 0.0003415451685609228
1195.0, 0.00037384835247115234
1196.0, 0.00019722784137680128
1197.0, 0.00012145180236624041
1198.0, 2.8441120216803513e-05
1199.0, 4.919576574606307e-05
1200.0, 0.00012990352359535507
1201.0, 0.00011836677513143766
1202.0, 0.0002454908463367871
1203.0, 0.00047994940836626487
1204.0, 0.0002163345646325825
1205.0, 9.011653068359405e-05
1206.0, 0.00022725451883809158
1207.0, 0.0005160536382761428
1208.0, 0.00045143078163779844
1209.0, 0.00040300054258328406
1210.0, 0.0006494051686587385
1211.0, 0.0005544104942441517
1212.0, 0.0004604781188281735
1213.0, 0.00046523883699206786
1214.0, 0.0004203270774549854
1215.0, 0.00044637777241605893
1216.0, 0.0004585698058110137
1217.0, 0.0005833437089552085
1218.0, 0.0007138872365995756
1219.0, 0.0008209859057871085
1220.0, 0.0009377258894578453
1221.0, 0.001025792299415003
1222.0, 0.0012022750761309443
1223.0, 0.0013617112674634288
1224.0, 0.001336574795146823
1225.0, 0.0013725202445523212
1226.0, 0.0011448542791033711
1227.0, 0.0012091388271946544
1228.0, 0.0009863838948238454
1229.0, 0.0012670615630449953
1230.0, 0.0006981964240363398
1231.0, 0.0009078424388518105
1232.0, 0.0008195178864201306
1233.0, 0.0009890957948960127
1234.0, 0.0008482120503839855
1235.0, 0.0008206184979537791
1236.0, 0.000806437496272546
1237.0, 0.0004823517830950054
1238.0, 0.0004929773246011103
1239.0, 0.00036603609982435357
1240.0, 0.0008290405952676729
1241.0, 0.0007814527239290288
1242.0, 0.0007048031316105355
1243.0, 0.0005719177480565618
1244.0, 0.0004243735506941104
1245.0, 0.00025342523657174044
1246.0, 0.00026520401785276365
1247.0, 0.00037661091239606255
1248.0, 0.0007864370987608071
1249.0, 0.0009793853469269374
1250.0, 0.000733650395337351
1251.0, 0.000496969111608919
1252.0, 0.0005147597617195715
1253.0, 0.0008007095172954135
1254.0, 0.000708250266688037
1255.0, 0.0011056821971444477
1256.0, 0.00027218011872497507
1257.0, 0.0007433754884572694
1258.0, 0.00036623042260041863
1259.0, 0.0006346707880700398
1260.0, 0.001066099020983804
1261.0, 0.0010942780945957544
1262.0, 0.0011422111898135767
1263.0, 0.0010730932775550297
1264.0, 0.0009868090565363966
1265.0, 0.0010385693863422297
1266.0, 0.0009284880704505407
1267.0, 0.000942408550373975
1268.0, 0.0011543079041868311
1269.0, 0.000726751775431815
1270.0, 0.0008581934609514807
1271.0, 0.00027086050383180347
1272.0, 0.00033311170041515684
1273.0, 0.00047140747551296827
1274.0, 0.0006972460081936965
1275.0, 0.0006246931414713112
1276.0, 0.0008443308618835243
1277.0, 0.0004879102954088996
1278.0, 0.00012483277546659137
1279.0, 0.00019521416159978773
1280.0, 0.0001397659459955961
1281.0, 0.0002630869520231244
1282.0, 0.0005672529666354534
1283.0, 0.0002194796425842122
1284.0, 0.0004747484430563027
1285.0, 0.0008152489948640855
1286.0, 0.0004468001816773282
1287.0, 0.00036825307666505297
1288.0, 0.0006263885633887337
1289.0, 0.0006972656262645122
1290.0, 0.0005527413897376582
1291.0, 0.00035664847226764057
1292.0, 0.0004326409707220079
1293.0, 0.0005263038503995534
1294.0, 0.00034640653526762363
1295.0, 0.0003139460457285532
1296.0, 0.0006277586464490123
1297.0, 0.000619596946707044
1298.0, 0.0004873949426211477
1299.0, 0.0005033954636877603
1300.0, 0.0005427848630950895
1301.0, 0.0005116495713893606
1302.0, 0.0004947904263191243
1303.0, 0.0004386039646445139
1304.0, 0.00044310954601674816
1305.0, 0.0007916107801049453
1306.0, 0.0006480524391970418
1307.0, 0.0005828338597819457
1308.0, 0.0006961288858843293
1309.0, 0.0004683796517241011
1310.0, 0.00019881164484245834
1311.0, 0.0004111333015366679
1312.0, 0.0007700759953275652
1313.0, 0.0008908449269036795
1314.0, 0.0004897874673154125
1315.0, 0.0006102945885478706
1316.0, 0.0007466157495129746
1317.0, 0.00015678497844784714
1318.0, 0.00043373634800875386
1319.0, 0.0005692121499405221
1320.0, 0.0007677004618694125
1321.0, 0.0007282203384120327
1322.0, 0.0005582342351536931
1323.0, 0.0005000236300342596
1324.0, 0.0004984067252974873
1325.0, 0.00045635232856556254
1326.0, 0.0005817785658082705
1327.0, 0.000773882087585054
1328.0, 0.0005698905365669938
1329.0, 0.000300919919965377
1330.0, 0.00048464699592240193
1331.0, 0.00036915919837773913
1332.0, 0.0005774139815230329
1333.0, 0.0006058218100127031
1334.0, 0.00039617765040681353
1335.0, 0.00027111318483131395
1336.0, 0.0008201778336465405
1337.0, 0.00046659369842296574
1338.0, 0.00042564509291313644
1339.0, 0.0004311406522078115
1340.0, 0.00024298358752650718
1341.0, 0.00015771489019023981
1342.0, 0.00016466798346944972
1343.0, 0.00019004213482533622
1344.0, 0.00029641035779459586
1345.0, 0.00042101814949261094
1346.0, 0.0004908679203106413
1347.0, 0.000258579945049587
1348.0, 0.0005055548693263115
1349.0, 0.0007772929673721371
1350.0, 0.0003059221471982028
1351.0, 0.0002811618084990571
1352.0, 0.0006004035052908237
1353.0, 0.00023383812864705516
1354.0, 0.00029881338974288503
1355.0, 0.00020452696623115085
1356.0, 0.00028808444651358167
1357.0, 0.00043288468713396943
1358.0, 0.00047160584856887684
1359.0, 0.00025964118548435885
1360.0, 0.0002564730079541252
1361.0, 0.00045115597257770637
1362.0, 0.00030331241506587644
1363.0, 0.00029117804271522763
1364.0, 0.0004065303415031334
1365.0, 0.00017462284475303503
1366.0, 0.0004674333662878249
1367.0, 0.000701374188296277
1368.0, 0.0003751259193087057
1369.0, 0.000580847890979065
1370.0, 0.0003985373208485715
1371.0, 0.0005043112618885272
1372.0, 0.00032291900821854755
1373.0, 0.0003259224380444683
1374.0, 0.00021276696532498697
1375.0, 0.00013601551183825068
1376.0, 0.00019185344431298353
1377.0, 0.00017084653046347544
1378.0, 0.000323600462994013
1379.0, 0.00035387071407115
1380.0, 2.1448140989339353e-05
1381.0, 7.883090596455281e-05
1382.0, 0.00017730651770855106
1383.0, 0.000284216250704747
1384.0, 0.0006277129536088285
1385.0, 0.0007952674412100352
1386.0, 0.0008433493846104696
1387.0, 0.0006225693010110798
1388.0, 0.0006767293481545371
1389.0, 0.0005853025060133102
1390.0, 0.00037801469287739606
1391.0, 0.0006284390322275734
1392.0, 0.00045374611254329753
1393.0, 0.0005012164253760147
1394.0, 0.0006711391151075025
1395.0, 0.00041939840982941663
1396.0, 0.0006127025664877879
1397.0, 0.000890271629729925
1398.0, 0.0005659322997277885
1399.0, 0.0002986237075219118
1400.0, 0.00042716110813884116
1401.0, 0.0006673825545172326
1402.0, 0.00045406323408283167
1403.0, 0.0005007822677348242
1404.0, 0.0004300855698906525
1405.0, 0.0004634163269487208
1406.0, 0.00013862397773573243
1407.0, 0.0008789699411334152
1408.0, 0.00011609506672788974
1409.0, 0.0006570441476436146
1410.0, 0.0007126961518700775
1411.0, 0.0008619271728093165
1412.0, 0.00044654215085027766
1413.0, 0.0004894140360404756
1414.0, 0.0006476276776925452
1415.0, 0.0007413798927196235
1416.0, 0.0005002157805641862
1417.0, 0.0002723321671533952
1418.0, 0.0002725819993437176
1419.0, 0.000380810481129449
1420.0, 0.0004301058249359354
1421.0, 0.0002500400183781087
1422.0, 0.0007308221598806712
1423.0, 0.0006274452510205681
1424.0, 0.0005452997754405261
1425.0, 0.000853888627726827
1426.0, 0.0007277511152210675
1427.0, 0.0007186187220718909
1428.0, 0.0012884000631134228
1429.0, 0.00012439259134396368
1430.0, 0.0008441457658549961
1431.0, 0.0004964170616576762
1432.0, 0.0004070125798042431
1433.0, 0.00019498677033717146
1434.0, 0.0004292476941517777
1435.0, 0.00027516627225666337
1436.0, 0.0003934989287988239
1437.0, 0.0003786316226837606
1438.0, 0.00018623493391522575
1439.0, 0.0002552743948213218
1440.0, 0.00026099718387840665
1441.0, 0.00032653309307596165
1442.0, 0.0006182950843621061
1443.0, 0.00047224532909572706
1444.0, 0.0003316840739627247
1445.0, 0.00012434250783549834
1446.0, 0.00016624213899596042
1447.0, 0.0004867646033284977
1448.0, 0.00016309633264678403
1449.0, 0.0001328364661823799
1450.0, 0.00022859105028260593
1451.0, 0.00020774992679774775
1452.0, 0.0002872733865306029
1453.0, 0.0005241974351494177
1454.0, 0.0006304785981385189
1455.0, 0.0008400106315235111
1456.0, 0.0006429801531124429
1457.0, 0.0008381320995339645
1458.0, 0.0007452020440923074
1459.0, 0.0004422675305346519
1460.0, 0.0003200260945623587
1461.0, 0.00038647359963966455
1462.0, 0.0004938331972470735
1463.0, 0.0005767254093675345
1464.0, 0.0007229319312546057
1465.0, 0.0005930595617616831
1466.0, 0.0002075536615317231
1467.0, 0.0004643608795726903
1468.0, 0.00030356403135540453
1469.0, 0.0006760242623001326
1470.0, 0.0004932437537317202
1471.0, 0.0007064449761766424
1472.0, 0.0006479333758050572
1473.0, 0.0005862869542640277
1474.0, 0.0008296578249889272
1475.0, 0.0002802590197423988
1476.0, 0.000156496598631293
1477.0, 0.0007577616236366261
1478.0, 0.0005033325431952659
1479.0, 0.00023064377574392506
1480.0, 0.0006187825490462458
1481.0, 0.00026901513776524826
1482.0, 0.0006801550220875877
1483.0, 0.00047481859265764475
1484.0, 0.0005254373766640418
1485.0, 0.0004307658141781897
1486.0, 0.00031031360129609126
1487.0, 0.00047476041707161185
1488.0, 0.0004427386252310271
1489.0, 0.0003115657066278041
1490.0, 0.00019676932795370094
1491.0, 0.0002820844453943418
1492.0, 0.0003127144781706324
1493.0, 0.00031365281310148283
1494.0, 0.00042431432066462914
1495.0, 0.00038416745220077025
1496.0, 0.0006951626438856201
1497.0, 0.0007547452375074963
1498.0, 0.0007862363893123886
1499.0, 0.000980731306598564
1500.0, 0.00039492182433501096
1501.0, 0.0009750581660958447
1502.0, 0.0005766230498655043
1503.0, 0.0006523537929671962
1504.0, 0.000698015934058499
1505.0, 0.0004910738720538287
1506.0, 0.0009233959270105273
1507.0, 0.0006927891834045899
1508.0, 0.000532737477326421
1509.0, 0.0009858757185760817
1510.0, 0.000658628982927586
1511.0, 0.0003150900119363898
1512.0, 0.0005405729240515136
1513.0, 0.0006700797450651466
1514.0, 0.0005607639228318391
1515.0, 0.0007138161003667622
1516.0, 0.0007321861716734216
1517.0, 0.0007947207831470305
1518.0, 0.0011598220795407922
1519.0, 0.0007161970491928856
1520.0, 0.000679333492749316
1521.0, 0.0010507328522934975
1522.0, 0.0007398944492765062
1523.0, 0.0006705214731040668
1524.0, 0.0005845531883590931
1525.0, 0.0006434243892551127
1526.0, 0.001057027830541432
1527.0, 0.000713523027371317
1528.0, 0.0007495785472260007
1529.0, 4.511168956519872e-05
1530.0, 0.00017135793500385577
1531.0, 0.0005045078171195458
1532.0, 0.0007149119763740983
1533.0, 0.0007908882329961947
1534.0, 0.0006191865366692419
1535.0, 0.0006941538216408627
1536.0, 0.0005628804356294454
1537.0, 0.00018207437205308523
1538.0, 0.0006561832091820971
1539.0, 0.0005019609708528637
1540.0, 0.00014259326646048122
1541.0, 0.0003071906621906034
1542.0, 0.000302838480282768
1543.0, 0.00010969926238752528
1544.0, 0.0003341151556735347
1545.0, 0.0004382221343211892
1546.0, 0.0003700091562063112
1547.0, 0.0004069818729225627
1548.0, 0.00046884184109994003
1549.0, 0.0004998718084228141
1550.0, 0.0003839670467989524
1551.0, 0.000561165590195039
1552.0, 0.0008283209335954996
1553.0, 0.0008164121014340186
1554.0, 0.0004654801679585625
1555.0, 0.0003473122376439599
1556.0, 0.0005620967622436481
1557.0, 0.0006331845599903879
1558.0, 9.377101457453072e-05
1559.0, 0.0004436093004953009
1560.0, 0.0003030009140160885
1561.0, 1.8136763461285301e-06
1562, 0.0
1563, 0.0
1564, 0.0
1565, 0.0
1566, 0.0
1567, 0.0
1568, 0.0
1569, 0.0
1570, 0.0
1571, 0.0
1572, 0.0
1573, 0.0
1574, 0.0
1575, 0.0
1576, 0.0
1577, 0.0
1578, 0.0
1579, 0.0
1580, 0.0
1581, 0.0
1582, 0.0
1583, 0.0
1584, 0.0
1585, 0.0
1586, 0.0
1587, 0.0
1588, 0.0
1589, 0.0
1590, 0.0
1591, 0.0
1592, 0.0
1593, 0.0
1594, 0.0
1595, 0.0
1596, 0.0
1597, 0.0
1598, 0.0
1599, 0.0
