30, 0.0
31, 0.0
32, 0.0
33, 0.0
34, 0.0
35, 0.0
36, 0.0
37, 0.0
38, 0.0
39, 0.0
40, 0.0
41, 0.0
42, 0.0
43, 0.0
44, 0.0
45, 0.0
46, 0.0
47, 0.0
48, 0.0
49, 0.0
50, 0.0
51, 0.0
52, 0.0
53, 0.0
54, 0.0
55, 0.0
56, 0.0
57, 0.0
58, 0.0
59, 0.0
60, 0.0
61, 0.0
62, 0.0
63, 0.0
64, 0.0
65, 0.0
66, 0.0
67, 0.0
68, 0.0
69, 0.0
70, 0.0
71, 0.0
72, 0.0
73, 0.0
74, 0.0
75, 0.0
76, 0.0
77, 0.0
78, 0.0
79, 0.0
80, 0.0
81, 0.0
82, 0.0
83, 0.0
84, 0.0
85, 0.0
86, 0.0
87, 0.0
88, 0.0
89, 0.0
90, 0.0
91, 0.0
92, 0.0
93, 0.0
94, 0.0
95, 0.0
96, 0.0
97, 0.0
98, 0.0
99, 0.0
100, 0.0
101, 0.0
102, 0.0
103, 0.0
104, 0.0
105, 0.0
106, 0.0
107, 0.0
108, 0.0
109, 0.0
110, 0.0
111, 0.0
112, 0.0
113, 0.0
114, 0.0
115, 0.0
116, 0.0
117, 0.0
118, 0.0
119, 0.0
120, 0.0
121, 0.0
122, 0.0
123, 0.0
124, 0.0
125, 0.0
126, 0.0
127, 0.0
128, 0.0
129, 0.0
130, 0.0
131, 0.0
132, 0.0
133, 0.0
134, 0.0
135, 0.0
136, 0.0
137, 0.0
138, 0.0
139, 0.0
140, 0.0
141, 0.0
142, 0.0
143, 0.0
144, 0.0
145, 0.0
146, 0.0
147, 0.0
148, 0.0
149, 0.0
150, 0.0
151, 0.0
152.0, 0.0023349296615011008
153.0, 0.0017340749079510838
154.0, 0.0014626784895335908
155.0, 0.0014384320333574241
156.0, 0.00038555215045027826
157.0, 0.0018269949522397768
158.0, 0.0010820698470205812
159.0, 0.0014608847176908089
160.0, 0.004573261831562184
161.0, 0.00463954511481813
162.0, 0.00550924703215555
163.0, 0.005939941910747334
164.0, 0.005983958130499739
165.0, 0.008060625700937024
166.0, 0.01150858041545041
167.0, 0.01162950706276281
168.0, 0.010461747239178169
169.0, 0.012667347251288806
170.0, 0.0137423221475621
171.0, 0.013750564091051586
172.0, 0.013077493654275263
173.0, 0.011774168839030237
174.0, 0.009432070255323199
175.0, 0.010193153557033686
176.0, 0.012357247700468824
177.0, 0.013411670562480162
178.0, 0.012887757735468696
179.0, 0.010854543018469297
180.0, 0.010393791395292137
181.0, 0.011348979621319994
182.0, 0.011010112336395773
183.0, 0.01306753174687555
184.0, 0.012488352833352303
185.0, 0.011802658167922036
186.0, 0.01289152212205489
187.0, 0.011828024559096692
188.0, 0.008803316264198351
189.0, 0.006958414686105026
190.0, 0.00748058445559838
191.0, 0.00809080970686308
192.0, 0.008588175980147673
193.0, 0.008865345540976859
194.0, 0.008474455438001518
195.0, 0.007311611380833473
196.0, 0.009077045074415889
197.0, 0.007764732294292575
198.0, 0.0035568322090798396
199.0, 0.00022575330455059983
200.0, 0.0035936605941298046
201.0, 0.0015526848401941837
202.0, 0.00119288593069902
203.0, 0.0012001785700703992
204.0, 0.0031381805645866413
205.0, 0.0023129456999479653
206.0, 0.0005961539766670058
207.0, 0.00035966659766193965
208.0, 0.001741887197899296
209.0, 0.0030050204562775424
210.0, 0.0012998758963965564
211.0, 0.000223954950216737
212.0, 0.0010612280904856483
213.0, 0.0005749489514553872
214.0, 4.5955960668249075e-05
215.0, 0.0007642615206801838
216.0, 0.0021241728096359175
217.0, 0.0015200886244559006
218.0, 0.0006670791200832485
219.0, 0.0016645931695993172
220.0, 0.004950774491844893
221.0, 0.00575126746606677
222.0, 0.005548865301040773
223.0, 0.0037549989732923107
224.0, 0.004191013788609103
225.0, 0.006590111720406364
226.0, 0.006191183482594908
227.0, 0.007254776931948372
228.0, 0.009555086236371151
229.0, 0.012450737238857399
230.0, 0.014310371945047362
231.0, 0.011054863282778509
232.0, 0.013100944666659668
233.0, 0.015921499768578914
234.0, 0.015863599277775014
235.0, 0.01574456545278058
236.0, 0.01681141225656888
237.0, 0.017713698378742995
238.0, 0.018609212186770824
239.0, 0.02030588045048017
240.0, 0.022263422032135837
241.0, 0.022879739899829103
242.0, 0.0236220406436776
243.0, 0.025752788962881315
244.0, 0.028607826432365605
245.0, 0.029273927593053542
246.0, 0.03007588293589788
247.0, 0.03192691833182451
248.0, 0.03386443449941248
249.0, 0.03147606174844587
250.0, 0.03264826873044301
251.0, 0.034915496534692926
252.0, 0.0350724799750621
253.0, 0.03289054879880845
254.0, 0.03052636336779965
255.0, 0.029557578358964654
256.0, 0.028854090663863057
257.0, 0.02647568649883277
258.0, 0.02491680914381758
259.0, 0.02534775065163384
260.0, 0.025446303658955192
261.0, 0.02392775189659729
262.0, 0.02101553480842517
263.0, 0.01857076543695311
264.0, 0.017129968579126402
265.0, 0.015863358995388994
266.0, 0.013564989472037974
267.0, 0.009190425799345613
268.0, 0.009411956050498623
269.0, 0.010697536686085326
270.0, 0.008802597031197736
271.0, 0.003223601649465083
272.0, 0.001385458217727778
273.0, 0.0012046392187367936
274.0, 0.0014022678717449182
275.0, 0.0018717505325519899
276.0, 0.001141427655063548
277.0, 0.0006340579758531291
278.0, 0.0007117600761879411
279.0, 0.0015636657121750432
280.0, 0.0013339434176705045
281.0, 0.0006246838749391784
282.0, 0.0016230362032996135
283.0, 0.0015031547475221813
284.0, 0.0022031489545857293
285.0, 0.0020156941260258136
286.0, 0.0020342271700531152
287.0, 0.0009993322864479512
288.0, 0.00391789501766244
289.0, 0.0035677965362100796
290.0, 5.205927890132583e-05
291.0, 0.0003874220349057957
292.0, 0.002084335668418336
293.0, 0.004614362515432332
294.0, 0.005832705411898544
295.0, 0.0102245378774307
296.0, 0.012888242714940365
297.0, 0.014217910982915317
298.0, 0.017279730938674624
299.0, 0.0203124140215838
300.0, 0.02288819668849668
301.0, 0.021838230412992106
302.0, 0.021618066148411018
303.0, 0.030067569280678504
304.0, 0.030792534943587798
305.0, 0.03129471787627495
306.0, 0.03278892271710457
307.0, 0.033315631126206106
308.0, 0.0317480253670818
309.0, 0.0316857307211455
310.0, 0.03240254836997492
311.0, 0.031791628918715086
312.0, 0.029494230252404312
313.0, 0.02971168607750841
314.0, 0.02767051006406693
315.0, 0.024019850054836724
316.0, 0.021339029584334156
317.0, 0.021428017256758653
318.0, 0.017217135367312588
319.0, 0.014344957923301751
320.0, 0.012406701946748724
321.0, 0.008571713782698604
322.0, 0.0013256150577235898
323.0, 0.0018629538250509643
324.0, 0.0015141927204969086
325.0, 0.001947876411837609
326.0, 0.0017613704890977718
327.0, 0.0005149260297627915
328.0, 0.0009756257703979542
329.0, 0.00037657083305572966
330.0, 0.000755546488205092
331.0, 0.005145527337046018
332.0, 0.01017425958817356
333.0, 0.011134395605249238
334.0, 0.013976354777552581
335.0, 0.021353594518523145
336.0, 0.025775391844862085
337.0, 0.033194912379130914
338.0, 0.04132649227693407
339.0, 0.0467171150886988
340.0, 0.050495401518132824
341.0, 0.06075307799549359
342.0, 0.06685440720650446
343.0, 0.07492189725072629
344.0, 0.08502618177109789
345.0, 0.09207982047960112
346.0, 0.09711328345273423
347.0, 0.10334039775392788
348.0, 0.1134916699007515
349.0, 0.12394206484650303
350.0, 0.1282778391990648
351.0, 0.134915627131885
352.0, 0.14509165069821933
353.0, 0.15319241937702996
354.0, 0.1580868295526629
355.0, 0.1654235587505196
356.0, 0.17346554341908205
357.0, 0.18011231233192163
358.0, 0.18602963777260695
359.0, 0.1916810679461742
360.0, 0.19517485203134738
361.0, 0.20117995852849682
362.0, 0.202919510614003
363.0, 0.20110145566999954
364.0, 0.20089600595569448
365.0, 0.205129674719126
366.0, 0.2111119046923123
367.0, 0.20976262912173269
368.0, 0.2047338434894636
369.0, 0.2050549185801155
370.0, 0.20121167271648452
371.0, 0.19946925172559288
372.0, 0.1958830936332841
373.0, 0.19077944159308874
374.0, 0.18883337719126486
375.0, 0.18295833246960727
376.0, 0.1779419351728319
377.0, 0.17119356396094412
378.0, 0.16257924249881175
379.0, 0.15602227440629193
380.0, 0.14925058489663684
381.0, 0.14330515231055743
382.0, 0.13635022767784005
383.0, 0.1280693394403239
384.0, 0.12224332254605665
385.0, 0.1141453157767742
386.0, 0.10894761292870801
387.0, 0.10573465358762224
388.0, 0.10213527493825438
389.0, 0.09743444022984755
390.0, 0.09296369238647706
391.0, 0.09087859593593461
392.0, 0.09038720027046353
393.0, 0.08960182920123794
394.0, 0.08761634563543136
395.0, 0.08620151628472551
396.0, 0.09012308411537405
397.0, 0.09410639644207135
398.0, 0.09328888109603117
399.0, 0.0987474945749916
400.0, 0.10013954768507105
401.0, 0.10237763513220828
402.0, 0.10426683799383397
403.0, 0.10274540428608847
404.0, 0.10378040679965247
405.0, 0.10496254082741742
406.0, 0.10542897363038849
407.0, 0.10499811727619882
408.0, 0.10282664404630504
409.0, 0.09649968780021595
410.0, 0.09291588129714186
411.0, 0.0890886608977288
412.0, 0.08390867100379079
413.0, 0.07871660262351436
414.0, 0.07247248566677753
415.0, 0.06348259469516047
416.0, 0.05618454928875934
417.0, 0.050207905098042765
418.0, 0.04298914443304656
419.0, 0.03930711522054298
420.0, 0.03515380509902887
421.0, 0.030901829223071168
422.0, 0.025384907361321058
423.0, 0.01738642645929602
424.0, 0.012466003977521746
425.0, 0.00999369644122361
426.0, 0.007892187480622478
427.0, 0.006477172439171171
428.0, 0.006083856625481153
429.0, 0.001006361968639873
430.0, 0.0035736450990646435
431.0, 0.002120716408359409
432.0, 0.0011341045653119708
433.0, 0.004062304676597211
434.0, 0.003147339648272779
435.0, 0.00447307109038595
436.0, 0.005071825532783558
437.0, 0.0047663183222326115
438.0, 0.0054830644438312445
439.0, 0.004403259341630622
440.0, 0.0013543205445137232
441.0, 0.0016547799609846067
442.0, 0.004038418897198306
443.0, 0.0038979855178583487
444.0, 0.0007133760029172044
445.0, 0.0008396313362750383
446.0, 0.0028025598959122073
447.0, 0.0063872236828478365
448.0, 0.004533699188095604
449.0, 0.00649899174291182
450.0, 0.007900567494155073
451.0, 0.009617316694940746
452.0, 0.010747340481807154
453.0, 0.01019493924371788
454.0, 0.010474628247838253
455.0, 0.01390236615293245
456.0, 0.015558440149593988
457.0, 0.014945238002303195
458.0, 0.014971705097172291
459.0, 0.01730910360383404
460.0, 0.019367306549149737
461.0, 0.022005181293371295
462.0, 0.024544133060621774
463.0, 0.02463454517246432
464.0, 0.020454465460351488
465.0, 0.02314709365333757
466.0, 0.024070971721144925
467.0, 0.02453035038695162
468.0, 0.025371387450319416
469.0, 0.02388641431490401
470.0, 0.02442522707311916
471.0, 0.025061116447527645
472.0, 0.024048169409373068
473.0, 0.023281124147779938
474.0, 0.025822988615990337
475.0, 0.02751102001763266
476.0, 0.027597734995631923
477.0, 0.02710725976646338
478.0, 0.026514866288265
479.0, 0.02582740142579818
480.0, 0.025401782323559913
481.0, 0.026865102048596053
482.0, 0.028056051387415872
483.0, 0.02736188375669343
484.0, 0.02519628763867101
485.0, 0.024996857102479265
486.0, 0.024068665196806435
487.0, 0.024941164350703794
488.0, 0.026469351979656303
489.0, 0.026770626527858374
490.0, 0.02534210051617121
491.0, 0.02290214871003239
492.0, 0.023175578630829054
493.0, 0.024964847706736643
494.0, 0.02599925345176252
495.0, 0.02523195350147359
496.0, 0.024162011245716764
497.0, 0.021002878928923854
498.0, 0.022681181271432326
499.0, 0.02558924332570171
500.0, 0.02245962891921873
501.0, 0.02463372273633719
502.0, 0.028551989409479242
503.0, 0.028179895924766194
504.0, 0.0278082415710964
505.0, 0.03247325848271189
506.0, 0.0376552262088531
507.0, 0.038291941482777696
508.0, 0.040753788049959744
509.0, 0.04485667305171613
510.0, 0.048496162655545814
511.0, 0.051994153523246656
512.0, 0.05458044136675981
513.0, 0.055536597199526895
514.0, 0.058387285490344575
515.0, 0.06284506856409308
516.0, 0.06594973240963206
517.0, 0.070788732271999
518.0, 0.07526743688834564
519.0, 0.07750638431000613
520.0, 0.08017763464546125
521.0, 0.0854560134783279
522.0, 0.08698382833803382
523.0, 0.09081044281928169
524.0, 0.09423220856459015
525.0, 0.09612990843318103
526.0, 0.09659872279656281
527.0, 0.0960566765736771
528.0, 0.09860715105073134
529.0, 0.10029781671873365
530.0, 0.10048040119121493
531.0, 0.09868271418690364
532.0, 0.0951915416635219
533.0, 0.09737524197221048
534.0, 0.09574768090533058
535.0, 0.0933406653375076
536.0, 0.09156320143763931
537.0, 0.09003518260998876
538.0, 0.08790361653651983
539.0, 0.08421516722845353
540.0, 0.08042713243712066
541.0, 0.07655809866812435
542.0, 0.07250038140102381
543.0, 0.06861414779027887
544.0, 0.06456001547082403
545.0, 0.06136112310384437
546.0, 0.05904924985517685
547.0, 0.05607576341642697
548.0, 0.05190256538843962
549.0, 0.05090723175153207
550.0, 0.048399287437244365
551.0, 0.04503907379744674
552.0, 0.044124778548404214
553.0, 0.04484457075390068
554.0, 0.04230248782362561
555.0, 0.039315272445422635
556.0, 0.039350581039300545
557.0, 0.03918902329031513
558.0, 0.03857812779680197
559.0, 0.03821749226653208
560.0, 0.034935219857506083
561.0, 0.03712282876271797
562.0, 0.03623292301396789
563.0, 0.03576755710643688
564.0, 0.038128072233527176
565.0, 0.03886614600804208
566.0, 0.03729512048407382
567.0, 0.03602085884879918
568.0, 0.036417673802846356
569.0, 0.03491148551488221
570.0, 0.0305290187106579
571.0, 0.030941235140924287
572.0, 0.03036689301618456
573.0, 0.029832535521742618
574.0, 0.03047011909976595
575.0, 0.030549008040852255
576.0, 0.026968498422926
577.0, 0.02702431933251248
578.0, 0.026767254846960208
579.0, 0.024638191577581528
580.0, 0.023008785198186305
581.0, 0.02326421521180122
582.0, 0.021919822854105733
583.0, 0.017730185356815777
584.0, 0.017436590978139654
585.0, 0.0157832966174321
586.0, 0.01364643396033174
587.0, 0.01581803801796518
588.0, 0.013828653777513703
589.0, 0.01203416109986463
590.0, 0.011773502348712
591.0, 0.008465064526172858
592.0, 0.004458571949931881
593.0, 0.008787883310701627
594.0, 0.007775052382140018
595.0, 0.004819388170324089
596.0, 0.0032319208504671872
597.0, 0.0030217128700507074
598.0, 0.0029766029275591107
599.0, 0.002378194911069476
600.0, 0.001520754659362444
601.0, 0.000342026191028842
602.0, 0.00022172802130052184
603.0, 0.0004284091365632897
604.0, 0.0018503014540946028
605.0, 0.001248869770489157
606.0, 0.002318043959538126
607.0, 0.0018554000744952994
608.0, 0.0010848243331223306
609.0, 0.0019363805367683057
610.0, 0.002712845209573153
611.0, 0.001017801653231972
612.0, 0.0005435873317012319
613.0, 0.0004493213315378203
614.0, 0.0004865314586183818
615.0, 0.0030082552735132017
616.0, 0.0007976617016675804
617.0, 0.0019389125796366966
618.0, 0.0008057025306765341
619.0, 0.0001722144947112764
620.0, 0.0018688628217145451
621.0, 0.003576375198587071
622.0, 0.0009707927046696401
623.0, 0.0027260692598513785
624.0, 0.0036812467352759404
625.0, 0.002927888538866194
626.0, 0.001514575511813375
627.0, 0.0017325534811638236
628.0, 0.00502392951467482
629.0, 0.0017908227473301735
630.0, 0.0016053641880968126
631.0, 0.0010496129375272942
632.0, 0.002844468519563053
633.0, 0.0019030279798484173
634.0, 0.004106482037316404
635.0, 0.004160537790892283
636.0, 0.003684701932096283
637.0, 0.004355217465466201
638.0, 0.004881159613237968
639.0, 0.003309281605267225
640.0, 0.0044457334470188485
641.0, 0.005780302573003439
642.0, 0.005478204564580582
643.0, 0.005731732874935874
644.0, 0.006636893890174892
645.0, 0.00463003162777646
646.0, 0.005279419064032975
647.0, 0.003176876820210141
648.0, 0.0025534357365941344
649.0, 0.004531214345477715
650.0, 0.005937626057654008
651.0, 0.004792628403085281
652.0, 0.004051662045297262
653.0, 0.002244708519883855
654.0, 0.0036124530191382212
655.0, 0.005314961800616686
656.0, 0.003885092007383558
657.0, 0.0027518106633508013
658.0, 0.0035956552597419173
659.0, 0.0028080659209190786
660.0, 0.0026986973931697315
661.0, 0.002282664726971496
662.0, 0.00024982258152126237
663.0, 0.0001967332037518441
664.0, 0.001248310802377631
665.0, 0.0019629855537277472
666.0, 0.0007890114760643526
667.0, 0.0014679421981780095
668.0, 0.004605021910742183
669.0, 0.001763778261853942
670.0, 0.0032577816633689682
671.0, 0.0019657047187168013
672.0, 0.0013837440044076532
673.0, 0.002412960615426202
674.0, 0.002238659936014436
675.0, 0.0014326315070953613
676.0, 0.0008853728906424745
677.0, 0.0005525582607447073
678.0, 0.0034540870945336073
679.0, 0.0053973107298397665
680.0, 0.00556826994467944
681.0, 0.00682792927276504
682.0, 0.007582380356487962
683.0, 0.009903280510083453
684.0, 0.012440294891515824
685.0, 0.015032821499901471
686.0, 0.01783471476798785
687.0, 0.019566762877487622
688.0, 0.02003950171708475
689.0, 0.02529994511259235
690.0, 0.031184872050613894
691.0, 0.03654729942203477
692.0, 0.04094391662022461
693.0, 0.043223069429623374
694.0, 0.05291079685899123
695.0, 0.05960576466136661
696.0, 0.0651892686814434
697.0, 0.07117972735427876
698.0, 0.07781515008242802
699.0, 0.08588126916399001
700.0, 0.0974264690388397
701.0, 0.10605351067098397
702.0, 0.11575813791355849
703.0, 0.1289050920639811
704.0, 0.1448214407849892
705.0, 0.1612260354858178
706.0, 0.17492187514622073
707.0, 0.1906886392043222
708.0, 0.20869697830530468
709.0, 0.22643770993010826
710.0, 0.24477942200513259
711.0, 0.2656759816106908
712.0, 0.28817937397315324
713.0, 0.314029631360807
714.0, 0.33804129665617516
715.0, 0.3644341068076168
716.0, 0.3914063370243323
717.0, 0.4188331465169043
718.0, 0.4531262494040937
719.0, 0.48441846610964245
720.0, 0.5178985388924084
721.0, 0.5515933207172672
722.0, 0.5897999890502165
723.0, 0.6308631897042853
724.0, 0.6655893429621987
725.0, 0.6976173219047657
726.0, 0.7365188113753471
727.0, 0.7796929578299527
728.0, 0.815185624232133
729.0, 0.844438225899005
730.0, 0.8765687433371159
731.0, 0.9087930118163939
732.0, 0.933077754963713
733.0, 0.9534043698417808
734.0, 0.9727121828985988
735.0, 0.9866318858800325
736.0, 0.9936886242117191
737.0, 0.9993933873079653
738.0, 0.990139680778948
739.0, 0.9888571132258385
740.0, 0.9786000859699495
741.0, 0.9598266710716101
742.0, 0.9371229299483
743.0, 0.9100487160465899
744.0, 0.8883876141247984
745.0, 0.8569838117012986
746.0, 0.8182841301128847
747.0, 0.7793104738544766
748.0, 0.7422734654255813
749.0, 0.7070049085039268
750.0, 0.6731416870819025
751.0, 0.6363233996055804
752.0, 0.5963867554383536
753.0, 0.5612737984050171
754.0, 0.5334619577029714
755.0, 0.5012190048562565
756.0, 0.45787283905846626
757.0, 0.42875330572164505
758.0, 0.407184030437066
759.0, 0.37960469904503297
760.0, 0.3524492885414319
761.0, 0.3276222847460838
762.0, 0.3027432329988791
763.0, 0.28163971035371416
764.0, 0.260166547146016
765.0, 0.24047638423796497
766.0, 0.22243178220733356
767.0, 0.20589916934260089
768.0, 0.18962753954631592
769.0, 0.17244525657241488
770.0, 0.15658889535057233
771.0, 0.1400363918030398
772.0, 0.12635731799486485
773.0, 0.11314161562363924
774.0, 0.10297173191164623
775.0, 0.09551143813216961
776.0, 0.08268795490402171
777.0, 0.07108315136916626
778.0, 0.068817677902216
779.0, 0.0599570739956528
780.0, 0.051319117359368754
781.0, 0.04517857389476026
782.0, 0.035991736203584195
783.0, 0.031809037896321224
784.0, 0.02745661061449455
785.0, 0.01963771888187918
786.0, 0.016203788030130596
787.0, 0.01505456993961076
788.0, 0.011820801673369168
789.0, 0.007854031443379877
790.0, 0.0072927321754247855
791.0, 0.004388525067128025
792.0, 0.0005979149400970851
793.0, 0.001339034640430205
794.0, 0.00042546152914294964
795.0, 0.0015516900517162113
796.0, 0.003465910912132751
797.0, 0.0031656538216263646
798.0, 0.0026641655569771897
799.0, 0.005882238477773792
800.0, 0.006847347746750409
801.0, 0.005821166655054014
802.0, 0.005391228743284147
803.0, 0.001449127659504592
804.0, 0.0009772495250017794
805.0, 0.004012517215524857
806.0, 0.004660605826790239
807.0, 0.008274734110285516
808.0, 0.013432220613820616
809.0, 0.01628819146282658
810.0, 0.02353582461841824
811.0, 0.028608943519775568
812.0, 0.031232814074532562
813.0, 0.03747870676455077
814.0, 0.042938563767129394
815.0, 0.048288073839509414
816.0, 0.058004248147744616
817.0, 0.06540837618581039
818.0, 0.0704432786405764
819.0, 0.077929322338091
820.0, 0.08559173709582826
821.0, 0.08987220881877145
822.0, 0.09191885623294518
823.0, 0.09461448486382036
824.0, 0.09503956098703073
825.0, 0.0979020523439402
826.0, 0.10039027754057576
827.0, 0.09783678558330718
828.0, 0.09634655731535283
829.0, 0.0966764792065582
830.0, 0.09305896290899864
831.0, 0.08989890803033397
832.0, 0.08625867658938113
833.0, 0.08546155597958763
834.0, 0.08000391070779891
835.0, 0.077726082084001
836.0, 0.07781360241340796
837.0, 0.06998109954950933
838.0, 0.06255163334728357
839.0, 0.05789724947002712
840.0, 0.057581252721397636
841.0, 0.054879703219082844
842.0, 0.04893098569489882
843.0, 0.04342803182663367
844.0, 0.04084813566467762
845.0, 0.03846188000710923
846.0, 0.03829929263381906
847.0, 0.03252650375266003
848.0, 0.02860679186726187
849.0, 0.028518678094967824
850.0, 0.027082573231601365
851.0, 0.022937284359560686
852.0, 0.023516961065356976
853.0, 0.024042888109727618
854.0, 0.019260216066412303
855.0, 0.013488672732577383
856.0, 0.01267505762328487
857.0, 0.014247461178770418
858.0, 0.012630248181897912
859.0, 0.0094615261963902
860.0, 0.01177874427821821
861.0, 0.01066531267979505
862.0, 0.004862827878651018
863.0, 0.0033904106559088498
864.0, 0.005498218538173891
865.0, 0.005426402352790011
866.0, 0.00361147077203781
867.0, 0.001026931433064361
868.0, 0.004727988088738537
869.0, 0.0020994776606917194
870.0, 0.0009321871969962584
871.0, 0.0008206815852877124
872.0, 0.000282186833798656
873.0, 7.728714183869706e-05
874.0, 0.00019948141822192413
875.0, 0.001702299466081231
876.0, 0.0009024078710897555
877.0, 0.0006898320438715526
878.0, 0.0023716376410136343
879.0, 0.002468624659827291
880.0, 0.0004666656277195541
881.0, 0.0005218385076565387
882.0, 0.00014733781368140447
883.0, 0.00013080499285750264
884.0, 0.00014335237196587522
885.0, 0.0007169766989361223
886.0, 0.002016615638080903
887.0, 0.0017008347447880728
888.0, 0.0023053960588789502
889.0, 0.0010466951179963233
890.0, 0.0001404092499562693
891.0, 0.00010185927201783344
892.0, 0.0013767920020203587
893.0, 0.001999992366577624
894.0, 0.0007001997241405818
895.0, 0.001580492831941924
896.0, 0.003366199420320344
897.0, 0.003274431014164209
898.0, 0.004257391235287581
899.0, 0.0006654805235099298
900.0, 0.0018348032564715878
901.0, 0.0010455785073363202
902.0, 0.003120675550038776
903.0, 0.0009303205154753421
904.0, 0.001530786175203973
905.0, 0.0012924651276582627
906.0, 0.0010718538444912536
907.0, 0.0014026600064489306
908.0, 0.004423236767104832
909.0, 0.005795602061810248
910.0, 0.0031696920776061836
911.0, 0.004345728325799961
912.0, 0.0052574152123685955
913.0, 0.004209959552037967
914.0, 0.003223481398804896
915.0, 0.004751780841603214
916.0, 0.0037451735071578505
917.0, 0.0028276162598888134
918.0, 0.0065933944095589204
919.0, 0.005344310723813395
920.0, 0.006464743277555427
921.0, 0.006849092432338978
922.0, 0.008316166461949244
923.0, 0.01195308199491189
924.0, 0.013173593346840413
925.0, 0.01139731397439132
926.0, 0.01197481048142722
927.0, 0.013977107174819155
928.0, 0.01656970965883385
929.0, 0.018227218287254494
930.0, 0.02018250956237702
931.0, 0.02285252254976748
932.0, 0.022920061843918843
933.0, 0.024062334801392624
934.0, 0.03185717546153183
935.0, 0.03204241019086487
936.0, 0.03387124963067614
937.0, 0.03901297853996232
938.0, 0.04615523828133163
939.0, 0.048957354760119615
940.0, 0.049917116562662546
941.0, 0.05455703797514198
942.0, 0.06138956824461834
943.0, 0.06833628316360645
944.0, 0.07107913054202869
945.0, 0.07386813988403562
946.0, 0.08014980082963893
947.0, 0.08410773588783338
948.0, 0.0873243804212532
949.0, 0.09110886669866321
950.0, 0.0891009996041943
951.0, 0.0898744972297335
952.0, 0.09107829261153111
953.0, 0.09372123512179782
954.0, 0.08873501697766746
955.0, 0.08666582902191095
956.0, 0.08600446641198856
957.0, 0.07936422563267823
958.0, 0.07506942213373961
959.0, 0.06970634602286274
960.0, 0.06845214006548551
961.0, 0.06842175972296735
962.0, 0.06638615066651572
963.0, 0.06096316506989483
964.0, 0.05634859056434896
965.0, 0.05548964668394567
966.0, 0.05584302087961734
967.0, 0.05587070951776637
968.0, 0.05141657907730049
969.0, 0.05305091763312124
970.0, 0.0513259409658232
971.0, 0.0511957583500131
972.0, 0.05265040204388057
973.0, 0.0515468995073309
974.0, 0.0496398014186163
975.0, 0.04919396130115107
976.0, 0.04891498445949085
977.0, 0.05202935213925463
978.0, 0.05252317814595857
979.0, 0.048361129071640495
980.0, 0.045950347933608526
981.0, 0.04488689933512411
982.0, 0.041334112318723505
983.0, 0.039782932617656516
984.0, 0.03632183308423812
985.0, 0.034117065581633924
986.0, 0.03634266652518654
987.0, 0.034571252673839266
988.0, 0.03277802033552117
989.0, 0.03223968587045836
990.0, 0.030392680462737017
991.0, 0.029848847227006578
992.0, 0.03252699060499685
993.0, 0.030675843145714164
994.0, 0.028748667881734042
995.0, 0.027350073302004438
996.0, 0.026943280171284462
997.0, 0.02671487815877321
998.0, 0.02696096027272781
999.0, 0.02751767454053938
1000.0, 0.025479599943137816
1001.0, 0.02277541308767052
1002.0, 0.019962206224657896
1003.0, 0.022253158979933716
1004.0, 0.02078000104123793
1005.0, 0.017790103676567158
1006.0, 0.01623931751219517
1007.0, 0.016127238900974443
1008.0, 0.016999179966151502
1009.0, 0.013084576875957682
1010.0, 0.012452678928012412
1011.0, 0.011303402262946467
1012.0, 0.013487014343925343
1013.0, 0.012059540708786329
1014.0, 0.008866891259184733
1015.0, 0.0071167047952384365
1016.0, 0.006267160618077299
1017.0, 0.006971459611480484
1018.0, 0.00782397180888325
1019.0, 0.008326249545213108
1020.0, 0.0058519722924565
1021.0, 0.0024303703859247057
1022.0, 0.003680930629110694
1023.0, 0.0028585749369986454
1024.0, 0.001966674621933851
1025.0, 0.004143820156744163
1026.0, 0.0015205301870382703
1027.0, 0.002076568018708924
1028.0, 0.0006832818230425906
1029.0, 0.0003158278878465008
1030.0, 0.002032565424585088
1031.0, 0.0036029078499030896
1032.0, 0.0026275627318686225
1033.0, 0.0012824720334268234
1034.0, 0.001601691631757092
1035.0, 0.002532922648537693
1036.0, 0.0018090878066194178
1037.0, 0.00045031651162365314
1038.0, 0.001383215699291224
1039.0, 0.0016340481354553567
1040.0, 0.0038539898063204106
1041.0, 0.001650594098041331
1042.0, 0.0023296725088719178
1043.0, 0.00039277377379571827
1044.0, 0.0005192426551052426
1045.0, 0.0001936025051838108
1046.0, 0.0008193513791248424
1047.0, 0.002274920740029174
1048.0, 0.0033538806192477347
1049.0, 0.001274607272620649
1050.0, 0.0009289722631398889
1051.0, 0.001763007830019079
1052.0, 0.0005658066739673828
1053.0, 0.0007540339438157137
1054.0, 0.0009189552323239712
1055.0, 0.002831255611758898
1056.0, 0.0023478884400786448
1057.0, 0.002120974658534004
1058.0, 0.0029320244088797223
1059.0, 0.0022167639164806458
1060.0, 0.0006597055828220724
1061.0, 0.0019326986996278206
1062.0, 0.0048761729338523225
1063.0, 0.002370725999061819
1064.0, 0.0030261267596938457
1065.0, 0.0022844995230488115
1066.0, 0.0021788567150165
1067.0, 0.0010390563860257225
1068.0, 0.00160545733349176
1069.0, 0.00341617462324628
1070.0, 0.0018739652815720422
1071.0, 0.002704554507642224
1072.0, 0.005645135267970019
1073.0, 0.005246806902496381
1074.0, 0.0004867380374772222
1075.0, 0.00042953067274468485
1076.0, 0.004376449795091239
1077.0, 0.004196135996647824
1078.0, 0.003811893684416406
1079.0, 0.004264852542999309
1080.0, 0.00405023093493827
1081.0, 0.007598006239673837
1082.0, 0.008417652303850059
1083.0, 0.008459423684129875
1084.0, 0.00494668395307489
1085.0, 0.007417237330014119
1086.0, 0.008172108148875002
1087.0, 0.006868765265826119
1088.0, 0.005042963663766688
1089.0, 0.004257427914057581
1090.0, 0.005125725736610825
1091.0, 0.0041336665667404
1092.0, 0.0005142428485570244
1093.0, 0.00024198393047121899
1094.0, 0.002044240294872002
1095.0, 0.003993241690714895
1096.0, 0.0058573033423595785
1097.0, 0.005458612630699389
1098.0, 0.0031153633405885295
1099.0, 0.0028521753043805062
1100.0, 0.0046942486089950755
1101.0, 0.0025971215270059857
1102.0, 0.00023195944838223136
1103.0, 0.0026117079189994464
1104.0, 0.0035031755187127493
1105.0, 0.0009224048900863959
1106.0, 0.00030513531244874537
1107.0, 0.0013483195661733623
1108.0, 0.0012336034630321031
1109.0, 0.0013159387896408718
1110.0, 0.002545990546893193
1111.0, 0.0016916603245516273
1112.0, 0.0017572280148590714
1113.0, 0.0006208624514188748
1114.0, 0.002875281391539126
1115.0, 0.0037801205352735747
1116.0, 0.0017952272384870842
1117.0, 0.000551621648524757
1118.0, 0.0012372259296947387
1119.0, 0.0018156846824887904
1120.0, 0.002363246629190099
1121.0, 0.004160256103314201
1122.0, 0.003935421545582968
1123.0, 0.005941948607962813
1124.0, 0.004867655582840534
1125.0, 0.0010791491365746107
1126.0, 0.0001930671391471337
1127.0, 0.001996730760141917
1128.0, 0.0030890491972105304
1129.0, 0.0027830520344754623
1130.0, 0.0019437005712066241
1131.0, 0.0012929308694000132
1132.0, 0.003058283616532008
1133.0, 0.001603171985738985
1134.0, 0.003856074239624752
1135.0, 0.003298946640319802
1136.0, 0.003250262330554917
1137.0, 0.0022166048654491018
1138.0, 0.0025596526338485543
1139.0, 0.0029399734760713883
1140.0, 0.0015807033184125983
1141.0, 0.0016771835343866
1142.0, 0.003054795781852362
1143.0, 0.001207561135303571
1144.0, 0.0006790369928979363
1145.0, 0.002152131008846478
1146.0, 0.0014126533914580758
1147.0, 0.0023622389333776235
1148.0, 0.003971471538598098
1149.0, 0.002092022938336189
1150.0, 0.0016387716620867468
1151.0, 0.004944879242809862
1152.0, 0.004464643582455234
1153.0, 0.0007903141857709215
1154.0, 0.00035688030760247877
1155.0, 0.0025559452824265765
1156.0, 0.00037598026408931936
1157.0, 0.0009065814898549015
1158.0, 0.0002549344251908402
1159.0, 0.000673208711309177
1160.0, 0.0011386113841432256
1161.0, 0.003392126134611118
1162.0, 0.004617486858049781
1163.0, 0.002170626455562297
1164.0, 0.003216274303943262
1165.0, 0.0020895892615765865
1166.0, 0.0020624389688861434
1167.0, 0.0006905515551031981
1168.0, 0.001004531251708198
1169.0, 0.002671101033390469
1170.0, 0.0028712366636429727
1171.0, 0.0009218423605257791
1172.0, 0.0015200395739283974
1173.0, 0.004108667575858487
1174.0, 0.0028333868208252283
1175.0, 0.002356868727155613
1176.0, 0.0026847227921847714
1177.0, 0.0011401887839505632
1178.0, 0.0023160535517413646
1179.0, 0.0006534996688802115
1180.0, 0.0002095024325849007
1181.0, 0.0013684407244164204
1182.0, 0.001756506438983269
1183.0, 0.001395818194796561
1184.0, 0.0011182302989322013
1185.0, 0.0027428570160074224
1186.0, 0.004152395138786625
1187.0, 0.000161764281027118
1188.0, 0.0028068187129723188
1189.0, 0.0007730158351257955
1190.0, 0.0033404593173908246
1191.0, 0.0058546480240265555
1192.0, 0.006059502365137409
1193.0, 0.0034490694956907627
1194.0, 0.0023325447167980248
1195.0, 0.0021533592720257184
1196.0, 0.0010455353885113114
1197.0, 0.00284916527025291
1198.0, 0.0027883718826735675
1199.0, 0.0017423637841099083
1200.0, 0.004493266191125234
1201.0, 0.0007332255427300162
1202.0, 0.0014699697818366304
1203.0, 0.0030644768068395474
1204.0, 0.003103488846155795
1205.0, 0.003607080237459328
1206.0, 0.0044092340701982905
1207.0, 0.004251561644687699
1208.0, 0.001972362024391311
1209.0, 0.0014228286460126489
1210.0, 0.0035465820882979206
1211.0, 0.0014888271667529021
1212.0, 0.00146273663766869
1213.0, 0.0009746758604450084
1214.0, 0.0024344838184389636
1215.0, 0.003757030971565525
1216.0, 0.0008125825124249358
1217.0, 0.0016107792033451594
1218.0, 0.0027927980517651035
1219.0, 0.005529086767241308
1220.0, 0.008398565014108765
1221.0, 0.003114189155656672
1222.0, 0.002336417155328071
1223.0, 0.00031938339084807267
1224.0, 0.002092685514186789
1225.0, 0.0023816974131839756
1226.0, 0.0015732802249655222
1227.0, 0.0020520905134816863
1228.0, 0.002457643474275052
1229.0, 0.0026206228445287264
1230.0, 0.001157505116881069
1231.0, 0.0003040163398233206
1232.0, 0.002708331725560624
1233.0, 0.005929754675451321
1234.0, 0.0026146331906919213
1235.0, 0.004350185582884034
1236.0, 0.0011782949000215686
1237.0, 0.001173217911756931
1238.0, 0.001650738805873634
1239.0, 0.0011394766659312881
1240.0, 0.0035481335026669347
1241.0, 0.0046737871818192675
1242.0, 0.00407324654697971
1243.0, 0.00330840009901477
1244.0, 0.002446257398550907
1245.0, 0.0031130135415930378
1246.0, 0.005409790265357148
1247.0, 0.0033868454861264367
1248.0, 0.0028475597185767232
1249.0, 0.002276677284312867
1250.0, 0.0014013753036091511
1251.0, 0.0028361330140077466
1252.0, 0.003346632264024982
1253.0, 0.004824060917363595
1254.0, 0.003839580725698867
1255.0, 0.004624043774099923
1256.0, 0.005492633031567655
1257.0, 0.004443796571827369
1258.0, 0.003579382534288896
1259.0, 0.00495312327178056
1260.0, 0.007047350946970269
1261.0, 0.0004947724321996482
1262.0, 0.0018184392441095364
1263.0, 0.0029950508898219366
1264.0, 0.0030908813085986217
1265.0, 0.0026541813953303668
1266.0, 0.003944425176322586
1267.0, 0.0045730960506923215
1268.0, 0.0031109940724620266
1269.0, 0.00239581015534152
1270.0, 0.0032072194914803567
1271.0, 0.0021177950316574874
1272.0, 0.0021571298318645575
1273.0, 0.005562042911936799
1274.0, 0.004694921708772795
1275.0, 0.004796512196340079
1276.0, 0.005352853634874669
1277.0, 0.005892417111473123
1278.0, 0.0031452793367027915
1279.0, 0.0009899346612333782
1280.0, 0.005214455564661108
1281.0, 0.0035831320380193335
1282.0, 0.001964595324773617
1283.0, 0.0028406530272229733
1284.0, 0.0059117386996180845
1285.0, 0.0050653250554259545
1286.0, 0.0017014245796435673
1287.0, 0.00290907606271571
1288.0, 0.0012362576446631455
1289.0, 0.0033792429916115097
1290.0, 0.004333926089264106
1291.0, 0.004472426935503384
1292.0, 0.0037885793044340798
1293.0, 0.0042086680083713
1294.0, 0.003139332382710796
1295.0, 0.005780053914391682
1296.0, 0.0040060664633565874
1297.0, 0.0031892219025810675
1298.0, 0.004522504627910233
1299.0, 0.0035635291994093473
1300.0, 0.0006803995074297285
1301.0, 0.0009287411829304298
1302.0, 0.004255030243869074
1303.0, 0.0014019949607025168
1304.0, 0.005498889247926731
1305.0, 0.004751295372229684
1306.0, 0.0008500444850240267
1307.0, 4.5382382989561035e-06
1308, 0.0
1309, 0.0
1310, 0.0
1311, 0.0
1312, 0.0
1313, 0.0
1314, 0.0
1315, 0.0
1316, 0.0
1317, 0.0
1318, 0.0
1319, 0.0
1320, 0.0
1321, 0.0
1322, 0.0
1323, 0.0
1324, 0.0
1325, 0.0
1326, 0.0
1327, 0.0
1328, 0.0
1329, 0.0
1330, 0.0
1331, 0.0
1332, 0.0
1333, 0.0
1334, 0.0
1335, 0.0
1336, 0.0
1337, 0.0
1338, 0.0
1339, 0.0
1340, 0.0
1341, 0.0
1342, 0.0
1343, 0.0
1344, 0.0
1345, 0.0
1346, 0.0
1347, 0.0
1348, 0.0
1349, 0.0
1350, 0.0
1351, 0.0
1352, 0.0
1353, 0.0
1354, 0.0
1355, 0.0
1356, 0.0
1357, 0.0
1358, 0.0
1359, 0.0
1360, 0.0
1361, 0.0
1362, 0.0
1363, 0.0
1364, 0.0
1365, 0.0
1366, 0.0
1367, 0.0
1368, 0.0
1369, 0.0
1370, 0.0
1371, 0.0
1372, 0.0
1373, 0.0
1374, 0.0
1375, 0.0
1376, 0.0
1377, 0.0
1378, 0.0
1379, 0.0
1380, 0.0
1381, 0.0
1382, 0.0
1383, 0.0
1384, 0.0
1385, 0.0
1386, 0.0
1387, 0.0
1388, 0.0
1389, 0.0
1390, 0.0
1391, 0.0
1392, 0.0
1393, 0.0
1394, 0.0
1395, 0.0
1396, 0.0
1397, 0.0
1398, 0.0
1399, 0.0
1400, 0.0
1401, 0.0
1402, 0.0
1403, 0.0
1404, 0.0
1405, 0.0
1406, 0.0
1407, 0.0
1408, 0.0
1409, 0.0
1410, 0.0
1411, 0.0
1412, 0.0
1413, 0.0
1414, 0.0
1415, 0.0
1416, 0.0
1417, 0.0
1418, 0.0
1419, 0.0
1420, 0.0
1421, 0.0
1422, 0.0
1423, 0.0
1424, 0.0
1425, 0.0
1426, 0.0
1427, 0.0
1428, 0.0
1429, 0.0
1430, 0.0
1431, 0.0
1432, 0.0
1433, 0.0
1434, 0.0
1435, 0.0
1436, 0.0
1437, 0.0
1438, 0.0
1439, 0.0
1440, 0.0
1441, 0.0
1442, 0.0
1443, 0.0
1444, 0.0
1445, 0.0
1446, 0.0
1447, 0.0
1448, 0.0
1449, 0.0
1450, 0.0
1451, 0.0
1452, 0.0
1453, 0.0
1454, 0.0
1455, 0.0
1456, 0.0
1457, 0.0
1458, 0.0
1459, 0.0
1460, 0.0
1461, 0.0
1462, 0.0
1463, 0.0
1464, 0.0
1465, 0.0
1466, 0.0
1467, 0.0
1468, 0.0
1469, 0.0
1470, 0.0
1471, 0.0
1472, 0.0
1473, 0.0
1474, 0.0
1475, 0.0
1476, 0.0
1477, 0.0
1478, 0.0
1479, 0.0
1480, 0.0
1481, 0.0
1482, 0.0
1483, 0.0
1484, 0.0
1485, 0.0
1486, 0.0
1487, 0.0
1488, 0.0
1489, 0.0
1490, 0.0
1491, 0.0
1492, 0.0
1493, 0.0
1494, 0.0
1495, 0.0
1496, 0.0
1497, 0.0
1498, 0.0
1499, 0.0
1500, 0.0
1501, 0.0
1502, 0.0
1503, 0.0
1504, 0.0
1505, 0.0
1506, 0.0
1507, 0.0
1508, 0.0
1509, 0.0
1510, 0.0
1511, 0.0
1512, 0.0
1513, 0.0
1514, 0.0
1515, 0.0
1516, 0.0
1517, 0.0
1518, 0.0
1519, 0.0
1520, 0.0
1521, 0.0
1522, 0.0
1523, 0.0
1524, 0.0
1525, 0.0
1526, 0.0
1527, 0.0
1528, 0.0
1529, 0.0
1530, 0.0
1531, 0.0
1532, 0.0
1533, 0.0
1534, 0.0
1535, 0.0
1536, 0.0
1537, 0.0
1538, 0.0
1539, 0.0
1540, 0.0
1541, 0.0
1542, 0.0
1543, 0.0
1544, 0.0
1545, 0.0
1546, 0.0
1547, 0.0
1548, 0.0
1549, 0.0
1550, 0.0
1551, 0.0
1552, 0.0
1553, 0.0
1554, 0.0
1555, 0.0
1556, 0.0
1557, 0.0
1558, 0.0
1559, 0.0
1560, 0.0
1561, 0.0
1562, 0.0
1563, 0.0
1564, 0.0
1565, 0.0
1566, 0.0
1567, 0.0
1568, 0.0
1569, 0.0
1570, 0.0
1571, 0.0
1572, 0.0
1573, 0.0
1574, 0.0
1575, 0.0
1576, 0.0
1577, 0.0
1578, 0.0
1579, 0.0
1580, 0.0
1581, 0.0
1582, 0.0
1583, 0.0
1584, 0.0
1585, 0.0
1586, 0.0
1587, 0.0
1588, 0.0
1589, 0.0
1590, 0.0
1591, 0.0
1592, 0.0
1593, 0.0
1594, 0.0
1595, 0.0
1596, 0.0
1597, 0.0
1598, 0.0
1599, 0.0
