30, 0.0
31, 0.0
32, 0.0
33, 0.0
34, 0.0
35, 0.0
36, 0.0
37, 0.0
38, 0.0
39, 0.0
40, 0.0
41, 0.0
42, 0.0
43, 0.0
44, 0.0
45, 0.0
46, 0.0
47, 0.0
48, 0.0
49, 0.0
50, 0.0
51, 0.0
52, 0.0
53, 0.0
54, 0.0
55, 0.0
56, 0.0
57, 0.0
58, 0.0
59, 0.0
60, 0.0
61, 0.0
62, 0.0
63, 0.0
64, 0.0
65, 0.0
66, 0.0
67, 0.0
68, 0.0
69, 0.0
70, 0.0
71, 0.0
72, 0.0
73, 0.0
74, 0.0
75, 0.0
76, 0.0
77, 0.0
78, 0.0
79, 0.0
80, 0.0
81, 0.0
82, 0.0
83, 0.0
84, 0.0
85, 0.0
86, 0.0
87, 0.0
88, 0.0
89, 0.0
90, 0.0
91, 0.0
92, 0.0
93, 0.0
94, 0.0
95, 0.0
96, 0.0
97, 0.0
98, 0.0
99, 0.0
100, 0.0
101, 0.0
102, 0.0
103, 0.0
104, 0.0
105, 0.0
106, 0.0
107, 0.0
108, 0.0
109, 0.0
110, 0.0
111, 0.0
112, 0.0
113, 0.0
114, 0.0
115, 0.0
116, 0.0
117, 0.0
118, 0.0
119, 0.0
120, 0.0
121, 0.0
122, 0.0
123, 0.0
124, 0.0
125, 0.0
126, 0.0
127, 0.0
128, 0.0
129, 0.0
130, 0.0
131, 0.0
132, 0.0
133, 0.0
134, 0.0
135, 0.0
136, 0.0
137, 0.0
138, 0.0
139, 0.0
140, 0.0
141, 0.0
142, 0.0
143, 0.0
144, 0.0
145, 0.0
146, 0.0
147, 0.0
148, 0.0
149, 0.0
150, 0.0
151, 0.0
152, 0.0
153, 0.0
154, 0.0
155, 0.0
156, 0.0
157, 0.0
158, 0.0
159, 0.0
160, 0.0
161, 0.0
162, 0.0
163, 0.0
164, 0.0
165, 0.0
166, 0.0
167, 0.0
168, 0.0
169, 0.0
170, 0.0
171, 0.0
172, 0.0
173, 0.0
174, 0.0
175, 0.0
176, 0.0
177, 0.0
178, 0.0
179, 0.0
180, 0.0
181, 0.0
182, 0.0
183, 0.0
184, 0.0
185, 0.0
186, 0.0
187, 0.0
188, 0.0
189, 0.0
190, 0.0
191, 0.0
192, 0.0
193, 0.0
194, 0.0
195, 0.0
196, 0.0
197, 0.0
198, 0.0
199, 0.0
200, 0.0
201, 0.0
202, 0.0
203, 0.0
204, 0.0
205, 0.0
206, 0.0
207, 0.0
208, 0.0
209, 0.0
210, 0.0
211, 0.0
212, 0.0
213, 0.0
214, 0.0
215, 0.0
216, 0.0
217, 0.0
218, 0.0
219.0, 0.006650212053908037
220.0, 0.004999561285285661
221.0, 0.0006887449892657785
222.0, 0.003117840284972311
223.0, 0.0020362038803924338
224.0, 0.01622940035806141
225.0, 0.007508963835525639
226.0, 0.010945342108232585
227.0, 0.0179123952620703
228.0, 0.021589068364621208
229.0, 0.02380603302195121
230.0, 0.03302047351547907
231.0, 0.04150529763957269
232.0, 0.05150859825744647
233.0, 0.06834709271474848
234.0, 0.09385860717163128
235.0, 0.08996412985500074
236.0, 0.08878601418790488
237.0, 0.1026019473899447
238.0, 0.11542331099694139
239.0, 0.1315347090833926
240.0, 0.15316565139566304
241.0, 0.1588601210377267
242.0, 0.1451444459706758
243.0, 0.1922817303785086
244.0, 0.20655115533779422
245.0, 0.20567719335973358
246.0, 0.20641191711705098
247.0, 0.2070410985296725
248.0, 0.23469509282778064
249.0, 0.24569409011832186
250.0, 0.24291184764203413
251.0, 0.24502336690478202
252.0, 0.2623130201022374
253.0, 0.2664696232056891
254.0, 0.27322417714797176
255.0, 0.28283771267719954
256.0, 0.2849887439478342
257.0, 0.2928732798671483
258.0, 0.2998509694505192
259.0, 0.294676212061186
260.0, 0.27756802075659814
261.0, 0.2651255469119784
262.0, 0.23925477729926314
263.0, 0.21698395670168824
264.0, 0.20363196484638912
265.0, 0.1940219633987833
266.0, 0.1803480906259437
267.0, 0.1763953532498746
268.0, 0.17644628687376232
269.0, 0.17363604162474755
270.0, 0.1668147503925448
271.0, 0.1684279811188238
272.0, 0.17424249771003728
273.0, 0.17814461254641464
274.0, 0.1794685026841033
275.0, 0.1866158141135135
276.0, 0.19210000099980473
277.0, 0.19705257112201235
278.0, 0.19549877142005959
279.0, 0.1779607026121189
280.0, 0.17602818130414397
281.0, 0.17938678208073103
282.0, 0.1788830499092584
283.0, 0.17727292557459579
284.0, 0.19135360379716562
285.0, 0.20343799654000594
286.0, 0.22189241212469812
287.0, 0.25039870193824304
288.0, 0.2803525335086378
289.0, 0.29449205245068727
290.0, 0.3166130608136274
291.0, 0.343782063106412
292.0, 0.37458130963727326
293.0, 0.41591991659227584
294.0, 0.4630744789634052
295.0, 0.5047841851739242
296.0, 0.5435179332487892
297.0, 0.5836273803315105
298.0, 0.6245057490306276
299.0, 0.6689194707971508
300.0, 0.7030380223609107
301.0, 0.7286666506031201
302.0, 0.7538980939157728
303.0, 0.776452014446519
304.0, 0.8012664540181803
305.0, 0.813536963694194
306.0, 0.81639588715591
307.0, 0.8293809371278236
308.0, 0.8562829457574777
309.0, 0.8448398735092467
310.0, 0.834741562366379
311.0, 0.8469934440486285
312.0, 0.8439139714355347
313.0, 0.8428921387051431
314.0, 0.8382433603730461
315.0, 0.8217477602747986
316.0, 0.7968025388572167
317.0, 0.7818109341581997
318.0, 0.7560720260021521
319.0, 0.7246274445454571
320.0, 0.6975405325480868
321.0, 0.6787369349449656
322.0, 0.6470080187256448
323.0, 0.6289757020660716
324.0, 0.6086399370600054
325.0, 0.5820362640631467
326.0, 0.5633468320341944
327.0, 0.539860024650529
328.0, 0.5300465915846583
329.0, 0.5093025270435494
330.0, 0.47416477212896896
331.0, 0.4655430451194858
332.0, 0.4629583406543668
333.0, 0.44105556753045216
334.0, 0.4113295335390366
335.0, 0.3891602767855058
336.0, 0.3641558865750972
337.0, 0.3403615478263903
338.0, 0.3028930834135621
339.0, 0.2591412608756383
340.0, 0.22688326233793457
341.0, 0.19638344546328748
342.0, 0.14729524321746273
343.0, 0.11063890427028866
344.0, 0.08768588976886407
345.0, 0.055186982235084794
346.0, 0.04340591141855694
347.0, 0.00882866920289477
348.0, 0.01889093513216552
349.0, 0.01698410437680921
350.0, 0.010436527128034556
351.0, 0.023170363460434253
352.0, 0.022124513623924577
353.0, 0.01549821702434751
354.0, 0.010477200547632733
355.0, 0.008022960445291893
356.0, 0.009654464507114456
357.0, 0.019239345318266127
358.0, 0.039630962676062365
359.0, 0.05746327612850007
360.0, 0.05925546085872727
361.0, 0.07032030839422457
362.0, 0.08220394501040942
363.0, 0.09105221414468512
364.0, 0.09726891351237729
365.0, 0.10114286561760986
366.0, 0.10557635075737423
367.0, 0.11074647274851547
368.0, 0.10305512134021026
369.0, 0.07873884079254598
370.0, 0.07885141559930364
371.0, 0.06708634745368641
372.0, 0.05103642445916625
373.0, 0.041397207853339744
374.0, 0.039130127455860475
375.0, 0.036957318191540085
376.0, 0.028257650779246923
377.0, 0.03074037031522585
378.0, 0.042994502807716245
379.0, 0.046522620231942285
380.0, 0.05169602676315002
381.0, 0.06194452454515588
382.0, 0.07279869175078978
383.0, 0.08398572517809699
384.0, 0.10018646593837066
385.0, 0.12285670439934
386.0, 0.1362597022143995
387.0, 0.15841472036811427
388.0, 0.1808335027742988
389.0, 0.17557267591455342
390.0, 0.20060937870980658
391.0, 0.21921584578220252
392.0, 0.23077086754340476
393.0, 0.24150683339950452
394.0, 0.24737388775248143
395.0, 0.24196141499560506
396.0, 0.2677477454702091
397.0, 0.2953565122144208
398.0, 0.3050978822472082
399.0, 0.3097036945621647
400.0, 0.32069836599903956
401.0, 0.32923878141385937
402.0, 0.3440814093477956
403.0, 0.35905867431633937
404.0, 0.3510094701202322
405.0, 0.346399663103967
406.0, 0.3504591232916854
407.0, 0.34664185062885
408.0, 0.3265849422862497
409.0, 0.3041623249214475
410.0, 0.3076901552300072
411.0, 0.28295800046813036
412.0, 0.2601866623627263
413.0, 0.2543076500510219
414.0, 0.23339301428811304
415.0, 0.20752288733568328
416.0, 0.17935862418912532
417.0, 0.15088865883650784
418.0, 0.12274227318293748
419.0, 0.09565954358734938
420.0, 0.08072164904527569
421.0, 0.07109253866882187
422.0, 0.05226578951989986
423.0, 0.028062015401048197
424.0, 0.015012063830405608
425.0, 0.009524007348778613
426.0, 0.0014008079642066627
427.0, 0.005736970326900565
428.0, 0.007600973843500031
429.0, 0.0039814968680275745
430.0, 0.01732110652130762
431.0, 0.016047037165919785
432.0, 0.01570487998179558
433.0, 0.02118972750742789
434.0, 0.018969481188564813
435.0, 0.01204809167414363
436.0, 0.004196701283591178
437.0, 0.0037311413598618303
438.0, 0.011144866973318665
439.0, 0.01646564907970084
440.0, 0.01694692022613966
441.0, 0.01627520151236473
442.0, 0.03056962891981389
443.0, 0.04237614528308158
444.0, 0.03634269728660763
445.0, 0.04343062294602701
446.0, 0.07766512813753672
447.0, 0.0926834193916272
448.0, 0.08478746114906888
449.0, 0.07793841324671161
450.0, 0.09335807610120993
451.0, 0.10924782360126305
452.0, 0.11022839670879793
453.0, 0.1138299897776673
454.0, 0.13205106828828314
455.0, 0.1476146270702681
456.0, 0.15116291764564635
457.0, 0.16481851889013083
458.0, 0.1785609352874962
459.0, 0.18475903644320144
460.0, 0.1897358695120712
461.0, 0.19562265828141462
462.0, 0.1961358981666899
463.0, 0.19691664015919197
464.0, 0.18950112859523977
465.0, 0.16618459195559843
466.0, 0.16061154282320203
467.0, 0.13701321952917764
468.0, 0.11912401177814128
469.0, 0.10978363294617288
470.0, 0.09721634860858525
471.0, 0.0918347645630357
472.0, 0.09410251543968746
473.0, 0.08987801369826869
474.0, 0.09344458690032818
475.0, 0.11022939035409189
476.0, 0.10445743446018912
477.0, 0.09627687002118225
478.0, 0.09716609597209916
479.0, 0.10708727872815642
480.0, 0.11678147112675823
481.0, 0.1141619568880641
482.0, 0.10933376590687328
483.0, 0.11787637297280291
484.0, 0.11807119977274695
485.0, 0.10857922748326528
486.0, 0.10712475379787943
487.0, 0.08954898601540247
488.0, 0.07399018764569452
489.0, 0.07630876944140763
490.0, 0.08228215228125918
491.0, 0.07419373457189213
492.0, 0.07501886363953472
493.0, 0.07537889801863641
494.0, 0.08555599538671149
495.0, 0.09459909343611386
496.0, 0.09151724115752233
497.0, 0.08691524798068441
498.0, 0.09851179633717012
499.0, 0.0861740654173635
500.0, 0.07541091701045606
501.0, 0.07714282544774628
502.0, 0.07074915402726585
503.0, 0.07223332326427413
504.0, 0.05963185246417769
505.0, 0.04735404475359901
506.0, 0.037965951712370466
507.0, 0.030282221351291376
508.0, 0.036193190883558164
509.0, 0.017362337501202283
510.0, 0.017251487726029274
511.0, 0.020681073596132037
512.0, 0.011826350661133378
513.0, 0.010304873106774172
514.0, 0.0016611513698468554
515.0, 0.009862674303062974
516.0, 0.014280314065385805
517.0, 0.004953741345918261
518.0, 0.004709177264598726
519.0, 0.010548065486908906
520.0, 0.00411956681718674
521.0, 0.008268462505441195
522.0, 0.013079131448369205
523.0, 0.006486912984077349
524.0, 0.010294219295438042
525.0, 0.02055632926043927
526.0, 0.024508631351599863
527.0, 0.01972839138826674
528.0, 0.016758607322953957
529.0, 0.024340531538875016
530.0, 0.02288216787963402
531.0, 0.01762861599863348
532.0, 0.020360252753980523
533.0, 0.02812708247308327
534.0, 0.03187404674958444
535.0, 0.028207038015455595
536.0, 0.012275398486667527
537.0, 0.023647609826314427
538.0, 0.04288253877782198
539.0, 0.04550437452294067
540.0, 0.033581533245114516
541.0, 0.03901009482007539
542.0, 0.044235522535314986
543.0, 0.050460870723903574
544.0, 0.053892359446488534
545.0, 0.051127672807971106
546.0, 0.05220123020854665
547.0, 0.0475294942604267
548.0, 0.05169688893036015
549.0, 0.048086880566951214
550.0, 0.035626983290882534
551.0, 0.033561842228116215
552.0, 0.019030751050985575
553.0, 0.007696141758035751
554.0, 0.01133987847897323
555.0, 0.01058288008620571
556.0, 0.006974685759591387
557.0, 0.01242670510141803
558.0, 0.015452084905987741
559.0, 0.014900993289350937
560.0, 0.01434180456445172
561.0, 0.01747625679443006
562.0, 0.02222854184927202
563.0, 0.012487580280322355
564.0, 0.017630931014310347
565.0, 0.012143650584870077
566.0, 0.007359259541030076
567.0, 0.009422704909016335
568.0, 0.008223504923350342
569.0, 0.015733681200392955
570.0, 0.017948037755844207
571.0, 0.024476727694239996
572.0, 0.03659837538224538
573.0, 0.05028404856821307
574.0, 0.05717595977273193
575.0, 0.07182192974588335
576.0, 0.08887954372267018
577.0, 0.10243736476981687
578.0, 0.11008015473338748
579.0, 0.11791136562989851
580.0, 0.14975183246532275
581.0, 0.18022560408342952
582.0, 0.19163517435402394
583.0, 0.20594866040528742
584.0, 0.2337022735212984
585.0, 0.25058144458028225
586.0, 0.2807503852702208
587.0, 0.2958140397866582
588.0, 0.31120640293567897
589.0, 0.33831451981686667
590.0, 0.3695451769938312
591.0, 0.37843858959924936
592.0, 0.3766511155788684
593.0, 0.3818137095152141
594.0, 0.39574312553485236
595.0, 0.40227188274283615
596.0, 0.39552576748394025
597.0, 0.4115838212978049
598.0, 0.4149363069110856
599.0, 0.41834447332963776
600.0, 0.43072899290993394
601.0, 0.45229810640110435
602.0, 0.4812261101680385
603.0, 0.49455481612395447
604.0, 0.5267165165215417
605.0, 0.5414188889470471
606.0, 0.5527759810186452
607.0, 0.58625436727442
608.0, 0.625005163148357
609.0, 0.6634066352967939
610.0, 0.6932896592544489
611.0, 0.7170809620895147
612.0, 0.7529688700402071
613.0, 0.7987808504254579
614.0, 0.8119124362250404
615.0, 0.8457662591984013
616.0, 0.8548834075037913
617.0, 0.8729068398277979
618.0, 0.9059427994966495
619.0, 0.9315079975708517
620.0, 0.9582189247974283
621.0, 0.9776912563012156
622.0, 0.9937479948435186
623.0, 0.9991186878455746
624.0, 0.9957651968265828
625.0, 0.990931590418469
626.0, 0.9742327208941901
627.0, 0.9620434719807621
628.0, 0.922002575272545
629.0, 0.8759621162701481
630.0, 0.8389718815210204
631.0, 0.7985126943866026
632.0, 0.760906738329475
633.0, 0.7232885512962026
634.0, 0.6922874015138376
635.0, 0.6670281254015495
636.0, 0.6417348739199442
637.0, 0.6118907595201316
638.0, 0.5795276043325592
639.0, 0.5669904311819441
640.0, 0.5617865988693835
641.0, 0.5448339270867797
642.0, 0.5168810204554581
643.0, 0.49685588324825325
644.0, 0.49491247590553744
645.0, 0.47807027017519416
646.0, 0.4629053202887828
647.0, 0.46257663810837135
648.0, 0.46429223787152185
649.0, 0.44411861617048337
650.0, 0.4393810460259061
651.0, 0.44653593571609573
652.0, 0.4363246155566249
653.0, 0.4309428523127702
654.0, 0.44295680900437934
655.0, 0.4481149958300055
656.0, 0.4408221509085731
657.0, 0.4618878021093555
658.0, 0.4706396802378679
659.0, 0.47179772811458365
660.0, 0.4786009104231628
661.0, 0.4896269032658947
662.0, 0.5034792270241015
663.0, 0.5136328396709625
664.0, 0.5160604992192508
665.0, 0.5148789749601107
666.0, 0.5041609327361177
667.0, 0.47945207801725953
668.0, 0.46701098339999886
669.0, 0.45998735122335654
670.0, 0.4217654455061112
671.0, 0.3749430534480611
672.0, 0.3387519143157159
673.0, 0.309517919764074
674.0, 0.28961071404430266
675.0, 0.2508983034618767
676.0, 0.22460645873180687
677.0, 0.20796497556101065
678.0, 0.1826477844380575
679.0, 0.1501742994649021
680.0, 0.14105037365625936
681.0, 0.1323469439970769
682.0, 0.12510568429435068
683.0, 0.10641827725648594
684.0, 0.08237207829886674
685.0, 0.06758495332683274
686.0, 0.0587571405962056
687.0, 0.054239465779631374
688.0, 0.04709814408148303
689.0, 0.04166666459801769
690.0, 0.03755270809279849
691.0, 0.03308871000312351
692.0, 0.03155524162347696
693.0, 0.03484465030657722
694.0, 0.009285387884330514
695.0, 0.005750724072621826
696.0, 0.013267824435102297
697.0, 0.010803115320598291
698.0, 0.010217813681638816
699.0, 0.006948849374410449
700.0, 0.013326979693867577
701.0, 0.010267463556959627
702.0, 0.0023343523244423554
703.0, 0.007264314650018659
704.0, 0.005345938301162316
705.0, 0.0066231900003507725
706.0, 0.005850350683743323
707.0, 0.004375448430115142
708.0, 0.007381219014033385
709.0, 0.006251069701563187
710.0, 0.004787638681892353
711.0, 0.007836487750180511
712.0, 0.0006394795658408226
713.0, 0.005236642207443277
714.0, 0.005450865619738579
715.0, 0.004793192885536593
716.0, 0.006682435833218
717.0, 0.009628437132314305
718.0, 0.008732049190327272
719.0, 0.010781199486494891
720.0, 0.006048450079213912
721.0, 0.008081720833503935
722.0, 0.01007478980857444
723.0, 0.0023417171057226603
724.0, 0.0019927394432035605
725.0, 0.001191310610231841
726.0, 0.0012083027949444044
727.0, 0.009993378996597732
728.0, 0.013192006794800657
729.0, 0.0016452748415074262
730.0, 0.0021883452209453106
731.0, 0.003951690653218546
732.0, 0.0039292329644733635
733.0, 0.007823131100457128
734.0, 0.006743742065858447
735.0, 0.002541552489292373
736.0, 0.0064458254863535526
737.0, 0.009858298481822519
738.0, 0.008178965883522016
739.0, 0.006986238608314804
740.0, 0.014481149749997322
741.0, 0.018652671307820095
742.0, 0.012041868118706315
743.0, 0.016546296195542758
744.0, 0.033129630934415503
745.0, 0.02613255084388308
746.0, 0.006707119746550609
747.0, 0.008746807790120931
748.0, 0.021948962540932107
749.0, 0.016904328602994637
750.0, 0.01383501544573896
751.0, 0.021644371746788925
752.0, 0.022386379420161806
753.0, 0.01856142390830929
754.0, 0.024285864251465342
755.0, 0.03667100973577042
756.0, 0.032639660982934096
757.0, 0.02532126540370276
758.0, 0.026324335128221844
759.0, 0.024789889829279835
760.0, 0.023240697498926294
761.0, 0.027228943703141727
762.0, 0.02935911402489916
763.0, 0.016465814216268974
764.0, 0.03758565170516074
765.0, 0.028383534397426906
766.0, 0.026489252374798378
767.0, 0.028895302408066387
768.0, 0.025798114548367307
769.0, 0.02860176183932219
770.0, 0.032207293607402605
771.0, 0.02896882512217881
772.0, 0.021863196162708015
773.0, 0.02259536454952059
774.0, 0.023934742101230488
775.0, 0.023629130289632892
776.0, 0.03276035675397564
777.0, 0.026525784526392673
778.0, 0.02192126718770956
779.0, 0.019806986236790943
780.0, 0.023058635231141662
781.0, 0.02529934003582439
782.0, 0.019797291039934224
783.0, 0.019293085993070846
784.0, 0.018535941055733817
785.0, 0.02166664374400536
786.0, 0.03082894387296979
787.0, 0.03462823425344049
788.0, 0.02832417963771129
789.0, 0.018494677712622826
790.0, 0.010231372057324079
791.0, 0.014011877415942469
792.0, 0.017846683641314934
793.0, 0.01837220846553725
794.0, 0.022138137282506572
795.0, 0.023550124291834423
796.0, 0.017163264929930692
797.0, 0.024350880960145642
798.0, 0.022903349178499278
799.0, 0.027530294880887454
800.0, 0.027477788486441793
801.0, 0.027148605936643647
802.0, 0.0238429235092383
803.0, 0.012562741482882942
804.0, 0.022065626251968663
805.0, 0.017013562508641025
806.0, 0.015554281898950011
807.0, 0.01754659493480855
808.0, 0.02142157153811707
809.0, 0.02573452075714254
810.0, 0.027563131998859645
811.0, 0.023909070801853605
812.0, 0.018725150439705608
813.0, 0.02814629045087003
814.0, 0.03413372473830476
815.0, 0.03043159202050883
816.0, 0.02823894734062035
817.0, 0.03428808392113476
818.0, 0.03351519612243843
819.0, 0.033789676406467656
820.0, 0.03377062720361937
821.0, 0.03017604434874786
822.0, 0.030878545960384085
823.0, 0.034748831488930536
824.0, 0.03214556952120369
825.0, 0.02957991137354432
826.0, 0.01520888459814672
827.0, 0.020837513821230155
828.0, 0.026891872249616405
829.0, 0.02393676785092209
830.0, 0.021715241456225276
831.0, 0.027391593925797597
832.0, 0.033962104235604
833.0, 0.04702676428076285
834.0, 0.02800986168714247
835.0, 0.02291392943223026
836.0, 0.022800511853740334
837.0, 0.013547305016852055
838.0, 0.012138298823263715
839.0, 0.02301835373265653
840.0, 0.014177993635419139
841.0, 0.013168021237060248
842.0, 0.021406143411543985
843.0, 0.019007495625655065
844.0, 0.010050162093115723
845.0, 0.010527628985351258
846.0, 0.017364268485618777
847.0, 0.010573534950445971
848.0, 0.016861776029678675
849.0, 0.02096853853687852
850.0, 0.014291865902206357
851.0, 0.004899320374184052
852.0, 0.0026587883003369225
853.0, 0.005846980003837314
854.0, 0.008345281481841904
855.0, 0.013736054968760285
856.0, 0.008388712502508137
857.0, 0.005589729215480557
858.0, 0.001168671823359017
859.0, 0.001810479919527144
860.0, 0.010159165724710555
861.0, 0.01546230326036567
862.0, 0.00487156848066763
863.0, 0.011139166182824737
864.0, 0.004787700047992023
865.0, 0.008298592378952419
866.0, 0.007379596971556489
867.0, 0.0015526452041771275
868.0, 0.002234080336894973
869.0, 0.017556189369299636
870.0, 0.011336136900120315
871.0, 0.006683690764802894
872.0, 0.004368074115281702
873.0, 0.0025181385763727473
874.0, 0.005460440709734685
875.0, 0.005619707988612092
876.0, 0.003505174908193434
877.0, 0.005850666046975507
878.0, 0.0035436948969392607
879.0, 0.005764770557980369
880.0, 0.005568789903704816
881.0, 0.008818754780879392
882.0, 0.009237306818251915
883.0, 0.007736226078605267
884.0, 0.0021883326770639434
885.0, 0.003736634667661943
886.0, 0.011249483314304108
887.0, 0.01865433793497074
888.0, 0.02373314055120727
889.0, 0.026757007564731244
890.0, 0.0279704124815772
891.0, 0.031117208026250752
892.0, 0.04126494510076755
893.0, 0.027792816157058534
894.0, 0.033443463332201606
895.0, 0.055243529265333574
896.0, 0.061120031090009054
897.0, 0.050034934115130866
898.0, 0.04743550819809698
899.0, 0.05051209384866004
900.0, 0.04312709593833829
901.0, 0.05973971771104243
902.0, 0.0565626654818191
903.0, 0.0509556147618972
904.0, 0.058778504171390064
905.0, 0.06176272056321522
906.0, 0.0653193818484587
907.0, 0.07431241156657775
908.0, 0.06988449577306614
909.0, 0.08017080055961957
910.0, 0.0880152086362841
911.0, 0.08183363299934876
912.0, 0.0809141612106007
913.0, 0.09582309955546364
914.0, 0.08843919913629526
915.0, 0.0830763219549271
916.0, 0.09571311533517739
917.0, 0.09454672680180812
918.0, 0.09646402341095378
919.0, 0.10280768262864735
920.0, 0.10127094681146746
921.0, 0.10191509866394256
922.0, 0.11610505595554617
923.0, 0.11328702626852388
924.0, 0.10125096311156975
925.0, 0.11351906322185767
926.0, 0.11565286053780503
927.0, 0.11219776712769575
928.0, 0.12445372818574829
929.0, 0.13098927399746807
930.0, 0.12401403669967577
931.0, 0.12648158588550495
932.0, 0.1388630638157066
933.0, 0.15216782346321842
934.0, 0.1704583978582012
935.0, 0.18286141958072952
936.0, 0.18852522899303356
937.0, 0.2006357739024482
938.0, 0.21022487496292286
939.0, 0.25049091249564454
940.0, 0.26640012121927686
941.0, 0.2901422901803783
942.0, 0.30989384465862235
943.0, 0.33114106975108487
944.0, 0.36505744570128706
945.0, 0.39302222573477974
946.0, 0.40279220930343784
947.0, 0.4301121602782674
948.0, 0.42899878307006456
949.0, 0.4453253242723824
950.0, 0.4665601355080329
951.0, 0.4674088228089128
952.0, 0.46043909947172945
953.0, 0.4620604510455352
954.0, 0.4536010432206494
955.0, 0.45759779210022344
956.0, 0.4547083685286039
957.0, 0.45548322653882767
958.0, 0.45486768511155073
959.0, 0.45497564142973534
960.0, 0.4628001634606035
961.0, 0.47511067532249324
962.0, 0.48037966636563467
963.0, 0.4764372947091821
964.0, 0.48449747281021754
965.0, 0.4988149564485981
966.0, 0.48646917551241936
967.0, 0.4658675868037677
968.0, 0.4461825408710901
969.0, 0.4159127261714552
970.0, 0.3804393198399571
971.0, 0.3623458194727197
972.0, 0.33128127137437413
973.0, 0.3114742857501401
974.0, 0.29923981222714946
975.0, 0.28802286087770457
976.0, 0.27916113836723244
977.0, 0.2788926935193398
978.0, 0.2866311570757642
979.0, 0.28729710896117305
980.0, 0.27941415977976086
981.0, 0.28927265480071157
982.0, 0.2769454433121245
983.0, 0.2571264459604741
984.0, 0.22951391667023274
985.0, 0.19844193524344617
986.0, 0.17235807329281935
987.0, 0.14206793523989578
988.0, 0.1072508742924971
989.0, 0.08613385315373855
990.0, 0.06518959846265038
991.0, 0.043751245213104945
992.0, 0.027303293687442234
993.0, 0.0188789282094895
994.0, 0.010880248513494985
995.0, 0.0012847867171665857
996.0, 0.0036324083495028166
997.0, 0.003200506343001186
998.0, 0.012850738899801317
999.0, 0.01631206110951891
1000.0, 0.012959561938127166
1001.0, 0.0065185101974112244
1002.0, 0.008767058931730222
1003.0, 0.009130174652369328
1004.0, 0.0060500117941690796
1005.0, 0.005163773214168426
1006.0, 0.008109355443984795
1007.0, 0.02827472612302016
1008.0, 0.03799363637873017
1009.0, 0.042846247397546396
1010.0, 0.05830212552465087
1011.0, 0.08037141645604849
1012.0, 0.09750119299916025
1013.0, 0.10930315546014166
1014.0, 0.11971541399596973
1015.0, 0.14634534026587015
1016.0, 0.17828734690746903
1017.0, 0.19772724803988886
1018.0, 0.22500751832767366
1019.0, 0.25671787994787093
1020.0, 0.29594373634016874
1021.0, 0.33243428273471654
1022.0, 0.3429736659409067
1023.0, 0.3710884578221929
1024.0, 0.3692516420991349
1025.0, 0.37536811337796866
1026.0, 0.37490155021429283
1027.0, 0.36493700549772146
1028.0, 0.36551634433813734
1029.0, 0.366444242371529
1030.0, 0.3585711777191236
1031.0, 0.35932062541911536
1032.0, 0.35713309713854025
1033.0, 0.3635325384248128
1034.0, 0.382694192802511
1035.0, 0.40139038989438075
1036.0, 0.4249443883409739
1037.0, 0.4437013577705606
1038.0, 0.4605869376852388
1039.0, 0.4867013324000219
1040.0, 0.5138062959992261
1041.0, 0.5274574207831206
1042.0, 0.5404498934409876
1043.0, 0.5286261300657569
1044.0, 0.5353907264982813
1045.0, 0.5079962832078411
1046.0, 0.4941767139663857
1047.0, 0.4716291847021291
1048.0, 0.4322122778404555
1049.0, 0.4069962954445965
1050.0, 0.3608902012063002
1051.0, 0.331090819533173
1052.0, 0.2855623516663502
1053.0, 0.2614368695986379
1054.0, 0.23005946217541304
1055.0, 0.20331058904446908
1056.0, 0.18574417091597836
1057.0, 0.16666105197553074
1058.0, 0.15000552989701077
1059.0, 0.1446799818151304
1060.0, 0.13602249332533997
1061.0, 0.1141060266399434
1062.0, 0.10383125695204039
1063.0, 0.09044023941189246
1064.0, 0.09243798185720589
1065.0, 0.09378385111316302
1066.0, 0.08297095428914764
1067.0, 0.07808461902251222
1068.0, 0.08134363971210341
1069.0, 0.07139200468930142
1070.0, 0.07785806787229663
1071.0, 0.09018021026936882
1072.0, 0.08623401827521597
1073.0, 0.08361071962234021
1074.0, 0.07657434201240956
1075.0, 0.076394357194849
1076.0, 0.08191738148028291
1077.0, 0.08011407713960085
1078.0, 0.0724715856330183
1079.0, 0.065956693914691
1080.0, 0.05482616888149444
1081.0, 0.0536378121064784
1082.0, 0.04087201843508748
1083.0, 0.030440230915555574
1084.0, 0.029476203929022445
1085.0, 0.01771521995113186
1086.0, 0.005519618339110784
1087.0, 0.004774755665563504
1088.0, 0.0013068828473387945
1089.0, 0.00328328411804563
1090.0, 0.012386801241203126
1091.0, 0.007983541342119758
1092.0, 0.0005078324518553261
1093.0, 0.0037905995745088415
1094.0, 0.006388618729620576
1095.0, 0.007927220645124997
1096.0, 0.013783784125234037
1097.0, 0.014473075690874007
1098.0, 0.003871487041655305
1099.0, 0.005392679064921958
1100.0, 0.006267032131032175
1101.0, 0.010020003644623996
1102.0, 0.019355920389183774
1103.0, 0.01650395469807075
1104.0, 0.02054837487636193
1105.0, 0.029277191025572878
1106.0, 0.03409250720703533
1107.0, 0.03429752785525078
1108.0, 0.033207828890806625
1109.0, 0.0388875834543007
1110.0, 0.044601839223469796
1111.0, 0.05413458394680001
1112.0, 0.04341718175711785
1113.0, 0.03845378714490102
1114.0, 0.042640136497890224
1115.0, 0.052242663958535246
1116.0, 0.05137548637088421
1117.0, 0.04584659666598593
1118.0, 0.04511479768655269
1119.0, 0.035740253308989244
1120.0, 0.0406099773775711
1121.0, 0.038217980169108955
1122.0, 0.030021332068969994
1123.0, 0.03684238168719149
1124.0, 0.03330264578145117
1125.0, 0.028792401479054857
1126.0, 0.02421724405117991
1127.0, 0.025850283162445285
1128.0, 0.024094809155931554
1129.0, 0.009229555755312788
1130.0, 0.025170670040965053
1131.0, 0.02460369712872678
1132.0, 0.02826946465610844
1133.0, 0.017926165250652274
1134.0, 0.02205687715631597
1135.0, 0.016545139322415626
1136.0, 0.0145808417951015
1137.0, 0.012641217614504409
1138.0, 0.006952382040415244
1139.0, 0.01521198295661792
1140.0, 0.02914445863716435
1141.0, 0.01778932796730268
1142.0, 0.014117924423318655
1143.0, 0.030209689351735375
1144.0, 0.03730997468480712
1145.0, 0.027446090528001538
1146.0, 0.016405586778466923
1147.0, 0.01515696903692675
1148.0, 0.02710791551790559
1149.0, 0.029670054081895974
1150.0, 0.022426012227313056
1151.0, 0.02499143374558502
1152.0, 0.006730748649349309
1153.0, 0.02916451466458512
1154.0, 0.024744777964047747
1155.0, 0.023824101546599016
1156.0, 0.023289301826680493
1157.0, 0.01411288839707136
1158.0, 0.008404139996300568
1159.0, 0.009646063522510545
1160.0, 0.010456825870257208
1161.0, 0.008120700897732688
1162.0, 0.008841564089244738
1163.0, 0.013492281932235643
1164.0, 0.0145460338411823
1165.0, 0.007921001698540096
1166.0, 0.004292370307684131
1167.0, 0.006046710950186263
1168.0, 0.0007803461045970041
1169.0, 0.008382895007796532
1170.0, 0.01585069867057538
1171.0, 0.020121775701332226
1172.0, 0.02592690699149222
1173.0, 0.022121537093037436
1174.0, 0.016159189847492973
1175.0, 0.017945938279389805
1176.0, 0.014113729280594374
1177.0, 0.008032857096700322
1178.0, 0.018893748477916673
1179.0, 0.02247596915071314
1180.0, 0.02413584350342366
1181.0, 0.022139080134051733
1182.0, 0.027836373541167754
1183.0, 0.024403240621538258
1184.0, 0.0180248156857556
1185.0, 0.03985386320081066
1186.0, 0.032968582710905546
1187.0, 0.030057672839607644
1188.0, 0.04501217398203889
1189.0, 0.04025691546430376
1190.0, 0.056079246726239006
1191.0, 0.06685609242151312
1192.0, 0.0683348303812031
1193.0, 0.0750139550648341
1194.0, 0.07919258746018802
1195.0, 0.07507323228412514
1196.0, 0.07714248007376016
1197.0, 0.08531578947992054
1198.0, 0.07047848169706987
1199.0, 0.06643002156766381
1200.0, 0.055384155749169856
1201.0, 0.0512126678934227
1202.0, 0.05041202035065731
1203.0, 0.047453851813687956
1204.0, 0.04189979548368236
1205.0, 0.03533533704724803
1206.0, 0.024823859400983514
1207.0, 0.0203445619201301
1208.0, 0.019074264453712592
1209.0, 0.01582839680055046
1210.0, 0.02866024763303053
1211.0, 0.021261753146771603
1212.0, 0.02248403735389259
1213.0, 0.007452617407576699
1214.0, 0.011627613150522536
1215.0, 0.002211807878518208
1216.0, 0.00901208196897631
1217.0, 0.009493477377055512
1218.0, 0.009204003829580023
1219.0, 0.01336549479664505
1220.0, 0.002666071921442089
1221.0, 0.011697175947789462
1222.0, 0.0032841060286707175
1223.0, 0.01185838007038112
1224.0, 0.0028367201407874048
1225.0, 0.003077924716459622
1226.0, 0.01650063731838793
1227.0, 0.0024046287064194874
1228.0, 0.0030115500041350196
1229.0, 0.008822692187023768
1230.0, 0.006204005589777186
1231.0, 0.007715379909069347
1232.0, 0.009578708909778967
1233.0, 0.006714918263457483
1234.0, 0.0018843953137254543
1235.0, 0.005383612592878346
1236.0, 0.003236695264627133
1237.0, 0.014208332358032228
1238.0, 0.015903525341926152
1239.0, 0.005422299429443865
1240.0, 0.009683122735026242
1241.0, 0.013942203275954258
1242.0, 0.0034244075027534404
1243.0, 0.014878441716895592
1244.0, 0.015526501844828108
1245.0, 0.00479563726939122
1246.0, 0.014235455374824728
1247.0, 0.020265490062729208
1248.0, 0.011047900708214235
1249.0, 0.007187748559121913
1250.0, 0.007453240855948598
1251.0, 0.015181485844551689
1252.0, 0.012608045950223063
1253.0, 0.02092174109304502
1254.0, 0.011026742831083151
1255.0, 0.01005329099110799
1256.0, 0.015056308561787853
1257.0, 0.016897765519131372
1258.0, 0.016139197678001795
1259.0, 0.017713714474625834
1260.0, 0.018657687629043355
1261.0, 0.01996005204971398
1262.0, 0.02356039537621222
1263.0, 0.012582061730358985
1264.0, 0.01590502137429649
1265.0, 0.011531711833853256
1266.0, 0.013643171907493609
1267.0, 0.01013290116425709
1268.0, 0.012851447634559667
1269.0, 0.0167453316815234
1270.0, 0.01714383911538709
1271.0, 0.012953801402649985
1272.0, 0.014580560823594059
1273.0, 0.018284449148684802
1274.0, 0.008157546731763617
1275.0, 0.0022582590534269186
1276.0, 0.01133979203911125
1277.0, 0.0012687659254492578
1278.0, 0.007217096600800318
1279.0, 0.01187279395435832
1280.0, 0.012963154888415856
1281.0, 0.01750744654039358
1282.0, 0.0044272238805347155
1283.0, 0.0019382675508135723
1284.0, 0.015356287238012488
1285.0, 0.010685481873409786
1286.0, 0.01045459096118579
1287.0, 0.026042339652323426
1288.0, 0.021280770285389154
1289.0, 0.011944292562541042
1290.0, 0.021695951488868978
1291.0, 0.010820199696762163
1292.0, 0.011548188238147294
1293.0, 0.00507558038742681
1294.0, 0.013466416313939395
1295.0, 0.01599836988797845
1296.0, 0.01349354940974788
1297.0, 0.006902506306118895
1298.0, 0.0010824480748628672
1299.0, 0.011643249440802262
1300.0, 0.02322447957945061
1301.0, 0.014128182481286835
1302.0, 0.0032500523531776913
1303.0, 2.141751681522671e-05
1304, 0.0
1305, 0.0
1306, 0.0
1307, 0.0
1308, 0.0
1309, 0.0
1310, 0.0
1311, 0.0
1312, 0.0
1313, 0.0
1314, 0.0
1315, 0.0
1316, 0.0
1317, 0.0
1318, 0.0
1319, 0.0
1320, 0.0
1321, 0.0
1322, 0.0
1323, 0.0
1324, 0.0
1325, 0.0
1326, 0.0
1327, 0.0
1328, 0.0
1329, 0.0
1330, 0.0
1331, 0.0
1332, 0.0
1333, 0.0
1334, 0.0
1335, 0.0
1336, 0.0
1337, 0.0
1338, 0.0
1339, 0.0
1340, 0.0
1341, 0.0
1342, 0.0
1343, 0.0
1344, 0.0
1345, 0.0
1346, 0.0
1347, 0.0
1348, 0.0
1349, 0.0
1350, 0.0
1351, 0.0
1352, 0.0
1353, 0.0
1354, 0.0
1355, 0.0
1356, 0.0
1357, 0.0
1358, 0.0
1359, 0.0
1360, 0.0
1361, 0.0
1362, 0.0
1363, 0.0
1364, 0.0
1365, 0.0
1366, 0.0
1367, 0.0
1368, 0.0
1369, 0.0
1370, 0.0
1371, 0.0
1372, 0.0
1373, 0.0
1374, 0.0
1375, 0.0
1376, 0.0
1377, 0.0
1378, 0.0
1379, 0.0
1380, 0.0
1381, 0.0
1382, 0.0
1383, 0.0
1384, 0.0
1385, 0.0
1386, 0.0
1387, 0.0
1388, 0.0
1389, 0.0
1390, 0.0
1391, 0.0
1392, 0.0
1393, 0.0
1394, 0.0
1395, 0.0
1396, 0.0
1397, 0.0
1398, 0.0
1399, 0.0
1400, 0.0
1401, 0.0
1402, 0.0
1403, 0.0
1404, 0.0
1405, 0.0
1406, 0.0
1407, 0.0
1408, 0.0
1409, 0.0
1410, 0.0
1411, 0.0
1412, 0.0
1413, 0.0
1414, 0.0
1415, 0.0
1416, 0.0
1417, 0.0
1418, 0.0
1419, 0.0
1420, 0.0
1421, 0.0
1422, 0.0
1423, 0.0
1424, 0.0
1425, 0.0
1426, 0.0
1427, 0.0
1428, 0.0
1429, 0.0
1430, 0.0
1431, 0.0
1432, 0.0
1433, 0.0
1434, 0.0
1435, 0.0
1436, 0.0
1437, 0.0
1438, 0.0
1439, 0.0
1440, 0.0
1441, 0.0
1442, 0.0
1443, 0.0
1444, 0.0
1445, 0.0
1446, 0.0
1447, 0.0
1448, 0.0
1449, 0.0
1450, 0.0
1451, 0.0
1452, 0.0
1453, 0.0
1454, 0.0
1455, 0.0
1456, 0.0
1457, 0.0
1458, 0.0
1459, 0.0
1460, 0.0
1461, 0.0
1462, 0.0
1463, 0.0
1464, 0.0
1465, 0.0
1466, 0.0
1467, 0.0
1468, 0.0
1469, 0.0
1470, 0.0
1471, 0.0
1472, 0.0
1473, 0.0
1474, 0.0
1475, 0.0
1476, 0.0
1477, 0.0
1478, 0.0
1479, 0.0
1480, 0.0
1481, 0.0
1482, 0.0
1483, 0.0
1484, 0.0
1485, 0.0
1486, 0.0
1487, 0.0
1488, 0.0
1489, 0.0
1490, 0.0
1491, 0.0
1492, 0.0
1493, 0.0
1494, 0.0
1495, 0.0
1496, 0.0
1497, 0.0
1498, 0.0
1499, 0.0
1500, 0.0
1501, 0.0
1502, 0.0
1503, 0.0
1504, 0.0
1505, 0.0
1506, 0.0
1507, 0.0
1508, 0.0
1509, 0.0
1510, 0.0
1511, 0.0
1512, 0.0
1513, 0.0
1514, 0.0
1515, 0.0
1516, 0.0
1517, 0.0
1518, 0.0
1519, 0.0
1520, 0.0
1521, 0.0
1522, 0.0
1523, 0.0
1524, 0.0
1525, 0.0
1526, 0.0
1527, 0.0
1528, 0.0
1529, 0.0
1530, 0.0
1531, 0.0
1532, 0.0
1533, 0.0
1534, 0.0
1535, 0.0
1536, 0.0
1537, 0.0
1538, 0.0
1539, 0.0
1540, 0.0
1541, 0.0
1542, 0.0
1543, 0.0
1544, 0.0
1545, 0.0
1546, 0.0
1547, 0.0
1548, 0.0
1549, 0.0
1550, 0.0
1551, 0.0
1552, 0.0
1553, 0.0
1554, 0.0
1555, 0.0
1556, 0.0
1557, 0.0
1558, 0.0
1559, 0.0
1560, 0.0
1561, 0.0
1562, 0.0
1563, 0.0
1564, 0.0
1565, 0.0
1566, 0.0
1567, 0.0
1568, 0.0
1569, 0.0
1570, 0.0
1571, 0.0
1572, 0.0
1573, 0.0
1574, 0.0
1575, 0.0
1576, 0.0
1577, 0.0
1578, 0.0
1579, 0.0
1580, 0.0
1581, 0.0
1582, 0.0
1583, 0.0
1584, 0.0
1585, 0.0
1586, 0.0
1587, 0.0
1588, 0.0
1589, 0.0
1590, 0.0
1591, 0.0
1592, 0.0
1593, 0.0
1594, 0.0
1595, 0.0
1596, 0.0
1597, 0.0
1598, 0.0
1599, 0.0
