30, 0.0
31, 0.0
32, 0.0
33, 0.0
34, 0.0
35, 0.0
36, 0.0
37, 0.0
38, 0.0
39, 0.0
40, 0.0
41, 0.0
42, 0.0
43, 0.0
44, 0.0
45, 0.0
46, 0.0
47, 0.0
48, 0.0
49, 0.0
50, 0.0
51, 0.0
52, 0.0
53, 0.0
54, 0.0
55, 0.0
56, 0.0
57, 0.0
58, 0.0
59, 0.0
60, 0.0
61, 0.0
62, 0.0
63, 0.0
64, 0.0
65, 0.0
66, 0.0
67, 0.0
68, 0.0
69, 0.0
70, 0.0
71, 0.0
72, 0.0
73, 0.0
74, 0.0
75, 0.0
76, 0.0
77, 0.0
78, 0.0
79, 0.0
80, 0.0
81, 0.0
82, 0.0
83, 0.0
84, 0.0
85, 0.0
86, 0.0
87, 0.0
88, 0.0
89, 0.0
90, 0.0
91, 0.0
92, 0.0
93, 0.0
94, 0.0
95, 0.0
96, 0.0
97, 0.0
98, 0.0
99, 0.0
100, 0.0
101, 0.0
102, 0.0
103, 0.0
104, 0.0
105, 0.0
106, 0.0
107, 0.0
108, 0.0
109, 0.0
110, 0.0
111, 0.0
112, 0.0
113, 0.0
114, 0.0
115, 0.0
116, 0.0
117, 0.0
118, 0.0
119, 0.0
120, 0.0
121, 0.0
122, 0.0
123, 0.0
124, 0.0
125, 0.0
126, 0.0
127, 0.0
128, 0.0
129, 0.0
130, 0.0
131, 0.0
132, 0.0
133, 0.0
134, 0.0
135, 0.0
136, 0.0
137, 0.0
138, 0.0
139, 0.0
140, 0.0
141, 0.0
142, 0.0
143, 0.0
144, 0.0
145, 0.0
146, 0.0
147, 0.0
148, 0.0
149, 0.0
150, 0.0
151.0, 0.005144515208937349
152.0, 0.018000951841731404
153.0, 0.03371465153993648
154.0, 0.043435018984195904
155.0, 0.040228393097444325
156.0, 0.023683785381691604
157.0, 0.013607391228596881
158.0, 0.020324834169333512
159.0, 0.02942351971265133
160.0, 0.03074092178697982
161.0, 0.027765886031978833
162.0, 0.03185966809782939
163.0, 0.03990787857036093
164.0, 0.020973568281244862
165.0, 0.003449366140787174
166.0, 0.005885441579986259
167.0, 0.00920608991054058
168.0, 0.020574437736243574
169.0, 0.03784693036867529
170.0, 0.05025099750400128
171.0, 0.045189806724280426
172.0, 0.01957666607047965
173.0, 0.01877917226815581
174.0, 0.010786102081070146
175.0, 0.010555775095944835
176.0, 0.024746529447685007
177.0, 0.03469675422237929
178.0, 0.03359632832098459
179.0, 0.030114465247992182
180.0, 0.0278536166442692
181.0, 0.024685568804712506
182.0, 0.018800124564310537
183.0, 0.012951678742225275
184.0, 0.013063092755449809
185.0, 0.020264832027158983
186.0, 0.022820296196215173
187.0, 0.021747443621344162
188.0, 0.021944425880844325
189.0, 0.017411803463044776
190.0, 0.007409875631309307
191.0, 0.006980310028000147
192.0, 0.02185818900031627
193.0, 0.022874317083812806
194.0, 0.012169002232564067
195.0, 0.019661063560169518
196.0, 0.024628717127059177
197.0, 0.02074028251333309
198.0, 0.010294901112551795
199.0, 0.004312744591592928
200.0, 0.004196672515510102
201.0, 0.01855402374950008
202.0, 0.02706187867813183
203.0, 0.010658077607720733
204.0, 0.010415370759382463
205.0, 0.011807433839166022
206.0, 0.009162554276691312
207.0, 0.005784248169407048
208.0, 0.014954416809649472
209.0, 0.01870619890662647
210.0, 0.015331296616624449
211.0, 0.0103986640321582
212.0, 0.01225117423851848
213.0, 0.01773140424395385
214.0, 0.017537911052463613
215.0, 0.017098335989682186
216.0, 0.022484563626192167
217.0, 0.016724052750595134
218.0, 0.007332132040965264
219.0, 0.0061594654162816795
220.0, 0.012619074141703046
221.0, 0.009918729887922254
222.0, 0.007657902168765131
223.0, 0.006016330682043964
224.0, 0.006600656030603855
225.0, 0.010775705043761019
226.0, 0.007401967558740671
227.0, 0.006560490663115313
228.0, 0.010793226863180539
229.0, 0.01577659781985797
230.0, 0.013474122949628593
231.0, 0.006140407082230232
232.0, 0.009520868317067489
233.0, 0.014961772527881865
234.0, 0.007351317733417335
235.0, 0.013033102329338736
236.0, 0.018622121509036933
237.0, 0.01777004769669573
238.0, 0.011261024919696572
239.0, 0.007739580502091801
240.0, 0.010020017285479802
241.0, 0.0078119313874952245
242.0, 0.006350902674949981
243.0, 0.014301818404017928
244.0, 0.01880520202954257
245.0, 0.016238280755474902
246.0, 0.012673372513043466
247.0, 0.00952315541154456
248.0, 0.0015769677334528413
249.0, 0.016927299087152573
250.0, 0.014592591186192681
251.0, 0.0053396082576631755
252.0, 0.01383511115283029
253.0, 0.01159642635057651
254.0, 0.012156845254395705
255.0, 0.014049147737327166
256.0, 0.018146930512773284
257.0, 0.029298912343308475
258.0, 0.011767711796776348
259.0, 0.005143060651012799
260.0, 0.00838583415267907
261.0, 0.0074153395306124975
262.0, 0.0033762691228448674
263.0, 0.003564523366607782
264.0, 0.011192477198618213
265.0, 0.013138206278863616
266.0, 0.010722956698980357
267.0, 0.014732858053923562
268.0, 0.008838313081079083
269.0, 0.00833424503562139
270.0, 0.01864634282596765
271.0, 0.015058006429124153
272.0, 0.008623011855821289
273.0, 0.005474162643194964
274.0, 0.00740271085202975
275.0, 0.012560628467342655
276.0, 0.01167503816597524
277.0, 0.010201210802807637
278.0, 0.009664627494139492
279.0, 0.010756765834677462
280.0, 0.012608331323747895
281.0, 0.00375771050326831
282.0, 0.0019515633225565432
283.0, 0.0024394433675140026
284.0, 0.0025266055601799974
285.0, 0.00244232255718223
286.0, 0.006082762523425595
287.0, 0.012380100553297134
288.0, 0.014438217682414973
289.0, 0.01170029779647615
290.0, 0.00733168662892882
291.0, 0.0027122092024700036
292.0, 0.004211221161773563
293.0, 0.011554495408382166
294.0, 0.010345211584757822
295.0, 0.014838882832221073
296.0, 0.01736013936796156
297.0, 0.016237024944232473
298.0, 0.012800685217014001
299.0, 0.0054367969747856695
300.0, 0.014378427862412033
301.0, 0.013886214864026119
302.0, 0.0072509317428226675
303.0, 0.011527543598700373
304.0, 0.005365976874104166
305.0, 0.010809517014786467
306.0, 0.01526900694362712
307.0, 0.013377670348829331
308.0, 0.015321217860349685
309.0, 0.010294862896404034
310.0, 0.005826761098869046
311.0, 0.00810655817453262
312.0, 0.014525925392468116
313.0, 0.014381723182595455
314.0, 0.01608516557327202
315.0, 0.010883931664325403
316.0, 0.003196649029236909
317.0, 0.001609941081463599
318.0, 0.0047947421372152394
319.0, 0.003335898748383805
320.0, 0.00479737127484434
321.0, 0.011503231256108398
322.0, 0.01658927788386646
323.0, 0.007981890175045855
324.0, 0.0020238273670701956
325.0, 0.00301354046170891
326.0, 0.008606103541849009
327.0, 0.016310721902752536
328.0, 0.005553140912545629
329.0, 0.006794539331873448
330.0, 0.012551029282804816
331.0, 0.011319871765567667
332.0, 0.010248247408030726
333.0, 0.016877367470501687
334.0, 0.014627578586599795
335.0, 0.007804447585363391
336.0, 0.010566878245701973
337.0, 0.02295734876289277
338.0, 0.020498606097045544
339.0, 0.018423303198497068
340.0, 0.01754315278830677
341.0, 0.006492665429945918
342.0, 0.0006975635684763884
343.0, 0.0034086590119927268
344.0, 0.011628140956553047
345.0, 0.01715948342803894
346.0, 0.012509760645269303
347.0, 0.01109622953370982
348.0, 0.008758314915099038
349.0, 0.009009810767603947
350.0, 0.011368930360162698
351.0, 0.008451305821682494
352.0, 0.0034804110607532766
353.0, 0.0067324654347997994
354.0, 0.009279738925032172
355.0, 0.005548855772567318
356.0, 0.005069086018551614
357.0, 0.01080479134399839
358.0, 0.009566097096539498
359.0, 0.0072054810214551845
360.0, 0.010823664430714931
361.0, 0.010761658876114012
362.0, 0.0032581014878597893
363.0, 0.0031703035184362212
364.0, 0.009572431465183984
365.0, 0.013056043659296997
366.0, 0.006002769630058509
367.0, 0.007165298130681055
368.0, 0.011352061993481124
369.0, 0.010337217564700714
370.0, 0.0022395629260507925
371.0, 0.004197335917638255
372.0, 0.006011634874361585
373.0, 0.007130514860828293
374.0, 0.005734200726298375
375.0, 0.0022186141189542707
376.0, 0.004866436964241634
377.0, 0.006967025153859505
378.0, 0.007229901408488748
379.0, 0.013737261067608933
380.0, 0.007314764366544493
381.0, 0.004191723524378433
382.0, 0.0022325935492683753
383.0, 0.009025509510107894
384.0, 0.00827192071834802
385.0, 0.01315656238874925
386.0, 0.01186636262916393
387.0, 0.0053033044719291225
388.0, 0.010968613039796498
389.0, 0.013477116588860756
390.0, 0.00946916563678729
391.0, 0.006228738882172303
392.0, 0.0070980587086420105
393.0, 0.007268799637326176
394.0, 0.011835154126830328
395.0, 0.00844841456128017
396.0, 0.007575877768514691
397.0, 0.0073996991137021875
398.0, 0.011194403354455117
399.0, 0.007990562946798565
400.0, 0.0033381972395964948
401.0, 0.005963697661265307
402.0, 0.006326896375269191
403.0, 0.009756847925350358
404.0, 0.005787558180394897
405.0, 0.011585788600049138
406.0, 0.00875005502516489
407.0, 0.009630607206872751
408.0, 0.006180902869215372
409.0, 0.0018469701609347164
410.0, 0.006036755854220673
411.0, 0.006889722404740666
412.0, 0.008528312896642734
413.0, 0.009683559371018632
414.0, 0.008761569426946274
415.0, 0.0025664569619904907
416.0, 0.013850214016166065
417.0, 0.009198297374957259
418.0, 0.009284820102073743
419.0, 0.008242882240164865
420.0, 0.003791701735282339
421.0, 0.008196660791935798
422.0, 0.003486302661306389
423.0, 0.0037785873788866104
424.0, 0.0014738282542394966
425.0, 0.001805859059179932
426.0, 0.001560894013262271
427.0, 0.0048891498595435325
428.0, 0.0047434852751501375
429.0, 0.007407878469330782
430.0, 0.0038478179972010274
431.0, 0.00198488644343402
432.0, 0.002549587913151125
433.0, 0.0017471497335417893
434.0, 0.0032976927289348735
435.0, 0.0021256106245877626
436.0, 0.002316663215113651
437.0, 0.008988766072311966
438.0, 0.013407013879623718
439.0, 0.01109962669563115
440.0, 0.008569835445087411
441.0, 0.00363218848758719
442.0, 0.004745596585892338
443.0, 0.005558721570128402
444.0, 0.004665327680414858
445.0, 0.004890234274300703
446.0, 0.00818645762559484
447.0, 0.009088156862288506
448.0, 0.006630635497828602
449.0, 0.005139747997286935
450.0, 0.005014329890254512
451.0, 0.0044905835154729
452.0, 0.0022027211306559677
453.0, 0.0028766133273557654
454.0, 0.001317693673222273
455.0, 0.0020898101750965008
456.0, 0.0017640106608301064
457.0, 0.001661877543282002
458.0, 0.009747231197463267
459.0, 0.014623525931781253
460.0, 0.00941527866559935
461.0, 0.005604113249606604
462.0, 0.007279805032644865
463.0, 0.004898497343002962
464.0, 0.00251324087674349
465.0, 0.004383237491816211
466.0, 0.010017874320387747
467.0, 0.006481229452541743
468.0, 0.003651023844436232
469.0, 0.002749235778068688
470.0, 0.0026959695339491326
471.0, 0.0022220206792277755
472.0, 0.002268827823009541
473.0, 0.008217784484145674
474.0, 0.010260573878441752
475.0, 0.009183206508420477
476.0, 0.010731433028783223
477.0, 0.017322338102356272
478.0, 0.008645042180661543
479.0, 0.008000472875902978
480.0, 0.012286125172316597
481.0, 0.011281779780115894
482.0, 0.006325281936167209
483.0, 0.010542487078628928
484.0, 0.011120744772869172
485.0, 0.00846604523691601
486.0, 0.009069365188685825
487.0, 0.01484685740498482
488.0, 0.00920391124470529
489.0, 0.015207020293175904
490.0, 0.014534627505378327
491.0, 0.011977208453904391
492.0, 0.01606958286158101
493.0, 0.014332699490891856
494.0, 0.012295481699022377
495.0, 0.01172035105822758
496.0, 0.008630280235167754
497.0, 0.004889878129121831
498.0, 0.007408995765175094
499.0, 0.011517169127459313
500.0, 0.012287970829897066
501.0, 0.014135108232164987
502.0, 0.01583331162624718
503.0, 0.01502544974384451
504.0, 0.014614877621470311
505.0, 0.010830349105550249
506.0, 0.009077047312820125
507.0, 0.007164085898078526
508.0, 0.004653443754563209
509.0, 0.006260607561104916
510.0, 0.0071136931425260464
511.0, 0.009185956743590388
512.0, 0.00970060927175759
513.0, 0.010127615061196103
514.0, 0.012483746258595973
515.0, 0.006713307466682916
516.0, 0.0082356570006228
517.0, 0.015617377681584749
518.0, 0.01610145672489012
519.0, 0.003061451944810765
520.0, 0.0037081437733764806
521.0, 0.007840508409033982
522.0, 0.013590829308100677
523.0, 0.015009542704707814
524.0, 0.010813311442957274
525.0, 0.011832452319771371
526.0, 0.013513678993097798
527.0, 0.007342035778200409
528.0, 0.003070726953169165
529.0, 0.002673621395219302
530.0, 0.0023239460473908555
531.0, 0.0014836881592193193
532.0, 0.004245468940022243
533.0, 0.0061586751243859605
534.0, 0.007452715640152444
535.0, 0.008829516310151832
536.0, 0.006671797838002169
537.0, 0.011310112898709477
538.0, 0.012857042011249266
539.0, 0.011013607167415375
540.0, 0.01238490263760581
541.0, 0.019561613118126507
542.0, 0.019209668305639534
543.0, 0.013860319112119062
544.0, 0.002108369108999793
545.0, 0.005140389891135767
546.0, 0.015897433067181856
547.0, 0.01862896880544368
548.0, 0.01401270485424674
549.0, 0.010778205275912138
550.0, 0.00901517381079407
551.0, 0.007854424073833303
552.0, 0.007585018682812907
553.0, 0.013187950842275179
554.0, 0.016792915082113946
555.0, 0.01843597350835408
556.0, 0.015241232141579492
557.0, 0.007477245618705479
558.0, 0.010048211555337935
559.0, 0.014309794755234428
560.0, 0.011087505963666616
561.0, 0.01083916263177764
562.0, 0.0098663999697627
563.0, 0.003890665991062083
564.0, 0.00665588599174856
565.0, 0.009202890079433292
566.0, 0.008198845800672453
567.0, 0.009765152890339053
568.0, 0.009910469056799948
569.0, 0.01130569442770928
570.0, 0.012932079668311244
571.0, 0.009401774579948044
572.0, 0.007508400712551
573.0, 0.0105771480422588
574.0, 0.011269891048502031
575.0, 0.008450853786812316
576.0, 0.009957291737871198
577.0, 0.010585650025598551
578.0, 0.010397222775539323
579.0, 0.010273042603511683
580.0, 0.008202058724773765
581.0, 0.010453184002252917
582.0, 0.006397310770622812
583.0, 0.005118279179226861
584.0, 0.0033230702971086675
585.0, 0.0016677488250563329
586.0, 0.0038568716496613044
587.0, 0.005331666967654102
588.0, 0.016638204674761608
589.0, 0.015792265626694293
590.0, 0.008979773665689526
591.0, 0.008640663941519541
592.0, 0.015551253722352033
593.0, 0.011594537866481163
594.0, 0.006773541594011419
595.0, 0.0021620325023944203
596.0, 0.001763679416361575
597.0, 0.007136650233459257
598.0, 0.011199250404895429
599.0, 0.008143382552521172
600.0, 0.009356559540878093
601.0, 0.010900536013151055
602.0, 0.010416084491530322
603.0, 0.00801470339871723
604.0, 0.008094718254338284
605.0, 0.0044830181084341125
606.0, 0.007161548657637495
607.0, 0.0071616479045307525
608.0, 0.009179131325879454
609.0, 0.018599451766671923
610.0, 0.0028327668247472137
611.0, 0.002814174045337338
612.0, 0.010353819974979032
613.0, 0.014977204382849189
614.0, 0.012923506431455494
615.0, 0.006011490517716444
616.0, 0.0060001021978493396
617.0, 0.003915388546450408
618.0, 0.0030688747934038206
619.0, 0.004082844654761401
620.0, 0.005432284970854389
621.0, 0.005770744912668311
622.0, 0.006621967095118277
623.0, 0.004787367479538508
624.0, 0.007153254795091109
625.0, 0.01067637304628556
626.0, 0.010461903515384303
627.0, 0.00893538422773407
628.0, 0.007164245845107959
629.0, 0.002519828245775016
630.0, 0.00270670133554902
631.0, 0.0068193754670644825
632.0, 0.009376539674295662
633.0, 0.008582725881693341
634.0, 0.0034024613136259822
635.0, 0.0015188591965359418
636.0, 0.0013151063604570825
637.0, 0.008461920273381723
638.0, 0.016315648234787098
639.0, 0.009898744097573605
640.0, 0.004261395012722051
641.0, 0.007231069293179231
642.0, 0.009542074769214303
643.0, 0.00878792108435905
644.0, 0.010607115219799575
645.0, 0.00447469378830988
646.0, 0.005956104250886787
647.0, 0.009358991085925408
648.0, 0.004479562090231996
649.0, 0.0020886822301039803
650.0, 0.006457636420625291
651.0, 0.005209861663518964
652.0, 0.007980231243249439
653.0, 0.0069338582695192595
654.0, 0.006573346102136238
655.0, 0.010731999774842304
656.0, 0.01112774134073758
657.0, 0.0036669825253730377
658.0, 0.00800566942688666
659.0, 0.002558236729953799
660.0, 0.003484900794853242
661.0, 0.007608319817115848
662.0, 0.009504419912669038
663.0, 0.012367722190935878
664.0, 0.008799892209302988
665.0, 0.002162691199093498
666.0, 0.0023853183234939478
667.0, 0.008605308714604389
668.0, 0.006364869194576607
669.0, 0.002081052388953856
670.0, 0.0041829698735798585
671.0, 0.008853461199286842
672.0, 0.010368035011331654
673.0, 0.01111890303298299
674.0, 0.007934767202113351
675.0, 0.0019990173632946587
676.0, 0.00916868991940639
677.0, 0.011518374503669696
678.0, 0.004754906634631975
679.0, 0.003715323853818427
680.0, 0.004523220650351385
681.0, 0.005750446785215024
682.0, 0.0018479732199739609
683.0, 0.008043744068992041
684.0, 0.008926742048860731
685.0, 0.005269653073124175
686.0, 0.007034506627523367
687.0, 0.008217895122850432
688.0, 0.009169741391554681
689.0, 0.006926673250923205
690.0, 0.003447335820192671
691.0, 0.0037710309366620173
692.0, 0.0044147146856294865
693.0, 0.0022322262336091627
694.0, 0.002238942552344141
695.0, 0.0019503515652421783
696.0, 0.004187173089039546
697.0, 0.0029984319212357827
698.0, 0.005222028726122863
699.0, 0.009453975995615644
700.0, 0.012003609323675947
701.0, 0.004935169591703363
702.0, 0.005169461714904389
703.0, 0.005716625516038109
704.0, 0.004427556087748578
705.0, 0.006086591244451401
706.0, 0.00816307332558182
707.0, 0.005019595958213097
708.0, 0.0017590454788682485
709.0, 0.0015195835978242564
710.0, 0.0038059369797219553
711.0, 0.0030724257507237064
712.0, 0.001299984259629521
713.0, 0.0031132462331115956
714.0, 0.0070032829036123165
715.0, 0.0025735845678602587
716.0, 0.002163451173213351
717.0, 0.0017571573257177675
718.0, 0.00754091319533626
719.0, 0.006892794516346141
720.0, 0.002816102799674072
721.0, 0.0027597035640753833
722.0, 0.0026334914602572186
723.0, 0.0020663352388518037
724.0, 0.0018682794464841088
725.0, 0.002914617422899186
726.0, 0.0027540054423291966
727.0, 0.003589061549181228
728.0, 0.0031247290972576374
729.0, 0.007120803989174079
730.0, 0.006685517703669826
731.0, 0.0039682344560012005
732.0, 0.0024110568733267095
733.0, 0.0014539275518475547
734.0, 0.0038028610927818914
735.0, 0.00325147877874342
736.0, 0.002479518622019798
737.0, 0.005683388489822769
738.0, 0.005133400008870015
739.0, 0.002085421457820255
740.0, 0.004614552491018111
741.0, 0.0024131754169945353
742.0, 0.003522359575690505
743.0, 0.007670879621090052
744.0, 0.008563862320020519
745.0, 0.005644284485655584
746.0, 0.003914692320396451
747.0, 0.011258979273426745
748.0, 0.012573150014619063
749.0, 0.009736369460425432
750.0, 0.0071272417335765705
751.0, 0.005029563868771682
752.0, 0.00654468900904232
753.0, 0.003497279993857905
754.0, 0.005058351077162215
755.0, 0.006151821345547996
756.0, 0.002898496259608314
757.0, 0.0024138585824505254
758.0, 0.005058219865773904
759.0, 0.0012843154773795873
760.0, 0.0051536205275431925
761.0, 0.007494232398331073
762.0, 0.007193082797236504
763.0, 0.007004111774230388
764.0, 0.009782326950657385
765.0, 0.00832574027214207
766.0, 0.004689287114823621
767.0, 0.00389774575302103
768.0, 0.006166817542313633
769.0, 0.008080933763156358
770.0, 0.007483107562037622
771.0, 0.007897044909360664
772.0, 0.011647939036791847
773.0, 0.009154349771739371
774.0, 0.009703502524176852
775.0, 0.005576784856870531
776.0, 0.001974873693117993
777.0, 0.006701288748642324
778.0, 0.01122521331472149
779.0, 0.007868166441044747
780.0, 0.0052349648866579016
781.0, 0.009481175796602785
782.0, 0.01104996220640334
783.0, 0.0078995746223771
784.0, 0.007698213245718458
785.0, 0.004282261001934236
786.0, 0.008133924840279784
787.0, 0.007155192441670343
788.0, 0.004334510809322573
789.0, 0.0037792360827981855
790.0, 0.0034689940346572285
791.0, 0.005359892504556769
792.0, 0.007970085624662398
793.0, 0.00942921781503696
794.0, 0.010410360830260052
795.0, 0.007818115079810556
796.0, 0.008188194915398534
797.0, 0.005868001989010668
798.0, 0.007909822702868444
799.0, 0.010839290884110588
800.0, 0.010988022880053086
801.0, 0.00835157118601173
802.0, 0.007562701227054605
803.0, 0.006949499316744387
804.0, 0.003423522009310765
805.0, 0.0028035823527361534
806.0, 0.011432967811597616
807.0, 0.011747440063759263
808.0, 0.01085299737510701
809.0, 0.010755456218863806
810.0, 0.014279609639767928
811.0, 0.006658232987932061
812.0, 0.007224047510351335
813.0, 0.015646433902145318
814.0, 0.008676633164084213
815.0, 0.007904616726280666
816.0, 0.012111219576782517
817.0, 0.011986030193760525
818.0, 0.011481729712163189
819.0, 0.013830983958999904
820.0, 0.01262861210589361
821.0, 0.010655955691902448
822.0, 0.016436596519717708
823.0, 0.0133439851224718
824.0, 0.011961265659434069
825.0, 0.014329313297476921
826.0, 0.015335895719938143
827.0, 0.015056914594371636
828.0, 0.01299149760147044
829.0, 0.01339523304325225
830.0, 0.0109870842961707
831.0, 0.011706279662824946
832.0, 0.018873104080834004
833.0, 0.022686969884335967
834.0, 0.01736738394432495
835.0, 0.013839576355767259
836.0, 0.01476022471771652
837.0, 0.014562041824653293
838.0, 0.01651978857037492
839.0, 0.01616858692003988
840.0, 0.014125544126482177
841.0, 0.012431486927563198
842.0, 0.012666212667764446
843.0, 0.019555313475391644
844.0, 0.013174152207029331
845.0, 0.018017141590164265
846.0, 0.019945907276134985
847.0, 0.01941992690922297
848.0, 0.0257032313645896
849.0, 0.019061452988484853
850.0, 0.016230715462162985
851.0, 0.015614620399270841
852.0, 0.01760087595982534
853.0, 0.020282864346008636
854.0, 0.022487967497063693
855.0, 0.02230830115503893
856.0, 0.017148789168592696
857.0, 0.01891811511061781
858.0, 0.01561078160389762
859.0, 0.01791175960791571
860.0, 0.010759628498656143
861.0, 0.01328346584856235
862.0, 0.025512776266029512
863.0, 0.020407762455008097
864.0, 0.01688628633113822
865.0, 0.018700013735563566
866.0, 0.01714779200059017
867.0, 0.017501576439212532
868.0, 0.01629027838334736
869.0, 0.013990826697805115
870.0, 0.015257588958695884
871.0, 0.019224994108345966
872.0, 0.01702198193437175
873.0, 0.013884804429348313
874.0, 0.010034222004061002
875.0, 0.012388797963073241
876.0, 0.017926423704547605
877.0, 0.017471806813076876
878.0, 0.013122558919333074
879.0, 0.013633231305322306
880.0, 0.006068989223779337
881.0, 0.002584888088468402
882.0, 0.011013630104724382
883.0, 0.01690247616192491
884.0, 0.01355472932799726
885.0, 0.012443389619296466
886.0, 0.0065879689198835535
887.0, 0.006598036817924294
888.0, 0.006043121410719925
889.0, 0.01151292851830131
890.0, 0.008304645482127844
891.0, 0.005661056042624761
892.0, 0.002812245822053768
893.0, 0.003344012035300476
894.0, 0.004046005290317362
895.0, 0.005726612342511564
896.0, 0.001965378552599318
897.0, 0.0026600795258185555
898.0, 0.006049237763711471
899.0, 0.007327201812805331
900.0, 0.002229664131246199
901.0, 0.004049219199713579
902.0, 0.0045759512011917265
903.0, 0.0016172788986817234
904.0, 0.0029202622856315907
905.0, 0.006826475870448979
906.0, 0.00453845868376279
907.0, 0.0051242486395435775
908.0, 0.0017123832167430142
909.0, 0.0020540740314287896
910.0, 0.0020537627045283087
911.0, 0.001876653980902298
912.0, 0.001727168673072439
913.0, 0.0014414455343131497
914.0, 0.001327764929218386
915.0, 0.0014783077385722
916.0, 0.004774800961130707
917.0, 0.005842398392211937
918.0, 0.0027755569594270927
919.0, 0.002358243698349491
920.0, 0.00706919398951147
921.0, 0.0015439565113512606
922.0, 0.001984099998696388
923.0, 0.00760931284283221
924.0, 0.0168958912235882
925.0, 0.023465139059178856
926.0, 0.008786459690241537
927.0, 0.0013694082389708222
928.0, 0.0032770819761380704
929.0, 0.005111054697873419
930.0, 0.004720931843993343
931.0, 0.006115664285421278
932.0, 0.006127506279393987
933.0, 0.005687486184179949
934.0, 0.004343668737115309
935.0, 0.0023171595245509583
936.0, 0.013832435559738182
937.0, 0.004139327168349239
938.0, 0.0018799926061089992
939.0, 0.002777932782232791
940.0, 0.004797920713481779
941.0, 0.005640913744953813
942.0, 0.005056513121635536
943.0, 0.0031689836726100785
944.0, 0.0017153966644416466
945.0, 0.0016285952105990105
946.0, 0.0031891289357194683
947.0, 0.0016469474124705186
948.0, 0.006062102893567892
949.0, 0.0026916680290898012
950.0, 0.0021561289499758035
951.0, 0.005044083277427045
952.0, 0.011236293183805278
953.0, 0.011852443014025464
954.0, 0.00750689343944879
955.0, 0.0033417513354534784
956.0, 0.0035468867291840516
957.0, 0.002899569719439054
958.0, 0.005518409763754575
959.0, 0.0051600932311913665
960.0, 0.005436766313202015
961.0, 0.0026046969511904607
962.0, 0.001629018003986893
963.0, 0.0074227196595050655
964.0, 0.007260371109744623
965.0, 0.0043823750578728
966.0, 0.004637744956487505
967.0, 0.00780358494945684
968.0, 0.005963364958167893
969.0, 0.004254684719993032
970.0, 0.0045598812306758395
971.0, 0.005499730257806885
972.0, 0.0071068704561936145
973.0, 0.006060702557051005
974.0, 0.0035027199242510416
975.0, 0.002064700657581018
976.0, 0.006002897276698053
977.0, 0.00562537492791044
978.0, 0.003821672075605956
979.0, 0.002471116214670227
980.0, 0.006184931827710966
981.0, 0.010585962999680171
982.0, 0.005837107149288061
983.0, 0.008112444663259099
984.0, 0.004422038448573847
985.0, 0.007040037627643755
986.0, 0.006988626449989797
987.0, 0.006761590308522964
988.0, 0.013869543321540743
989.0, 0.012530755391755518
990.0, 0.004179844345816499
991.0, 0.005696607495888559
992.0, 0.00602903874333725
993.0, 0.002920522938674307
994.0, 0.005255467971078764
995.0, 0.008189042401904071
996.0, 0.006443908033414156
997.0, 0.00627032648826514
998.0, 0.005191355679274449
999.0, 0.004305013845145933
1000.0, 0.0119970130270244
1001.0, 0.009974252680514422
1002.0, 0.00907581519325996
1003.0, 0.005700931274503579
1004.0, 0.0031048185300410714
1005.0, 0.006881654990448268
1006.0, 0.006978932911420492
1007.0, 0.007297200770694928
1008.0, 0.006859517798037436
1009.0, 0.008993170994169856
1010.0, 0.007322681461704156
1011.0, 0.0055897639126653445
1012.0, 0.0061337748123643
1013.0, 0.007348972487443328
1014.0, 0.009912376444537572
1015.0, 0.00908618305722454
1016.0, 0.005883183023562718
1017.0, 0.004625793420757887
1018.0, 0.006572196339290175
1019.0, 0.004453713963324003
1020.0, 0.007422805870220588
1021.0, 0.011033257632988215
1022.0, 0.010925990302534175
1023.0, 0.01423214843134618
1024.0, 0.010769808100364372
1025.0, 0.01117395324093429
1026.0, 0.007634232630989581
1027.0, 0.00959406422258393
1028.0, 0.01306698736667232
1029.0, 0.010529192226750072
1030.0, 0.013646769863276155
1031.0, 0.013505041224660206
1032.0, 0.012422915033064082
1033.0, 0.014342124688601854
1034.0, 0.013983841300886278
1035.0, 0.00992789826331605
1036.0, 0.011842567451641037
1037.0, 0.013413126951588321
1038.0, 0.01598210642661728
1039.0, 0.015557711429472232
1040.0, 0.01847646789566494
1041.0, 0.013297864259459129
1042.0, 0.011926299830760784
1043.0, 0.010268989073367783
1044.0, 0.015224141348639671
1045.0, 0.013809299224479927
1046.0, 0.010661381987284436
1047.0, 0.014622445514387405
1048.0, 0.013619325094096524
1049.0, 0.008692116991739971
1050.0, 0.011071194097235247
1051.0, 0.012235444005024248
1052.0, 0.011398383738355559
1053.0, 0.012329283873334545
1054.0, 0.014189606387554475
1055.0, 0.011946404743330436
1056.0, 0.005044566870257381
1057.0, 0.010663377523340452
1058.0, 0.009691940725924634
1059.0, 0.00847017741362047
1060.0, 0.006230142651221653
1061.0, 0.007006501629375706
1062.0, 0.009209228418421398
1063.0, 0.008588790978515995
1064.0, 0.011860378459166904
1065.0, 0.0075960485633752555
1066.0, 0.009730529196030579
1067.0, 0.00629851359970952
1068.0, 0.009787435373117622
1069.0, 0.013005634193868876
1070.0, 0.012555287323859415
1071.0, 0.010266673722014391
1072.0, 0.008244357885819141
1073.0, 0.006738039486687832
1074.0, 0.005805389006726732
1075.0, 0.00570172570378163
1076.0, 0.0067978081630751825
1077.0, 0.0035013717100702136
1078.0, 0.0017400300552418105
1079.0, 0.002452919929560357
1080.0, 0.00547856168143927
1081.0, 0.011505914654941796
1082.0, 0.010477359947689032
1083.0, 0.006265481211899721
1084.0, 0.006229103371545126
1085.0, 0.009470026388639707
1086.0, 0.0027392250344353266
1087.0, 0.0016923430571021418
1088.0, 0.005304560604392489
1089.0, 0.004455783044935224
1090.0, 0.003810076725218479
1091.0, 0.007241300304555794
1092.0, 0.0053444656890730136
1093.0, 0.0016292825198355953
1094.0, 0.008396151557223194
1095.0, 0.004230441151385244
1096.0, 0.006373371889707838
1097.0, 0.009289961511752194
1098.0, 0.010350523283718977
1099.0, 0.006556302733023117
1100.0, 0.005666394654556349
1101.0, 0.010331108100549248
1102.0, 0.0065654863566560195
1103.0, 0.004895724925183686
1104.0, 0.005438042021723096
1105.0, 0.004326683178313595
1106.0, 0.006584323707109709
1107.0, 0.007861661884672657
1108.0, 0.0034663275865697953
1109.0, 0.004094836072566105
1110.0, 0.00964339412884933
1111.0, 0.007435836926594342
1112.0, 0.002152639874442196
1113.0, 0.008391825956926292
1114.0, 0.008915876302621294
1115.0, 0.007743346698996336
1116.0, 0.0040329901641578325
1117.0, 0.004407939226930921
1118.0, 0.007497716234491932
1119.0, 0.012052136981221071
1120.0, 0.011337466367092375
1121.0, 0.004965462952454487
1122.0, 0.0036123806645896794
1123.0, 0.0025782923113377206
1124.0, 0.010444828846380746
1125.0, 0.00873027076090066
1126.0, 0.00825176770834125
1127.0, 0.008395716167538031
1128.0, 0.005517276511603241
1129.0, 0.0022650795078554193
1130.0, 0.0025527270135226195
1131.0, 0.009393999995087927
1132.0, 0.005529075925084348
1133.0, 0.003225918503444051
1134.0, 0.00421544166294364
1135.0, 0.007725907008268047
1136.0, 0.007802740284811031
1137.0, 0.007867771899135166
1138.0, 0.006282449210857495
1139.0, 0.003643926098564934
1140.0, 0.004326881221783894
1141.0, 0.0027214653846526333
1142.0, 0.0023541448438895666
1143.0, 0.00560107210067631
1144.0, 0.009783745680883511
1145.0, 0.007393724075049439
1146.0, 0.005757008779965432
1147.0, 0.003096840445532118
1148.0, 0.0016256999550699196
1149.0, 0.006645582604318392
1150.0, 0.010559133151675866
1151.0, 0.004651032431267794
1152.0, 0.0037769733610449044
1153.0, 0.004413610748969428
1154.0, 0.005032947140108324
1155.0, 0.004391457945288648
1156.0, 0.005488680587786025
1157.0, 0.0034131493650179597
1158.0, 0.0026418668540815976
1159.0, 0.005451166059290778
1160.0, 0.008179243750235633
1161.0, 0.007772275852820135
1162.0, 0.00909676392872802
1163.0, 0.011024776653780155
1164.0, 0.011324696995608678
1165.0, 0.010380790554786449
1166.0, 0.010207155785396016
1167.0, 0.007933619169374963
1168.0, 0.006738674684936296
1169.0, 0.011305558284888955
1170.0, 0.015329932491191084
1171.0, 0.009361992459682908
1172.0, 0.003957248676279918
1173.0, 0.002762602402395981
1174.0, 0.003463549839604522
1175.0, 0.012876921704444523
1176.0, 0.006998191785770692
1177.0, 0.007470205097802047
1178.0, 0.0040455792215524245
1179.0, 0.005739851719438631
1180.0, 0.009930085155100698
1181.0, 0.017444836905330083
1182.0, 0.013286311841369384
1183.0, 0.00968262619782175
1184.0, 0.003522733869617611
1185.0, 0.008517359044420532
1186.0, 0.014008020921998808
1187.0, 0.011580478590230491
1188.0, 0.007085666888373624
1189.0, 0.009336475760769243
1190.0, 0.012920637811811806
1191.0, 0.010245328064363728
1192.0, 0.00854396245245259
1193.0, 0.01370656365458243
1194.0, 0.011073871567287922
1195.0, 0.006085169252767057
1196.0, 0.006315314542391056
1197.0, 0.011546583581704527
1198.0, 0.016060461037091227
1199.0, 0.014442688919149044
1200.0, 0.007885769901833085
1201.0, 0.008847436221312368
1202.0, 0.00912625883418461
1203.0, 0.013072076346440328
1204.0, 0.015413464316486061
1205.0, 0.009288046816969956
1206.0, 0.010210215466774593
1207.0, 0.012996074213115815
1208.0, 0.01274519096818313
1209.0, 0.015396882735679934
1210.0, 0.009106670809154657
1211.0, 0.004285393429006711
1212.0, 0.007159387685726965
1213.0, 0.008491017478176675
1214.0, 0.009847306436287059
1215.0, 0.01312962093816818
1216.0, 0.0056444284212401235
1217.0, 0.004458179080664821
1218.0, 0.010522870407748785
1219.0, 0.01456987287503477
1220.0, 0.013119882488330523
1221.0, 0.009462168212802106
1222.0, 0.011565592969920904
1223.0, 0.015434445627732269
1224.0, 0.013242077770028204
1225.0, 0.011178416044041834
1226.0, 0.012953901740640797
1227.0, 0.009595485279602092
1228.0, 0.006346829459863979
1229.0, 0.014984408766946867
1230.0, 0.0076211976914108215
1231.0, 0.01070801539971263
1232.0, 0.009876701947376988
1233.0, 0.011596898763058902
1234.0, 0.009609671785673833
1235.0, 0.008845224127918274
1236.0, 0.009687076148353785
1237.0, 0.004628666796556976
1238.0, 0.011575021078590335
1239.0, 0.014739013334422492
1240.0, 0.01404788582914343
1241.0, 0.0069629941397970786
1242.0, 0.002470093581501844
1243.0, 0.004799814971144091
1244.0, 0.006456396117409185
1245.0, 0.010503325390819418
1246.0, 0.008140849008926731
1247.0, 0.005815810980607017
1248.0, 0.008372383712768987
1249.0, 0.006478872214558919
1250.0, 0.006955043628546769
1251.0, 0.0017446537800241855
1252.0, 0.008839051557362466
1253.0, 0.003847048784990234
1254.0, 0.003550697242826536
1255.0, 0.0022948319353865054
1256.0, 0.001955824060574959
1257.0, 0.0026832103655150042
1258.0, 0.003257293999117992
1259.0, 0.005256823793638591
1260.0, 0.013832681337207501
1261.0, 0.011471181815453965
1262.0, 0.005741325807704287
1263.0, 0.002841227481139252
1264.0, 0.011365992530498973
1265.0, 0.007346830134847548
1266.0, 0.0068593112036706575
1267.0, 0.0031370317380426285
1268.0, 0.004185700879988336
1269.0, 0.009462340740867992
1270.0, 0.010462108660462693
1271.0, 0.01139480461941139
1272.0, 0.00918949887213171
1273.0, 0.006542585800610254
1274.0, 0.014377846337913579
1275.0, 0.009490483663291645
1276.0, 0.004881985183842776
1277.0, 0.006565407692330864
1278.0, 0.010766148727089295
1279.0, 0.011033073729876674
1280.0, 0.002911357365474373
1281.0, 0.005970834380538825
1282.0, 0.012553778285162284
1283.0, 0.011847804463901093
1284.0, 0.0061999942297706005
1285.0, 0.0028299634350911914
1286.0, 0.007555088295352354
1287.0, 0.012775734437129989
1288.0, 0.0069919625557196925
1289.0, 0.006115105263448585
1290.0, 0.002921724995838204
1291.0, 0.0072015901372583895
1292.0, 0.0054333188085150695
1293.0, 0.006942259567563645
1294.0, 0.005793225984021855
1295.0, 0.005891509360984006
1296.0, 0.007933351071312251
1297.0, 0.004911763602509646
1298.0, 0.006490160410970292
1299.0, 0.01130278191077368
1300.0, 0.008946799345080568
1301.0, 0.008612054751541661
1302.0, 0.0023021993624262526
1303.0, 0.009616432269588866
1304.0, 0.013495416210024145
1305.0, 0.0033981256696158937
1306.0, 0.0023142913831740042
1307.0, 0.001528604129145779
1308.0, 0.003185639583855909
1309.0, 0.006784856330456715
1310.0, 0.005128635028962891
1311.0, 0.0043569637071936675
1312.0, 0.008251754058286638
1313.0, 0.004593499547992185
1314.0, 0.0025240668192453267
1315.0, 0.007699213745535513
1316.0, 0.0072997377393202905
1317.0, 0.00498755084552901
1318.0, 0.007861674083428456
1319.0, 0.004510205980571979
1320.0, 0.0032683442864222356
1321.0, 0.006320344195411476
1322.0, 0.009557202288312838
1323.0, 0.010904446516021314
1324.0, 0.009440494376999318
1325.0, 0.007444385626549554
1326.0, 0.00860237160649976
1327.0, 0.008175323654487037
1328.0, 0.0036899330989873967
1329.0, 0.008624957740590347
1330.0, 0.0074602678969960074
1331.0, 0.00456259766704048
1332.0, 0.008519939728524396
1333.0, 0.007836879288070604
1334.0, 0.006051088172586033
1335.0, 0.008763824731471831
1336.0, 0.009246536293713362
1337.0, 0.007007324241310066
1338.0, 0.01208357815701794
1339.0, 0.008170292177536162
1340.0, 0.005577878343017575
1341.0, 0.009334917712898119
1342.0, 0.004312600662164925
1343.0, 0.0031729883559516174
1344.0, 0.0014506082485406043
1345.0, 0.0058529295552511235
1346.0, 0.01990218005283832
1347.0, 0.01095509763385959
1348.0, 0.00794105844260322
1349.0, 0.004288625903235001
1350.0, 0.0028713546774695987
1351.0, 0.006060272482644609
1352.0, 0.006629864565998858
1353.0, 0.002883654788883245
1354.0, 0.005124280288790426
1355.0, 0.01314026237198493
1356.0, 0.01780171194470001
1357.0, 0.013798245562925677
1358.0, 0.006335919202335254
1359.0, 0.007994342007743294
1360.0, 0.020319136397603337
1361.0, 0.021219512185479582
1362.0, 0.013664952874025115
1363.0, 0.01080763946311001
1364.0, 0.015196579847954816
1365.0, 0.007871312198979335
1366.0, 0.007929261526604845
1367.0, 0.008701629530708264
1368.0, 0.008371634156085297
1369.0, 0.0078023004235562255
1370.0, 0.009368226730055374
1371.0, 0.007423812247982319
1372.0, 0.0076782772791104195
1373.0, 0.013666753892655923
1374.0, 0.006357864901734117
1375.0, 0.0015733003589736224
1376.0, 0.007895767370771313
1377.0, 0.010671957387851237
1378.0, 0.00858184427725544
1379.0, 0.01248967541234837
1380.0, 0.013882478502897729
1381.0, 0.007815921197607873
1382.0, 0.010338288049085318
1383.0, 0.007887183074767223
1384.0, 0.006362074119767394
1385.0, 0.00784393497403678
1386.0, 0.012531808935097644
1387.0, 0.017294707481579255
1388.0, 0.01047317514677993
1389.0, 0.003611152748005236
1390.0, 0.009041959036399125
1391.0, 0.014940093883038102
1392.0, 0.01370214476307495
1393.0, 0.004536501033745156
1394.0, 0.015129338461129576
1395.0, 0.010494845158213206
1396.0, 0.006792038005941194
1397.0, 0.012540829934800083
1398.0, 0.006431215786446451
1399.0, 0.012886367093366508
1400.0, 0.016249261027399632
1401.0, 0.008198106616093078
1402.0, 0.012738191150119862
1403.0, 0.015055286285229558
1404.0, 0.005193596876216313
1405.0, 0.005379863800717477
1406.0, 0.011270674882941244
1407.0, 0.007997257961515021
1408.0, 0.008761971814956478
1409.0, 0.012867401793260326
1410.0, 0.0021066166616575256
1411.0, 0.0030397628974947197
1412.0, 0.007434120157609561
1413.0, 0.011109468616076286
1414.0, 0.011741616783330085
1415.0, 0.00785835792416476
1416.0, 0.00963865742248323
1417.0, 0.013886708960888524
1418.0, 0.008658364034000839
1419.0, 0.007460480728025855
1420.0, 0.007340315528431417
1421.0, 0.005309639484635318
1422.0, 0.011352224182993323
1423.0, 0.0172003044465415
1424.0, 0.01763015801438295
1425.0, 0.00696988340596862
1426.0, 0.0032618243258899955
1427.0, 0.008311456182412948
1428.0, 0.007712956538209756
1429.0, 0.004354759850901433
1430.0, 0.00305118889567882
1431.0, 0.008145183589638512
1432.0, 0.008227152324912905
1433.0, 0.007932316138263996
1434.0, 0.005568063325892667
1435.0, 0.01078524803842483
1436.0, 0.0029599697388705687
1437.0, 0.004412184220162175
1438.0, 0.009314186240805433
1439.0, 0.010859824094021786
1440.0, 0.008252228888001171
1441.0, 0.004645573762510606
1442.0, 0.00533247222187398
1443.0, 0.0068394106786751835
1444.0, 0.008783502187896032
1445.0, 0.0026130262098812123
1446.0, 0.001602196059805056
1447.0, 0.015037742425125067
1448.0, 0.015248145088009644
1449.0, 0.013802112294019068
1450.0, 0.011455130135273288
1451.0, 0.012369926144914422
1452.0, 0.012251669209591915
1453.0, 0.015719879181891317
1454.0, 0.012105402123813738
1455.0, 0.0035556811603178096
1456.0, 0.008556855909996228
1457.0, 0.005519381463833352
1458.0, 0.005102120189391048
1459.0, 0.0019476860894019185
1460.0, 0.007952836289461989
1461.0, 0.006835750188929272
1462.0, 0.0068658979043428135
1463.0, 0.012067187304350623
1464.0, 0.012588579043102054
1465.0, 0.012249540036359271
1466.0, 0.00986478819507255
1467.0, 0.007436602016098992
1468.0, 0.010709470542643502
1469.0, 0.012990750181754574
1470.0, 0.009263623769877138
1471.0, 0.006250781200957373
1472.0, 0.0029151959081856037
1473.0, 0.0026417846203458913
1474.0, 0.009767833815706527
1475.0, 0.005129083323441086
1476.0, 0.009175769439674575
1477.0, 0.00362980429296872
1478.0, 0.0033347793040941365
1479.0, 0.004257855443287223
1480.0, 0.006156676214534786
1481.0, 0.005065813703666345
1482.0, 0.0032719251900717927
1483.0, 0.007714732712391571
1484.0, 0.008726367058593486
1485.0, 0.005884636754419051
1486.0, 0.0026772148874268905
1487.0, 0.002485957730323287
1488.0, 0.002156873149985052
1489.0, 0.00509541975787295
1490.0, 0.005947384762798625
1491.0, 0.01076288563971841
1492.0, 0.008926023769368218
1493.0, 0.005443197780855388
1494.0, 0.011226337405839656
1495.0, 0.007661966993146678
1496.0, 0.004086898016450918
1497.0, 0.0022838938050137843
1498.0, 0.0044717142485723145
1499.0, 0.01456943977997098
1500.0, 0.0116098053607423
1501.0, 0.008602699090146911
1502.0, 0.005267842937812567
1503.0, 0.0031634120843286235
1504.0, 0.012904486894163235
1505.0, 0.010895927351961435
1506.0, 0.008926980504681364
1507.0, 0.005898296958693653
1508.0, 0.0038888309802761357
1509.0, 0.0027827642410233337
1510.0, 0.005428854436435833
1511.0, 0.007132214791836844
1512.0, 0.008701175293747154
1513.0, 0.01202268892305548
1514.0, 0.0067033775255025425
1515.0, 0.00332961118538702
1516.0, 0.0021562166664244463
1517.0, 0.0017900022442315442
1518.0, 0.0020251069607251154
1519.0, 0.0024846863096015443
1520.0, 0.0028907679972794992
1521.0, 0.0022410928733409595
1522.0, 0.005129700949204658
1523.0, 0.009241836065942548
1524.0, 0.005905013070124002
1525.0, 0.0020722029118170875
1526.0, 0.0074082212963813236
1527.0, 0.0040045988729430085
1528.0, 0.0021896757165135016
1529.0, 0.00543190236035175
1530.0, 0.0075037311037652885
1531.0, 0.011510724063539911
1532.0, 0.007299740249674913
1533.0, 0.0067546678228548535
1534.0, 0.009735815336722067
1535.0, 0.01232804589571817
1536.0, 0.011275575115396952
1537.0, 0.015940974692386558
1538.0, 0.01828549848247432
1539.0, 0.013590220411549475
1540.0, 0.016063763055995935
1541.0, 0.02697777262403332
1542.0, 0.024817265021487293
1543.0, 0.02650861509570299
1544.0, 0.02821220608996422
1545.0, 0.025488284978048267
1546.0, 0.032182096015292955
1547.0, 0.03998099971307591
1548.0, 0.045729861480794096
1549.0, 0.05316096067334629
1550.0, 0.059359079499945
1551.0, 0.060112621590764664
1552.0, 0.06233031052672343
1553.0, 0.08241155350318631
1554.0, 0.09318231177759823
1555.0, 0.11465557305196647
1556.0, 0.12292129050068397
1557.0, 0.12156096289139068
1558.0, 0.11407153760223768
1559.0, 0.12028732568304838
1560.0, 0.1382790171828494
1561.0, 0.15254821120838907
1562.0, 0.17258126450926148
1563.0, 0.20219216954468805
1564.0, 0.22803165126867153
1565.0, 0.2549313494339216
1566.0, 0.2908052654645345
1567.0, 0.33175113693792707
1568.0, 0.3752581191984088
1569.0, 0.4171806105284678
1570.0, 0.4692001263741785
1571.0, 0.5260402943799996
1572.0, 0.580974257868168
1573.0, 0.63930945783936
1574.0, 0.7062836413082033
1575.0, 0.7620381123299581
1576.0, 0.8334470972043225
1577.0, 0.8858625764339362
1578.0, 0.9440709377799487
1579.0, 0.9873172505907302
1580.0, 0.9999808389314313
1581.0, 0.9885831038138803
1582.0, 0.9496903367190234
1583.0, 0.8746922033496127
1584.0, 0.7889145180622986
1585.0, 0.706781654738989
1586.0, 0.6011756241918957
1587.0, 0.501482807271811
1588.0, 0.4388518849848296
1589.0, 0.38983549890941555
1590.0, 0.33830458815484876
1591.0, 0.2969793479204392
1592.0, 0.24580474360984736
1593.0, 0.21939030333045897
1594.0, 0.18647331496809136
1595.0, 0.16727121425603145
1596.0, 0.14939696814314007
1597.0, 0.1415652765506232
1598.0, 0.11904634721187259
1599.0, 0.10400396739488374
