30, 0.0
31, 0.0
32, 0.0
33, 0.0
34, 0.0
35, 0.0
36, 0.0
37, 0.0
38, 0.0
39, 0.0
40, 0.0
41, 0.0
42, 0.0
43, 0.0
44, 0.0
45, 0.0
46, 0.0
47, 0.0
48, 0.0
49, 0.0
50, 0.0
51, 0.0
52, 0.0
53, 0.0
54, 0.0
55, 0.0
56, 0.0
57, 0.0
58, 0.0
59, 0.0
60, 0.0
61, 0.0
62, 0.0
63, 0.0
64, 0.0
65, 0.0
66, 0.0
67, 0.0
68, 0.0
69, 0.0
70, 0.0
71, 0.0
72, 0.0
73, 0.0
74, 0.0
75, 0.0
76, 0.0
77, 0.0
78, 0.0
79, 0.0
80, 0.0
81, 0.0
82, 0.0
83, 0.0
84, 0.0
85, 0.0
86, 0.0
87, 0.0
88, 0.0
89, 0.0
90, 0.0
91, 0.0
92, 0.0
93, 0.0
94, 0.0
95, 0.0
96, 0.0
97, 0.0
98, 0.0
99, 0.0
100, 0.0
101, 0.0
102, 0.0
103, 0.0
104, 0.0
105, 0.0
106, 0.0
107, 0.0
108, 0.0
109, 0.0
110, 0.0
111, 0.0
112, 0.0
113, 0.0
114, 0.0
115, 0.0
116, 0.0
117, 0.0
118, 0.0
119, 0.0
120, 0.0
121, 0.0
122, 0.0
123, 0.0
124, 0.0
125, 0.0
126, 0.0
127, 0.0
128, 0.0
129, 0.0
130, 0.0
131, 0.0
132, 0.0
133, 0.0
134, 0.0
135, 0.0
136, 0.0
137, 0.0
138, 0.0
139, 0.0
140, 0.0
141, 0.0
142, 0.0
143, 0.0
144, 0.0
145, 0.0
146, 0.0
147, 0.0
148, 0.0
149, 0.0
150, 0.0
151, 0.0
152, 0.0
153, 0.0
154, 0.0
155, 0.0
156, 0.0
157, 0.0
158, 0.0
159, 0.0
160, 0.0
161, 0.0
162, 0.0
163, 0.0
164, 0.0
165, 0.0
166, 0.0
167.0, 5.461561190873935e-05
168.0, 0.00032006681692812284
169.0, 0.0012959851976038015
170.0, 0.002685748054555885
171.0, 0.002512803026171032
172.0, 0.000718125206894334
173.0, 6.636187930653454e-05
174.0, 8.556831023203494e-05
175.0, 0.0006944999667038511
176.0, 0.00047568160868492325
177.0, 0.0010248718795189615
178.0, 0.0026389565351647706
179.0, 0.005382689878398995
180.0, 0.0068462653335360875
181.0, 0.010096548880129452
182.0, 0.014463365690992058
183.0, 0.018158353968105143
184.0, 0.02048244391315
185.0, 0.023753635138424076
186.0, 0.02764399175209033
187.0, 0.03282196605516516
188.0, 0.03885837726061984
189.0, 0.043332021751033525
190.0, 0.04942229344271485
191.0, 0.055733294930625475
192.0, 0.06187267344169373
193.0, 0.06819092954362875
194.0, 0.07504633824452077
195.0, 0.08172948080267675
196.0, 0.08971456228435477
197.0, 0.09775768197600188
198.0, 0.10293760507785761
199.0, 0.11060888261765715
200.0, 0.11910903127396644
201.0, 0.12682581911273827
202.0, 0.1338579674035293
203.0, 0.1410072688362499
204.0, 0.1478974387526187
205.0, 0.15409591477936588
206.0, 0.15980632546489643
207.0, 0.16538431069500922
208.0, 0.17086356973982111
209.0, 0.17753720021209768
210.0, 0.18356524362577237
211.0, 0.18774068689472592
212.0, 0.1904405466807456
213.0, 0.19498292282125326
214.0, 0.19904585141690634
215.0, 0.20305373809509206
216.0, 0.20843834017490082
217.0, 0.20930549009176475
218.0, 0.2103536935643891
219.0, 0.21374903245276036
220.0, 0.2167085933441991
221.0, 0.2129281142543528
222.0, 0.2109991117210483
223.0, 0.2092848579610208
224.0, 0.20660255488443316
225.0, 0.20238132468887088
226.0, 0.19638335829135745
227.0, 0.19150926970538992
228.0, 0.18547992287316536
229.0, 0.17743180648644227
230.0, 0.16908212697259556
231.0, 0.16296268428846317
232.0, 0.1564694202642519
233.0, 0.14846849316733032
234.0, 0.140633804584736
235.0, 0.13424606983327855
236.0, 0.12679274646791652
237.0, 0.11890517907975913
238.0, 0.11240900132848383
239.0, 0.10710397045375149
240.0, 0.10087985433904241
241.0, 0.09299060019699376
242.0, 0.08649906060132032
243.0, 0.0807658749762049
244.0, 0.07460198135746687
245.0, 0.06954832804841528
246.0, 0.06356765292102953
247.0, 0.05770775578673963
248.0, 0.052679760605355966
249.0, 0.04800052021338655
250.0, 0.041676331380807716
251.0, 0.03495129303192536
252.0, 0.029462247399355733
253.0, 0.025857641937909473
254.0, 0.022987336753751038
255.0, 0.018544283797479067
256.0, 0.01602474654280954
257.0, 0.013153755012349555
258.0, 0.009705982445091618
259.0, 0.008253303488353446
260.0, 0.005212176597872516
261.0, 0.0028809905804765244
262.0, 0.002080498967510446
263.0, 0.0014613937866655249
264.0, 0.00108793625480475
265.0, 0.0025360925654694818
266.0, 0.003957214325727706
267.0, 0.004364969323431477
268.0, 0.0033128685858073857
269.0, 0.004384176232408421
270.0, 0.0036932177179294463
271.0, 0.002978225451842893
272.0, 0.0027453682566735593
273.0, 0.002499618698602916
274.0, 0.002259042684579934
275.0, 0.0006690711693163264
276.0, 0.002436218247112773
277.0, 0.0048342153225909654
278.0, 0.007640340156272984
279.0, 0.007669384501763668
280.0, 0.009040359326098292
281.0, 0.01103478008244483
282.0, 0.01334923451181383
283.0, 0.016992829888026407
284.0, 0.020013039945301063
285.0, 0.023253246486790544
286.0, 0.026915060052938356
287.0, 0.031092400103653144
288.0, 0.035809528364574614
289.0, 0.03979465212924908
290.0, 0.044721860357668
291.0, 0.048774671215847346
292.0, 0.051034968579464254
293.0, 0.05380671940405031
294.0, 0.05670592966058783
295.0, 0.058727188886697916
296.0, 0.0606654662257317
297.0, 0.06273342809580255
298.0, 0.0641540994641145
299.0, 0.06680329568672776
300.0, 0.06768486224718384
301.0, 0.0681336187484286
302.0, 0.06941741100796239
303.0, 0.07050769424558541
304.0, 0.06810903292166018
305.0, 0.06737595637846977
306.0, 0.06776092894207536
307.0, 0.06676034798106871
308.0, 0.06287810525714628
309.0, 0.06197340666120823
310.0, 0.060280812791004
311.0, 0.05771108998449658
312.0, 0.05504719656551196
313.0, 0.051461232563446486
314.0, 0.04863094639121111
315.0, 0.04527784461662623
316.0, 0.04134544882012646
317.0, 0.03793742169927007
318.0, 0.03608807075636285
319.0, 0.03436725842818149
320.0, 0.03003278533525345
321.0, 0.026256585128353577
322.0, 0.02462085905768079
323.0, 0.02158184366828024
324.0, 0.020086015701855517
325.0, 0.018153172971363467
326.0, 0.016181047219528316
327.0, 0.01462713932221519
328.0, 0.013189400456166655
329.0, 0.011550012653519867
330.0, 0.011840482106270237
331.0, 0.011197826126696005
332.0, 0.008817361023936637
333.0, 0.00922683796271441
334.0, 0.008056570310339978
335.0, 0.008205214250256889
336.0, 0.009491082782282913
337.0, 0.010166885673228617
338.0, 0.009960142047433618
339.0, 0.010966795614568503
340.0, 0.011172970654318786
341.0, 0.011950802978459216
342.0, 0.013786056135999048
343.0, 0.01547418263321243
344.0, 0.01566532849884031
345.0, 0.0167593637080414
346.0, 0.020278385358591552
347.0, 0.023125285466653177
348.0, 0.022287180598820382
349.0, 0.02438291698673339
350.0, 0.025511268472262937
351.0, 0.026444160868949823
352.0, 0.028575278397624172
353.0, 0.03168257116174624
354.0, 0.03291654755536646
355.0, 0.03310291623744656
356.0, 0.03318517088396237
357.0, 0.034167278063593605
358.0, 0.03610997491650788
359.0, 0.03748892214753881
360.0, 0.03711431440266549
361.0, 0.03817197212984473
362.0, 0.039214233462035494
363.0, 0.03948208023670852
364.0, 0.043131509428706354
365.0, 0.04180298204091861
366.0, 0.041816480920086364
367.0, 0.044121336628193716
368.0, 0.04713014907483627
369.0, 0.048634883027235565
370.0, 0.0491742489890541
371.0, 0.050174877969658215
372.0, 0.05155254323752797
373.0, 0.05267583914625299
374.0, 0.0536283190108479
375.0, 0.054999301328216225
376.0, 0.05591892591328546
377.0, 0.054726885840632546
378.0, 0.053303942374928734
379.0, 0.05385371106600544
380.0, 0.05244432488335768
381.0, 0.051337305410543356
382.0, 0.049165464972145745
383.0, 0.046734876658240866
384.0, 0.04538779689076933
385.0, 0.04409561252367517
386.0, 0.04205510069974877
387.0, 0.04061065988372771
388.0, 0.03905690255491922
389.0, 0.03641981275147024
390.0, 0.03354030525617589
391.0, 0.032443913202667686
392.0, 0.030934690584605247
393.0, 0.028339185674762027
394.0, 0.026236605521445664
395.0, 0.02555578185177631
396.0, 0.023799223244380368
397.0, 0.022820865448486338
398.0, 0.02096555231459462
399.0, 0.020034648374494122
400.0, 0.020282548154068793
401.0, 0.01762978955088515
402.0, 0.01704925333724858
403.0, 0.01632923639075162
404.0, 0.015675158181453507
405.0, 0.015918676622200246
406.0, 0.01645204696061708
407.0, 0.015427482732674783
408.0, 0.01424935290372742
409.0, 0.014852285575165576
410.0, 0.015152962901551702
411.0, 0.01364584234832859
412.0, 0.01249913958062887
413.0, 0.01101482249298948
414.0, 0.009747203857042247
415.0, 0.008291218726728257
416.0, 0.006762092504551603
417.0, 0.005891062957267276
418.0, 0.004694153888062612
419.0, 0.0033010767317055985
420.0, 0.0029027605262343125
421.0, 0.0022110630530624386
422.0, 0.0005383769316857149
423.0, 0.0004084842240166022
424.0, 0.0007979654711344747
425.0, 0.00025493804304044715
426.0, 0.0002416833576890752
427.0, 3.428676239041269e-05
428.0, 0.0004949163241229316
429.0, 0.0017862001246446858
430.0, 0.0009912833286291986
431.0, 5.204221796298326e-05
432.0, 1.8000414497544446e-05
433.0, 0.0003823485072441315
434.0, 0.0005611551977199752
435.0, 0.000677018803702603
436.0, 0.0010992716200684894
437.0, 0.0012610671576335872
438.0, 0.0014377118318656022
439.0, 0.0006931759757979343
440.0, 0.000672646893051267
441.0, 0.0008035813209697464
442.0, 0.00099516221150943
443.0, 0.0010503459167439653
444.0, 0.0008220249044773368
445.0, 0.0005757158790345844
446.0, 0.00057635997228791
447.0, 0.0008047362329541533
448.0, 0.0008858973861343924
449.0, 0.0007045343250039198
450.0, 0.00044384024779342763
451.0, 0.00022414439031146518
452.0, 0.00065002176491043
453.0, 0.000670693161273732
454.0, 0.0007817266830663302
455.0, 0.0012213310463777018
456.0, 0.0014428530004624723
457.0, 0.00033115265124936203
458.0, 0.0021100672461360904
459.0, 0.003265152323632569
460.0, 0.0031442125666667816
461.0, 0.003609521301475519
462.0, 0.004342921529703342
463.0, 0.004244533553935113
464.0, 0.004563342919347321
465.0, 0.005652971476135729
466.0, 0.007243826812555437
467.0, 0.008730643812244192
468.0, 0.009109400998285977
469.0, 0.009143320783803003
470.0, 0.010407426756998581
471.0, 0.012306661800636363
472.0, 0.013813944538626772
473.0, 0.014656549364684976
474.0, 0.01569375147116855
475.0, 0.016370259672613446
476.0, 0.01827933520889065
477.0, 0.01992356053567044
478.0, 0.019880844194360967
479.0, 0.020358053394438247
480.0, 0.019816536492496352
481.0, 0.019980229352609735
482.0, 0.019132864214416925
483.0, 0.017771939292668158
484.0, 0.017125186628355597
485.0, 0.015232720527758245
486.0, 0.013176920732759424
487.0, 0.01116062255809717
488.0, 0.01069674932303597
489.0, 0.010983199978444822
490.0, 0.009375889961082556
491.0, 0.007167450744913354
492.0, 0.007482198906068307
493.0, 0.007138815248175306
494.0, 0.006218690527827825
495.0, 0.005742540660237073
496.0, 0.005383801835376566
497.0, 0.0037427298632381934
498.0, 0.0030378411208378505
499.0, 0.00339256203108309
500.0, 0.0037500928796714785
501.0, 0.0032903234944620585
502.0, 0.002384357723701232
503.0, 0.002963800628608313
504.0, 0.002605939943621607
505.0, 0.0018767396293893324
506.0, 0.0005114790214184828
507.0, 0.0006093809656566074
508.0, 0.0008165719801373195
509.0, 0.001453780146048411
510.0, 0.0007644702493284365
511.0, 0.0015309211025367848
512.0, 0.0021295836537455074
513.0, 0.0017290580960440311
514.0, 0.002760164230616362
515.0, 0.002170081825007451
516.0, 0.0015202178429835705
517.0, 0.0015194501853107955
518.0, 0.0028067391532244647
519.0, 0.004005706782744805
520.0, 0.0032710714664065305
521.0, 0.0032253032854560365
522.0, 0.004320136304908054
523.0, 0.004928558893235136
524.0, 0.004929643896276558
525.0, 0.005395566542656231
526.0, 0.006976090200564753
527.0, 0.006773668480922951
528.0, 0.006920278342407989
529.0, 0.006684983268232263
530.0, 0.006880228647961918
531.0, 0.007859965466716145
532.0, 0.008588596870997755
533.0, 0.008798622445855806
534.0, 0.00821791615672114
535.0, 0.008423565658637252
536.0, 0.008290970584930822
537.0, 0.007623986575049809
538.0, 0.007917793718396992
539.0, 0.009347338919668638
540.0, 0.008168695348789485
541.0, 0.007723416661996221
542.0, 0.007508709404026757
543.0, 0.006884696346242312
544.0, 0.00620343605286728
545.0, 0.005335342770696426
546.0, 0.004949529367400316
547.0, 0.0047833370531691465
548.0, 0.004259553717786116
549.0, 0.00416593408482894
550.0, 0.004432876013256325
551.0, 0.002882573554292409
552.0, 0.003141150837494973
553.0, 0.003072429205896778
554.0, 0.0027180466685282965
555.0, 0.0022095599581771776
556.0, 0.002106246361218049
557.0, 0.0029438185925291602
558.0, 0.0014840573794409656
559.0, 0.0014023281019232092
560.0, 0.0015225414570470474
561.0, 0.0011291898246605593
562.0, 0.0011159704682589828
563.0, 0.0017706237104678074
564.0, 0.0012603096221119867
565.0, 0.0009508510232198155
566.0, 0.0005347974005042931
567.0, 0.00033266644561653165
568.0, 0.0005791355324419994
569.0, 0.0003032035228131279
570.0, 0.00028254925463316893
571.0, 0.001077220109456367
572.0, 0.0012946845284348308
573.0, 0.00044554442842612593
574.0, 0.0004143017500625047
575.0, 0.001494964038178693
576.0, 0.0012880757663017738
577.0, 0.00034975142903250915
578.0, 0.0002678257963236041
579.0, 0.0009117208213151561
580.0, 0.0011146080509599338
581.0, 0.0009172513887123232
582.0, 0.0014846778497471739
583.0, 0.0017911383457526375
584.0, 0.0008223245021435519
585.0, 0.0006752436334817412
586.0, 0.0008779671107084461
587.0, 0.00035893507417138643
588.0, 0.0010017564379089655
589.0, 0.0011496058535563603
590.0, 0.0010692110508446096
591.0, 0.0016623339103997122
592.0, 0.0012289723884613022
593.0, 0.0007927258612922826
594.0, 0.0015390824733371412
595.0, 0.0025929760559466825
596.0, 0.0029744648772640015
597.0, 0.003015770988357048
598.0, 0.004077752247998908
599.0, 0.004796748561814469
600.0, 0.005619223824722753
601.0, 0.006933193226247973
602.0, 0.006413543399289171
603.0, 0.00792313078606502
604.0, 0.009431544653017774
605.0, 0.009832201248795022
606.0, 0.010904112787434622
607.0, 0.012235402388917842
608.0, 0.011529602765264471
609.0, 0.012385874079021574
610.0, 0.014121656532400627
611.0, 0.014414954889267825
612.0, 0.01410918355066251
613.0, 0.014933369040784688
614.0, 0.016484748653497933
615.0, 0.016798250123410206
616.0, 0.016742906176638456
617.0, 0.01708767871885913
618.0, 0.017564837842227617
619.0, 0.019606635579487025
620.0, 0.021557754088837672
621.0, 0.021711123873862648
622.0, 0.022522360996108177
623.0, 0.024123061972935508
624.0, 0.026016470444382548
625.0, 0.027106640462247568
626.0, 0.028355978275865112
627.0, 0.03056389486519759
628.0, 0.03328533864789906
629.0, 0.0369247876070493
630.0, 0.04121206733699456
631.0, 0.043345391034667245
632.0, 0.04673368713138688
633.0, 0.05106423097980538
634.0, 0.055827160803994365
635.0, 0.06251619506553402
636.0, 0.06720770516992539
637.0, 0.07429244984888549
638.0, 0.08183799883194287
639.0, 0.08991870951516473
640.0, 0.10048540493139743
641.0, 0.1123776700813814
642.0, 0.12233920504701284
643.0, 0.13595508569321088
644.0, 0.15094674527301302
645.0, 0.1680376223753107
646.0, 0.18852660672305205
647.0, 0.2108108384892154
648.0, 0.23420120531577537
649.0, 0.2618754360042003
650.0, 0.29154757911441564
651.0, 0.3254233362180498
652.0, 0.36535271613652465
653.0, 0.40705863903141887
654.0, 0.45215960067057825
655.0, 0.5005617670115684
656.0, 0.5482546459298188
657.0, 0.6039532286236727
658.0, 0.6572272830784153
659.0, 0.7113254024354527
660.0, 0.763928841720823
661.0, 0.8143227037159568
662.0, 0.8614477634688781
663.0, 0.9037875989577434
664.0, 0.9452545685745941
665.0, 0.9727835728906088
666.0, 0.9898322342277184
667.0, 0.9987958926767321
668.0, 0.9963349071744777
669.0, 0.978755093924337
670.0, 0.9482025316465532
671.0, 0.9103640504009999
672.0, 0.8588557925825143
673.0, 0.8081156031725044
674.0, 0.7487101594176482
675.0, 0.6850280433467272
676.0, 0.6241034020935711
677.0, 0.5618650981884106
678.0, 0.507776327497824
679.0, 0.45443686158283514
680.0, 0.4019600510731488
681.0, 0.35506876956173344
682.0, 0.31233622717010373
683.0, 0.27267139464914536
684.0, 0.2377154181453608
685.0, 0.20496968912542465
686.0, 0.17817655543842456
687.0, 0.15673088001852475
688.0, 0.1357658259924089
689.0, 0.1179199157863112
690.0, 0.10346215044327242
691.0, 0.0900659460259224
692.0, 0.07847500975513517
693.0, 0.06784091931822174
694.0, 0.05894061477282035
695.0, 0.05097484690231866
696.0, 0.04444966218425113
697.0, 0.03957971020083024
698.0, 0.03548635137657452
699.0, 0.03097790778764661
700.0, 0.026663668258081665
701.0, 0.023148476046290428
702.0, 0.02052174182593774
703.0, 0.01813740445053022
704.0, 0.015548287435249705
705.0, 0.013403829222359645
706.0, 0.012396159176390514
707.0, 0.011261764950762549
708.0, 0.00930180328559531
709.0, 0.008113747889302815
710.0, 0.006611813983038052
711.0, 0.005586205878673281
712.0, 0.004536730554617387
713.0, 0.003771511128303847
714.0, 0.004976447235081236
715.0, 0.0037959320168329896
716.0, 0.003181039558959005
717.0, 0.0029866450470253754
718.0, 0.002400547063926162
719.0, 0.002107222175854295
720.0, 0.0017047539723740036
721.0, 0.0011179943493522609
722.0, 0.001783923088613745
723.0, 0.0011584593394757025
724.0, 0.00037965206786537637
725.0, 0.0004907794892232966
726.0, 0.000361863839117225
727.0, 0.0005685398852509436
728.0, 0.0010266594914466285
729.0, 0.0004825809781997996
730.0, 0.000937957384392159
731.0, 0.0011087397856351633
732.0, 0.0008803917819924277
733.0, 0.0007694694243046643
734.0, 0.0009619772039046427
735.0, 0.0013398797965790648
736.0, 0.0015187751573912962
737.0, 0.0010409898305357625
738.0, 0.00022774329415508883
739.0, 0.0006187011052005625
740.0, 0.00033165159296149986
741.0, 0.00030656535722593516
742.0, 0.000529791049876133
743.0, 0.0004232681820960954
744.0, 0.0001907464591111681
745.0, 0.0005894460742611044
746.0, 0.00042095318660640893
747.0, 4.245335506095097e-05
748.0, 0.0006529911933494496
749.0, 0.00045297891483122123
750.0, 0.0007444308696225252
751.0, 0.00030532819552645755
752.0, 0.0003420896530597064
753.0, 0.00031540524467544835
754.0, 0.00025432860616498833
755.0, 0.0002936045549837129
756.0, 0.0004788104924951255
757.0, 0.0008346368056350487
758.0, 0.0007166495864322366
759.0, 0.0005441761520752415
760.0, 0.0007923391231586805
761.0, 0.0016105809708920667
762.0, 0.0011794297092077798
763.0, 0.0011025392506002847
764.0, 0.0014048985518139519
765.0, 0.001285221994037869
766.0, 0.000901524630418541
767.0, 0.000692412156046407
768.0, 0.0008667289967370396
769.0, 0.0013185794564737358
770.0, 0.0006991263958834638
771.0, 0.0014946799572185952
772.0, 0.0019743059263505162
773.0, 0.0012658095613841023
774.0, 0.0017543817850008722
775.0, 0.0019469886368933085
776.0, 0.0011371203034033306
777.0, 0.0012060063671418277
778.0, 0.0011183443964517883
779.0, 0.0013542390032530503
780.0, 0.0008903362328833015
781.0, 0.0018384542083459232
782.0, 0.0024368977734115066
783.0, 0.0015960522202886074
784.0, 0.001100227187587717
785.0, 0.0019459115420041165
786.0, 0.001564041386093076
787.0, 0.0018920981045966417
788.0, 0.001849055087091918
789.0, 0.001662944077133415
790.0, 0.002013736455086155
791.0, 0.0020356618243541117
792.0, 0.0021985290983868406
793.0, 0.0027944488909210953
794.0, 0.002591942230313781
795.0, 0.00237627045404987
796.0, 0.0017716385048285263
797.0, 0.002237107995973852
798.0, 0.0025624469074175134
799.0, 0.0025117235155858193
800.0, 0.0021320710706728176
801.0, 0.0017767308435576365
802.0, 0.0020119239376316204
803.0, 0.0025918238017807005
804.0, 0.002308042208849932
805.0, 0.0028923609570429363
806.0, 0.002896035946223278
807.0, 0.002314291487932648
808.0, 0.0023322055310277838
809.0, 0.002925877477244009
810.0, 0.003214491198209354
811.0, 0.002793962941961417
812.0, 0.0029982127399654653
813.0, 0.002570999158222889
814.0, 0.0028511670092735805
815.0, 0.00229319244223589
816.0, 0.0029655182914263725
817.0, 0.002678887752527297
818.0, 0.0017223885535197373
819.0, 0.0021076442197816613
820.0, 0.002538873733483149
821.0, 0.0018646689700202292
822.0, 0.0022381029731794464
823.0, 0.002535758021374986
824.0, 0.0026391440877080985
825.0, 0.0016951595313529726
826.0, 0.001985798956715372
827.0, 0.0027922757423430237
828.0, 0.0018719541645395971
829.0, 0.001889607139534835
830.0, 0.001060477048174616
831.0, 0.0007711735909783781
832.0, 0.001809967554277088
833.0, 0.002074859379225084
834.0, 0.002432361708244396
835.0, 0.0021172708971195146
836.0, 0.001643153762732108
837.0, 0.0017139630269590752
838.0, 0.001002210566359045
839.0, 0.0007615230861329156
840.0, 0.0003779775191742362
841.0, 0.00036925673595201514
842.0, 0.0017404051290885664
843.0, 0.0009073277322848517
844.0, 0.0004969872887170173
845.0, 0.001217655222509876
846.0, 0.0009481682451928329
847.0, 0.0007704914790169043
848.0, 6.511077349731246e-05
849.0, 0.0001200778332309119
850.0, 0.0005640729744479015
851.0, 0.0004250507690633962
852.0, 0.0011605105064625323
853.0, 0.0009374889409791887
854.0, 0.00021979918372564585
855.0, 0.0005265705845826763
856.0, 0.0011950050688607102
857.0, 0.0013813539217213866
858.0, 0.00017985742430242014
859.0, 0.00021169738316422398
860.0, 0.0004910664375936207
861.0, 0.001259387651945643
862.0, 0.0006855248593968441
863.0, 0.0005433637858176632
864.0, 0.0008923867125877449
865.0, 0.0006084975104914287
866.0, 0.0011092507726770953
867.0, 0.0003005238790144396
868.0, 0.0008697698829079264
869.0, 0.0013540810773216363
870.0, 0.0005389162644087497
871.0, 0.00018368042796879924
872.0, 0.00011160630904972471
873.0, 0.0008115076283039729
874.0, 0.001488900755508149
875.0, 0.0013267598654465198
876.0, 0.0016991188897713056
877.0, 0.0013228690205350742
878.0, 0.0009707743078551418
879.0, 0.0004386979651758433
880.0, 0.0011604713398122536
881.0, 0.0011344207354858447
882.0, 0.0009865399839441272
883.0, 0.0011308922483426421
884.0, 0.0008022916532116653
885.0, 0.0006538116871810379
886.0, 0.0012467349872156972
887.0, 0.0014806872561819572
888.0, 0.0003758019031587832
889.0, 0.0008443786766904473
890.0, 0.0005946587819579087
891.0, 0.0010629087526703254
892.0, 0.0011310691689212329
893.0, 0.0008920333383620381
894.0, 0.0006923065899758853
895.0, 0.00046674717790294297
896.0, 0.0010120183120076224
897.0, 0.0010994235892027306
898.0, 0.0007510984391734756
899.0, 0.001209446275087416
900.0, 0.000675779378033103
901.0, 0.0005150533055571546
902.0, 0.0011597291637644176
903.0, 0.0012293004973510237
904.0, 0.0007686588973287497
905.0, 0.0006847920758192
906.0, 0.0002102475717179402
907.0, 0.0002753798419641202
908.0, 0.0007121727170463883
909.0, 0.001237802258417047
910.0, 0.0011128570323078292
911.0, 0.0013305679236632294
912.0, 0.0007797731870411989
913.0, 0.00033589015651411524
914.0, 0.0009339803352576542
915.0, 0.0013983381794422777
916.0, 0.0009707639835903112
917.0, 0.00030098094994669586
918.0, 0.0012749494236325223
919.0, 0.0005876325602434591
920.0, 0.0007880067117840717
921.0, 0.0008830408710543989
922.0, 0.0006639830030745254
923.0, 0.00016782456154241295
924.0, 4.2088993014780844e-05
925.0, 0.00011032725584223093
926.0, 0.00021750383601765514
927.0, 0.0006576669145786944
928.0, 0.001034303449713606
929.0, 0.00012810839488628476
930.0, 1.120760215711876e-05
931.0, 0.0008942263857202809
932.0, 0.0013948713789267277
933.0, 0.0006649311723178647
934.0, 0.0006485811629704182
935.0, 0.0005311408202127709
936.0, 0.0003187215136303468
937.0, 0.00020288677051916415
938.0, 0.00037202790201434373
939.0, 0.00022478742230410323
940.0, 0.0006909373410754246
941.0, 0.004183574499777065
942.0, 0.0014330154320865095
943.0, 0.0009012131116085417
944.0, 0.0017024138773140264
945.0, 0.0013620988289987758
946.0, 0.0009013832384027481
947.0, 0.0006810681509574921
948.0, 0.0004025774300826074
949.0, 0.0007324953025991896
950.0, 0.0005910531224579992
951.0, 0.000622064066635858
952.0, 0.0004599500515593143
953.0, 0.0005349798016186751
954.0, 0.000977858372471301
955.0, 0.0010545366536507284
956.0, 0.0005740633590648065
957.0, 0.0008436042705136163
958.0, 0.0015498617673767386
959.0, 0.001438037141486725
960.0, 0.0008504917309391953
961.0, 0.0014376115695978926
962.0, 0.001296751391093731
963.0, 0.0022181935737428963
964.0, 0.0014002467638729557
965.0, 0.001302724746404198
966.0, 0.0016901006621843299
967.0, 0.0012373457425786522
968.0, 0.001309672580311893
969.0, 0.0015838253544220937
970.0, 0.0014572336700832663
971.0, 0.0012049456011347744
972.0, 0.0009351329679396621
973.0, 0.0011658450514963955
974.0, 0.0016013662254365465
975.0, 0.0012051219357991415
976.0, 0.0009916351490185462
977.0, 0.000770244742392522
978.0, 0.001104438107554236
979.0, 0.0007641546521994942
980.0, 0.0008364467646274684
981.0, 0.0008621787782484578
982.0, 0.0004893139512989305
983.0, 0.00035155502936757145
984.0, 0.0005189749236852659
985.0, 0.0007852237330970905
986.0, 0.00014781173638724155
987.0, 0.0007948620745323204
988.0, 0.00039031955057924287
989.0, 0.00041233522125124026
990.0, 0.00019560184977304536
991.0, 0.0008521673315959113
992.0, 0.0005982090115744367
993.0, 0.0003999203815934214
994.0, 0.0006908455078652792
995.0, 0.0010403874853774332
996.0, 0.0008370047346877391
997.0, 0.00014357373417637744
998.0, 0.00028122084880657537
999.0, 0.00043605462977380045
1000.0, 0.00012457521367761868
1001.0, 0.0013424274902172654
1002.0, 0.0015623125199767567
1003.0, 0.001178700555748685
1004.0, 0.0006415808224479137
1005.0, 0.0008869245639930833
1006.0, 0.0014333802124198924
1007.0, 0.001284888409713581
1008.0, 0.000985883523070527
1009.0, 0.0005670877812832342
1010.0, 1.4944263525334134e-05
1011.0, 0.0010163905981943402
1012.0, 0.00033888267710776985
1013.0, 0.0006534297744420701
1014.0, 5.607242872009058e-05
1015.0, 6.712438265459642e-05
1016.0, 0.0002883136456519761
1017.0, 0.0004293357018965862
1018.0, 0.0013662150784406566
1019.0, 0.0014105863862814306
1020.0, 0.0010317972343501856
1021.0, 0.0008426840480918757
1022.0, 0.00145672304013691
1023.0, 0.002162037227631888
1024.0, 0.0010638090614998382
1025.0, 0.00015604864413328035
1026.0, 0.0009380189161645874
1027.0, 0.0009394593387764326
1028.0, 0.0004676015458788975
1029.0, 0.0012536805022019867
1030.0, 0.0020683100326743123
1031.0, 0.0009951114730288254
1032.0, 0.0013738246636225066
1033.0, 0.0012460430589560304
1034.0, 0.0005605504310747399
1035.0, 0.0008417513619404469
1036.0, 0.0007739279705374875
1037.0, 0.0008187245656605555
1038.0, 0.0005083631231772123
1039.0, 0.0009092307639804562
1040.0, 0.0007172508849605046
1041.0, 0.0006135614565834684
1042.0, 0.0007395676461987719
1043.0, 0.0010279355713583606
1044.0, 0.0008783703613940215
1045.0, 0.000945707845508688
1046.0, 0.0005287336826016871
1047.0, 0.000663743613106445
1048.0, 0.0010656489254045707
1049.0, 0.0011515589962370594
1050.0, 0.0019205136324072238
1051.0, 0.0026052693488333315
1052.0, 0.0021867649259115335
1053.0, 0.0013030787515174171
1054.0, 0.0007730415581853342
1055.0, 0.0002073045240021713
1056.0, 0.0012076680962744106
1057.0, 0.001600649795131677
1058.0, 0.0007804928494481601
1059.0, 0.0008928748957881746
1060.0, 0.000287202996029232
1061.0, 8.31168711188064e-05
1062.0, 0.0003727278435016611
1063.0, 0.000986279515549241
1064.0, 0.0009330608399848986
1065.0, 0.00012973561788118894
1066.0, 0.00012318149890705858
1067.0, 0.00033481558093813665
1068.0, 9.714173809558203e-05
1069.0, 0.0004458131467662251
1070.0, 0.0004738298232912783
1071.0, 0.0005780054847831401
1072.0, 0.00014503260781894976
1073.0, 0.0003406948011944305
1074.0, 0.0004913193455221143
1075.0, 0.00021023424800961318
1076.0, 0.00043606062092362046
1077.0, 0.0006875638210348745
1078.0, 0.0008573054675511331
1079.0, 0.00023205848050778966
1080.0, 8.976518366650191e-05
1081.0, 0.0008297842329498991
1082.0, 0.0011818336185679824
1083.0, 0.0008673569903683149
1084.0, 0.0012539644343136408
1085.0, 0.001427190432944332
1086.0, 0.001548046721094031
1087.0, 0.00225699006940884
1088.0, 0.0022090547097247818
1089.0, 0.0016109186452344208
1090.0, 0.0022176680673311887
1091.0, 0.002855401815033564
1092.0, 0.0021466977191403796
1093.0, 0.0020257108417797566
1094.0, 0.0025447828409738936
1095.0, 0.0028694921281572977
1096.0, 0.0033902529045492253
1097.0, 0.00437776609585304
1098.0, 0.004929186709571724
1099.0, 0.0048227137740734765
1100.0, 0.00515019998684159
1101.0, 0.005915616521013838
1102.0, 0.007102013827381703
1103.0, 0.007549832390684367
1104.0, 0.007555958590116202
1105.0, 0.007805272296721732
1106.0, 0.007718857962795734
1107.0, 0.008352560198330996
1108.0, 0.008534924559500404
1109.0, 0.009723307736440341
1110.0, 0.010291719950418148
1111.0, 0.009381586324251448
1112.0, 0.009404943467198047
1113.0, 0.010157235098378656
1114.0, 0.010585879847713675
1115.0, 0.011536386433959149
1116.0, 0.011598734861670575
1117.0, 0.01082958888576942
1118.0, 0.012510505468259544
1119.0, 0.011886665915294943
1120.0, 0.013059284161627095
1121.0, 0.013388935171639528
1122.0, 0.013633539488248473
1123.0, 0.013193617043978936
1124.0, 0.013053160908355699
1125.0, 0.013138589799122396
1126.0, 0.013172761718299281
1127.0, 0.01320557430347234
1128.0, 0.012832641686883393
1129.0, 0.013074229653554426
1130.0, 0.012033108225649672
1131.0, 0.011596728462475985
1132.0, 0.012377529573597694
1133.0, 0.011460664148376175
1134.0, 0.010509521450661837
1135.0, 0.011143033628607446
1136.0, 0.010968335202906859
1137.0, 0.010341937216283481
1138.0, 0.009367101772521674
1139.0, 0.008768659460974349
1140.0, 0.008942182447423895
1141.0, 0.008820084243773969
1142.0, 0.007841095474045271
1143.0, 0.006978376072027658
1144.0, 0.006938935251557408
1145.0, 0.006693071274231285
1146.0, 0.005891628666452444
1147.0, 0.003920157296699438
1148.0, 0.003821084892922742
1149.0, 0.0043114938143805764
1150.0, 0.004166571532754667
1151.0, 0.003659123295004546
1152.0, 0.0029464885944495145
1153.0, 0.002738203908258982
1154.0, 0.0032747519196806435
1155.0, 0.002673026510735652
1156.0, 0.0011055629359558808
1157.0, 0.001590172880437327
1158.0, 0.0005087321371200931
1159.0, 2.0330635156214425e-05
1160.0, 0.0007152266109309356
1161.0, 0.0005380863607760253
1162.0, 0.0003048888945431904
1163.0, 0.0004967496065558254
1164.0, 2.621560926792699e-05
1165.0, 0.0003108918892591029
1166.0, 0.0001036570010859829
1167.0, 0.00010134933320224128
1168.0, 0.00020774169919431746
1169.0, 6.216495094580605e-05
1170.0, 0.001335006308109691
1171.0, 0.001984157428992017
1172.0, 0.0018244126934935045
1173.0, 0.0019139560597876977
1174.0, 0.00236424199589327
1175.0, 0.0024869691279101078
1176.0, 0.002273007642282695
1177.0, 0.003255419539515116
1178.0, 0.004628011722262782
1179.0, 0.004495379007777209
1180.0, 0.004807675110525439
1181.0, 0.006075357272715944
1182.0, 0.006448097495275519
1183.0, 0.007170668631119215
1184.0, 0.0070377955151229845
1185.0, 0.007377756082256124
1186.0, 0.008112263548482615
1187.0, 0.008841386772422044
1188.0, 0.008163004734635437
1189.0, 0.010485514631812324
1190.0, 0.010107688610536776
1191.0, 0.009673014928264235
1192.0, 0.010945564034862763
1193.0, 0.01156260049722721
1194.0, 0.012367304141778898
1195.0, 0.011771440983070609
1196.0, 0.012522672843178574
1197.0, 0.013767851327938563
1198.0, 0.012779211805308176
1199.0, 0.010872137801860868
1200.0, 0.01120926483662855
1201.0, 0.011630255966992397
1202.0, 0.010046943161955067
1203.0, 0.009455261287498741
1204.0, 0.008455855038191368
1205.0, 0.009400983510677835
1206.0, 0.008800310634174803
1207.0, 0.008779440707289258
1208.0, 0.009337977818521968
1209.0, 0.00756537762892668
1210.0, 0.006709505683087408
1211.0, 0.007188034164920918
1212.0, 0.009731386479965964
1213.0, 0.0066709964713893306
1214.0, 0.0046730626456961775
1215.0, 0.004847751144304714
1216.0, 0.0054387872739518495
1217.0, 0.005191706774264071
1218.0, 0.0046178538620600075
1219.0, 0.003084263711946995
1220.0, 0.0019921684056429267
1221.0, 0.002591201544893906
1222.0, 0.0025123720881447846
1223.0, 0.0020196755033193184
1224.0, 0.002742740330988504
1225.0, 0.002648887392865295
1226.0, 0.0007031094974975559
1227.0, 0.0008088967302930598
1228.0, 0.0015982924442691036
1229.0, 0.001399184818996673
1230.0, 0.0011407536656080196
1231.0, 0.00125978587115595
1232.0, 0.0018319627878333109
1233.0, 0.0010701460055788253
1234.0, 0.0010898726188498463
1235.0, 8.244203915256421e-05
1236.0, 0.00042571667768307955
1237.0, 0.00026987068653707916
1238.0, 0.0012796615627944038
1239.0, 0.0015851667904817227
1240.0, 9.560138276007123e-05
1241.0, 0.0013206185209038725
1242.0, 0.0006368910887847381
1243, 0.0
1244, 0.0
1245, 0.0
1246, 0.0
1247, 0.0
1248, 0.0
1249, 0.0
1250, 0.0
1251, 0.0
1252, 0.0
1253, 0.0
1254, 0.0
1255, 0.0
1256, 0.0
1257, 0.0
1258, 0.0
1259, 0.0
1260, 0.0
1261, 0.0
1262, 0.0
1263, 0.0
1264, 0.0
1265, 0.0
1266, 0.0
1267, 0.0
1268, 0.0
1269, 0.0
1270, 0.0
1271, 0.0
1272, 0.0
1273, 0.0
1274, 0.0
1275, 0.0
1276, 0.0
1277, 0.0
1278, 0.0
1279, 0.0
1280, 0.0
1281, 0.0
1282, 0.0
1283, 0.0
1284, 0.0
1285, 0.0
1286, 0.0
1287, 0.0
1288, 0.0
1289, 0.0
1290, 0.0
1291, 0.0
1292, 0.0
1293, 0.0
1294, 0.0
1295, 0.0
1296, 0.0
1297, 0.0
1298, 0.0
1299, 0.0
1300, 0.0
1301, 0.0
1302, 0.0
1303, 0.0
1304, 0.0
1305, 0.0
1306, 0.0
1307, 0.0
1308, 0.0
1309, 0.0
1310, 0.0
1311, 0.0
1312, 0.0
1313, 0.0
1314, 0.0
1315, 0.0
1316, 0.0
1317, 0.0
1318, 0.0
1319, 0.0
1320, 0.0
1321, 0.0
1322, 0.0
1323, 0.0
1324, 0.0
1325, 0.0
1326, 0.0
1327, 0.0
1328, 0.0
1329, 0.0
1330, 0.0
1331, 0.0
1332, 0.0
1333, 0.0
1334, 0.0
1335, 0.0
1336, 0.0
1337, 0.0
1338, 0.0
1339, 0.0
1340, 0.0
1341, 0.0
1342, 0.0
1343, 0.0
1344, 0.0
1345, 0.0
1346, 0.0
1347, 0.0
1348, 0.0
1349, 0.0
1350, 0.0
1351, 0.0
1352, 0.0
1353, 0.0
1354, 0.0
1355, 0.0
1356, 0.0
1357, 0.0
1358, 0.0
1359, 0.0
1360, 0.0
1361, 0.0
1362, 0.0
1363, 0.0
1364, 0.0
1365, 0.0
1366, 0.0
1367, 0.0
1368, 0.0
1369, 0.0
1370, 0.0
1371, 0.0
1372, 0.0
1373, 0.0
1374, 0.0
1375, 0.0
1376, 0.0
1377, 0.0
1378, 0.0
1379, 0.0
1380, 0.0
1381, 0.0
1382, 0.0
1383, 0.0
1384, 0.0
1385, 0.0
1386, 0.0
1387, 0.0
1388, 0.0
1389, 0.0
1390, 0.0
1391, 0.0
1392, 0.0
1393, 0.0
1394, 0.0
1395, 0.0
1396, 0.0
1397, 0.0
1398, 0.0
1399, 0.0
1400, 0.0
1401, 0.0
1402, 0.0
1403, 0.0
1404, 0.0
1405, 0.0
1406, 0.0
1407, 0.0
1408, 0.0
1409, 0.0
1410, 0.0
1411, 0.0
1412, 0.0
1413, 0.0
1414, 0.0
1415, 0.0
1416, 0.0
1417, 0.0
1418, 0.0
1419, 0.0
1420, 0.0
1421, 0.0
1422, 0.0
1423, 0.0
1424, 0.0
1425, 0.0
1426, 0.0
1427, 0.0
1428, 0.0
1429, 0.0
1430, 0.0
1431, 0.0
1432, 0.0
1433, 0.0
1434, 0.0
1435, 0.0
1436, 0.0
1437, 0.0
1438, 0.0
1439, 0.0
1440, 0.0
1441, 0.0
1442, 0.0
1443, 0.0
1444, 0.0
1445, 0.0
1446, 0.0
1447, 0.0
1448, 0.0
1449, 0.0
1450, 0.0
1451, 0.0
1452, 0.0
1453, 0.0
1454, 0.0
1455, 0.0
1456, 0.0
1457, 0.0
1458, 0.0
1459, 0.0
1460, 0.0
1461, 0.0
1462, 0.0
1463, 0.0
1464, 0.0
1465, 0.0
1466, 0.0
1467, 0.0
1468, 0.0
1469, 0.0
1470, 0.0
1471, 0.0
1472, 0.0
1473, 0.0
1474, 0.0
1475, 0.0
1476, 0.0
1477, 0.0
1478, 0.0
1479, 0.0
1480, 0.0
1481, 0.0
1482, 0.0
1483, 0.0
1484, 0.0
1485, 0.0
1486, 0.0
1487, 0.0
1488, 0.0
1489, 0.0
1490, 0.0
1491, 0.0
1492, 0.0
1493, 0.0
1494, 0.0
1495, 0.0
1496, 0.0
1497, 0.0
1498, 0.0
1499, 0.0
1500, 0.0
1501, 0.0
1502, 0.0
1503, 0.0
1504, 0.0
1505, 0.0
1506, 0.0
1507, 0.0
1508, 0.0
1509, 0.0
1510, 0.0
1511, 0.0
1512, 0.0
1513, 0.0
1514, 0.0
1515, 0.0
1516, 0.0
1517, 0.0
1518, 0.0
1519, 0.0
1520, 0.0
1521, 0.0
1522, 0.0
1523, 0.0
1524, 0.0
1525, 0.0
1526, 0.0
1527, 0.0
1528, 0.0
1529, 0.0
1530, 0.0
1531, 0.0
1532, 0.0
1533, 0.0
1534, 0.0
1535, 0.0
1536, 0.0
1537, 0.0
1538, 0.0
1539, 0.0
1540, 0.0
1541, 0.0
1542, 0.0
1543, 0.0
1544, 0.0
1545, 0.0
1546, 0.0
1547, 0.0
1548, 0.0
1549, 0.0
1550, 0.0
1551, 0.0
1552, 0.0
1553, 0.0
1554, 0.0
1555, 0.0
1556, 0.0
1557, 0.0
1558, 0.0
1559, 0.0
1560, 0.0
1561, 0.0
1562, 0.0
1563, 0.0
1564, 0.0
1565, 0.0
1566, 0.0
1567, 0.0
1568, 0.0
1569, 0.0
1570, 0.0
1571, 0.0
1572, 0.0
1573, 0.0
1574, 0.0
1575, 0.0
1576, 0.0
1577, 0.0
1578, 0.0
1579, 0.0
1580, 0.0
1581, 0.0
1582, 0.0
1583, 0.0
1584, 0.0
1585, 0.0
1586, 0.0
1587, 0.0
1588, 0.0
1589, 0.0
1590, 0.0
1591, 0.0
1592, 0.0
1593, 0.0
1594, 0.0
1595, 0.0
1596, 0.0
1597, 0.0
1598, 0.0
1599, 0.0
