30, 0.0
31, 0.0
32, 0.0
33, 0.0
34, 0.0
35, 0.0
36, 0.0
37, 0.0
38, 0.0
39, 0.0
40, 0.0
41, 0.0
42, 0.0
43, 0.0
44, 0.0
45, 0.0
46, 0.0
47, 0.0
48, 0.0
49, 0.0
50, 0.0
51, 0.0
52.0, 4.825373465630195e-07
53.0, 8.150715591955204e-05
54.0, 0.00033979851670884237
55.0, 0.0007370723862924434
56.0, 0.0012894150924420535
57.0, 0.002226386269326325
58.0, 0.003005854247935707
59.0, 0.0029736090622827513
60.0, 0.0018592245067840095
61.0, 0.0007798977133362566
62.0, 0.0005321077760465701
63.0, 0.0004706001960205425
64.0, 0.00020814563215938093
65.0, 0.00053391533883003
66.0, 0.003930168821710444
67.0, 0.004901769796739725
68.0, 0.006644938738254182
69.0, 0.009003593857928236
70.0, 0.006571222353724841
71.0, 0.006470481275855022
72.0, 0.005961292868728168
73.0, 0.005391232314509887
74.0, 0.004619706871245658
75.0, 0.003248903465034355
76.0, 0.00318128451768305
77.0, 0.004518271041957324
78.0, 0.006417647115027925
79.0, 0.00855987033227867
80.0, 0.010719281498763675
81.0, 0.011914836830853528
82.0, 0.010823348954702843
83.0, 0.009292895776998948
84.0, 0.008430534586699198
85.0, 0.008959326392707615
86.0, 0.01101841433002121
87.0, 0.013943308968708663
88.0, 0.01615568381944434
89.0, 0.01791702515572793
90.0, 0.018958968845170565
91.0, 0.017923147694242324
92.0, 0.017117182647784623
93.0, 0.0159992201374243
94.0, 0.015145374905891927
95.0, 0.014886604545765353
96.0, 0.015326684965507896
97.0, 0.016834522721665548
98.0, 0.015870654260973095
99.0, 0.01585710543154679
100.0, 0.016975593191594526
101.0, 0.018642036829938705
102.0, 0.02355977109399066
103.0, 0.029044215531813716
104.0, 0.037697704658085716
105.0, 0.04237274198774778
106.0, 0.04269402919836694
107.0, 0.05841484395404344
108.0, 0.04051642034892575
109.0, 0.029067715933466697
110.0, 0.024434736915279337
111.0, 0.023929768415061604
112.0, 0.024281524526204912
113.0, 0.025770356239738158
114.0, 0.023565193642978266
115.0, 0.020568486398529574
116.0, 0.01807928239322294
117.0, 0.016444440907110402
118.0, 0.01579170209106724
119.0, 0.015594510671265183
120.0, 0.014581359294363829
121.0, 0.013723237029209653
122.0, 0.013508820235135674
123.0, 0.011684913338359583
124.0, 0.011428860641392178
125.0, 0.011516095782624153
126.0, 0.012035901283870531
127.0, 0.012776965238098195
128.0, 0.013083498033204436
129.0, 0.01230119381152241
130.0, 0.011196867447452089
131.0, 0.010058385968469377
132.0, 0.009606753216344579
133.0, 0.010381363120165438
134.0, 0.010490918776764011
135.0, 0.011876602445774221
136.0, 0.012763478575984432
137.0, 0.012714206145280849
138.0, 0.011635895242709693
139.0, 0.009495178097201868
140.0, 0.009661334325853834
141.0, 0.009221365663245735
142.0, 0.009024069600214301
143.0, 0.009521774688876803
144.0, 0.010452278980583412
145.0, 0.009826091920153482
146.0, 0.009817685208882211
147.0, 0.010318712500927129
148.0, 0.010756880436964638
149.0, 0.010828193316217316
150.0, 0.012225887443954779
151.0, 0.011291522769593616
152.0, 0.011091479905505307
153.0, 0.010878340514764833
154.0, 0.01003859164306522
155.0, 0.009030626990719768
156.0, 0.008868608961561764
157.0, 0.00898589901518432
158.0, 0.009577977698294105
159.0, 0.010386981149831002
160.0, 0.01101665373960973
161.0, 0.012207102203093447
162.0, 0.01343225336062807
163.0, 0.014127260102762345
164.0, 0.014502559214348927
165.0, 0.014742014027002889
166.0, 0.014518242990985338
167.0, 0.014223686390044466
168.0, 0.014439922607706383
169.0, 0.014077843931652139
170.0, 0.013525241029090147
171.0, 0.014187108263126498
172.0, 0.013622076690812343
173.0, 0.012873587016096208
174.0, 0.01269151156873295
175.0, 0.013026832609595083
176.0, 0.013366702589041102
177.0, 0.012623202242585159
178.0, 0.012861951486315979
179.0, 0.013013800148433691
180.0, 0.01317167629483223
181.0, 0.013269316578152656
182.0, 0.013093169221767884
183.0, 0.014179352754876024
184.0, 0.014874094205285487
185.0, 0.015191451913644492
186.0, 0.015240954798135836
187.0, 0.015248609134954252
188.0, 0.015681360697624706
189.0, 0.016799070020877934
190.0, 0.01730819559739755
191.0, 0.01786335234052467
192.0, 0.018604840407891256
193.0, 0.018938085827309523
194.0, 0.01902538697611903
195.0, 0.019324985341964418
196.0, 0.019848691710912265
197.0, 0.021032723818125723
198.0, 0.023031661892967743
199.0, 0.024621201763928877
200.0, 0.023359261152484368
201.0, 0.021335406624629197
202.0, 0.01842089261195666
203.0, 0.01493890797231013
204.0, 0.011870922426580706
205.0, 0.010770353380567838
206.0, 0.010862169668508415
207.0, 0.010912492800241421
208.0, 0.010170106203500163
209.0, 0.008984714503586922
210.0, 0.010272095726546328
211.0, 0.010455780773606892
212.0, 0.009674400611513992
213.0, 0.008687153326438041
214.0, 0.008290544175242212
215.0, 0.008847555647013628
216.0, 0.0070756473360326895
217.0, 0.006886642009028102
218.0, 0.0071197095012245715
219.0, 0.007106262002121738
220.0, 0.006557246782342871
221.0, 0.005736815936057598
222.0, 0.005978299821822877
223.0, 0.005843636651599873
224.0, 0.005701997878233804
225.0, 0.005677121571882842
226.0, 0.0056946027090588195
227.0, 0.0057961853544318985
228.0, 0.005786740286244982
229.0, 0.005018765577061174
230.0, 0.004633442353148121
231.0, 0.004958753518497555
232.0, 0.00466623707547668
233.0, 0.005810397043319639
234.0, 0.006364285399954131
235.0, 0.006167334540995644
236.0, 0.006015365688353057
237.0, 0.0066032042879017195
238.0, 0.00674067259218562
239.0, 0.007519946990985775
240.0, 0.008242722698330752
241.0, 0.008347156459926633
242.0, 0.008248433157283352
243.0, 0.009057662746834233
244.0, 0.009638566113624321
245.0, 0.008629637239579113
246.0, 0.008652595534368125
247.0, 0.00896458629701397
248.0, 0.008747177928453483
249.0, 0.008838157719859931
250.0, 0.008437514413018817
251.0, 0.009964653393151893
252.0, 0.009763675392514494
253.0, 0.008527167942271
254.0, 0.009048488448561133
255.0, 0.012086792524153057
256.0, 0.011677711977298185
257.0, 0.01168331409675496
258.0, 0.012578437308071594
259.0, 0.013043404417176616
260.0, 0.010972296523353527
261.0, 0.011366809745705487
262.0, 0.011518550814507695
263.0, 0.011925852871470547
264.0, 0.012844501314430554
265.0, 0.014531231682832463
266.0, 0.01735535961347198
267.0, 0.019661621705743353
268.0, 0.02402912637544969
269.0, 0.02956939355021651
270.0, 0.035569306057495385
271.0, 0.041998349338092544
272.0, 0.05083012122330401
273.0, 0.0574852009503784
274.0, 0.062298339857243444
275.0, 0.06573445006681253
276.0, 0.06712848044474805
277.0, 0.06547385814893122
278.0, 0.0647434076514886
279.0, 0.06194893094205306
280.0, 0.056708586479617906
281.0, 0.05070650330055112
282.0, 0.04534763598825821
283.0, 0.04078752043042776
284.0, 0.036001371252527524
285.0, 0.03135133237617047
286.0, 0.028077148919744315
287.0, 0.024606678533659235
288.0, 0.019894412586047835
289.0, 0.01653736568506463
290.0, 0.015019268718001263
291.0, 0.012531771722925755
292.0, 0.010471407204526932
293.0, 0.009333904493317627
294.0, 0.008750086775589222
295.0, 0.007542258194330139
296.0, 0.006905010927175422
297.0, 0.007006870334198937
298.0, 0.006556077415074962
299.0, 0.005634528491399079
300.0, 0.00544459016076764
301.0, 0.00574842762568295
302.0, 0.00526466090845658
303.0, 0.0049136040038180295
304.0, 0.004652428896415337
305.0, 0.004436535318139349
306.0, 0.004400404732023762
307.0, 0.004322414544155703
308.0, 0.0043073025549497925
309.0, 0.004328458495596868
310.0, 0.004424900909570105
311.0, 0.004556927850143396
312.0, 0.004543651200784892
313.0, 0.004811982689191586
314.0, 0.004741109734632168
315.0, 0.005090539555088489
316.0, 0.005665307112702736
317.0, 0.006260392934247001
318.0, 0.007561787798622732
319.0, 0.01033052922743935
320.0, 0.01226502733411863
321.0, 0.014327343980325452
322.0, 0.01699989641556297
323.0, 0.01991620353026728
324.0, 0.02112765555769048
325.0, 0.02221526977321817
326.0, 0.022197008323540695
327.0, 0.021701687385707887
328.0, 0.020928785483806212
329.0, 0.019550243844161576
330.0, 0.01656634049385232
331.0, 0.014766540642371317
332.0, 0.012017669766016394
333.0, 0.009882457702929016
334.0, 0.00853637784368251
335.0, 0.007125716563746811
336.0, 0.007360964107702188
337.0, 0.0058705041945575406
338.0, 0.004292672719916658
339.0, 0.0034259148632574976
340.0, 0.0030581957184034588
341.0, 0.0022972432981983285
342.0, 0.0016307287547283082
343.0, 0.0005907733006958626
344.0, 0.00016434856311459765
345.0, 0.00037400845825940183
346.0, 0.0009175991594603009
347.0, 0.0013461382127873452
348.0, 0.0011603462496918983
349.0, 0.0011355928663508458
350.0, 0.001496038165657645
351.0, 0.0018757596476963356
352.0, 0.00200163065710618
353.0, 0.0019144036333559216
354.0, 0.0019128326926871185
355.0, 0.0017294507912478043
356.0, 0.0011953012280253646
357.0, 0.0011146813559989226
358.0, 0.001573504458923376
359.0, 0.0015211076369270056
360.0, 0.0008907956243179162
361.0, 0.0004410734659462181
362.0, 0.0005138516833519378
363.0, 0.0005541918660061713
364.0, 0.0004549859295455788
365.0, 0.0008908034764673836
366.0, 0.0008760037238696811
367.0, 0.0009175300962468842
368.0, 0.0012796231336948813
369.0, 0.0013993143787466237
370.0, 0.0010807916598910695
371.0, 0.0008433770004056858
372.0, 0.00020185724853871842
373.0, 0.00019332832168400446
374.0, 0.00028853969833395374
375.0, 0.00059485897538532
376.0, 0.0011887397353562905
377.0, 0.0018956880555100278
378.0, 0.0025291646071055086
379.0, 0.0036523421273894816
380.0, 0.003624671101247763
381.0, 0.003409734068691193
382.0, 0.00376537338926928
383.0, 0.004259121819731928
384.0, 0.003435630683033487
385.0, 0.0033017420492631954
386.0, 0.00365914083201746
387.0, 0.003535861663187683
388.0, 0.0032131364017685357
389.0, 0.004073595309132736
390.0, 0.003211777102229472
391.0, 0.002887100823921962
392.0, 0.002958030040756788
393.0, 0.0032605854019785965
394.0, 0.0036421382493203587
395.0, 0.004030573502617903
396.0, 0.004644823308679723
397.0, 0.005057233396614575
398.0, 0.006977472211353918
399.0, 0.008679274242047513
400.0, 0.009829892529800367
401.0, 0.011840041164770195
402.0, 0.0160554967429591
403.0, 0.021230543954705153
404.0, 0.025324509206086785
405.0, 0.02971992089190181
406.0, 0.03452671866576562
407.0, 0.03863167461234601
408.0, 0.04120288469473156
409.0, 0.04262499232927923
410.0, 0.04246252804054299
411.0, 0.04082358884832885
412.0, 0.03793018617087788
413.0, 0.034253004345758946
414.0, 0.03082748067205231
415.0, 0.02799578300503747
416.0, 0.023988675930039966
417.0, 0.021022999078101984
418.0, 0.019423069158078794
419.0, 0.018058601784244833
420.0, 0.015149496501852178
421.0, 0.012475985195648812
422.0, 0.010104655350159857
423.0, 0.00857547664744717
424.0, 0.007717677571981165
425.0, 0.00684951719208707
426.0, 0.005156445453561597
427.0, 0.004886469408312903
428.0, 0.0037591757662638124
429.0, 0.0036487304727813243
430.0, 0.003337565696897064
431.0, 0.00239840328201832
432.0, 0.0021250516233572232
433.0, 0.001525401268680251
434.0, 0.0007253730219385254
435.0, 0.0006916530875982265
436.0, 0.0011677476667911893
437.0, 0.0016462529387635662
438.0, 0.0017710360828979445
439.0, 0.001870991031805715
440.0, 0.0019382674085894633
441.0, 0.0019225801054307305
442.0, 0.0019463631519326971
443.0, 0.002091128100499251
444.0, 0.0024662273308318403
445.0, 0.0033636610062727536
446.0, 0.003505002754521806
447.0, 0.003970825571378317
448.0, 0.004314904064569704
449.0, 0.004559279642556313
450.0, 0.004836054762481073
451.0, 0.00503803562904266
452.0, 0.004483661234423663
453.0, 0.004817519866051205
454.0, 0.00500817662032363
455.0, 0.005166371160945066
456.0, 0.005627177176609667
457.0, 0.00644711758299508
458.0, 0.006636768009538142
459.0, 0.007601021251618759
460.0, 0.007844967908158487
461.0, 0.008329891877107896
462.0, 0.009156091992356463
463.0, 0.009940386614943576
464.0, 0.0119443514926433
465.0, 0.012480946462120722
466.0, 0.01341875662889521
467.0, 0.014678526983597995
468.0, 0.0157425661358535
469.0, 0.016351205620507153
470.0, 0.0170359174562482
471.0, 0.01752219149265268
472.0, 0.017541683217279433
473.0, 0.017832445353327543
474.0, 0.017564009122633867
475.0, 0.016768912300173487
476.0, 0.016621654890645005
477.0, 0.01586651249853955
478.0, 0.014697626014622345
479.0, 0.015017961043528533
480.0, 0.015396860527002312
481.0, 0.01494729126171127
482.0, 0.01427975208529074
483.0, 0.016010613669853888
484.0, 0.016714322145434956
485.0, 0.018224088405558846
486.0, 0.021276729170023125
487.0, 0.02490509152704964
488.0, 0.02861287355745867
489.0, 0.03348761851058877
490.0, 0.03849255395469229
491.0, 0.04241224034830026
492.0, 0.04495237387312224
493.0, 0.046912888635842975
494.0, 0.0478044682308483
495.0, 0.04674410879537486
496.0, 0.04623156958865944
497.0, 0.04462562131877258
498.0, 0.041957787246616515
499.0, 0.04046501085003843
500.0, 0.0396477656368559
501.0, 0.03842353242472974
502.0, 0.03725372092711712
503.0, 0.036694334004610425
504.0, 0.03531296687836351
505.0, 0.033997885849995295
506.0, 0.03259150316015027
507.0, 0.031189748336513536
508.0, 0.030051507365184596
509.0, 0.02826792523523695
510.0, 0.026491132553310055
511.0, 0.024589275377340094
512.0, 0.02361268541079738
513.0, 0.02298516420728881
514.0, 0.022195300251766352
515.0, 0.022140977564368877
516.0, 0.020670992303486516
517.0, 0.020861653574310683
518.0, 0.021410185111078086
519.0, 0.022516216803832693
520.0, 0.024051375152720066
521.0, 0.025552141417288038
522.0, 0.027386603371585532
523.0, 0.027221499393347632
524.0, 0.027048297383138388
525.0, 0.027025724665990986
526.0, 0.02639770884104812
527.0, 0.024625491446090296
528.0, 0.022191353531749766
529.0, 0.020354280370607426
530.0, 0.017960652625075207
531.0, 0.016297024109138244
532.0, 0.014994925454900112
533.0, 0.013845985503846931
534.0, 0.012959458155102289
535.0, 0.012381277253806177
536.0, 0.01180552289465923
537.0, 0.01124982439480015
538.0, 0.01115199708311712
539.0, 0.012144149042495639
540.0, 0.014246836181074394
541.0, 0.016921691079972035
542.0, 0.020866705063884113
543.0, 0.02450967430760956
544.0, 0.031051736376800733
545.0, 0.03687529268180966
546.0, 0.04054062802295566
547.0, 0.04200120949457641
548.0, 0.04112421667988362
549.0, 0.04160174114983481
550.0, 0.03810272864601196
551.0, 0.03313624375276174
552.0, 0.02883671351556427
553.0, 0.025553669098559054
554.0, 0.022560370309965678
555.0, 0.020260980950370846
556.0, 0.017724950366654946
557.0, 0.016046297611943244
558.0, 0.013868332168685644
559.0, 0.01239360756666786
560.0, 0.012027774571139535
561.0, 0.011431309541768795
562.0, 0.010192135444244667
563.0, 0.010017641190119445
564.0, 0.010406279790214832
565.0, 0.010932171288454392
566.0, 0.011557103493725766
567.0, 0.012323810607298659
568.0, 0.013121861647894037
569.0, 0.014165305932999708
570.0, 0.01619808524638354
571.0, 0.01894067999184341
572.0, 0.02189620729730407
573.0, 0.024732031747641256
574.0, 0.027625163185200887
575.0, 0.031478615431718926
576.0, 0.03749552319057737
577.0, 0.04551929838847259
578.0, 0.05603064203579413
579.0, 0.07002002137512214
580.0, 0.09005228210570794
581.0, 0.11992966845564158
582.0, 0.16350502255130023
583.0, 0.2377572682321454
584.0, 0.3575604898646552
585.0, 0.5304029568020304
586.0, 0.7254331149111595
587.0, 0.8926044273429252
588.0, 0.9867666426940721
589.0, 0.9997547180590185
590.0, 0.9999981526855816
591.0, 0.9770746763961711
592.0, 0.8788430536315184
593.0, 0.7371304267517739
594.0, 0.6027226803195892
595.0, 0.500980936878187
596.0, 0.42876163073141826
597.0, 0.360828280551901
598.0, 0.29280000833041314
599.0, 0.22674732940037867
600.0, 0.17000643827857148
601.0, 0.12685940008054974
602.0, 0.09496262140138158
603.0, 0.07582803001078044
604.0, 0.06144972603304065
605.0, 0.051978790365722186
606.0, 0.04378102497523268
607.0, 0.03693762016293029
608.0, 0.03237865710476618
609.0, 0.029084501289084463
610.0, 0.02529077944848913
611.0, 0.022037939854163545
612.0, 0.019637337129386253
613.0, 0.017785998048372352
614.0, 0.016257136025260237
615.0, 0.01471901807412568
616.0, 0.01280453514874875
617.0, 0.011841027692251246
618.0, 0.011052766772692802
619.0, 0.009702925836428511
620.0, 0.008837517325403213
621.0, 0.008640505850448258
622.0, 0.008387300689168162
623.0, 0.0072364514347838796
624.0, 0.0067578097725022835
625.0, 0.0063041743644987125
626.0, 0.005563823061046513
627.0, 0.00515306256258465
628.0, 0.005042960681851639
629.0, 0.0047907676419957105
630.0, 0.00416194406616513
631.0, 0.0042509657103869565
632.0, 0.003353744651874661
633.0, 0.00299176690853748
634.0, 0.0029258467682886954
635.0, 0.0026609703712990006
636.0, 0.002318700189961492
637.0, 0.002538472509161492
638.0, 0.0015459033421637556
639.0, 0.0018867661421905753
640.0, 0.0012986671463842657
641.0, 0.001091495782032369
642.0, 0.0013766519223704092
643.0, 0.0015798101202622202
644.0, 0.0013392946905871703
645.0, 0.0011454689316857444
646.0, 0.0010563940770689075
647.0, 0.00038743194830182756
648.0, 0.00022952249149042945
649.0, 0.0002161337838625483
650.0, 0.00023003021781512685
651.0, 0.0007345674184940458
652.0, 0.0005961094018682937
653.0, 0.0008713837960366598
654.0, 0.00046883038216764274
655.0, 0.00041726675387571485
656.0, 0.0003983002948464492
657.0, 0.00027447396438185005
658.0, 0.0004656036490241777
659.0, 0.001092295478735336
660.0, 0.0006260002113896755
661.0, 0.000250182791039408
662.0, 0.0007603436950227154
663.0, 0.0009123012042739434
664.0, 0.0006458586822520478
665.0, 0.0008371698067500673
666.0, 0.0012240844383022216
667.0, 0.00012059903885849811
668.0, 0.00016292260478015087
669.0, 0.00023777247882564805
670.0, 0.0001779561551985217
671.0, 9.753701900180664e-05
672.0, 0.0001241667862982464
673.0, 0.00025302862650061146
674.0, 0.0003898427327803635
675.0, 0.00022954412709752135
676.0, 0.00015341100652431673
677.0, 0.0005595969149040359
678.0, 0.0007097168331104172
679.0, 0.0005887833319185192
680.0, 0.0012002141094845553
681.0, 0.0008993076207006159
682.0, 0.0011053491026270013
683.0, 0.0012218391389226852
684.0, 0.0010734875814127527
685.0, 0.0010708433417020609
686.0, 0.001321525069899435
687.0, 0.0013995053102170258
688.0, 0.0008297089749223505
689.0, 0.0006023592915092265
690.0, 0.0006617234931305521
691.0, 0.0011731971015245116
692.0, 0.0009180165193437494
693.0, 0.0005720481764004303
694.0, 0.0008734834317483349
695.0, 0.00042009329338116866
696.0, 0.00093163896269995
697.0, 0.0008329150342937294
698.0, 0.0006690041614060717
699.0, 0.0004375256651424431
700.0, 0.0002137655896084443
701.0, 0.00032102283691946474
702.0, 0.0009501882600978695
703.0, 0.0010627750803179404
704.0, 0.0014473091813681704
705.0, 0.001036997378983257
706.0, 0.0015533264026307517
707.0, 0.0022744157980648222
708.0, 0.003003844726987739
709.0, 0.00395313343836206
710.0, 0.004238093453627298
711.0, 0.004117477712844443
712.0, 0.0052481677832748
713.0, 0.006387883189693384
714.0, 0.007412023929226272
715.0, 0.008594373067437716
716.0, 0.010066881577017444
717.0, 0.011626356494791858
718.0, 0.01319850201765665
719.0, 0.01458024002742921
720.0, 0.016271428311705926
721.0, 0.01901833615897961
722.0, 0.021490611149046365
723.0, 0.023701529761427472
724.0, 0.026439938530326716
725.0, 0.02888321073328467
726.0, 0.030305382627765082
727.0, 0.033398448135871735
728.0, 0.03475207517285821
729.0, 0.03554171561792443
730.0, 0.03611543073560186
731.0, 0.03608220025536855
732.0, 0.03523876370801205
733.0, 0.03434265695405826
734.0, 0.033055994002522945
735.0, 0.03195858075976638
736.0, 0.03091015451750967
737.0, 0.029715375714437248
738.0, 0.028389150275463362
739.0, 0.02649349949291795
740.0, 0.023184175619421408
741.0, 0.021007386989293546
742.0, 0.0197103994500921
743.0, 0.01750327012768705
744.0, 0.01572070756567558
745.0, 0.014169236917667603
746.0, 0.012662513634959845
747.0, 0.011373883705050603
748.0, 0.009980063047308993
749.0, 0.008440342850782103
750.0, 0.007504790965836547
751.0, 0.006992752847163266
752.0, 0.006304893419446602
753.0, 0.005239265369514261
754.0, 0.004444035773942193
755.0, 0.004567572743994461
756.0, 0.0040343414483397354
757.0, 0.0031261395397348788
758.0, 0.002998969509629229
759.0, 0.002732482032166706
760.0, 0.0023568913200411237
761.0, 0.002124331001517924
762.0, 0.0020585608834780287
763.0, 0.0018529459183138283
764.0, 0.0013280741358419265
765.0, 0.0016476549368419167
766.0, 0.0008601562048974263
767.0, 0.0013257372811886902
768.0, 0.0012162141756071547
769.0, 0.0008624154563626272
770.0, 0.0012455979611542753
771.0, 0.0006790707799745315
772.0, 0.00033189160340794477
773.0, 0.0008089347199825687
774.0, 0.0005162507440498909
775.0, 0.0008144075098195344
776.0, 0.0007949573245026331
777.0, 0.00028317493644632356
778.0, 0.00029005779583380937
779.0, 0.0011977907191785615
780.0, 0.00046415197149592645
781.0, 0.00044985840474607913
782.0, 0.0005170171103823319
783.0, 0.0005037373800123965
784.0, 0.0002656042193372164
785.0, 0.00020218251479510967
786.0, 0.0006341804422524492
787.0, 0.0007855959467908932
788.0, 0.0006147696868837436
789.0, 0.0002484575785864792
790.0, 0.0006388934289818463
791.0, 0.0010533151770107845
792.0, 0.001071252152447088
793.0, 0.0011028643481766623
794.0, 0.0012351953391948008
795.0, 0.00011437794753273362
796.0, 0.001052485222889866
797.0, 0.001465685544508572
798.0, 0.0010163564307079077
799.0, 0.001105361787038948
800.0, 0.0012919311069091836
801.0, 0.0014022716141766636
802.0, 0.0015768047452026056
803.0, 0.0009686240325123645
804.0, 0.0015553061839268846
805.0, 0.002045906988814041
806.0, 0.001802513648119794
807.0, 0.0019860442642568843
808.0, 0.0026691121576746285
809.0, 0.0029425971810341733
810.0, 0.0026904155454286734
811.0, 0.003573326592704392
812.0, 0.003041194432235961
813.0, 0.003358111857340094
814.0, 0.0035051855342608917
815.0, 0.0041352353723549465
816.0, 0.004606603217806301
817.0, 0.004875361685142764
818.0, 0.005219386433156649
819.0, 0.005290123397338219
820.0, 0.005911972095432568
821.0, 0.006553389949964671
822.0, 0.007380212272927922
823.0, 0.008238501871685447
824.0, 0.009434385370549088
825.0, 0.010723680677801956
826.0, 0.012048999753546376
827.0, 0.013832478276816669
828.0, 0.014820363298665767
829.0, 0.016801050394179715
830.0, 0.018901439565342456
831.0, 0.020259498461046913
832.0, 0.0220924572479976
833.0, 0.024713865262704467
834.0, 0.02746919112340777
835.0, 0.02949161530292877
836.0, 0.030301273974746364
837.0, 0.032127449778211005
838.0, 0.033621182855567235
839.0, 0.03509412021364114
840.0, 0.0355150318539899
841.0, 0.035849830267448854
842.0, 0.0361436774917763
843.0, 0.03562022170576343
844.0, 0.03529967933146937
845.0, 0.03526583893672968
846.0, 0.034067141956691166
847.0, 0.03369037157750475
848.0, 0.03312425436279666
849.0, 0.03270705018981804
850.0, 0.032487626963166434
851.0, 0.03230084768824341
852.0, 0.032258276538962176
853.0, 0.03172298802567808
854.0, 0.031745333468309246
855.0, 0.032764435668121115
856.0, 0.03322256251623232
857.0, 0.034509134525859776
858.0, 0.036112241632187556
859.0, 0.037255335380941994
860.0, 0.03868244635774978
861.0, 0.04179108188798241
862.0, 0.04462193631517026
863.0, 0.04943362572917143
864.0, 0.054020338166031814
865.0, 0.05825060919710191
866.0, 0.06395197684161641
867.0, 0.07174868035360371
868.0, 0.0805982234500707
869.0, 0.08961160964059552
870.0, 0.10021858683158623
871.0, 0.11126105922003866
872.0, 0.12163071005770466
873.0, 0.13225889471854127
874.0, 0.14224541167192487
875.0, 0.14919137471655688
876.0, 0.15359711834446055
877.0, 0.1567711181022658
878.0, 0.15528226584819935
879.0, 0.15383101405188704
880.0, 0.14685723903837672
881.0, 0.13999335556377807
882.0, 0.1315148020593937
883.0, 0.12322052831004539
884.0, 0.11465585305564978
885.0, 0.1050664958317051
886.0, 0.09589689564291211
887.0, 0.08778851626924325
888.0, 0.07840382611060798
889.0, 0.07179230534288183
890.0, 0.06671714521431406
891.0, 0.06291009234600282
892.0, 0.05970089634975554
893.0, 0.05686005723817991
894.0, 0.05479102090345843
895.0, 0.053890648800990114
896.0, 0.05368540905381037
897.0, 0.054044296326766654
898.0, 0.05526302476228244
899.0, 0.05587956235803678
900.0, 0.05792733816678849
901.0, 0.058862543030822986
902.0, 0.05827525963999928
903.0, 0.05800594226314117
904.0, 0.05688229506638114
905.0, 0.05482248379608617
906.0, 0.05401217100020465
907.0, 0.051176102935073395
908.0, 0.048386469644414724
909.0, 0.04599248431227612
910.0, 0.04336587074747104
911.0, 0.04006640898108205
912.0, 0.03682197333241321
913.0, 0.035082745823621794
914.0, 0.03320533028770906
915.0, 0.03193041196199137
916.0, 0.030543044900483166
917.0, 0.027708354926613627
918.0, 0.02595127506045418
919.0, 0.024905465318742007
920.0, 0.023617771150705548
921.0, 0.022586655338768816
922.0, 0.022072259177734595
923.0, 0.02002635138429394
924.0, 0.01918442478441018
925.0, 0.01926092600847367
926.0, 0.017914581467340446
927.0, 0.017368915252934457
928.0, 0.017248552871290245
929.0, 0.016973130172646796
930.0, 0.01703569796562612
931.0, 0.016946461838365106
932.0, 0.01657955757242317
933.0, 0.017691912662112935
934.0, 0.01802528012118803
935.0, 0.018531398798090713
936.0, 0.018822393194499035
937.0, 0.019185961660690094
938.0, 0.019743622731522012
939.0, 0.02029002653276822
940.0, 0.020917512512993317
941.0, 0.02125266217528381
942.0, 0.02182392617179776
943.0, 0.021565662285633256
944.0, 0.022582438193713143
945.0, 0.02317389869096694
946.0, 0.023608007936972247
947.0, 0.024385960406350535
948.0, 0.025052204352704045
949.0, 0.02520787771223722
950.0, 0.026115562055075384
951.0, 0.027011229786597247
952.0, 0.02680317518125703
953.0, 0.02718262241657572
954.0, 0.026572540247269752
955.0, 0.02619403545389144
956.0, 0.026227060725945446
957.0, 0.025637743561665195
958.0, 0.02451662292979599
959.0, 0.024712991183789626
960.0, 0.024108430751893964
961.0, 0.022981856003138096
962.0, 0.02264035811691978
963.0, 0.02207757765793515
964.0, 0.021111220262069814
965.0, 0.019966542153044463
966.0, 0.019240892913338466
967.0, 0.01879168959240794
968.0, 0.017518695637555294
969.0, 0.017966763897920502
970.0, 0.014872821368376683
971.0, 0.01425580170158397
972.0, 0.014238465005003314
973.0, 0.012894588569997619
974.0, 0.011587517193541634
975.0, 0.011064572823552823
976.0, 0.010368098782016721
977.0, 0.009017736587708833
978.0, 0.008739896883241248
979.0, 0.008577439256850483
980.0, 0.00728692511303395
981.0, 0.007191892407675221
982.0, 0.00609388745860929
983.0, 0.00568176192329208
984.0, 0.00545355792864658
985.0, 0.005355535372270558
986.0, 0.005411523233547788
987.0, 0.003943551956979538
988.0, 0.004433153870890291
989.0, 0.004667779109103134
990.0, 0.0037284864759828317
991.0, 0.0037245549083815706
992.0, 0.0032386641149423244
993.0, 0.0036660643422659614
994.0, 0.003844091741780326
995.0, 0.003133673490257602
996.0, 0.0030856872563385946
997.0, 0.0031305130308255115
998.0, 0.001626320493031604
999.0, 0.002810049380647519
1000.0, 0.002277061612360364
1001.0, 0.0019700523418239566
1002.0, 0.0026827224527008306
1003.0, 0.0027024949959400506
1004.0, 0.002108775676916419
1005.0, 0.0018715181305979669
1006.0, 0.0018718631840785934
1007.0, 0.0021459584682596805
1008.0, 0.0015083122792241086
1009.0, 0.0013787229032292032
1010.0, 0.001122951718691673
1011.0, 0.0005537774421555163
1012.0, 0.0009696794399902156
1013.0, 0.0011293841800743007
1014.0, 0.0008431706455311035
1015.0, 0.0005911476978457107
1016.0, 8.49900733968571e-05
1017.0, 9.879315328427429e-05
1018.0, 0.0005651198938719114
1019.0, 0.000252754790880736
1020.0, 0.00018416257971107163
1021.0, 0.0002422004033223439
1022.0, 0.00030844765830281563
1023.0, 0.00032277828641024396
1024.0, 0.0002995319464244368
1025.0, 0.0002967988195605838
1026.0, 0.00027664175581137995
1027.0, 0.00017403540725717678
1028.0, 0.0011023751423644046
1029.0, 0.0010014782251348317
1030.0, 0.0004932773939569191
1031.0, 0.0008973313879236324
1032.0, 0.0005965202423681923
1033.0, 0.0004851376526287964
1034.0, 0.000584214838727622
1035.0, 0.0005798936306286455
1036.0, 0.0006971798562893795
1037.0, 0.0002583405491205882
1038.0, 0.0003604783394806281
1039.0, 0.00010555078825231706
1040.0, 0.00024329759217641146
1041.0, 0.0003941251065716318
1042.0, 0.0007107906939017096
1043.0, 0.0006410320785101242
1044.0, 0.00025212011543242777
1045.0, 3.0682019490304385e-05
1046.0, 0.00016874831152676286
1047.0, 0.0005682380139422124
1048.0, 0.0012952043079980998
1049.0, 0.0003213691609771504
1050.0, 0.0006130387475624803
1051.0, 0.0008053830936575015
1052.0, 0.0003070618775604397
1053.0, 0.00021938645715272625
1054.0, 0.0002630360582314088
1055.0, 0.0002677121726620486
1056.0, 0.0003852099318357816
1057.0, 0.0004019324204187647
1058.0, 0.0004849915992057323
1059.0, 1.3493849551604495e-05
1060.0, 0.0001792185146903535
1061.0, 0.0008237713578219436
1062.0, 0.0002595769760156939
1063.0, 0.0001470982243659694
1064.0, 0.00047794009528828377
1065.0, 0.0007540677178676007
1066.0, 0.0008352452897052
1067.0, 0.0007979152734162091
1068.0, 0.0007462230045737096
1069.0, 0.0009186713892431603
1070.0, 6.711651622996696e-05
1071.0, 0.0008497851799686735
1072.0, 0.0013716417294562789
1073.0, 0.0017208100797985446
1074.0, 0.0010950698336339262
1075.0, 0.0010264471448746153
1076.0, 0.001342374158700854
1077.0, 0.001450159295305143
1078.0, 0.0021789199361066615
1079.0, 0.002984491135067089
1080.0, 0.0018179232153499435
1081.0, 0.002610539995981605
1082.0, 0.004015893014570802
1083.0, 0.004324243041126167
1084.0, 0.004978240005173118
1085.0, 0.005268517568666825
1086.0, 0.005861182160702747
1087.0, 0.006859200000001393
1088.0, 0.007330752730488911
1089.0, 0.007463996513366754
1090.0, 0.008602926258702811
1091.0, 0.007582257425791331
1092.0, 0.007292048128968856
1093.0, 0.008021308929453632
1094.0, 0.007345487967156452
1095.0, 0.006880474777046099
1096.0, 0.006489500263949004
1097.0, 0.006112954816985376
1098.0, 0.006055065780771429
1099.0, 0.0057654433181195406
1100.0, 0.004870314345378634
1101.0, 0.005290234879643233
1102.0, 0.005807525266966343
1103.0, 0.0045379841601052885
1104.0, 0.004915637153083334
1105.0, 0.004283377500504418
1106.0, 0.003538768127219464
1107.0, 0.0028902158274503207
1108.0, 0.002646220394761861
1109.0, 0.002951543003996707
1110.0, 0.003210432582954007
1111.0, 0.003183843238997833
1112.0, 0.0038205715697212173
1113.0, 0.0036899947418771255
1114.0, 0.003295279777706126
1115.0, 0.003083857184802682
1116.0, 0.0031177330693035353
1117.0, 0.002978957075384071
1118.0, 0.002645930125661305
1119.0, 0.0031190838945618733
1120.0, 0.0031876931695132946
1121.0, 0.002897732510987887
1122.0, 0.0030845109137974656
1123.0, 0.0025407997535843193
1124.0, 0.0027058858329782444
1125.0, 0.0022352269026938458
1126.0, 0.00212878407843051
1127.0, 0.00203490110184611
1128.0, 0.0020741688030595376
1129.0, 0.002341900584044782
1130.0, 0.002671105090101057
1131.0, 0.0020956607875505452
1132.0, 0.0019692267418860722
1133.0, 0.002267504728332039
1134.0, 0.0014431746859111037
1135.0, 0.001983562887781051
1136.0, 0.0019522316521440254
1137.0, 0.0014985529363649227
1138.0, 0.0022014682471821847
1139.0, 0.001983262518000502
1140.0, 0.0017754388844909701
1141.0, 0.0015543684789405088
1142.0, 0.0015668179561019614
1143.0, 0.0012843034367762208
1144.0, 0.0011953585544812572
1145.0, 0.0016233139877355521
1146.0, 0.0013452552175283166
1147.0, 0.0006623407190907704
1148.0, 0.001200864746208531
1149.0, 0.0016696013583324893
1150.0, 0.0011666140519018173
1151.0, 0.0011507104336011815
1152.0, 0.001852062533955659
1153.0, 0.0018986197437173644
1154.0, 0.0017907364353607368
1155.0, 0.0017111951814478598
1156.0, 0.0013892096464194563
1157.0, 0.0010562134524731992
1158.0, 0.0012456414549244553
1159.0, 0.0015452714045508858
1160.0, 0.00032551611226138777
1161.0, 0.0016736499280770576
1162.0, 0.0008264389662849807
1163.0, 0.0007364585267732025
1164.0, 0.0006934380047212736
1165.0, 0.0009468938253261655
1166.0, 0.0010299763744170732
1167.0, 0.0009448865633011952
1168.0, 0.0010281527746485396
1169.0, 0.0011127706252893248
1170.0, 0.0009069232059033454
1171.0, 0.0009746871544076818
1172.0, 0.0013959013413776125
1173.0, 0.0007019844474604973
1174.0, 0.001351805779329218
1175.0, 0.00040567162731168597
1176.0, 0.000658614684536425
1177.0, 0.0005406186078709783
1178.0, 0.00033230184747259374
1179.0, 0.0003998146200791966
1180.0, 0.000626460380760588
1181.0, 0.000857583337484268
1182.0, 0.0008191464920027415
1183.0, 0.0003892242436867503
1184.0, 0.0006893919702074657
1185.0, 0.0007996172895840521
1186.0, 0.00031299206651627063
1187.0, 0.0012826187674346604
1188.0, 0.0006990437437047194
1189.0, 0.0005136094126302483
1190.0, 0.00021300171153537472
1191.0, 0.00012367559177748916
1192.0, 0.00021514113607927872
1193.0, 0.00028565929519520493
1194.0, 0.0004264680419077027
1195.0, 0.0004972305780876895
1196.0, 0.00015449522642597822
1197.0, 0.00021079817088975772
1198.0, 0.0001854418388381368
1199.0, 0.0007859534283017606
1200.0, 0.0004377324458162546
1201.0, 0.00019705028916289355
1202.0, 0.00013472773841736904
1203.0, 0.00016285585589647988
1204.0, 0.00029487230801759494
1205.0, 0.00022101300489895707
1206.0, 0.00027142335660356153
1207.0, 0.0005142280340697509
1208.0, 0.00037102396505170045
1209.0, 0.00036811065148657356
1210.0, 0.000407401072480621
1211.0, 0.000338301879616165
1212.0, 0.0007190579379041998
1213.0, 0.00017135980777187933
1214.0, 2.9595757828413094e-05
1215.0, 0.0002993763211129242
1216.0, 0.0003513416987053928
1217.0, 0.0002675441257848942
1218.0, 0.00013257701300001476
1219.0, 4.651493443683764e-05
1220.0, 4.541320366850077e-05
1221.0, 7.420248555570534e-05
1222.0, 0.00018752778096236227
1223.0, 0.0001717577673864174
1224.0, 0.0003570703052125794
1225.0, 8.81065171553089e-05
1226.0, 0.0004328829060803813
1227.0, 0.00011305751381765762
1228.0, 0.0001265971517028327
1229.0, 0.0005208009466968938
1230.0, 0.0004168930098281745
1231.0, 0.0002442615490815935
1232.0, 0.0004865178832611915
1233.0, 0.0009879440713690697
1234.0, 0.0010413511251953734
1235.0, 0.00033084434506283936
1236.0, 0.00018337373978424354
1237.0, 0.0008596090882321706
1238.0, 0.00038605720813777365
1239.0, 0.0010272955879650322
1240.0, 0.0009980707993882943
1241.0, 0.0008388926054954172
1242.0, 0.0009138064206092531
1243.0, 0.000762617374831945
1244.0, 0.0006027786934374493
1245.0, 0.0007398383285582308
1246.0, 0.0006858171328954189
1247.0, 0.0004639990945981618
1248.0, 0.0005149699351968688
1249.0, 0.0003888008920075821
1250.0, 7.164910593303134e-05
1251.0, 0.00024195701600793166
1252.0, 0.0002165154950610085
1253.0, 0.00037475350636868436
1254.0, 0.00043478524175218644
1255.0, 0.0004257592819266977
1256.0, 0.0009164245284063607
1257.0, 0.0007242977404256562
1258.0, 0.000795872971876533
1259.0, 0.0011161812959867277
1260.0, 0.0011531558140047652
1261.0, 0.0011208224403775873
1262.0, 0.0012743584800906454
1263.0, 0.001300327106669887
1264.0, 0.0011809119002069884
1265.0, 0.0009910564893421932
1266.0, 0.0010356109143731225
1267.0, 0.0013692202800196496
1268.0, 0.0007162787081335369
1269.0, 0.0001023202434722858
1270.0, 0.0009568336953388562
1271.0, 0.0014287090724207322
1272.0, 0.0012842396248454663
1273.0, 0.000901889839453114
1274.0, 0.0006799688154971524
1275.0, 0.0006027742234843478
1276.0, 0.0003558995220053552
1277.0, 0.0003131998692083311
1278.0, 0.0009600257090282741
1279.0, 0.0012315713615607068
1280.0, 0.0017388960763753496
1281.0, 0.0008658313273153005
1282.0, 0.0011835725569186656
1283.0, 0.0006843307960718774
1284.0, 0.0012009427260389891
1285.0, 0.0012886226615912311
1286.0, 0.00123450735503518
1287.0, 0.001220739964828025
1288.0, 0.0013301110037540534
1289.0, 0.001305617195083506
1290.0, 0.0010447331743284932
1291.0, 0.0012085136021122375
1292.0, 0.0013776858015538032
1293.0, 0.0008444270726856999
1294.0, 0.0019557591856281782
1295.0, 0.0021696564640550004
1296.0, 0.002198755867852921
1297.0, 0.0009993176890516929
1298.0, 0.0013666791631368176
1299.0, 0.001307255838270043
1300.0, 0.0006443108193337734
1301.0, 0.0006063748236742146
1302.0, 0.0003704326354583803
1303.0, 0.00027824086974545157
1304.0, 0.0010597711811996227
1305.0, 0.0012779157542892618
1306.0, 0.0009914477662965543
1307.0, 0.0014526162033738446
1308.0, 0.001352846543407477
1309.0, 0.0001405999370076674
1310.0, 0.0006877097440692169
1311.0, 0.0011659809512700673
1312.0, 0.0018126121783456296
1313.0, 0.0013028613255602207
1314.0, 0.0007646318934273286
1315.0, 0.0011684001666688918
1316.0, 0.0017130822960171157
1317.0, 0.0012296778952817268
1318.0, 0.0016561864387415904
1319.0, 0.0014976532416845526
1320.0, 0.0013898167358816686
1321.0, 0.001520654267432168
1322.0, 0.0018078074526933225
1323.0, 0.0022064311835529437
1324.0, 0.002000772464889371
1325.0, 0.0017785915646454376
1326.0, 0.002008270005038776
1327.0, 0.0017645747134803613
1328.0, 0.0014707190828532998
1329.0, 0.0015508497078292683
1330.0, 0.0014352855889872803
1331.0, 0.002013391632174657
1332.0, 0.0018994826771986497
1333.0, 0.0018709996883216624
1334.0, 0.0018805421940147765
1335.0, 0.0018759593001065136
1336.0, 0.0018092963022803047
1337.0, 0.0017082057817276685
1338.0, 0.0013601109761855938
1339.0, 0.001223858337180728
1340.0, 0.001408690839827626
1341.0, 0.001335251900708121
1342.0, 0.0015068144900059303
1343.0, 0.0008266381345898091
1344.0, 0.0008523407342727963
1345.0, 0.0017305140943575453
1346.0, 0.0009320156105055363
1347.0, 0.0013787914767013352
1348.0, 0.0013499859525640727
1349.0, 0.001260148468024822
1350.0, 0.0012312160547140062
1351.0, 0.0011933144508909487
1352.0, 0.0013055948964507563
1353.0, 0.0011391159128370187
1354.0, 0.0009694777692094058
1355.0, 0.0007668010289731304
1356.0, 0.0007800686786236526
1357.0, 0.0013645341341525527
1358.0, 0.0017356245103597292
1359.0, 0.0015595540748280803
1360.0, 0.0018054723791768883
1361.0, 0.001812278026410271
1362.0, 0.0016395519848971898
1363.0, 0.0012074860515055557
1364.0, 0.0010477660825679639
1365.0, 0.000865248156672196
1366.0, 0.0008198303946832619
1367.0, 0.0008330353918723576
1368.0, 0.0010674464406472085
1369.0, 0.0015871336875374288
1370.0, 0.0013444302920810512
1371.0, 0.000786487971531776
1372.0, 0.0010524869980497507
1373.0, 0.0009099476168049112
1374.0, 0.0010379813017255789
1375.0, 0.0018372297025628817
1376.0, 0.0015249007469897223
1377.0, 0.0014904710826578252
1378.0, 0.0018268023565000998
1379.0, 0.0017129400514543083
1380.0, 0.0014669153597045305
1381.0, 0.0010777778278476518
1382.0, 0.0010980255446660899
1383.0, 0.0012467718519192654
1384.0, 0.0010024729676835328
1385.0, 0.0007236518582499087
1386.0, 0.0006437788968586037
1387.0, 0.001164453537420319
1388.0, 0.0009908467502894524
1389.0, 0.0008537114373524066
1390.0, 0.001266495272179899
1391.0, 0.0013218217736802864
1392.0, 0.001424788511617098
1393.0, 0.00149301848417682
1394.0, 0.0012203825190208164
1395.0, 0.0016088862458634775
1396.0, 0.001988921443781
1397.0, 0.0014623083039034313
1398.0, 0.001573185288221915
1399.0, 0.0012854219267327974
1400.0, 0.0009128863700371586
1401.0, 0.0011842985063357813
1402.0, 0.0013971902612372003
1403.0, 0.0010695557931620992
1404.0, 0.00035302428563299725
1405.0, 0.0010553805159975915
1406.0, 0.0010766813934645412
1407.0, 0.000705679962739517
1408.0, 0.001153208271074075
1409.0, 0.0015425807664366897
1410.0, 0.0012300013213722085
1411.0, 0.0016768700136248985
1412.0, 0.0020254530219175016
1413.0, 0.0016167110407083567
1414.0, 0.0013903593876251927
1415.0, 0.0013173378665034664
1416.0, 0.0012446393009260214
1417.0, 0.0008862243695912449
1418.0, 0.00140219985005393
1419.0, 0.001481659888856461
1420.0, 0.0010412616351733724
1421.0, 0.0009828417459833965
1422.0, 0.0016830764046115603
1423.0, 0.0010544004356642302
1424.0, 0.001487755786294538
1425.0, 0.001316317574943559
1426.0, 0.0009232244717791544
1427.0, 0.0013042814803880033
1428.0, 0.0004603819044606205
1429.0, 0.0007675906939643095
1430.0, 0.0013565160733767139
1431.0, 0.0013735473561274874
1432.0, 0.0010472747734960055
1433.0, 0.0008690615269619393
1434.0, 0.001052608086100707
1435.0, 0.0013852641642811516
1436.0, 0.0015634598475844563
1437.0, 0.001371817531660965
1438.0, 0.0009015561417522708
1439.0, 0.0007409316035837492
1440.0, 0.0010600622925559262
1441.0, 0.0010124070623150128
1442.0, 0.0007339198940007395
1443.0, 0.00108126139862902
1444.0, 0.0011428668274108926
1445.0, 0.0015679418869570308
1446.0, 0.0011396453681648364
1447.0, 0.0006952108323327497
1448.0, 0.0003498513456614996
1449.0, 0.0008338815900241729
1450.0, 0.0015912760975706338
1451.0, 0.0007498824724603845
1452.0, 0.0010151933132771748
1453.0, 0.0011386373453657899
1454.0, 0.0007056436733632185
1455.0, 0.000760142666850092
1456.0, 0.0006117932110127837
1457.0, 0.0003755840340909537
1458.0, 0.0005697867850683704
1459.0, 0.0006175343508142989
1460.0, 0.000810231645634956
1461.0, 0.0011137985596042697
1462.0, 0.0014820083193675267
1463.0, 0.0012045133049765028
1464.0, 0.001331404384018621
1465.0, 0.0012176290192389156
1466.0, 0.0010053905303794013
1467.0, 0.0006970930102353135
1468.0, 0.0006858074166975252
1469.0, 0.0006746692078423687
1470.0, 0.0005352799389980748
1471.0, 0.0007017298463463798
1472.0, 0.0005243479688860148
1473.0, 0.00015557333362529798
1474.0, 0.0008403651169431885
1475.0, 0.0009037917689021291
1476.0, 0.0005090245922901261
1477.0, 0.0005339733064331886
1478.0, 0.0005497177102221818
1479.0, 0.0002778845763112472
1480.0, 0.00040231406800566986
1481.0, 0.000909173868527716
1482.0, 0.0012097665222999346
1483.0, 0.000982582798788562
1484.0, 0.0006182199541551769
1485.0, 0.0007737094460338095
1486.0, 0.0008522402157766974
1487.0, 0.0009890873260295324
1488.0, 0.000853559498050964
1489.0, 0.00041391527918224205
1490.0, 0.0007129964911357479
1491.0, 0.0006165852472072421
1492.0, 8.326562724493704e-05
1493.0, 0.0006436680884974068
1494.0, 0.0009664422743797369
1495.0, 0.0006929513658387916
1496.0, 0.000810125520180152
1497.0, 0.0007720538967851791
1498.0, 0.00034613809523515425
1499.0, 0.0007738285678709495
1500.0, 0.0002979625354024895
1501.0, 0.00030128674630704324
1502.0, 0.0006256012626626943
1503.0, 0.0005337129579688887
1504.0, 0.0001757413194275675
1505.0, 0.00035137774454669426
1506.0, 0.001089000343128918
1507.0, 0.0015185375797313392
1508.0, 0.0010289385964113152
1509.0, 0.0009849703921753408
1510.0, 0.0011922662305187156
1511.0, 0.0005243176850569599
1512.0, 0.0006263130529719204
1513.0, 0.0009833587947186131
1514.0, 0.0005744339025840103
1515.0, 0.000415328499086136
1516.0, 0.0006823976925868873
1517.0, 0.0005329349560252867
1518.0, 0.0004057445165888825
1519.0, 0.0002187083449329796
1520.0, 0.0006614126271780945
1521.0, 6.0408852323816175e-05
1522.0, 0.00039228245086900997
1523.0, 0.001061149521114573
1524.0, 0.00025880349801426405
1525.0, 0.0003084513537531588
1526.0, 0.0003942042276275929
1527.0, 0.0002836607098346442
1528.0, 0.0005855211430482629
1529.0, 0.00036368344908444087
1530.0, 0.0006734417936637887
1531.0, 0.00040260651667861104
1532.0, 0.00028883292708405757
1533.0, 0.0007314817194760755
1534.0, 0.0007803130948175947
1535.0, 0.000695103938230498
1536.0, 0.0007556747377728972
1537.0, 0.0007550194890850995
1538.0, 0.0005398868905709676
1539.0, 0.0005969833410066574
1540.0, 0.000595947159355657
1541.0, 0.0005232597284899558
1542.0, 0.0008282687986631658
1543.0, 0.0009293806464386109
1544.0, 0.001099134941271914
1545.0, 0.0011428901724548442
1546.0, 0.0011450972957268068
1547.0, 0.0008453319003524542
1548.0, 0.00156841912752921
1549.0, 0.0021974883576096277
1550.0, 0.0033340744151298474
1551.0, 0.004213064459811709
1552.0, 0.00450822621457243
1553.0, 0.004497947752318758
1554.0, 0.0018240583712763737
1555.0, 0.001217022701516159
1556.0, 0.0009215327649469513
1557.0, 0.0006148882172041649
1558.0, 0.00010553484776936619
1559.0, 0.0004425774906040864
1560.0, 0.0002694020858879095
1561.0, 0.0006920455640185457
1562.0, 0.0010325458414246684
1563.0, 0.0008632249961644376
1564.0, 0.0005588257812686582
1565.0, 0.0006855655318242054
1566.0, 0.0004907270240937587
1567.0, 0.00036861502360917037
1568.0, 0.00011611781214319143
1569.0, 0.0003741220496765672
1570.0, 0.00021493499205091127
1571, 0.0
1572, 0.0
1573, 0.0
1574, 0.0
1575, 0.0
1576, 0.0
1577, 0.0
1578, 0.0
1579, 0.0
1580, 0.0
1581, 0.0
1582, 0.0
1583, 0.0
1584, 0.0
1585, 0.0
1586, 0.0
1587, 0.0
1588, 0.0
1589, 0.0
1590, 0.0
1591, 0.0
1592, 0.0
1593, 0.0
1594, 0.0
1595, 0.0
1596, 0.0
1597, 0.0
1598, 0.0
1599, 0.0
