30, 0.0
31, 0.0
32, 0.0
33, 0.0
34, 0.0
35, 0.0
36, 0.0
37, 0.0
38, 0.0
39, 0.0
40, 0.0
41, 0.0
42, 0.0
43, 0.0
44, 0.0
45, 0.0
46, 0.0
47, 0.0
48, 0.0
49, 0.0
50, 0.0
51, 0.0
52.0, 0.000228344528695711
53.0, 0.0003914198849637028
54.0, 0.00012973825168971083
55.0, 0.0004860754100476446
56.0, 0.0005482739740512906
57.0, 0.0012780604772143276
58.0, 0.0020380184614570643
59.0, 0.0020874161656464192
60.0, 0.002129202113059712
61.0, 0.0013355834243566637
62.0, 0.0006054439847613171
63.0, 0.00021158061403946882
64.0, 0.00021354637235318572
65.0, 0.00042440968221920116
66.0, 0.0007035275152774278
67.0, 0.0005418383306340459
68.0, 0.0003566601790841559
69.0, 0.0004437956707726755
70.0, 0.0008360888473386871
71.0, 0.0004973648989175837
72.0, 0.001188750294949619
73.0, 0.0023079343830551967
74.0, 0.0029567634747978033
75.0, 0.0022313040207418166
76.0, 0.0020328327228752024
77.0, 0.0022355545907166673
78.0, 0.0029989327987730782
79.0, 0.00445997496302587
80.0, 0.006356036765814062
81.0, 0.006123915922390572
82.0, 0.008523966611041081
83.0, 0.00805567357101167
84.0, 0.006627667681462089
85.0, 0.006622185335777504
86.0, 0.006672059437472088
87.0, 0.00889599150729671
88.0, 0.011263158867308545
89.0, 0.013181913224623186
90.0, 0.014265918929867977
91.0, 0.014243676873123827
92.0, 0.013669664246092787
93.0, 0.013252394609105527
94.0, 0.013274988082091543
95.0, 0.013510577736329556
96.0, 0.013428947329354948
97.0, 0.014109302131055889
98.0, 0.014344504635336146
99.0, 0.014260332637977378
100.0, 0.014783428421884407
101.0, 0.016780604375650866
102.0, 0.019238472567140737
103.0, 0.02440242203327697
104.0, 0.033459538608798696
105.0, 0.040660970497142776
106.0, 0.04317436040845734
107.0, 0.04805188834054229
108.0, 0.0523911937864391
109.0, 0.05460231332676465
110.0, 0.05749842597018593
111.0, 0.06188164689521158
112.0, 0.06588800305176604
113.0, 0.06509590178677724
114.0, 0.05872157810182431
115.0, 0.04950496447888195
116.0, 0.03984187900454754
117.0, 0.031666861482049946
118.0, 0.02529080957995196
119.0, 0.022018483653969207
120.0, 0.02067958606367878
121.0, 0.01949341085623043
122.0, 0.017121358108489318
123.0, 0.013893996692663049
124.0, 0.012620297365836086
125.0, 0.012022145109192549
126.0, 0.012228199473191013
127.0, 0.012918076942190583
128.0, 0.013163711086610118
129.0, 0.012394245251081749
130.0, 0.012048027196652019
131.0, 0.011258144479764157
132.0, 0.010424365219209508
133.0, 0.01033804257964015
134.0, 0.009909731841472019
135.0, 0.01089466781960425
136.0, 0.01146630367865019
137.0, 0.011778498224507735
138.0, 0.011804195125444622
139.0, 0.01006602466458855
140.0, 0.008283448788508544
141.0, 0.008025224149958005
142.0, 0.007410658621261298
143.0, 0.006670489511886127
144.0, 0.007995315190131901
145.0, 0.007772818454262757
146.0, 0.00822433166857353
147.0, 0.008549978252534618
148.0, 0.008693807858852997
149.0, 0.008857917954022826
150.0, 0.009005768057733496
151.0, 0.008943638784494624
152.0, 0.008717805056912782
153.0, 0.008204269310547355
154.0, 0.007353749926065781
155.0, 0.006267503579630641
156.0, 0.00683036344580904
157.0, 0.006465575440822555
158.0, 0.006416991108132122
159.0, 0.007273175755670476
160.0, 0.008887858731502859
161.0, 0.009351444552301696
162.0, 0.010080443229948442
163.0, 0.010862129105557557
164.0, 0.011402554404317646
165.0, 0.011599723656893273
166.0, 0.011822668794212895
167.0, 0.011788340545339303
168.0, 0.012446662744842487
169.0, 0.012617536011083622
170.0, 0.012328070889039812
171.0, 0.012622006896784626
172.0, 0.012990260674443999
173.0, 0.012384179832873128
174.0, 0.012554120331439579
175.0, 0.012715435364955781
176.0, 0.012236798603166529
177.0, 0.013348066490596507
178.0, 0.011246542686702953
179.0, 0.010345252352905681
180.0, 0.00990250010374092
181.0, 0.009695863126717262
182.0, 0.010282415671324045
183.0, 0.009074247817633163
184.0, 0.008738056056163812
185.0, 0.008450234854049034
186.0, 0.008198717451070116
187.0, 0.008198117579830431
188.0, 0.008418622305707257
189.0, 0.008424911460402586
190.0, 0.009113950576984173
191.0, 0.009646423401094397
192.0, 0.009711550048626465
193.0, 0.00976053169574151
194.0, 0.009692730265592392
195.0, 0.010534141278804643
196.0, 0.010974058501274359
197.0, 0.011276689407114805
198.0, 0.012178959765978221
199.0, 0.013989315100335336
200.0, 0.01476230794551328
201.0, 0.013774137844991244
202.0, 0.011245477967326561
203.0, 0.008459161753010562
204.0, 0.007390486136809793
205.0, 0.007034876700934244
206.0, 0.0061045974576049745
207.0, 0.006336763032168972
208.0, 0.00731631971546749
209.0, 0.008175200022317138
210.0, 0.008955706428315308
211.0, 0.009571997544560621
212.0, 0.010363316528015977
213.0, 0.010506423187493008
214.0, 0.010057271227290939
215.0, 0.009862053699958722
216.0, 0.010043998665179769
217.0, 0.010726050481031148
218.0, 0.010529132514078892
219.0, 0.010043829495083674
220.0, 0.009943754196958518
221.0, 0.009869506368280023
222.0, 0.008365277338029019
223.0, 0.008339701128025538
224.0, 0.008308732235554048
225.0, 0.007898627165291463
226.0, 0.007653941211676187
227.0, 0.008279257791491298
228.0, 0.00867255738908585
229.0, 0.008882504090025535
230.0, 0.009205218907098134
231.0, 0.009738793056431178
232.0, 0.010203655970223845
233.0, 0.010094217089782807
234.0, 0.011183367488847844
235.0, 0.012165710378242161
236.0, 0.01319448998191771
237.0, 0.014937728638793621
238.0, 0.017452849600583464
239.0, 0.01841438050543505
240.0, 0.021415896684820388
241.0, 0.025494541166676803
242.0, 0.02987497143167627
243.0, 0.034592181038029045
244.0, 0.04143379775754775
245.0, 0.049415035047313365
246.0, 0.05779435994759777
247.0, 0.0662068974239135
248.0, 0.07370851162889883
249.0, 0.07816552437522796
250.0, 0.07517115883242467
251.0, 0.07023872573120009
252.0, 0.06401787698025034
253.0, 0.05778804509770837
254.0, 0.05285109642899429
255.0, 0.04935652942430028
256.0, 0.046354660806666975
257.0, 0.04351658190674016
258.0, 0.04093980703263134
259.0, 0.03885198853799453
260.0, 0.0374353014821587
261.0, 0.03553452767507082
262.0, 0.03392500245740599
263.0, 0.03343016467694488
264.0, 0.033161389002612854
265.0, 0.032621168905098204
266.0, 0.032996742296019496
267.0, 0.03525616716116137
268.0, 0.03764286082840349
269.0, 0.04157810664566208
270.0, 0.04710639653201394
271.0, 0.05364571236167613
272.0, 0.06125384237779489
273.0, 0.07089102539358505
274.0, 0.08303218015281097
275.0, 0.09880967152328543
276.0, 0.11721240991758237
277.0, 0.13561259890386546
278.0, 0.15353267580614122
279.0, 0.1658282252802072
280.0, 0.16807997471629088
281.0, 0.16141175353309634
282.0, 0.1481482511544975
283.0, 0.1302206492480395
284.0, 0.10911756682761535
285.0, 0.09074090696200358
286.0, 0.07546967348920057
287.0, 0.06270214817177322
288.0, 0.05158672438889046
289.0, 0.041740266367753756
290.0, 0.035541289954069855
291.0, 0.03144325209492969
292.0, 0.02790302218021543
293.0, 0.02428224901034914
294.0, 0.020854496878913345
295.0, 0.0190832725388499
296.0, 0.01690887127709978
297.0, 0.015707635803606526
298.0, 0.014650277946784541
299.0, 0.013544071416278024
300.0, 0.01293942187886955
301.0, 0.013306417865200497
302.0, 0.012609078865203627
303.0, 0.011854909127610098
304.0, 0.011589687883332622
305.0, 0.011578599309953766
306.0, 0.010906720778553545
307.0, 0.010817388583907754
308.0, 0.01065590026542598
309.0, 0.010459485667598478
310.0, 0.010075468969811659
311.0, 0.0095194160908297
312.0, 0.0091323407818516
313.0, 0.007587965845964924
314.0, 0.006675812487799684
315.0, 0.006182507860535285
316.0, 0.0061836089877926196
317.0, 0.006655715019983524
318.0, 0.007103043606947792
319.0, 0.006767952701116819
320.0, 0.007890893178207856
321.0, 0.008883759811197657
322.0, 0.010104132565490693
323.0, 0.012477818074267219
324.0, 0.015229404674059217
325.0, 0.018341115402383586
326.0, 0.022192636958048493
327.0, 0.02695642360243687
328.0, 0.03220611394559167
329.0, 0.036870079311689376
330.0, 0.03872411734544242
331.0, 0.038487429200245435
332.0, 0.0333556498997825
333.0, 0.027489462992920956
334.0, 0.022943397886186035
335.0, 0.019105879396761373
336.0, 0.014743990794397206
337.0, 0.012112390651180372
338.0, 0.010697275484097143
339.0, 0.011251719006679777
340.0, 0.013453551765919936
341.0, 0.01619104774077816
342.0, 0.021231294018715853
343.0, 0.02479720747836294
344.0, 0.025165485647734215
345.0, 0.021965613796548662
346.0, 0.01630545570419409
347.0, 0.010455887944803415
348.0, 0.006153094201911102
349.0, 0.0036460230337814793
350.0, 0.0016641987578548722
351.0, 0.0007342820216556221
352.0, 0.001082296732242176
353.0, 0.0020329894549403456
354.0, 0.0019262776564886817
355.0, 0.0025157043205770433
356.0, 0.001994296145177128
357.0, 0.0009210982603724839
358.0, 0.00026396438677202987
359.0, 0.0006017476790012063
360.0, 0.001200284330470442
361.0, 0.0022592167820770065
362.0, 0.0032800530767239148
363.0, 0.004027311809260001
364.0, 0.00464720723374398
365.0, 0.00552007527957992
366.0, 0.0046870311884383295
367.0, 0.003841077971252151
368.0, 0.004064991590087841
369.0, 0.004305576625416037
370.0, 0.003697306678108206
371.0, 0.002567721321871213
372.0, 0.00289459939487407
373.0, 0.0016478041325333427
374.0, 0.0009311875097796516
375.0, 0.0008495388626009568
376.0, 0.0012641258647781333
377.0, 0.002331337325277493
378.0, 0.00366260745440984
379.0, 0.0044803916032375895
380.0, 0.006450876634133123
381.0, 0.009028679054352064
382.0, 0.012117990946909097
383.0, 0.01644506969967614
384.0, 0.018577958300124885
385.0, 0.020383934054745836
386.0, 0.019629251435810093
387.0, 0.017742306058954948
388.0, 0.016286431036892694
389.0, 0.015724241678563858
390.0, 0.014960938529113845
391.0, 0.015574296545199885
392.0, 0.017067305707901832
393.0, 0.01916272326444715
394.0, 0.021430194241255137
395.0, 0.023143487235090274
396.0, 0.022444521439044345
397.0, 0.020611553736287064
398.0, 0.017936741626738924
399.0, 0.015141413017971223
400.0, 0.01214818361007117
401.0, 0.008553252008019176
402.0, 0.0063653682036157195
403.0, 0.004847193950930993
404.0, 0.005179733301573007
405.0, 0.0050904368386977625
406.0, 0.005035009503838361
407.0, 0.006804816423165242
408.0, 0.008010575438191829
409.0, 0.009008806512188912
410.0, 0.011465316057203048
411.0, 0.013740235552869875
412.0, 0.015187359644666686
413.0, 0.015680520706906217
414.0, 0.014170260849929893
415.0, 0.01279855823369968
416.0, 0.010432302368097487
417.0, 0.00894056485032652
418.0, 0.0074431522052925015
419.0, 0.004905496859391668
420.0, 0.003094963243085768
421.0, 0.002701455993806897
422.0, 0.0025907945636037782
423.0, 0.002995042160931584
424.0, 0.003488556795586267
425.0, 0.003458814588017981
426.0, 0.002552457797040644
427.0, 0.002081014535397572
428.0, 0.0013543592559016708
429.0, 0.0008759555657509258
430.0, 0.000687667462886989
431.0, 0.0007275141112834174
432.0, 0.0009954633294208671
433.0, 0.0017821449079963732
434.0, 0.0023433944913361197
435.0, 0.002225758531769982
436.0, 0.0024216262977430235
437.0, 0.0025270587256930118
438.0, 0.001534040503298693
439.0, 0.0024190271715434377
440.0, 0.003261163196165049
441.0, 0.0033104589289698234
442.0, 0.0027172965154181926
443.0, 0.0017730344152775547
444.0, 0.0008070192326836004
445.0, 0.00015230664690144664
446.0, 0.0001931316750384118
447.0, 0.001116356104038703
448.0, 0.0016650181899769908
449.0, 0.002538718301011105
450.0, 0.004048724776569972
451.0, 0.004424566708871941
452.0, 0.0052855815344332304
453.0, 0.005542549582602436
454.0, 0.005369450829675287
455.0, 0.0047323960339418865
456.0, 0.004213309237113566
457.0, 0.004643688748958547
458.0, 0.003405678473458718
459.0, 0.0030006458143744955
460.0, 0.0032590953890846153
461.0, 0.004281703628960331
462.0, 0.005269523009351379
463.0, 0.005486509901711133
464.0, 0.006729592086484773
465.0, 0.006792214287494793
466.0, 0.008165700679542132
467.0, 0.009689149768139317
468.0, 0.01091072820617864
469.0, 0.012088674973918625
470.0, 0.013888855112464456
471.0, 0.01617576975034834
472.0, 0.017780249539258965
473.0, 0.019565087924816014
474.0, 0.02088912598355608
475.0, 0.021062184602884386
476.0, 0.020292000835899063
477.0, 0.021395787829391548
478.0, 0.0207706787631023
479.0, 0.019713281657005127
480.0, 0.01919337519763267
481.0, 0.019410764111254745
482.0, 0.01987538630209461
483.0, 0.019792138381792477
484.0, 0.020007081329655795
485.0, 0.021744784189998995
486.0, 0.02405410638257755
487.0, 0.026897950258692817
488.0, 0.030541024355051398
489.0, 0.03508995548366171
490.0, 0.04106020271766139
491.0, 0.04857137033966808
492.0, 0.0577991624264029
493.0, 0.07053082808776048
494.0, 0.08570676964911471
495.0, 0.10019792988961936
496.0, 0.1133376807977092
497.0, 0.11744049863018827
498.0, 0.11563147885526667
499.0, 0.10639558909094084
500.0, 0.09537827529304392
501.0, 0.0868844760931988
502.0, 0.07726975758055168
503.0, 0.07398413453444246
504.0, 0.07178189567654696
505.0, 0.07098627017593057
506.0, 0.07100821556711905
507.0, 0.07171255040671176
508.0, 0.07333413263917389
509.0, 0.07501038569639841
510.0, 0.0738649766560877
511.0, 0.06947998560426576
512.0, 0.06350092944543223
513.0, 0.05775951551857554
514.0, 0.05284007728963356
515.0, 0.047486841798984714
516.0, 0.0444253370849437
517.0, 0.04251322257470664
518.0, 0.04154922155346637
519.0, 0.04191111051893529
520.0, 0.04420298877626862
521.0, 0.048735122340940774
522.0, 0.054585563071312564
523.0, 0.062402765906878925
524.0, 0.07120011736044199
525.0, 0.08015515722299238
526.0, 0.08971916489187565
527.0, 0.09868319842875403
528.0, 0.1029198280334966
529.0, 0.10129595024267601
530.0, 0.09539927659702328
531.0, 0.08860109782506252
532.0, 0.08036927354286778
533.0, 0.07122660302882974
534.0, 0.0627666257908908
535.0, 0.0560338879841497
536.0, 0.050766354068602776
537.0, 0.047129193633786155
538.0, 0.046587949093025674
539.0, 0.047564320498158674
540.0, 0.049306100037205404
541.0, 0.05330545918240532
542.0, 0.061162560032476505
543.0, 0.07082732700791486
544.0, 0.0855335930122884
545.0, 0.10447608790639987
546.0, 0.12791729339530736
547.0, 0.15807789488433927
548.0, 0.19825359616906968
549.0, 0.24200654299340507
550.0, 0.2789963663522911
551.0, 0.2959814089030873
552.0, 0.2876614636702751
553.0, 0.2578501555261433
554.0, 0.2160300178641598
555.0, 0.170178620941666
556.0, 0.13351395471990196
557.0, 0.1016557412462696
558.0, 0.07842354439291144
559.0, 0.06066770185765151
560.0, 0.046645873956642346
561.0, 0.03791220522538416
562.0, 0.030748225216091156
563.0, 0.025750657675868312
564.0, 0.021801477973557217
565.0, 0.01949150025722646
566.0, 0.017846358925482537
567.0, 0.016329041637385775
568.0, 0.015933751898626877
569.0, 0.013882506842874454
570.0, 0.014155745287770253
571.0, 0.014484787832234645
572.0, 0.0147214421665342
573.0, 0.015428647827194117
574.0, 0.016786787338629015
575.0, 0.01765993626313385
576.0, 0.01772195217960045
577.0, 0.020951869321961976
578.0, 0.02388359260938289
579.0, 0.027422654113970667
580.0, 0.033013979623407866
581.0, 0.04076437949960382
582.0, 0.048404239510502246
583.0, 0.06347293861046624
584.0, 0.08547062176104517
585.0, 0.11478806987555801
586.0, 0.15332735626256827
587.0, 0.20439232718009925
588.0, 0.27368285029995604
589.0, 0.3723851810785416
590.0, 0.5305990750599974
591.0, 0.7327645537407489
592.0, 0.9135986874473948
593.0, 0.9920039956013966
594.0, 0.9275655722271369
595.0, 0.7493060897415854
596.0, 0.5504548290368912
597.0, 0.4062286430688792
598.0, 0.2966176099081037
599.0, 0.21636353666446032
600.0, 0.1597728098472096
601.0, 0.1214224774213253
602.0, 0.0963147702548266
603.0, 0.0772855563539814
604.0, 0.06655871219083849
605.0, 0.05801581817177841
606.0, 0.05068004342089653
607.0, 0.044421838473401684
608.0, 0.03943113138506936
609.0, 0.03546319469463556
610.0, 0.028994021611268513
611.0, 0.026586101311501444
612.0, 0.02317693150931726
613.0, 0.020409848593181765
614.0, 0.018229946048069816
615.0, 0.016016851576169205
616.0, 0.014132191645267805
617.0, 0.01231863888306935
618.0, 0.011101678862080503
619.0, 0.009759043470923377
620.0, 0.008601362853748339
621.0, 0.007579469315685134
622.0, 0.006604469269029111
623.0, 0.005863394795251524
624.0, 0.0050930244788503
625.0, 0.005084833469838593
626.0, 0.004643655209027597
627.0, 0.004157794002401347
628.0, 0.004074300474083692
629.0, 0.004080071721400853
630.0, 0.003142887126996732
631.0, 0.0023062509504631033
632.0, 0.0024933474309326623
633.0, 0.002069429363678877
634.0, 0.002260050540840584
635.0, 0.002155392465404165
636.0, 0.0012663667800939
637.0, 0.0011644515540588827
638.0, 0.0016642317590060567
639.0, 0.0008056992911678732
640.0, 0.0010068776279132093
641.0, 0.0009040859933202406
642.0, 0.0004184158882050093
643.0, 0.00018133502977385731
644.0, 0.0004707376984284135
645.0, 0.00020010718745219085
646.0, 0.0003173528237564651
647.0, 0.0006638612720525853
648.0, 0.00046327589495734974
649.0, 0.0003094416828907653
650.0, 0.0007020508367436728
651.0, 0.001154178887782812
652.0, 0.00043918654745856215
653.0, 7.056318285926917e-05
654.0, 0.00024518169081216325
655.0, 0.0008315315889996422
656.0, 0.0009641108498422349
657.0, 0.0010130461241229733
658.0, 0.0017156559036720798
659.0, 0.000861473734162078
660.0, 0.0023756964217508526
661.0, 0.003225261250076184
662.0, 0.004242866345833646
663.0, 0.005861417170921346
664.0, 0.007453602808826899
665.0, 0.008459598616725874
666.0, 0.010050647005400416
667.0, 0.011563303877102693
668.0, 0.009794054204881702
669.0, 0.0077248937152206
670.0, 0.005552500411139
671.0, 0.0036958674542076444
672.0, 0.0024582835482790987
673.0, 0.0012878221144347534
674.0, 0.0001913256466075339
675.0, 0.00024116389638814616
676.0, 0.00012226396565604827
677.0, 4.5989557045532785e-05
678.0, 0.0003315798519748556
679.0, 0.0006932995687366054
680.0, 0.0004714516107324958
681.0, 0.0005786879897453829
682.0, 0.0007174525697405583
683.0, 0.0004653786482209614
684.0, 0.00019364640710503058
685.0, 4.5415377159279913e-05
686.0, 0.0002658001487129425
687.0, 0.0007407763289750562
688.0, 0.00012764921753665186
689.0, 0.0011911643720912924
690.0, 0.001785639432916472
691.0, 0.0017072579195810621
692.0, 0.001847358883623042
693.0, 0.0020927987440243928
694.0, 0.0021303041067031237
695.0, 0.0025972408473500562
696.0, 0.002548574053034945
697.0, 0.0036299949873270384
698.0, 0.0045495762241860496
699.0, 0.005208697313781454
700.0, 0.006214326858352953
701.0, 0.0075553163916924175
702.0, 0.008382321476632927
703.0, 0.00872961330254102
704.0, 0.008735897483404993
705.0, 0.010567554557554698
706.0, 0.012621812778461354
707.0, 0.013713165482023637
708.0, 0.014791857470674392
709.0, 0.016931900758281156
710.0, 0.018455818269712786
711.0, 0.021175863275315506
712.0, 0.022762820101077965
713.0, 0.02589706951197344
714.0, 0.029326084124389792
715.0, 0.03236505679153183
716.0, 0.03614451328190945
717.0, 0.04206662551621046
718.0, 0.04648253021530478
719.0, 0.05206430917583952
720.0, 0.05800847560154708
721.0, 0.06613889709966664
722.0, 0.07438895236844545
723.0, 0.08284314497901367
724.0, 0.09275050448658947
725.0, 0.10265510260749468
726.0, 0.11422635374726595
727.0, 0.1269436540771268
728.0, 0.1396389512844226
729.0, 0.15226042017144814
730.0, 0.16359049524547534
731.0, 0.17174895851313246
732.0, 0.17621110011532123
733.0, 0.1806980677916878
734.0, 0.17900969808401374
735.0, 0.17457166225638424
736.0, 0.16940179574179914
737.0, 0.16185302168820329
738.0, 0.1550555716325724
739.0, 0.15074138016938715
740.0, 0.1431530869830035
741.0, 0.13394918269777872
742.0, 0.12697938423593463
743.0, 0.11528822749475104
744.0, 0.10482653629001817
745.0, 0.09519753892758097
746.0, 0.08545730653967766
747.0, 0.07635067128469257
748.0, 0.06805079070189617
749.0, 0.06008698221981924
750.0, 0.05322314119827125
751.0, 0.04613287880095537
752.0, 0.0405882530175181
753.0, 0.036296908347914075
754.0, 0.032073021553664406
755.0, 0.028135366443964277
756.0, 0.02748308525608817
757.0, 0.023417231818507755
758.0, 0.0212982636238025
759.0, 0.018131823001185984
760.0, 0.01612499057341202
761.0, 0.014467740062589805
762.0, 0.012337868685794656
763.0, 0.011609473197669556
764.0, 0.009796536208734394
765.0, 0.009735907841530335
766.0, 0.009067316874553397
767.0, 0.008249768627529483
768.0, 0.007291064415202123
769.0, 0.006464288052827171
770.0, 0.0058214007598817365
771.0, 0.004865020139180323
772.0, 0.005046932890697087
773.0, 0.0038345239108617192
774.0, 0.003461333465326323
775.0, 0.0037215246167096104
776.0, 0.002968869262376491
777.0, 0.0014651245014458945
778.0, 0.0007219034664805162
779.0, 0.0008220453088577405
780.0, 0.001892350738289198
781.0, 0.0011166265271557276
782.0, 0.0003208725785951059
783.0, 0.0002667214520679288
784.0, 0.0004992114430198195
785.0, 0.0004294982620933927
786.0, 0.00014105027827209394
787.0, 0.00042461734127240044
788.0, 0.0011596486626101487
789.0, 0.001239154501407227
790.0, 0.0011806469597143716
791.0, 0.0009974191686401555
792.0, 0.0010075556627875233
793.0, 0.001275623950402834
794.0, 0.0014477398394776467
795.0, 0.0011504553483379285
796.0, 0.0007803459887644078
797.0, 0.0005484290594625635
798.0, 0.0007309118979198287
799.0, 0.00038966841830981666
800.0, 0.00016171173268385362
801.0, 0.0002844003233681434
802.0, 0.00035624155739882293
803.0, 0.0005526817757839292
804.0, 0.00011515354171003715
805.0, 0.0003164127851314156
806.0, 0.00032261123418146805
807.0, 0.0009920824505804519
808.0, 0.001305278916413327
809.0, 0.001140736394985387
810.0, 0.0011351681633507502
811.0, 0.0008267223170289211
812.0, 0.0009722772166945507
813.0, 0.0023927704221115456
814.0, 0.0027158721500469005
815.0, 0.0027329447448832854
816.0, 0.0029600799159559535
817.0, 0.0031084061236200883
818.0, 0.0030827780885301736
819.0, 0.0038147000909477423
820.0, 0.005216597687959812
821.0, 0.005064682236077973
822.0, 0.006034085433147743
823.0, 0.007026470029338881
824.0, 0.008018983981298383
825.0, 0.009220654297541262
826.0, 0.01051689710784186
827.0, 0.011912062787723896
828.0, 0.015216651554356312
829.0, 0.016344662304672984
830.0, 0.01898403728963056
831.0, 0.021208312186353433
832.0, 0.024031634913744195
833.0, 0.027416335416187286
834.0, 0.030695392352208476
835.0, 0.033634311163435605
836.0, 0.036317478575913414
837.0, 0.039712612209015605
838.0, 0.04347141741952292
839.0, 0.045291951296618
840.0, 0.04736955370936166
841.0, 0.04924558023287288
842.0, 0.05008459833686643
843.0, 0.05008904712840706
844.0, 0.049678355311379804
845.0, 0.04960930383040076
846.0, 0.04756236221444194
847.0, 0.047446735791652817
848.0, 0.04681244528229246
849.0, 0.04624916829249776
850.0, 0.04499175506301816
851.0, 0.04331728503733823
852.0, 0.04400955789819669
853.0, 0.04370892262055898
854.0, 0.04334336813888487
855.0, 0.04398940209329911
856.0, 0.04496481004961901
857.0, 0.046026467951151215
858.0, 0.04651704964301665
859.0, 0.04769462945006399
860.0, 0.05074361451681485
861.0, 0.0520539620455447
862.0, 0.05649156555279625
863.0, 0.059174435948871666
864.0, 0.06389665065962379
865.0, 0.06953040039905711
866.0, 0.07507861102266714
867.0, 0.082500853721629
868.0, 0.0922850288084811
869.0, 0.10101443997127389
870.0, 0.11164821009230497
871.0, 0.1256213177847514
872.0, 0.13883789471981364
873.0, 0.15420409175003816
874.0, 0.17331705230443278
875.0, 0.19043444848202154
876.0, 0.2035355132479502
877.0, 0.2160965550245963
878.0, 0.22674065142279984
879.0, 0.22913222339378342
880.0, 0.2265123113154401
881.0, 0.21978284778649484
882.0, 0.20717235516192697
883.0, 0.19170485836892473
884.0, 0.17414006515707084
885.0, 0.15624727536760902
886.0, 0.14162671308444125
887.0, 0.12682578515476772
888.0, 0.11235639414125924
889.0, 0.09981593102325387
890.0, 0.08862115708405072
891.0, 0.08079635150374363
892.0, 0.0751023402617929
893.0, 0.07000713871018982
894.0, 0.06539797464985586
895.0, 0.06194221645902296
896.0, 0.05946366751203354
897.0, 0.05786399125080021
898.0, 0.057547743024715804
899.0, 0.057961906839943476
900.0, 0.059569977491373736
901.0, 0.062222776212221956
902.0, 0.06564317394514967
903.0, 0.06847792934711755
904.0, 0.06861082391979054
905.0, 0.07102531958849007
906.0, 0.06986943845385686
907.0, 0.06762787436312924
908.0, 0.06296817075625105
909.0, 0.05841347767158386
910.0, 0.05440188204932968
911.0, 0.050274642380015395
912.0, 0.04583734352337603
913.0, 0.041735817053076045
914.0, 0.04113104524622869
915.0, 0.036423337998731806
916.0, 0.0355345179040614
917.0, 0.03339994938522222
918.0, 0.031070159336487786
919.0, 0.0295288175278892
920.0, 0.027610185911330732
921.0, 0.024556625220084637
922.0, 0.022761800844397356
923.0, 0.020616645880399145
924.0, 0.01869785862467061
925.0, 0.017475138148881082
926.0, 0.016073999239932586
927.0, 0.0148577024561918
928.0, 0.014071316807234637
929.0, 0.01325155838271563
930.0, 0.012290779770597964
931.0, 0.012233809236624014
932.0, 0.011249527897100113
933.0, 0.010146668324397387
934.0, 0.01062143109913267
935.0, 0.010649183931630621
936.0, 0.010718928656486666
937.0, 0.011161088780211468
938.0, 0.01139895159868069
939.0, 0.011189528212316346
940.0, 0.011425716209149462
941.0, 0.011003356935094839
942.0, 0.011881646556479379
943.0, 0.012912156938983663
944.0, 0.012951734048868773
945.0, 0.01306411883527601
946.0, 0.013079375060529773
947.0, 0.013121919375886852
948.0, 0.013523747079478848
949.0, 0.013965591240641234
950.0, 0.014688545677528942
951.0, 0.014869552100983799
952.0, 0.016052782478893735
953.0, 0.01655725487762843
954.0, 0.016158858533497897
955.0, 0.016294070472531026
956.0, 0.016996933264026196
957.0, 0.016798917206220555
958.0, 0.015727783222793695
959.0, 0.01705584208633313
960.0, 0.015080258186470779
961.0, 0.014055385956783075
962.0, 0.014952202846232717
963.0, 0.014206115718626103
964.0, 0.014338776518866758
965.0, 0.01450959074525854
966.0, 0.013863002709082382
967.0, 0.013756094230472705
968.0, 0.014444046587332334
969.0, 0.013690622697606713
970.0, 0.011634039812931565
971.0, 0.011167801768091722
972.0, 0.009498481286803747
973.0, 0.00854220749714619
974.0, 0.007994631186782362
975.0, 0.00704674491203127
976.0, 0.006089270268912841
977.0, 0.0053790277281382136
978.0, 0.002898354909102886
979.0, 0.004389081089947055
980.0, 0.002503661074845904
981.0, 0.0032893461338594932
982.0, 0.0033188442513459987
983.0, 0.0022223399870129395
984.0, 0.002303020480976453
985.0, 0.002997207609397757
986.0, 0.00201500535029972
987.0, 0.0006155973045676145
988.0, 0.0006930974039707229
989.0, 0.0013311278050210475
990.0, 0.0015924182855437418
991.0, 0.0008896784037990067
992.0, 0.0003575988171777146
993.0, 0.00044532383146531274
994.0, 0.000496382947468897
995.0, 0.0002623463596395715
996.0, 0.00033184261072594437
997.0, 0.0007608630326581472
998.0, 0.0012967853651163449
999.0, 0.0008953228169212167
1000.0, 0.0007688412607262185
1001.0, 0.0007113511983268409
1002.0, 0.0009857547577915198
1003.0, 0.0012970761340199534
1004.0, 0.0012688659821153872
1005.0, 0.0012881695217776623
1006.0, 0.0016588469392815627
1007.0, 0.0009938054519967666
1008.0, 0.0008639955038569382
1009.0, 0.00019689272880287964
1010.0, 0.00031309330429172774
1011.0, 0.0005107610951775006
1012.0, 0.0006601090453073502
1013.0, 0.0006879764718773009
1014.0, 0.0007361190829947135
1015.0, 0.0007077655445290789
1016.0, 0.00035458890272350757
1017.0, 0.0002529193467224654
1018.0, 6.221728029816303e-05
1019.0, 0.00020937401420037925
1020.0, 0.0002272469880021071
1021.0, 0.00019360495236918953
1022.0, 0.00045924935609489566
1023.0, 0.0005004471325108118
1024.0, 0.00056278505521553
1025.0, 0.0010340092331165792
1026.0, 0.0013138730628970857
1027.0, 0.0008673388052088647
1028.0, 0.0006352414570441782
1029.0, 0.0009389699928515329
1030.0, 0.0006139100023306382
1031.0, 0.0005625844343444874
1032.0, 0.0011232199836880984
1033.0, 0.0011744536881872335
1034.0, 0.0007565214183720905
1035.0, 0.0010973475970050544
1036.0, 0.0019470443988282454
1037.0, 0.0010322563829151107
1038.0, 0.0017083802355235432
1039.0, 0.0022725201722287682
1040.0, 0.002050193921014961
1041.0, 0.0021824815221334263
1042.0, 0.0023949757600085996
1043.0, 0.0024904336554857076
1044.0, 0.0021250377305030194
1045.0, 0.001835337925205066
1046.0, 0.0019911625958059743
1047.0, 0.00163844815292444
1048.0, 0.0022257650651510636
1049.0, 0.0021988970861562397
1050.0, 0.0017635823384572666
1051.0, 0.0019105166442247063
1052.0, 0.002023235954001578
1053.0, 0.0023441881289772686
1054.0, 0.0025072687798697716
1055.0, 0.0021441055020350566
1056.0, 0.0015977391305027136
1057.0, 0.001809582553840154
1058.0, 0.0032209980246608347
1059.0, 0.003143346859943114
1060.0, 0.0016601958328023416
1061.0, 0.0032132553114460265
1062.0, 0.0033617636009359926
1063.0, 0.0024668058183320634
1064.0, 0.0028136982444092492
1065.0, 0.003044286021522395
1066.0, 0.0028853319072797536
1067.0, 0.003415304674129329
1068.0, 0.002901705950914471
1069.0, 0.0034092610927557734
1070.0, 0.0034943213026850037
1071.0, 0.004042048809813141
1072.0, 0.004779080364737316
1073.0, 0.004259856000363515
1074.0, 0.00399643076085134
1075.0, 0.003963039112685779
1076.0, 0.004194390472998788
1077.0, 0.004711680288706972
1078.0, 0.004890686386217803
1079.0, 0.004738437750028398
1080.0, 0.005286064967520457
1081.0, 0.005019656273108183
1082.0, 0.007350241437311615
1083.0, 0.008138574825986669
1084.0, 0.009198772428106725
1085.0, 0.009383559826051463
1086.0, 0.00912782860101838
1087.0, 0.009638172767624832
1088.0, 0.010535393460914864
1089.0, 0.01062687159827198
1090.0, 0.010622145908713986
1091.0, 0.010311137597641603
1092.0, 0.009094382825102951
1093.0, 0.009780295176940963
1094.0, 0.009039164403612993
1095.0, 0.007881299770904042
1096.0, 0.007864117207815319
1097.0, 0.007176000259747336
1098.0, 0.006433869397482423
1099.0, 0.006190073927376327
1100.0, 0.004875799561789251
1101.0, 0.0046048564318672165
1102.0, 0.004683093649593654
1103.0, 0.0033084537939275294
1104.0, 0.0030348305934242096
1105.0, 0.0033887516605346623
1106.0, 0.0026497350327934974
1107.0, 0.002100395777896155
1108.0, 0.0020017605677964613
1109.0, 0.00186943167955396
1110.0, 0.0018321446538908529
1111.0, 0.0022242948701935465
1112.0, 0.0024679096793167126
1113.0, 0.0024656684054303684
1114.0, 0.0019129076144571518
1115.0, 0.0021843867223543486
1116.0, 0.002061140228695252
1117.0, 0.0020846207777749782
1118.0, 0.0021166169772661044
1119.0, 0.0023458942834933116
1120.0, 0.0026892185417450682
1121.0, 0.0026318211114750383
1122.0, 0.0023962124826212186
1123.0, 0.0024952399787958354
1124.0, 0.0012496574959523453
1125.0, 0.0023867775232074926
1126.0, 0.0018865768762953365
1127.0, 0.002156636161585254
1128.0, 0.0011764066734678198
1129.0, 0.0004925097778581107
1130.0, 0.0011497322169807997
1131.0, 0.0018263746656541067
1132.0, 0.0017617651760031467
1133.0, 0.0014415805574697763
1134.0, 0.0009861638058426088
1135.0, 0.0003726082834446591
1136.0, 0.0015102590803384068
1137.0, 0.0019799863970615195
1138.0, 0.0017171374605197396
1139.0, 0.0009930412461216088
1140.0, 0.001202601514349531
1141.0, 0.0007191411077594139
1142.0, 0.001030054176246174
1143.0, 0.0013350258324288924
1144.0, 0.001035253538623508
1145.0, 0.0009264116113385506
1146.0, 0.0010996956883502355
1147.0, 0.0012804348011811676
1148.0, 0.0010905236698353776
1149.0, 0.001355554047979809
1150.0, 0.00087831670930836
1151.0, 0.0008820522306196802
1152.0, 0.0006502658535208008
1153.0, 0.0006911900274347078
1154.0, 0.000978077084616595
1155.0, 0.0012262935134002455
1156.0, 0.001085039533734654
1157.0, 0.0008211244781305995
1158.0, 0.0012019101748159493
1159.0, 0.0016236100241494734
1160.0, 0.00047864263035788247
1161.0, 0.0014643583319256287
1162.0, 0.00039651296487772537
1163.0, 0.00023523389777459192
1164.0, 0.00014269660429434865
1165.0, 0.000980910952051556
1166.0, 0.0007294650773900077
1167.0, 0.000169077795870897
1168.0, 0.0003119636390222786
1169.0, 0.00039035652036237614
1170.0, 0.00010712556370497857
1171.0, 0.0003754312052713913
1172.0, 0.0006956552933832234
1173.0, 0.0014312830732811353
1174.0, 0.001243710489125762
1175.0, 0.0016867275357315345
1176.0, 0.001170725247109952
1177.0, 0.0009391866562327272
1178.0, 0.0008053798714539801
1179.0, 0.0005094259816385765
1180.0, 0.00039098207487942406
1181.0, 0.00046241446611276516
1182.0, 0.00038245188204036725
1183.0, 0.00026713239453602343
1184.0, 8.473929138420582e-05
1185.0, 0.00048710866943767314
1186.0, 0.0007171789141130867
1187.0, 0.0003698888728821932
1188.0, 9.707013108624448e-05
1189.0, 0.0003231414201556702
1190.0, 0.0004995456445272506
1191.0, 0.00023864602833816855
1192.0, 0.0003045456794526777
1193.0, 0.00042001336383735006
1194.0, 0.00011803097513040677
1195.0, 0.00012542066733587198
1196.0, 0.00043014142691677297
1197.0, 0.0004937655696645926
1198.0, 0.0008546151949112575
1199.0, 0.0002829042768835381
1200.0, 0.00023756003725486146
1201.0, 0.000446524353266
1202.0, 0.0002464349236361305
1203.0, 0.001141184492098444
1204.0, 0.0011113623902561066
1205.0, 0.0009013307193686675
1206.0, 0.000788281756745002
1207.0, 0.000285435334673016
1208.0, 0.0004228678337192555
1209.0, 0.0006571544001932801
1210.0, 0.0003782055979356661
1211.0, 0.0002177397180041211
1212.0, 0.0008014040754935473
1213.0, 0.0006216739560496532
1214.0, 0.00018129404597782574
1215.0, 0.00030107716555822844
1216.0, 0.000354936430945976
1217.0, 0.00020514284975510475
1218.0, 0.000440491814984515
1219.0, 0.0008240424112554836
1220.0, 0.0008017185220143197
1221.0, 0.0004936127917038228
1222.0, 0.0002354083902526849
1223.0, 0.0005997194856262871
1224.0, 0.0007179075028139287
1225.0, 0.0003424478596216814
1226.0, 0.0001202733391869566
1227.0, 0.0015100032708571937
1228.0, 0.0005787951629533999
1229.0, 0.0003822873067515983
1230.0, 0.0009599251269226421
1231.0, 0.0011547355097064921
1232.0, 0.0011410526248847542
1233.0, 0.0008715417416462434
1234.0, 0.00025861539328852134
1235.0, 0.00019494234355245916
1236.0, 0.00044292257926557675
1237.0, 0.000949596502573958
1238.0, 0.0007522711513285459
1239.0, 0.0016337504725830556
1240.0, 0.00029519617733677955
1241.0, 0.000482142158967344
1242.0, 0.0007097459101661623
1243.0, 0.0011053791950630743
1244.0, 0.001087790450506804
1245.0, 0.001031413838793028
1246.0, 0.000688737623199697
1247.0, 0.00045210554616299966
1248.0, 0.0007589357762813907
1249.0, 0.0005402213905360926
1250.0, 0.00040653919235243057
1251.0, 0.0004803782427202301
1252.0, 0.0010672458635047574
1253.0, 0.0008112198812480439
1254.0, 0.00025480735278882573
1255.0, 0.0007611940299184235
1256.0, 0.000595942838034647
1257.0, 0.0009115129985549698
1258.0, 0.0011113653209381914
1259.0, 0.0013123270364272224
1260.0, 0.0013568888392234836
1261.0, 0.0010406713796527595
1262.0, 0.0005441979079503142
1263.0, 0.00019756286511993465
1264.0, 0.0004826270443417969
1265.0, 0.0003754593574777835
1266.0, 0.00046767028390808226
1267.0, 0.00015757632745978068
1268.0, 0.0003508365325275305
1269.0, 0.0007392160410876451
1270.0, 0.001775860268685893
1271.0, 0.0019643840531130405
1272.0, 0.001908835745963937
1273.0, 0.002154160452400063
1274.0, 0.0014694184854924896
1275.0, 0.0012948334576129861
1276.0, 0.0016292310431811094
1277.0, 0.0006939888414772719
1278.0, 0.0004926725933710044
1279.0, 0.0009845348197287833
1280.0, 0.0013114476046465068
1281.0, 0.001486985862728419
1282.0, 0.0017239231719720595
1283.0, 0.0009655277196000122
1284.0, 0.0011607740556019517
1285.0, 0.001295335414626334
1286.0, 0.0007421484234931503
1287.0, 0.0005786983594930964
1288.0, 0.0013546951334404344
1289.0, 0.001102956212540083
1290.0, 0.0009939209696641165
1291.0, 0.0015115961471554888
1292.0, 0.0012254562611975657
1293.0, 0.001283650934057213
1294.0, 0.0008860407698843755
1295.0, 0.0017541515175657518
1296.0, 0.0018435874858232452
1297.0, 0.0009912370440281742
1298.0, 0.0017474789322665216
1299.0, 0.0012453271415794219
1300.0, 0.0016640272626127653
1301.0, 0.0008834108323222505
1302.0, 0.0014413788463555363
1303.0, 0.0021591491382560984
1304.0, 0.0018793190803493987
1305.0, 0.0012345080244865747
1306.0, 0.001332118405104198
1307.0, 0.001552032058749592
1308.0, 0.0013306062219411612
1309.0, 0.001999357227786443
1310.0, 0.0017085469782732424
1311.0, 0.0017880569703881532
1312.0, 0.0016027284956172873
1313.0, 0.0013975090705917101
1314.0, 0.001601948187115377
1315.0, 0.0018998532655485419
1316.0, 0.0018195472861060934
1317.0, 0.0015955410866073843
1318.0, 0.0018315724950410284
1319.0, 0.0016095899531809398
1320.0, 0.0012685630563371996
1321.0, 0.0017264118950095207
1322.0, 0.002018918720508653
1323.0, 0.0015346677778499674
1324.0, 0.0013657473691446285
1325.0, 0.0012391249018574718
1326.0, 0.0008452438272699343
1327.0, 0.0012567717473615605
1328.0, 0.0016707635116436743
1329.0, 0.0021509356437686917
1330.0, 0.0017347698521804722
1331.0, 0.0009062187750681011
1332.0, 0.0019390678668671196
1333.0, 0.0011654392164958814
1334.0, 0.0013455594230295485
1335.0, 0.002019223318427274
1336.0, 0.0019164571855152198
1337.0, 0.001731599856540225
1338.0, 0.002036261708023956
1339.0, 0.0019457208239231053
1340.0, 0.0015466674819330283
1341.0, 0.0019458765537751365
1342.0, 0.002359666981247677
1343.0, 0.0024098337052345796
1344.0, 0.0014824788363485162
1345.0, 0.0007570419894192218
1346.0, 0.0022760236157943012
1347.0, 0.0012050940275298992
1348.0, 0.0015164767190787834
1349.0, 0.0014275814613848544
1350.0, 0.0018541339198706497
1351.0, 0.002417956254050436
1352.0, 0.0018685078345487725
1353.0, 0.0016515014004336878
1354.0, 0.0021968942485678933
1355.0, 0.0015340416732126095
1356.0, 0.000964229656215042
1357.0, 0.0019367492323474342
1358.0, 0.002055075248784385
1359.0, 0.0012748037909589404
1360.0, 0.0010218740054794323
1361.0, 0.0015387461842043316
1362.0, 0.0022624900930396943
1363.0, 0.0018810990757355986
1364.0, 0.002138252038535479
1365.0, 0.002434650224752439
1366.0, 0.0011024986377582346
1367.0, 0.001214268346251737
1368.0, 0.0013312165855887657
1369.0, 0.001486107295433261
1370.0, 0.001846452400377889
1371.0, 0.0018495952297924482
1372.0, 0.0016568820168282067
1373.0, 0.0015734188866725603
1374.0, 0.0012192540142407567
1375.0, 0.0010879835196836195
1376.0, 0.0013924911483360924
1377.0, 0.000999680497701256
1378.0, 0.001166166226862189
1379.0, 0.0012473297015174033
1380.0, 0.001431998768084094
1381.0, 0.0015853115612420674
1382.0, 0.0017291979876162215
1383.0, 0.0009935490267788743
1384.0, 0.0015003362671446054
1385.0, 0.0006957763840762847
1386.0, 0.0008319180118848137
1387.0, 0.0015143827243670842
1388.0, 0.001640666756698903
1389.0, 0.001332974503479032
1390.0, 0.0012244625001033315
1391.0, 0.0013360170242730151
1392.0, 0.0010470747310638063
1393.0, 0.0007292140998050397
1394.0, 0.0006292290763767874
1395.0, 0.00038928228873726177
1396.0, 0.0006015008203115785
1397.0, 0.0007643758449894227
1398.0, 0.0006784124566229974
1399.0, 0.001487798047029595
1400.0, 0.0020910841581487883
1401.0, 0.00037621194881197635
1402.0, 9.299277171186617e-05
1403.0, 0.0013961305171307893
1404.0, 0.0024566707933511784
1405.0, 0.0012724375733729016
1406.0, 0.0020236941659369408
1407.0, 0.0015277475019783314
1408.0, 0.00213252924449892
1409.0, 0.001295201236626963
1410.0, 0.00040613812914288894
1411.0, 0.0008521645570288483
1412.0, 0.0013755868146954075
1413.0, 0.001409795212119011
1414.0, 0.001443990010823239
1415.0, 0.0014682920737510061
1416.0, 0.0012006797124498845
1417.0, 0.0007963993729318746
1418.0, 0.0008979572166351345
1419.0, 0.0007173549791021948
1420.0, 0.000754557994153866
1421.0, 0.0006630455786728923
1422.0, 0.0006466084079281462
1423.0, 0.0006649477922143864
1424.0, 0.0007762635927703458
1425.0, 0.0006617689891537283
1426.0, 0.0008893045279236634
1427.0, 0.0008903268811254246
1428.0, 0.0009737957309052614
1429.0, 0.0010275626287697646
1430.0, 0.0010866843989614816
1431.0, 0.0011563770547199591
1432.0, 0.0012377540050692568
1433.0, 0.0013499451051499148
1434.0, 0.0014335437672619766
1435.0, 0.0016206084079161082
1436.0, 0.0015737499502673099
1437.0, 0.0008717075753727655
1438.0, 0.001033196180075184
1439.0, 0.0021244551943430845
1440.0, 0.0008960381879005229
1441.0, 0.0015809574608120387
1442.0, 0.0018909628597095411
1443.0, 0.0017002334391206123
1444.0, 0.0015774606759822347
1445.0, 0.0016701387708911398
1446.0, 0.0012869315576163757
1447.0, 0.0012258491440079872
1448.0, 0.001272969013644084
1449.0, 0.000976070459909619
1450.0, 0.0013298601730607448
1451.0, 0.0011730161927092462
1452.0, 0.0010859483692880513
1453.0, 0.0011900273891059965
1454.0, 0.001018429112962031
1455.0, 0.0008471208654324775
1456.0, 0.0010426708188726768
1457.0, 0.0009074441613231934
1458.0, 0.0004650811716203987
1459.0, 0.0004131256298722721
1460.0, 0.0005743052453671175
1461.0, 0.0011018946799434784
1462.0, 0.00107999639538768
1463.0, 0.0011266882742418831
1464.0, 0.002043628402683037
1465.0, 0.0019660601879243626
1466.0, 0.0011610427764921869
1467.0, 0.001274517024567637
1468.0, 0.00037745906752288314
1469.0, 0.0012041056412005655
1470.0, 0.0012152815750724672
1471.0, 0.00166936000539044
1472.0, 0.0016645796106061232
1473.0, 0.001370278985387393
1474.0, 0.0019794991568627854
1475.0, 0.001572375700988231
1476.0, 0.001283892742105227
1477.0, 0.0012613290349177502
1478.0, 0.0015424890292345158
1479.0, 0.0012513860651635876
1480.0, 0.0008799776779593523
1481.0, 0.0010948310375801656
1482.0, 0.0008859971603512401
1483.0, 0.0008760155135801827
1484.0, 0.0016389247875531027
1485.0, 0.0014320876573878409
1486.0, 0.000952433076993868
1487.0, 0.0004057889805475663
1488.0, 0.00045239934219143873
1489.0, 0.00039146598987276543
1490.0, 0.0005245304584779671
1491.0, 0.000508367529234645
1492.0, 0.0008328468864388906
1493.0, 0.000934575207268032
1494.0, 0.0010188199214643556
1495.0, 0.0012530519979323134
1496.0, 0.001232345438172832
1497.0, 0.001212239786048009
1498.0, 0.0009272502618553363
1499.0, 0.0005577671591626215
1500.0, 0.0009561252007728256
1501.0, 0.0012274687540907755
1502.0, 0.0013803361844090488
1503.0, 0.0005149150997810926
1504.0, 0.0005822682708427325
1505.0, 0.0005108737510948951
1506.0, 0.001034339067415229
1507.0, 0.0013806313967919342
1508.0, 0.0007496245658687253
1509.0, 0.0008130517170748695
1510.0, 0.0014623536444168552
1511.0, 0.0012762653688096707
1512.0, 0.0010406426021150918
1513.0, 0.001198029876060443
1514.0, 0.0005668486273546291
1515.0, 0.0014591564772295951
1516.0, 0.0012548749241988015
1517.0, 0.0005904604685128677
1518.0, 0.0009048148853480578
1519.0, 0.0003427445502162322
1520.0, 8.69958566208326e-05
1521.0, 0.0003859562639169672
1522.0, 7.998825251547868e-05
1523.0, 0.0005311147515422966
1524.0, 8.053695486590006e-05
1525.0, 0.0004721263164121064
1526.0, 0.000447352882583818
1527.0, 7.256045251559831e-05
1528.0, 0.00036752239946444867
1529.0, 0.0005517574828245684
1530.0, 0.0007531077540222876
1531.0, 0.0004033673877745094
1532.0, 0.00041227567131893933
1533.0, 0.0003375788156793632
1534.0, 0.0001506424744282132
1535.0, 9.995062028578753e-05
1536.0, 0.00022693603226415124
1537.0, 0.0004110826670836675
1538.0, 0.0006100932566748077
1539.0, 0.0006443909863022794
1540.0, 0.0006320803652424267
1541.0, 0.0005073874314034746
1542.0, 0.00033250572968213327
1543.0, 0.0008029488354800606
1544.0, 0.001325486462591099
1545.0, 0.0012581037918836
1546.0, 0.001084855054759619
1547.0, 0.0010825806078142576
1548.0, 0.001320006505207458
1549.0, 0.002222184590429164
1550.0, 0.002835418688627099
1551.0, 0.002490294137871628
1552.0, 0.002640922548133027
1553.0, 0.002584341128704704
1554.0, 0.0016285340633627932
1555.0, 0.0008745287588996636
1556.0, 0.0004947583877810945
1557.0, 0.0007579886859769719
1558.0, 0.0008909031816512232
1559.0, 0.0010355564179300035
1560.0, 0.0007477597290974472
1561.0, 0.0003026865397528406
1562.0, 0.0003725017055951033
1563.0, 0.00034668892729501486
1564.0, 0.0007960308175557658
1565.0, 0.0004702482436950751
1566.0, 0.0008590114650961686
1567.0, 0.0010767196346607513
1568.0, 0.000768585311278033
1569.0, 0.00021916695747233153
1570.0, 2.050340440665373e-06
1571, 0.0
1572, 0.0
1573, 0.0
1574, 0.0
1575, 0.0
1576, 0.0
1577, 0.0
1578, 0.0
1579, 0.0
1580, 0.0
1581, 0.0
1582, 0.0
1583, 0.0
1584, 0.0
1585, 0.0
1586, 0.0
1587, 0.0
1588, 0.0
1589, 0.0
1590, 0.0
1591, 0.0
1592, 0.0
1593, 0.0
1594, 0.0
1595, 0.0
1596, 0.0
1597, 0.0
1598, 0.0
1599, 0.0
