30, 0.0
31, 0.0
32, 0.0
33, 0.0
34, 0.0
35, 0.0
36, 0.0
37, 0.0
38, 0.0
39, 0.0
40, 0.0
41, 0.0
42, 0.0
43, 0.0
44, 0.0
45, 0.0
46, 0.0
47, 0.0
48, 0.0
49, 0.0
50, 0.0
51, 0.0
52.0, 0.00011293048984460623
53.0, 0.0003023709789803031
54.0, 0.00043930124422070606
55.0, 0.00023153752249979381
56.0, 0.0004140532044721338
57.0, 0.0003645465175654533
58.0, 0.00015596238083669627
59.0, 6.266325116236214e-05
60.0, 0.00037697771654831257
61.0, 0.00018372535196738298
62.0, 0.00020951737027878102
63.0, 0.0005422701775606105
64.0, 0.0010039848117976969
65.0, 0.001037818235893053
66.0, 0.0025294420129868154
67.0, 0.004237960032616549
68.0, 0.005627151723167038
69.0, 0.006630187285466207
70.0, 0.007746513655208803
71.0, 0.007688246005173233
72.0, 0.009107664549633649
73.0, 0.010232031799906012
74.0, 0.01092606151032715
75.0, 0.012233771247310654
76.0, 0.012463679142942146
77.0, 0.012859658212317573
78.0, 0.01355469268887909
79.0, 0.014609026005032201
80.0, 0.016049992284312076
81.0, 0.018018076732603337
82.0, 0.01788132985321396
83.0, 0.017370858350444746
84.0, 0.01699571547519591
85.0, 0.017191322919975535
86.0, 0.01901253218161573
87.0, 0.02004415455716636
88.0, 0.02056910750818527
89.0, 0.021754519288872714
90.0, 0.02312481502086571
91.0, 0.021598566881358118
92.0, 0.021511086164802733
93.0, 0.021288244493795627
94.0, 0.021622140524532204
95.0, 0.022180988802503
96.0, 0.021918147076752763
97.0, 0.021921632843155302
98.0, 0.02241497493900084
99.0, 0.022688408573443425
100.0, 0.022908494712106063
101.0, 0.023581846482443682
102.0, 0.025151132108861034
103.0, 0.026919269168569303
104.0, 0.03134724314372908
105.0, 0.03377524660497915
106.0, 0.03330792849573782
107.0, 0.04101369769090646
108.0, 0.032834077511023435
109.0, 0.028307166483893705
110.0, 0.02783953475791621
111.0, 0.02982866038520643
112.0, 0.03181008658882808
113.0, 0.032550310277629634
114.0, 0.03266737443654301
115.0, 0.03175266834232298
116.0, 0.030243818901237975
117.0, 0.028785370335336898
118.0, 0.02612636223136287
119.0, 0.024646413227739156
120.0, 0.023676292154582092
121.0, 0.022407990589589193
122.0, 0.020504155540691776
123.0, 0.0189921803282398
124.0, 0.017729647011785053
125.0, 0.01784684682636122
126.0, 0.01788873789409891
127.0, 0.017724117329905777
128.0, 0.018908778375638396
129.0, 0.017580212586263265
130.0, 0.016701860298934213
131.0, 0.01588806169224949
132.0, 0.015594341059671404
133.0, 0.01638328587463723
134.0, 0.016737200031948243
135.0, 0.016680465973944358
136.0, 0.017084496149237457
137.0, 0.017471528089578775
138.0, 0.017103727714714335
139.0, 0.015312419752891533
140.0, 0.014319522740370088
141.0, 0.013910625559611691
142.0, 0.013949210670167383
143.0, 0.013936935865756016
144.0, 0.013209057400310871
145.0, 0.014063648331978823
146.0, 0.013864300704501106
147.0, 0.013558634383730091
148.0, 0.013666607953010296
149.0, 0.014192378943482227
150.0, 0.013730612157141945
151.0, 0.013458933707241678
152.0, 0.013755310528551883
153.0, 0.013238110223512312
154.0, 0.011734850519793193
155.0, 0.011333328095164965
156.0, 0.011127313078153664
157.0, 0.010922519128161818
158.0, 0.011363923167154219
159.0, 0.012109796902279965
160.0, 0.012323822418193199
161.0, 0.012236091518140525
162.0, 0.01287378186260744
163.0, 0.013276511919278408
164.0, 0.013364134828166365
165.0, 0.013300486367045658
166.0, 0.01331750957418674
167.0, 0.01321463780254655
168.0, 0.013087461270575215
169.0, 0.013168670588230501
170.0, 0.013232333988607911
171.0, 0.0128116076131525
172.0, 0.013265617397581144
173.0, 0.013498871218127657
174.0, 0.013151035702157013
175.0, 0.01296135097232579
176.0, 0.013468031252306957
177.0, 0.013580340661795705
178.0, 0.013825322981947634
179.0, 0.013979194421089039
180.0, 0.013797620817053304
181.0, 0.013824342056121278
182.0, 0.01513391128872484
183.0, 0.014637644129125861
184.0, 0.014601749382259022
185.0, 0.0150589231190151
186.0, 0.015899811712562564
187.0, 0.016689985678835517
188.0, 0.016112387774580652
189.0, 0.01772363728599533
190.0, 0.019027548475807305
191.0, 0.019310493729604066
192.0, 0.019167397909392325
193.0, 0.020284109931246696
194.0, 0.022029204076275875
195.0, 0.022236333047050437
196.0, 0.02374516837840328
197.0, 0.02547301094562864
198.0, 0.02597167404861651
199.0, 0.02756442094567206
200.0, 0.027690661820159654
201.0, 0.027536827391688078
202.0, 0.027137191153339086
203.0, 0.026812499524856884
204.0, 0.027132272405873594
205.0, 0.026886285954181903
206.0, 0.02759034206401013
207.0, 0.027647478419430785
208.0, 0.02762420171143584
209.0, 0.02838084057189854
210.0, 0.02948685409239231
211.0, 0.029612965377424163
212.0, 0.029310670298143254
213.0, 0.028905813380587765
214.0, 0.029329915361528697
215.0, 0.03140982482529249
216.0, 0.030017124593599828
217.0, 0.029881459207971736
218.0, 0.03127851750198601
219.0, 0.03199736617585973
220.0, 0.030639056530107216
221.0, 0.02907639253999624
222.0, 0.03012551243230755
223.0, 0.030621907105667638
224.0, 0.030826746911207757
225.0, 0.030851972342360142
226.0, 0.03078444015714996
227.0, 0.03164280859936671
228.0, 0.03215305011864571
229.0, 0.03318040371027213
230.0, 0.0342833717289088
231.0, 0.03531413856377494
232.0, 0.036908082953269895
233.0, 0.03883345105629769
234.0, 0.04041143631468453
235.0, 0.04337700873308807
236.0, 0.0470547563920768
237.0, 0.05046533789342097
238.0, 0.055648873439183864
239.0, 0.06262037779151652
240.0, 0.0699406331232778
241.0, 0.07659474135465996
242.0, 0.08142168058796817
243.0, 0.08369182130169439
244.0, 0.0878035167186108
245.0, 0.09347855841861291
246.0, 0.10114944675534074
247.0, 0.11287259292107968
248.0, 0.129045604573189
249.0, 0.14618728539300585
250.0, 0.16088850163323368
251.0, 0.17104811457712654
252.0, 0.17179162670675455
253.0, 0.16169505885044566
254.0, 0.14263719974679603
255.0, 0.12031569135184932
256.0, 0.09813718452048796
257.0, 0.0766069387616698
258.0, 0.05751397593385365
259.0, 0.042607018326589266
260.0, 0.03313356288087179
261.0, 0.02933000429746606
262.0, 0.024991092027302382
263.0, 0.02205083835403479
264.0, 0.020088535290808895
265.0, 0.01820503964238545
266.0, 0.01596856211153481
267.0, 0.01573868579855569
268.0, 0.015939292283024462
269.0, 0.01628227922385273
270.0, 0.016994222851710667
271.0, 0.018402090059266497
272.0, 0.020235309739120015
273.0, 0.02362667229447415
274.0, 0.023861120259229592
275.0, 0.0249988853903792
276.0, 0.027467854917953498
277.0, 0.028409513200306116
278.0, 0.030825557595987447
279.0, 0.03548464338664399
280.0, 0.04034150147473585
281.0, 0.04437685237273529
282.0, 0.0480315968806081
283.0, 0.053164740463350096
284.0, 0.053207209057738916
285.0, 0.05266492055817958
286.0, 0.05001931581923427
287.0, 0.04629202347704103
288.0, 0.042587693817772033
289.0, 0.03790000065864504
290.0, 0.03339275082442805
291.0, 0.031041829579038015
292.0, 0.028366967016735495
293.0, 0.025872480715638867
294.0, 0.02473836974871632
295.0, 0.021483599776773967
296.0, 0.021737316485814062
297.0, 0.020655504069886983
298.0, 0.020504946592320526
299.0, 0.020975164343331337
300.0, 0.019689583360443377
301.0, 0.01940811821501546
302.0, 0.020827335086396347
303.0, 0.021167831927477777
304.0, 0.021205652616612523
305.0, 0.021582679642629818
306.0, 0.021992776541716646
307.0, 0.022829703769337892
308.0, 0.022659041095421738
309.0, 0.024414245584233787
310.0, 0.02612933328549416
311.0, 0.026518115894276197
312.0, 0.02775286146177199
313.0, 0.02757439156050807
314.0, 0.027890650831920622
315.0, 0.028183824668058927
316.0, 0.029020729884332398
317.0, 0.030553987674075606
318.0, 0.031013893347294662
319.0, 0.032939402372291725
320.0, 0.03422339568681913
321.0, 0.03549528383997107
322.0, 0.03725821579130693
323.0, 0.03939596877722777
324.0, 0.040282349422608915
325.0, 0.04232209012431598
326.0, 0.044497752740294404
327.0, 0.046385237430608524
328.0, 0.04849802322743999
329.0, 0.05192637255148594
330.0, 0.057721263129387405
331.0, 0.06224460379514128
332.0, 0.06522336463316737
333.0, 0.06596348381836788
334.0, 0.06418821201334449
335.0, 0.05971862927519836
336.0, 0.05038826156741281
337.0, 0.04300626145106905
338.0, 0.03370528617865884
339.0, 0.02572893143841762
340.0, 0.020177908922149813
341.0, 0.015332217390874854
342.0, 0.011869873490561633
343.0, 0.01159723503206598
344.0, 0.01024478483880687
345.0, 0.008796354281130578
346.0, 0.007829983176219515
347.0, 0.0065417086301636646
348.0, 0.004939485447591415
349.0, 0.0033876461668667646
350.0, 0.0032636335726981256
351.0, 0.002262769883592086
352.0, 0.0003768712535246898
353.0, 0.0007540222685432907
354.0, 0.0007905979457713155
355.0, 0.00032211722520101725
356.0, 0.00043879525405623765
357.0, 0.0005462207363398522
358.0, 0.0003029097135632002
359.0, 0.00020011635974065398
360.0, 0.00044852948974837724
361.0, 0.000831232333302765
362.0, 0.001395282835615683
363.0, 0.0020152121159271504
364.0, 0.00199277268243504
365.0, 0.00038807791225836023
366.0, 0.0014466336528628553
367.0, 0.0005135690255546963
368.0, 0.0005411265313694421
369.0, 0.0008902222792522803
370.0, 0.0009007463243417809
371.0, 0.0010494862942089854
372.0, 0.00032885896963430147
373.0, 0.00020323979348660476
374.0, 0.00015216557469213105
375.0, 8.475645072113142e-05
376.0, 0.00025844439373092355
377.0, 0.0010344530110356224
378.0, 0.0005050795049880509
379.0, 0.0004379228786784155
380.0, 0.00048098062901439693
381.0, 0.00042639220655796896
382.0, 0.0003859681949063479
383.0, 0.0007594303207434283
384.0, 0.0013712312474625618
385.0, 0.0010739713374224896
386.0, 0.0015239153220354032
387.0, 0.002434374969667682
388.0, 0.003148760150885604
389.0, 0.003168788083925776
390.0, 0.0023140352318733797
391.0, 0.0029015108668692335
392.0, 0.00281665063191386
393.0, 0.0026997614895064637
394.0, 0.0029949429369103982
395.0, 0.0034935078516796
396.0, 0.004737693344328728
397.0, 0.004111482339213838
398.0, 0.00390327248051027
399.0, 0.004029993926034545
400.0, 0.004012731124025299
401.0, 0.0033701038607541834
402.0, 0.0016466616549574136
403.0, 0.0008493318129636999
404.0, 0.0006374415171628085
405.0, 0.00046729911803548277
406.0, 0.0003391428539112404
407.0, 0.0005677205526805593
408.0, 0.0009335381364197961
409.0, 0.0009858632205312404
410.0, 0.0005145170845877848
411.0, 0.00015046389569465244
412.0, 0.00038694048169463427
413.0, 0.0009839707013132718
414.0, 8.948484598117739e-05
415.0, 0.00046696569873729086
416.0, 0.0008057489632197857
417.0, 0.0007463236504603793
418.0, 0.0004061092598993845
419.0, 0.0002636938271634263
420.0, 0.000993101394513473
421.0, 0.001141918400166964
422.0, 0.0004045766739739217
423.0, 0.0002812017818281638
424.0, 0.0008389704167760117
425.0, 0.001558933602357791
426.0, 0.00189780761663916
427.0, 0.0003248929498624138
428.0, 0.0017053921940059957
429.0, 0.0019320084179606054
430.0, 0.0011771805990616485
431.0, 0.0006330010300476908
432.0, 0.0009633087770656802
433.0, 0.0005867488426346866
434.0, 0.0007104947405926559
435.0, 0.0005999235483186719
436.0, 0.00041403036744008847
437.0, 0.000531978051328658
438.0, 0.0010906232159261873
439.0, 0.0009513359069913192
440.0, 0.00034081055191930213
441.0, 0.0008164822930716005
442.0, 0.0008158344289541656
443.0, 0.0005409896028397066
444.0, 0.0008569138431271295
445.0, 0.0007321509777380175
446.0, 0.0004906235409473808
447.0, 0.0001847053928841209
448.0, 0.0005287089715549146
449.0, 0.0009149758260777117
450.0, 0.0009287720711558499
451.0, 0.0014484101917088966
452.0, 0.0011142003433427686
453.0, 0.0008043517934990726
454.0, 0.0014793948802251959
455.0, 0.0024284071835722005
456.0, 0.002882837643123492
457.0, 0.002708895092499015
458.0, 0.0024183251885684393
459.0, 0.0034069750804467274
460.0, 0.0038625177706745387
461.0, 0.003670368578162939
462.0, 0.0035227079772155233
463.0, 0.004380229667376246
464.0, 0.006692979730543371
465.0, 0.007679980333856935
466.0, 0.009278934908715794
467.0, 0.011402250453101217
468.0, 0.013203489499465995
469.0, 0.014321150743775535
470.0, 0.015859923730435384
471.0, 0.0171669160242527
472.0, 0.018267487650773163
473.0, 0.01966373898685454
474.0, 0.021228766061815483
475.0, 0.023352143048551113
476.0, 0.026479656828742818
477.0, 0.026363499914225166
478.0, 0.02752910946826022
479.0, 0.028956788217699373
480.0, 0.029283126690736985
481.0, 0.02870081364065449
482.0, 0.028063598587032106
483.0, 0.02673806439250602
484.0, 0.026440439941058352
485.0, 0.025687246365973023
486.0, 0.026005344616733053
487.0, 0.027370523502998297
488.0, 0.02818857716114813
489.0, 0.026514833762264333
490.0, 0.029931915374391053
491.0, 0.031310022795533445
492.0, 0.03304749719823141
493.0, 0.03459818265066549
494.0, 0.0363338969810068
495.0, 0.039279204828395704
496.0, 0.042148962304231354
497.0, 0.0459516858451114
498.0, 0.048534478993704444
499.0, 0.05017437481037227
500.0, 0.05118170599500669
501.0, 0.050992574975166884
502.0, 0.0479834346225533
503.0, 0.045116085173232436
504.0, 0.042752486495037115
505.0, 0.04138543758229942
506.0, 0.04043237722336588
507.0, 0.040015061592831455
508.0, 0.040654683534988134
509.0, 0.040879863866562824
510.0, 0.04193155821174171
511.0, 0.044404002178942616
512.0, 0.04746102024000189
513.0, 0.05021600851842687
514.0, 0.052680542323888475
515.0, 0.056128622169154714
516.0, 0.059158056126104454
517.0, 0.06560542118578394
518.0, 0.07342214806774842
519.0, 0.08175322131985374
520.0, 0.09132242237569795
521.0, 0.10333026658824988
522.0, 0.11647575567117152
523.0, 0.12728957600136298
524.0, 0.14144169885779345
525.0, 0.15665400523858017
526.0, 0.17375268358549786
527.0, 0.1931605186542326
528.0, 0.21267836223118225
529.0, 0.2333855041164707
530.0, 0.2479041889272122
531.0, 0.25061206889338955
532.0, 0.24472657891964464
533.0, 0.23278091140871035
534.0, 0.21666281719736744
535.0, 0.20120152742839073
536.0, 0.18438721662482666
537.0, 0.17235136118748282
538.0, 0.17164145459912328
539.0, 0.17849088769624072
540.0, 0.19057994004408166
541.0, 0.21183108293635333
542.0, 0.24767971630133637
543.0, 0.2963908633334597
544.0, 0.3433040753702209
545.0, 0.39019979750624684
546.0, 0.43257036779445784
547.0, 0.4694470583697305
548.0, 0.5136228922298659
549.0, 0.5802745935137114
550.0, 0.6715903327115166
551.0, 0.7999879878191916
552.0, 0.9079174283371516
553.0, 0.9704928934372706
554.0, 0.9899553695619268
555.0, 0.9333647165755764
556.0, 0.7968617548514817
557.0, 0.6376445342241794
558.0, 0.4870923151847033
559.0, 0.3599412440729108
560.0, 0.262858390557821
561.0, 0.19692735986857723
562.0, 0.15032136293826742
563.0, 0.11897422989292032
564.0, 0.0967393034760447
565.0, 0.07997609131719527
566.0, 0.06724998207102689
567.0, 0.05778278679278116
568.0, 0.050275596879218766
569.0, 0.04548889600476036
570.0, 0.040929531017397484
571.0, 0.03651344712503921
572.0, 0.03375772559463273
573.0, 0.03216608309341637
574.0, 0.030319524500367796
575.0, 0.028204684960387343
576.0, 0.028499230427437836
577.0, 0.027965261726261157
578.0, 0.031033535919814004
579.0, 0.03395525489203013
580.0, 0.03669232382943623
581.0, 0.04288054804066379
582.0, 0.053146106837395346
583.0, 0.06802267734096519
584.0, 0.09155285748282668
585.0, 0.1252163804917037
586.0, 0.16419028740085662
587.0, 0.19922688775326422
588.0, 0.2218735982561339
589.0, 0.23415947897833508
590.0, 0.25518520593567856
591.0, 0.3046212714344798
592.0, 0.38178176728210406
593.0, 0.48503061843580236
594.0, 0.5963594412581998
595.0, 0.6783709150418837
596.0, 0.6874768169952665
597.0, 0.6080136667746232
598.0, 0.48956952310988233
599.0, 0.3636399439883736
600.0, 0.2549120282076504
601.0, 0.17530600599196558
602.0, 0.12279551220801638
603.0, 0.09213428344012467
604.0, 0.07352005252405451
605.0, 0.059003979787526924
606.0, 0.04900558161208901
607.0, 0.04227867960943654
608.0, 0.03629281243119601
609.0, 0.029343490949987075
610.0, 0.026027683987583036
611.0, 0.024729772853842483
612.0, 0.02157307051393057
613.0, 0.020083660563529653
614.0, 0.018587929208094437
615.0, 0.015596136162860241
616.0, 0.0141997245084601
617.0, 0.013411027032764497
618.0, 0.011495659146498607
619.0, 0.010082745452567777
620.0, 0.0093848520161017
621.0, 0.008542066699192314
622.0, 0.0075677346712210375
623.0, 0.008146348565712785
624.0, 0.00879112621776211
625.0, 0.007899056294493318
626.0, 0.006788943842547367
627.0, 0.005928968376921924
628.0, 0.005718360136714015
629.0, 0.005772198561318148
630.0, 0.004928808465663324
631.0, 0.004505712342340517
632.0, 0.0038344108129749113
633.0, 0.0042062651416668005
634.0, 0.003991312311496367
635.0, 0.0032178797995058048
636.0, 0.0029903990812901763
637.0, 0.0037873013238953223
638.0, 0.0021592833875980722
639.0, 0.0025820253578599777
640.0, 0.002082135446506476
641.0, 0.002517867952725841
642.0, 0.0028154311332193776
643.0, 0.0020194200051436165
644.0, 0.001326047523347172
645.0, 0.0017665544290358204
646.0, 0.0006157576959323985
647.0, 0.0006136018661113465
648.0, 0.0014671586384358613
649.0, 0.001885887842691395
650.0, 0.0015877277365417006
651.0, 0.001415204869269081
652.0, 0.0006071104003810023
653.0, 0.001351150996553255
654.0, 0.0006493000428228974
655.0, 0.0009493891461364443
656.0, 0.0008544254749110419
657.0, 0.0006131993589678917
658.0, 0.0015786545968309099
659.0, 7.391851015677307e-05
660.0, 0.0008509497531875275
661.0, 0.0011244137197093775
662.0, 0.0019160763132021288
663.0, 0.0019599837844111513
664.0, 0.0015150646073823668
665.0, 0.001713291510052495
666.0, 0.0018526399040650436
667.0, 0.002277063828191543
668.0, 0.0025046218567992573
669.0, 0.0029883286709627096
670.0, 0.0033220085932067914
671.0, 0.0033697196558090943
672.0, 0.003041422652840449
673.0, 0.002042275892622839
674.0, 0.0013774799639941402
675.0, 0.001275479678534898
676.0, 0.0010200542492978997
677.0, 0.0005541240392851305
678.0, 0.0004080883736520858
679.0, 0.0005121991474325373
680.0, 0.0001431907535480328
681.0, 0.0004565674635778543
682.0, 0.0008425353848078134
683.0, 0.0012912178913279263
684.0, 0.0015189431433822289
685.0, 0.00100769384074231
686.0, 0.00029360509280632334
687.0, 0.00030744311224392896
688.0, 0.0002255408853734017
689.0, 0.0006811398287119556
690.0, 0.0005565773765264253
691.0, 0.0002271298029313013
692.0, 0.0005042332419684086
693.0, 0.0008988591885128564
694.0, 0.000654542682657268
695.0, 0.0002501780305468417
696.0, 0.00012687399749318693
697.0, 0.00024686095020582906
698.0, 0.00010765614210409276
699.0, 0.0004603231308984712
700.0, 0.0007648722356132729
701.0, 0.000648381802065572
702.0, 0.0008281136395607156
703.0, 0.0022770302306407983
704.0, 0.000671177868029158
705.0, 0.0012742981768334941
706.0, 0.0006573546560790717
707.0, 0.0010087901021484029
708.0, 0.0023326849841872597
709.0, 0.002714361527349269
710.0, 0.0026412156414858654
711.0, 0.0021556948244560526
712.0, 0.003080911126578185
713.0, 0.004945948419223522
714.0, 0.005793208821993845
715.0, 0.005872176977776123
716.0, 0.006570404669063171
717.0, 0.00833089616717506
718.0, 0.008718044037074846
719.0, 0.01043109243447411
720.0, 0.012848982489857946
721.0, 0.012694878486984484
722.0, 0.013669574469608986
723.0, 0.016218324032848973
724.0, 0.017887766549380485
725.0, 0.019142595980194466
726.0, 0.02101226490486846
727.0, 0.022970458794777555
728.0, 0.025200531504688244
729.0, 0.02724477488285272
730.0, 0.029122862377894288
731.0, 0.03104536480731603
732.0, 0.03279316206562338
733.0, 0.033137836901070875
734.0, 0.03447473556266005
735.0, 0.03296376297879595
736.0, 0.03371893639737936
737.0, 0.032195078340237986
738.0, 0.03005152067664761
739.0, 0.030362082377882404
740.0, 0.02953240253568202
741.0, 0.028347688080964006
742.0, 0.027404384423171245
743.0, 0.025927988229323407
744.0, 0.023893607267205963
745.0, 0.022041650915082655
746.0, 0.01970723120572364
747.0, 0.01657060729689658
748.0, 0.01595057860779634
749.0, 0.012980535187250166
750.0, 0.011111454731176874
751.0, 0.010198042994670968
752.0, 0.008489928944491148
753.0, 0.007249349233475538
754.0, 0.006846862041517002
755.0, 0.005529375464532834
756.0, 0.004274274051045357
757.0, 0.004557359421086313
758.0, 0.0032773838688284745
759.0, 0.0028368651314007796
760.0, 0.002732170014922093
761.0, 0.0028350750764256517
762.0, 0.002768959830425157
763.0, 0.0016974924745943173
764.0, 0.0020994693562082258
765.0, 0.000847977734469479
766.0, 0.0010669213330404214
767.0, 0.0008721358260928543
768.0, 0.0007093516098991226
769.0, 0.0009038868295080585
770.0, 0.00122364081728606
771.0, 0.0014202860444817711
772.0, 0.000824190031504182
773.0, 0.0012510447102365369
774.0, 0.0009288495878656113
775.0, 0.000930366181124725
776.0, 0.0006063457230258962
777.0, 0.00020056548206150838
778.0, 0.000453775326612024
779.0, 0.0006885047328252171
780.0, 0.0007673664751344365
781.0, 0.0007302568470778181
782.0, 0.0006988387007994376
783.0, 0.000574560169034244
784.0, 0.0003322268418776467
785.0, 0.0001049757642457104
786.0, 5.78176475859762e-05
787.0, 0.00023073367487175012
788.0, 0.001068255507782508
789.0, 0.0009296060122082935
790.0, 0.0012939771568253745
791.0, 0.0012266657345485626
792.0, 0.0005782644265445505
793.0, 8.149531117062206e-05
794.0, 0.0004357572808850971
795.0, 0.0011935588442334233
796.0, 0.001270443819759602
797.0, 0.0018854157786957612
798.0, 0.0013373489162509427
799.0, 0.001055230581389157
800.0, 0.0007411597906315138
801.0, 0.00039270878539065363
802.0, 0.000394544466619229
803.0, 9.525064741411387e-05
804.0, 0.0004914562635744692
805.0, 0.001877687147311562
806.0, 0.0019533822936159645
807.0, 0.002303277911386112
808.0, 0.0031572459064724786
809.0, 0.003890961029594107
810.0, 0.003941110834745651
811.0, 0.003504010070666026
812.0, 0.004118259825902092
813.0, 0.003057487745377597
814.0, 0.0038829869930410545
815.0, 0.006029327061011122
816.0, 0.006630781281958201
817.0, 0.006036637673570337
818.0, 0.006198361894885587
819.0, 0.0065056653761486755
820.0, 0.006228993147300552
821.0, 0.008465304871276832
822.0, 0.009170233319384458
823.0, 0.009297482661072026
824.0, 0.00939029196677858
825.0, 0.01008364433803991
826.0, 0.011230534761111258
827.0, 0.01176917409746805
828.0, 0.012332574631661196
829.0, 0.014297019347450228
830.0, 0.015900048638227474
831.0, 0.01756009121824032
832.0, 0.019156523697542328
833.0, 0.02038051542969056
834.0, 0.021542084580568027
835.0, 0.023128179365381057
836.0, 0.024085293479821013
837.0, 0.02602531119724643
838.0, 0.029685957526116035
839.0, 0.031049669591699847
840.0, 0.03315823805878754
841.0, 0.035435839117831255
842.0, 0.03761455786655852
843.0, 0.040054542001444045
844.0, 0.04093750951952904
845.0, 0.0444807486937882
846.0, 0.046082388482325216
847.0, 0.048074040140756925
848.0, 0.05147639984954646
849.0, 0.05538358023516074
850.0, 0.05914963920867802
851.0, 0.06283464526584517
852.0, 0.06668311194089552
853.0, 0.07100810054570696
854.0, 0.07439288769828664
855.0, 0.0787513274271365
856.0, 0.08478586185397494
857.0, 0.08920168413365416
858.0, 0.09460303381698196
859.0, 0.10170197787388713
860.0, 0.10805735946858869
861.0, 0.1166045186995249
862.0, 0.12297610212071648
863.0, 0.13215299251537282
864.0, 0.14477633108670268
865.0, 0.15647588500169088
866.0, 0.168965457912478
867.0, 0.18449382799732572
868.0, 0.20231355365909767
869.0, 0.22027590695725252
870.0, 0.2413774963872785
871.0, 0.2647796265377997
872.0, 0.28903322406331
873.0, 0.31357040272563597
874.0, 0.33933655529945944
875.0, 0.36200185756880404
876.0, 0.38298407191725903
877.0, 0.4057460950261036
878.0, 0.42012799670827067
879.0, 0.42014414527830485
880.0, 0.42029246116574737
881.0, 0.4094529284954012
882.0, 0.38890198189709047
883.0, 0.36190404977501195
884.0, 0.32982401120371885
885.0, 0.29630142824237155
886.0, 0.26538867298890084
887.0, 0.22982246984201327
888.0, 0.2056951932364686
889.0, 0.17676411753422583
890.0, 0.1530030236907971
891.0, 0.13396759690695628
892.0, 0.11725836630638732
893.0, 0.10261479508385443
894.0, 0.09035771058355706
895.0, 0.07908765210247246
896.0, 0.06939693451971415
897.0, 0.06272738686515886
898.0, 0.05562223799859183
899.0, 0.05064172404604829
900.0, 0.047461339688013665
901.0, 0.043950881245267776
902.0, 0.03996366921927473
903.0, 0.03727018020629703
904.0, 0.036022860771788005
905.0, 0.03287005722564514
906.0, 0.031012590150380735
907.0, 0.03004762761358596
908.0, 0.027765371192334767
909.0, 0.025147402041884318
910.0, 0.02295610097318369
911.0, 0.020845917303966427
912.0, 0.018600092214188835
913.0, 0.017241747195234445
914.0, 0.01551556401786211
915.0, 0.014214929120475334
916.0, 0.011827807960559825
917.0, 0.010387873994712454
918.0, 0.009406033461566564
919.0, 0.007830256401415436
920.0, 0.006931551742374503
921.0, 0.0074374756671592174
922.0, 0.005777724702790169
923.0, 0.007756317109746837
924.0, 0.0058242520431962385
925.0, 0.004893693243020278
926.0, 0.0033653206364716052
927.0, 0.0024703047220067673
928.0, 0.0020487464855305764
929.0, 0.00252973981938998
930.0, 0.0038671710265095333
931.0, 0.002862638254348906
932.0, 0.0011479391723039744
933.0, 0.0006284203799071438
934.0, 0.0011261597125172885
935.0, 0.001289684466832727
936.0, 0.0009119318785115955
937.0, 0.000956392541154105
938.0, 0.0011577436082260716
939.0, 0.0008535624129674284
940.0, 0.0009715051944331823
941.0, 0.00036867434220407274
942.0, 0.0005071529337478156
943.0, 0.000838071793439918
944.0, 0.0006183174530646597
945.0, 0.00029427400462294165
946.0, 0.000507123860339001
947.0, 0.0008653534745178449
948.0, 0.0012002091667306773
949.0, 0.0018985423860685836
950.0, 0.0001829186827411504
951.0, 7.57823606593964e-05
952.0, 0.0004816084907930653
953.0, 0.0015317350961530146
954.0, 0.002319414653967391
955.0, 0.002807959840976585
956.0, 0.003324147947923479
957.0, 0.003997977816174267
958.0, 0.004755944878008009
959.0, 0.005737941918323108
960.0, 0.00698928129845445
961.0, 0.008214991772655965
962.0, 0.00883858538251352
963.0, 0.010309835187440658
964.0, 0.010687829809831705
965.0, 0.01065744233602373
966.0, 0.01163012120635089
967.0, 0.012891439555714148
968.0, 0.012485723145971489
969.0, 0.011764888927451343
970.0, 0.012690025254647443
971.0, 0.011195466787506929
972.0, 0.01160848519878164
973.0, 0.010029867921364219
974.0, 0.009928018398327016
975.0, 0.010875357504946892
976.0, 0.01060275082109055
977.0, 0.010117887857220327
978.0, 0.007944883039408594
979.0, 0.00837022246258089
980.0, 0.009109067948711854
981.0, 0.0088318098516599
982.0, 0.009929848974852364
983.0, 0.009831175653963756
984.0, 0.009799633045892256
985.0, 0.009832137434665442
986.0, 0.008736667949749687
987.0, 0.008652124682725582
988.0, 0.008601721308960334
989.0, 0.008464302852391609
990.0, 0.008584588674177778
991.0, 0.008974461770709923
992.0, 0.008826276714690828
993.0, 0.007914400480607313
994.0, 0.0075341606067299855
995.0, 0.008399197947532725
996.0, 0.00896240276947822
997.0, 0.00753669357603137
998.0, 0.008449188663471911
999.0, 0.008115723507475019
1000.0, 0.008185249772752153
1001.0, 0.008077981429960133
1002.0, 0.007986893793865508
1003.0, 0.007887008130090365
1004.0, 0.0075523281556450165
1005.0, 0.007383051094538864
1006.0, 0.007719063438478875
1007.0, 0.0072224002568699285
1008.0, 0.007684700489222972
1009.0, 0.006954863700428489
1010.0, 0.006936011756943323
1011.0, 0.007664586991417711
1012.0, 0.007225358648260945
1013.0, 0.006796054288133924
1014.0, 0.006755112508275154
1015.0, 0.006882724036281391
1016.0, 0.007305481501677809
1017.0, 0.006348324518684321
1018.0, 0.006373432419088007
1019.0, 0.006030544513447146
1020.0, 0.00674156090316241
1021.0, 0.005772986524446957
1022.0, 0.005939319935720361
1023.0, 0.0069457958677887795
1024.0, 0.006958026880064443
1025.0, 0.0064290682142144956
1026.0, 0.006997135247179758
1027.0, 0.006864815503138293
1028.0, 0.008340961459952632
1029.0, 0.007077496670926597
1030.0, 0.006758425944984757
1031.0, 0.006810790384182968
1032.0, 0.007607379990175648
1033.0, 0.007662049806991382
1034.0, 0.007808398870533713
1035.0, 0.008303216320931912
1036.0, 0.007526392579453211
1037.0, 0.006897727778647938
1038.0, 0.009158692035800161
1039.0, 0.008636724857320633
1040.0, 0.00811554140252589
1041.0, 0.008440638660958882
1042.0, 0.008700421948452872
1043.0, 0.008597767747561231
1044.0, 0.008991317011726058
1045.0, 0.009512633773996361
1046.0, 0.008911168151593023
1047.0, 0.007950815528476951
1048.0, 0.008422193041062825
1049.0, 0.00852125139134883
1050.0, 0.009573163302040099
1051.0, 0.010052061959983514
1052.0, 0.01068634850229432
1053.0, 0.010076989563493613
1054.0, 0.009118725489440496
1055.0, 0.009038157530059742
1056.0, 0.00994094535453537
1057.0, 0.010826703517908832
1058.0, 0.009989029075841874
1059.0, 0.010292620904241524
1060.0, 0.010535938798344566
1061.0, 0.010185526163198259
1062.0, 0.010577448165009077
1063.0, 0.010220055962525048
1064.0, 0.010977576589879664
1065.0, 0.011684278186317284
1066.0, 0.011613138129862068
1067.0, 0.011685504992563493
1068.0, 0.011239380462784663
1069.0, 0.012327003958778473
1070.0, 0.012687875717146222
1071.0, 0.012588140743424979
1072.0, 0.013874392572137309
1073.0, 0.014926410662815725
1074.0, 0.015029010437680443
1075.0, 0.01518111137225457
1076.0, 0.01514743780194843
1077.0, 0.015155156665994445
1078.0, 0.01641526748148324
1079.0, 0.01776548053202729
1080.0, 0.018510466906578933
1081.0, 0.020415503173700278
1082.0, 0.021570948978585348
1083.0, 0.02311605924722727
1084.0, 0.02480448201207579
1085.0, 0.02709865006371142
1086.0, 0.029735324263935107
1087.0, 0.030856274715022586
1088.0, 0.030962921298048524
1089.0, 0.03242381312362784
1090.0, 0.03291233422577781
1091.0, 0.03274347391740178
1092.0, 0.03213129519659515
1093.0, 0.03040108949477132
1094.0, 0.029096845817068628
1095.0, 0.027008276233826005
1096.0, 0.024980073086855487
1097.0, 0.02229847871131721
1098.0, 0.019558980196234782
1099.0, 0.01771115522928981
1100.0, 0.01614852600175797
1101.0, 0.014895191094321528
1102.0, 0.014155178404943491
1103.0, 0.013825029500526184
1104.0, 0.012691821823103718
1105.0, 0.012497629626690042
1106.0, 0.011884052902099224
1107.0, 0.010586708181130347
1108.0, 0.009005569058108245
1109.0, 0.00775144351805057
1110.0, 0.007159763569058516
1111.0, 0.007427861967884178
1112.0, 0.008012298219671688
1113.0, 0.005377722821260016
1114.0, 0.0068089051149498574
1115.0, 0.004618175828232988
1116.0, 0.006309821465360596
1117.0, 0.0074477585059997495
1118.0, 0.005721907017489399
1119.0, 0.006033168374859044
1120.0, 0.007267818155277965
1121.0, 0.007224501984999103
1122.0, 0.007128736996713885
1123.0, 0.007094690526441109
1124.0, 0.006688221832395588
1125.0, 0.005381086593439195
1126.0, 0.005228148214821037
1127.0, 0.0049884398057111244
1128.0, 0.003621798628800225
1129.0, 0.0034334152168771295
1130.0, 0.002986854440224273
1131.0, 0.002754287465763781
1132.0, 0.002845150853740797
1133.0, 0.0032378019453916133
1134.0, 0.003832892571593812
1135.0, 0.0028818572219764284
1136.0, 0.0033727266170662804
1137.0, 0.004050351574571351
1138.0, 0.003644900496094818
1139.0, 0.0025854305744195823
1140.0, 0.0026718696447297044
1141.0, 0.0019264536745572497
1142.0, 0.0015045399178508186
1143.0, 0.0023670188594416696
1144.0, 0.0031240797233262224
1145.0, 0.0024875847261495955
1146.0, 0.0019521356954830737
1147.0, 0.003187424023439929
1148.0, 0.002787129081112741
1149.0, 0.004499898756260076
1150.0, 0.0023969467638980417
1151.0, 0.003163482241682169
1152.0, 0.002439466872051322
1153.0, 0.0024168625606352826
1154.0, 0.002076077766625701
1155.0, 0.0020853228094023543
1156.0, 0.0027878090254798596
1157.0, 0.002580226559614501
1158.0, 0.0010731947564777181
1159.0, 0.0003881306674201619
1160.0, 0.0010483866555262564
1161.0, 0.0015924578298745203
1162.0, 0.0018299119626648014
1163.0, 0.001339061648495595
1164.0, 0.002278124730526866
1165.0, 0.0021201303264558272
1166.0, 0.0018230588805964324
1167.0, 0.0019444822504678006
1168.0, 0.0019133345296531358
1169.0, 0.0020023465375570535
1170.0, 0.002417342275957836
1171.0, 0.001736383520069609
1172.0, 0.0021519087833208705
1173.0, 0.001094128342035653
1174.0, 0.001830343505614636
1175.0, 0.0004651131211457918
1176.0, 0.00026822162515543986
1177.0, 0.0008366144232047183
1178.0, 0.0012961866001956132
1179.0, 0.001080565733451488
1180.0, 0.0007834964154340195
1181.0, 0.0007564960552991624
1182.0, 0.0006009839263693836
1183.0, 0.00045952250843708044
1184.0, 0.00048453000766601246
1185.0, 0.0004776456310574774
1186.0, 0.0006508372344533485
1187.0, 0.0008999203018797449
1188.0, 0.0013475297343568844
1189.0, 0.0011469875632540481
1190.0, 0.0005034405143919817
1191.0, 0.0005642183164338895
1192.0, 0.0004565793267260738
1193.0, 0.0005900115545122225
1194.0, 0.0008806982738274868
1195.0, 0.00012280615074434183
1196.0, 0.0003701009783278598
1197.0, 0.0007348151260875787
1198.0, 0.00024133973368393804
1199.0, 0.0006212543834410392
1200.0, 0.00026479174919738426
1201.0, 0.0005813133343810746
1202.0, 0.00036149946276239767
1203.0, 0.0005038966529946493
1204.0, 0.0006685467680629549
1205.0, 0.0003959256200673349
1206.0, 9.358344627183045e-05
1207.0, 0.000493118829617989
1208.0, 0.0015036078355319385
1209.0, 0.0017973752823494046
1210.0, 0.0005683766682354982
1211.0, 0.0015135285881846166
1212.0, 0.00011199679931305753
1213.0, 0.0006932922093102397
1214.0, 0.0010726573235790007
1215.0, 0.0005067193761930824
1216.0, 0.0009236844684386387
1217.0, 0.001113399394203223
1218.0, 0.0007176367393642716
1219.0, 0.00039780496119762136
1220.0, 0.0005846417409305928
1221.0, 0.0008510977480220503
1222.0, 0.000542959397854287
1223.0, 0.000995245397193453
1224.0, 0.0003256081186387587
1225.0, 0.0009768231417912933
1226.0, 0.0010544089872810112
1227.0, 0.001106728874896787
1228.0, 0.0004299531207988329
1229.0, 0.00023383576886903284
1230.0, 0.0008061608555654783
1231.0, 0.0017996040258425737
1232.0, 0.0015867302684765502
1233.0, 0.001178135978548343
1234.0, 0.0015222690246407382
1235.0, 0.0009839575200811578
1236.0, 0.0013143521590031982
1237.0, 0.0001522059363658028
1238.0, 0.001206277938876562
1239.0, 0.0008091489956693065
1240.0, 0.0010524264142405398
1241.0, 0.00093561692386032
1242.0, 0.0013989609441589198
1243.0, 0.0010004782021385014
1244.0, 0.0004579041325863369
1245.0, 0.0009507556069997117
1246.0, 0.0016427188038690207
1247.0, 0.0013555747182095697
1248.0, 0.0011924632486003239
1249.0, 0.0020847947628041684
1250.0, 0.0015574396918521586
1251.0, 0.00104621526286937
1252.0, 0.00038567773369945705
1253.0, 0.0006743201067879702
1254.0, 0.00039952059633300045
1255.0, 0.00041604270604216005
1256.0, 0.0006819624655113498
1257.0, 0.001233637675102207
1258.0, 0.001996921766192569
1259.0, 0.0017627945051356736
1260.0, 0.001096109078170108
1261.0, 0.0015618274456822572
1262.0, 0.002104383157330076
1263.0, 0.0015810946591536224
1264.0, 0.002533134999014957
1265.0, 0.002218622905074241
1266.0, 0.0009163848264172024
1267.0, 0.0014121477416002889
1268.0, 0.00046641516633683507
1269.0, 0.001733266879070887
1270.0, 0.0005928614746826352
1271.0, 0.0003304406491892948
1272.0, 0.0014067485384033674
1273.0, 0.0013223136892988737
1274.0, 0.0009290180785339308
1275.0, 0.0007234034666754304
1276.0, 0.0004429102198747754
1277.0, 0.0005666759149403381
1278.0, 0.0010108978052137706
1279.0, 0.0021392349712340613
1280.0, 0.0018405244047446246
1281.0, 0.001628304863216126
1282.0, 0.0009609565592746804
1283.0, 0.0001249985598170331
1284.0, 0.0013835284634382567
1285.0, 0.0007024056803531691
1286.0, 0.000721434896110201
1287.0, 0.001233922680472413
1288.0, 0.0010293559637051162
1289.0, 0.000837622220720587
1290.0, 0.0008229435202072975
1291.0, 0.0005822990407675474
1292.0, 0.0005116097128939332
1293.0, 0.0006140447779138139
1294.0, 0.0004035257332858764
1295.0, 0.000250246119532897
1296.0, 0.00017142117043518517
1297.0, 0.0005860988932461598
1298.0, 0.0015244088394366058
1299.0, 0.0015352273218999948
1300.0, 0.0007357542830211724
1301.0, 0.0017090216451214426
1302.0, 0.0007916393368645274
1303.0, 0.0004957154438976328
1304.0, 0.0006606801995407102
1305.0, 0.0015687759155487574
1306.0, 0.0018452512757071021
1307.0, 0.000636139207077323
1308.0, 0.0005652662486093207
1309.0, 0.0012321060040024192
1310.0, 0.0014866398842296514
1311.0, 0.0017128565894632757
1312.0, 0.002129397023641846
1313.0, 0.00028612039464802363
1314.0, 0.0019251330358108522
1315.0, 0.0014445263142478643
1316.0, 0.0004269590093442595
1317.0, 0.0020976933700714915
1318.0, 0.0018371264632904378
1319.0, 0.0017803808419370108
1320.0, 0.0015717475790701613
1321.0, 0.0014726175621330687
1322.0, 0.001738998641546557
1323.0, 0.0021322531424551173
1324.0, 0.0021784231054377302
1325.0, 0.0005969793613812529
1326.0, 0.001251045746015103
1327.0, 0.0019507454241446257
1328.0, 0.0019889844948448735
1329.0, 0.0005267778883671596
1330.0, 0.00040457147570806837
1331.0, 0.0001227201435405225
1332.0, 0.0005438656959325321
1333.0, 0.0007447693791888328
1334.0, 0.0012354720991367115
1335.0, 0.0005219331397804266
1336.0, 0.001031766489643517
1337.0, 0.0010758494924474353
1338.0, 0.000827607566954771
1339.0, 0.0012795416367427088
1340.0, 0.0013885096151960799
1341.0, 0.001486431630427769
1342.0, 0.001467489046970315
1343.0, 0.0018182135657052708
1344.0, 0.0013446877786388708
1345.0, 0.0014936003436293195
1346.0, 0.0021413733508001552
1347.0, 0.0020678344617890095
1348.0, 0.0022424227004006958
1349.0, 0.0022561094232304165
1350.0, 0.002392405948567857
1351.0, 0.00202567498923595
1352.0, 0.0019280907319013086
1353.0, 0.0017334191705297105
1354.0, 0.0023883806918296563
1355.0, 0.0023270720433192166
1356.0, 0.0018949106384018649
1357.0, 0.0020796934948130005
1358.0, 0.0013365524050015331
1359.0, 0.0010519049270173132
1360.0, 0.0013876275035389256
1361.0, 0.00168284727021619
1362.0, 0.0036679390269358622
1363.0, 0.0012839014349097027
1364.0, 0.0019146417038984687
1365.0, 0.0002289344157093956
1366.0, 3.4837444063683454e-05
1367.0, 0.0009561993538173313
1368.0, 0.0014023842600691797
1369.0, 0.0017560185724022584
1370.0, 0.002048149975729734
1371.0, 0.002284616941275502
1372.0, 0.0019906467701771937
1373.0, 0.0015422503395994777
1374.0, 0.0016624504199615653
1375.0, 0.0015744981996657522
1376.0, 0.0011158061964127075
1377.0, 0.001513751238012198
1378.0, 0.0013167137094820917
1379.0, 0.0010904352162656047
1380.0, 0.001513238810317485
1381.0, 0.0007036455697872954
1382.0, 0.0008754618272871045
1383.0, 0.000404408934198392
1384.0, 0.0020060747551255537
1385.0, 0.0023729443869409954
1386.0, 0.0016843975503887496
1387.0, 0.0004915416578757234
1388.0, 0.0008508470809751382
1389.0, 0.0006085673303550144
1390.0, 0.0009119092035347327
1391.0, 0.001473143627337973
1392.0, 0.0009286434263339235
1393.0, 0.0008933342552163433
1394.0, 0.0013496941320929592
1395.0, 0.000628658723435228
1396.0, 0.0011891270190852571
1397.0, 0.002347414597478422
1398.0, 0.0008260422717610285
1399.0, 0.002422978462626662
1400.0, 0.002034776057552091
1401.0, 0.00277609791822171
1402.0, 0.0018621320633749798
1403.0, 0.0016580852915031668
1404.0, 0.002281854782738946
1405.0, 0.0014326810533289514
1406.0, 0.0008734842597900455
1407.0, 0.001702227417169761
1408.0, 0.002194421493650037
1409.0, 0.002032419947008814
1410.0, 0.0013732128206829957
1411.0, 0.0011099915624462945
1412.0, 0.0006340637155802522
1413.0, 0.0007923624427141949
1414.0, 0.0013385616328281528
1415.0, 0.001243680879891717
1416.0, 0.00234045652555069
1417.0, 0.001954015113499233
1418.0, 0.0017008598482261123
1419.0, 0.001977960799045821
1420.0, 0.0020777904412197755
1421.0, 0.002286289062220303
1422.0, 0.0026815905349170024
1423.0, 0.001550322600594256
1424.0, 0.0014892748466323127
1425.0, 0.0012288941857532727
1426.0, 0.0015293222126339216
1427.0, 0.0009074647993191358
1428.0, 0.001954514732763282
1429.0, 0.000860789934232896
1430.0, 0.0016529159427772409
1431.0, 0.0017755043543508696
1432.0, 0.0014772339785099114
1433.0, 0.00144152287300247
1434.0, 0.001974047250909385
1435.0, 0.002821337731637297
1436.0, 0.0024263128336099123
1437.0, 0.0021133404016504364
1438.0, 0.0022668878441044166
1439.0, 0.001665612741259249
1440.0, 0.0009174619988242737
1441.0, 0.003185562612789914
1442.0, 0.0021708790970183228
1443.0, 0.002213257505827578
1444.0, 0.0004284733786899556
1445.0, 0.0003376776929179973
1446.0, 0.0014267322603350703
1447.0, 0.0020039342415405937
1448.0, 0.002326592816055894
1449.0, 0.0022924959561191455
1450.0, 0.0022417585108230184
1451.0, 0.0017331414925770227
1452.0, 0.001709044552275837
1453.0, 0.001304388807624197
1454.0, 0.0011284440065588415
1455.0, 0.0018785974690961112
1456.0, 0.0027071816179787952
1457.0, 0.0026711750947781324
1458.0, 0.002085588111947611
1459.0, 0.001671734450154314
1460.0, 0.001678016653443211
1461.0, 0.001933356895583582
1462.0, 0.0018200257716382317
1463.0, 0.0029708953969177377
1464.0, 0.0023192719184144516
1465.0, 0.002661427134046978
1466.0, 0.003351941149555001
1467.0, 0.002921273115199143
1468.0, 0.002060484702947985
1469.0, 0.0016954488171838048
1470.0, 0.003259210681483088
1471.0, 0.00181467684468497
1472.0, 0.0030671425473358725
1473.0, 0.0022455206355449617
1474.0, 0.0017612097914375298
1475.0, 0.002176191237411411
1476.0, 0.0026029054434120414
1477.0, 0.002070319866237409
1478.0, 0.0018930557380334395
1479.0, 0.0024885329345162646
1480.0, 0.0021889374346849813
1481.0, 0.002260169838172368
1482.0, 0.0025305752381181313
1483.0, 0.0017553077596521984
1484.0, 0.002494373693165002
1485.0, 0.003631154984628985
1486.0, 0.002023943095648976
1487.0, 0.0005387858781586631
1488.0, 0.0010187170230395825
1489.0, 0.001065005821872611
1490.0, 4.644934412117497e-05
1491.0, 0.0004128258925486329
1492.0, 0.0024267671463217284
1493.0, 0.001874257527875394
1494.0, 0.001781227156526177
1495.0, 0.0010012044973844287
1496.0, 0.0007529758994677865
1497.0, 0.0013118304360690846
1498.0, 0.0014930271772656822
1499.0, 0.0013860494937408005
1500.0, 0.0015966370110448535
1501.0, 0.0008032774080884373
1502.0, 0.0009305157221544474
1503.0, 0.0014853793015851217
1504.0, 0.0008385153620771744
1505.0, 0.0005450281223826164
1506.0, 0.0009942630432869513
1507.0, 0.0008563461665652823
1508.0, 0.0009332627007088186
1509.0, 0.001430979417647296
1510.0, 0.0010476866575360698
1511.0, 0.0008008506642482676
1512.0, 0.0013185767754697005
1513.0, 0.0012472337764349018
1514.0, 0.0010451495863488863
1515.0, 0.00022327895786362526
1516.0, 8.182922013241445e-05
1517.0, 0.00020634964391704833
1518.0, 0.0001473294167714099
1519.0, 0.0004277848722563965
1520.0, 0.0005708990387611056
1521.0, 0.0008432655748042801
1522.0, 0.000660078759847599
1523.0, 0.0004902568487471823
1524.0, 0.0012157250807134413
1525.0, 0.00017308802734986614
1526.0, 4.279317047162481e-05
1527.0, 0.0004603152587384872
1528.0, 0.0004913346251290381
1529.0, 0.0004954332108081765
1530.0, 0.001353439440690443
1531.0, 0.000615650835272575
1532.0, 0.0016538727187009484
1533.0, 0.001446783580584613
1534.0, 0.0005433154702433362
1535.0, 0.0015522145337475673
1536.0, 0.0016858095390713838
1537.0, 0.0006128890209029841
1538.0, 0.00034775284156522625
1539.0, 0.0014049693101445232
1540.0, 0.00136632679861089
1541.0, 0.00045238724856718485
1542.0, 0.000675852521951286
1543.0, 0.00042270068646231925
1544.0, 0.0008285730545242565
1545.0, 0.0014214997073702025
1546.0, 0.0010808876166159048
1547.0, 0.0022010050116681654
1548.0, 0.0025501352064678795
1549.0, 0.0029565295223636908
1550.0, 0.0038978392300690716
1551.0, 0.0034877474515769974
1552.0, 0.003986611756682615
1553.0, 0.00452196887879666
1554.0, 0.0033001230049961028
1555.0, 0.00039832548740074226
1556.0, 0.0008317229897557615
1557.0, 0.001943729087407631
1558.0, 0.0004313914596745345
1559.0, 0.0012591132967970401
1560.0, 0.00025238490542269106
1561.0, 0.003411005210179279
1562.0, 0.013617616162789468
1563.0, 0.012087332118453503
1564.0, 0.010043125952011865
1565.0, 0.0027944367426963293
1566.0, 0.0017947303128424698
1567.0, 0.002739582999176055
1568.0, 0.0025450391476234493
1569.0, 0.0008281570976739124
1570.0, 3.630943605185738e-06
1571, 0.0
1572, 0.0
1573, 0.0
1574, 0.0
1575, 0.0
1576, 0.0
1577, 0.0
1578, 0.0
1579, 0.0
1580, 0.0
1581, 0.0
1582, 0.0
1583, 0.0
1584, 0.0
1585, 0.0
1586, 0.0
1587, 0.0
1588, 0.0
1589, 0.0
1590, 0.0
1591, 0.0
1592, 0.0
1593, 0.0
1594, 0.0
1595, 0.0
1596, 0.0
1597, 0.0
1598, 0.0
1599, 0.0
