30, 0.0
31, 0.0
32, 0.0
33, 0.0
34, 0.0
35, 0.0
36, 0.0
37, 0.0
38, 0.0
39, 0.0
40, 0.0
41, 0.0
42, 0.0
43, 0.0
44, 0.0
45, 0.0
46, 0.0
47, 0.0
48, 0.0
49, 0.0
50, 0.0
51, 0.0
52, 0.0
53, 0.0
54, 0.0
55, 0.0
56, 0.0
57, 0.0
58, 0.0
59, 0.0
60, 0.0
61, 0.0
62, 0.0
63, 0.0
64, 0.0
65, 0.0
66, 0.0
67, 0.0
68, 0.0
69, 0.0
70, 0.0
71, 0.0
72, 0.0
73, 0.0
74, 0.0
75, 0.0
76, 0.0
77, 0.0
78, 0.0
79, 0.0
80, 0.0
81, 0.0
82, 0.0
83, 0.0
84, 0.0
85, 0.0
86, 0.0
87, 0.0
88, 0.0
89, 0.0
90, 0.0
91, 0.0
92, 0.0
93, 0.0
94, 0.0
95, 0.0
96, 0.0
97, 0.0
98, 0.0
99, 0.0
100, 0.0
101, 0.0
102, 0.0
103, 0.0
104, 0.0
105, 0.0
106, 0.0
107, 0.0
108, 0.0
109, 0.0
110, 0.0
111, 0.0
112, 0.0
113, 0.0
114, 0.0
115, 0.0
116, 0.0
117, 0.0
118, 0.0
119, 0.0
120, 0.0
121, 0.0
122, 0.0
123, 0.0
124, 0.0
125.0, 3.883723941923192e-05
126.0, 6.234774225368994e-05
127.0, 0.000793630233764082
128.0, 0.002229164825855288
129.0, 0.00362265376635628
130.0, 0.005721458867401272
131.0, 0.007804542585413693
132.0, 0.008987008905666227
133.0, 0.008797085972360357
134.0, 0.007752645906116943
135.0, 0.004845106171335017
136.0, 0.0017126821318315436
137.0, 0.0001473177148533388
138.0, 0.00018663057054281153
139.0, 0.0014210829541252486
140.0, 0.00425860210993628
141.0, 0.008711633094294962
142.0, 0.015341216175205678
143.0, 0.023732685724129975
144.0, 0.033949762606519274
145.0, 0.045137216739775075
146.0, 0.055900463834867097
147.0, 0.06519371645120195
148.0, 0.07116927483629606
149.0, 0.0752401693761349
150.0, 0.07854256538017358
151.0, 0.0809620735377996
152.0, 0.08385346305398075
153.0, 0.08665132593769821
154.0, 0.08749927597992657
155.0, 0.08397167115754217
156.0, 0.07259248040509221
157.0, 0.05749285401467167
158.0, 0.042790873680211866
159.0, 0.03105738065807785
160.0, 0.024037612345882288
161.0, 0.02006950277773717
162.0, 0.018013734148285845
163.0, 0.01719894265898281
164.0, 0.01725459149370268
165.0, 0.017922028883469266
166.0, 0.020077689788281537
167.0, 0.023101233742103426
168.0, 0.02620259622011998
169.0, 0.030182624545623753
170.0, 0.034306932879286926
171.0, 0.038741430786574736
172.0, 0.04301898442930825
173.0, 0.04586670679845586
174.0, 0.046914325168154816
175.0, 0.04381344063153379
176.0, 0.03733471375609094
177.0, 0.0295939726573018
178.0, 0.022846491524375415
179.0, 0.01738001765641852
180.0, 0.013787897387125641
181.0, 0.011256568572641826
182.0, 0.008204868647293992
183.0, 0.00606917802110854
184.0, 0.005015520400992145
185.0, 0.004175991037781886
186.0, 0.003039465566430464
187.0, 0.0026780208204612767
188.0, 0.0019544158913340475
189.0, 0.0013139927563158881
190.0, 0.000986157774585604
191.0, 0.0006430227874133477
192.0, 9.841374958314169e-05
193.0, 0.00012134151670816569
194.0, 0.0006242217496596247
195.0, 0.001187048918093272
196.0, 0.0018809621408287654
197.0, 0.0020716268014912553
198.0, 0.002636837054769744
199.0, 0.0036833808051856937
200.0, 0.004476651580041379
201.0, 0.005090332526696911
202.0, 0.0060569669816946375
203.0, 0.007338885897444009
204.0, 0.008570594099484016
205.0, 0.009262569334247793
206.0, 0.010507053706504125
207.0, 0.01141379246717666
208.0, 0.011818152863044001
209.0, 0.01210279940383631
210.0, 0.012099069734293819
211.0, 0.012513557647068883
212.0, 0.012894821587603463
213.0, 0.013045568692302986
214.0, 0.013537396387105233
215.0, 0.014517343618523568
216.0, 0.01591175219403214
217.0, 0.01757024974898835
218.0, 0.019462393673847486
219.0, 0.022120886046604116
220.0, 0.025005895936053894
221.0, 0.02780235071659848
222.0, 0.031191600771467435
223.0, 0.03611777676979197
224.0, 0.0402797421913253
225.0, 0.04443036807123684
226.0, 0.04974849702475538
227.0, 0.05574938896365153
228.0, 0.06037456445911084
229.0, 0.06638932828964761
230.0, 0.07173427768765482
231.0, 0.07588560459251603
232.0, 0.07931364805656385
233.0, 0.08120871277760408
234.0, 0.08107559911863708
235.0, 0.08006535461340109
236.0, 0.07782762344870636
237.0, 0.07332211538182253
238.0, 0.0696384125870825
239.0, 0.06519138615410311
240.0, 0.060425642194452386
241.0, 0.0558948559841035
242.0, 0.05068607999589647
243.0, 0.04515339167573159
244.0, 0.03999660500690197
245.0, 0.035566917453687244
246.0, 0.03175279268004267
247.0, 0.02696642084928108
248.0, 0.02327986650564545
249.0, 0.020024431203129092
250.0, 0.016960475021719292
251.0, 0.014924528957675178
252.0, 0.012918069251619828
253.0, 0.011679341404595062
254.0, 0.010663602635226088
255.0, 0.009488046813305675
256.0, 0.008714058206219778
257.0, 0.008136742647580308
258.0, 0.008068329751457944
259.0, 0.007651287442997678
260.0, 0.006732195574924477
261.0, 0.00662754500824732
262.0, 0.006147139046156039
263.0, 0.005721775816673935
264.0, 0.005446718942672566
265.0, 0.004944860864469035
266.0, 0.0035968026237973008
267.0, 0.003210178567667583
268.0, 0.0030101451088957944
269.0, 0.002564598413520207
270.0, 0.0021357773267642183
271.0, 0.0014089491697196522
272.0, 0.00120449747478329
273.0, 0.0011234603724178704
274.0, 0.000961115846149124
275.0, 0.001125011090121994
276.0, 0.0006662824601697316
277.0, 0.00042217654334018444
278.0, 0.00033635535855965266
279.0, 0.00010970313781668106
280.0, 7.2558047621698345e-06
281.0, 9.965662500066665e-05
282.0, 2.194484941226928e-05
283.0, 1.3223340106065054e-05
284.0, 9.268220609996966e-05
285.0, 0.0004665075742593474
286.0, 0.0008376230939026459
287.0, 0.0011014999710066645
288.0, 0.001110010444647633
289.0, 0.0007533926956710768
290.0, 0.0006701885205019633
291.0, 0.0007472576454042368
292.0, 0.0007808649822287344
293.0, 0.000694544987853491
294.0, 0.000717954442975837
295.0, 0.0013145142788004466
296.0, 0.0007719351586364079
297.0, 0.00025677116968500686
298.0, 0.00024284635053743042
299.0, 0.00017399491871399072
300.0, 0.00017767471702807922
301.0, 0.0003611573165078687
302.0, 0.0008291518777864761
303.0, 0.0010508711206505669
304.0, 0.0013642716981739646
305.0, 0.0016954237248763915
306.0, 0.0023433492711826902
307.0, 0.0029091818322166574
308.0, 0.0033108551799087152
309.0, 0.0038840767032443037
310.0, 0.004540826464590048
311.0, 0.005330832919809835
312.0, 0.006092453808402382
313.0, 0.006839522231973761
314.0, 0.007939783388248505
315.0, 0.009146206135150717
316.0, 0.010562851812881644
317.0, 0.012003016604866593
318.0, 0.013389821686048952
319.0, 0.014954269892920855
320.0, 0.016624291020563134
321.0, 0.018477367067069338
322.0, 0.020605636078213765
323.0, 0.023047112519180117
324.0, 0.025772465219038827
325.0, 0.02858609392274148
326.0, 0.03162419074974758
327.0, 0.03528125710269669
328.0, 0.03946488335694725
329.0, 0.043271133224522466
330.0, 0.0475036928045241
331.0, 0.053911370860881797
332.0, 0.06091210596192585
333.0, 0.0677488378787568
334.0, 0.07659058509594067
335.0, 0.08653566965203154
336.0, 0.09888121299044603
337.0, 0.11370136653295457
338.0, 0.13092562192960455
339.0, 0.15121613134318154
340.0, 0.1746426815363094
341.0, 0.20027645141940614
342.0, 0.2277939599539495
343.0, 0.25706266017026974
344.0, 0.2874544675730658
345.0, 0.3153026258234389
346.0, 0.33934231608257415
347.0, 0.3578607857831999
348.0, 0.3670631357072039
349.0, 0.36316415815109815
350.0, 0.34972942014846226
351.0, 0.3265193231368315
352.0, 0.29808718092566233
353.0, 0.26790563721388705
354.0, 0.23853866485285846
355.0, 0.2121380242936341
356.0, 0.1903506240075718
357.0, 0.17156975389440202
358.0, 0.15566565326714515
359.0, 0.1433865503574906
360.0, 0.13459085215859223
361.0, 0.12610891075063643
362.0, 0.1177209590376926
363.0, 0.10981032740030183
364.0, 0.10246807378673407
365.0, 0.09507736751765164
366.0, 0.0879348955416942
367.0, 0.08200788207746959
368.0, 0.07710073254164514
369.0, 0.07314541394893696
370.0, 0.07151422613222906
371.0, 0.07060299141044041
372.0, 0.07142503028989426
373.0, 0.074119540379305
374.0, 0.07746379299569944
375.0, 0.08019937652803923
376.0, 0.0851305674757543
377.0, 0.08888961315069681
378.0, 0.09197722481159522
379.0, 0.09407146457775445
380.0, 0.09226463624430885
381.0, 0.08847215065504835
382.0, 0.08066790214445357
383.0, 0.07078782455321751
384.0, 0.06066828064218916
385.0, 0.0508952767566179
386.0, 0.04213839307139504
387.0, 0.034393594445429033
388.0, 0.02791252414426709
389.0, 0.022907600170765173
390.0, 0.019117784922171643
391.0, 0.01579648081562951
392.0, 0.013065910580274568
393.0, 0.0113779212289927
394.0, 0.01008010674159628
395.0, 0.008532354480189545
396.0, 0.006915558984199801
397.0, 0.005865213446799613
398.0, 0.005107875450744761
399.0, 0.004258974417752096
400.0, 0.0033114797332247092
401.0, 0.002582165116716552
402.0, 0.0019628139745817975
403.0, 0.0012107068992970162
404.0, 0.0006761854682659902
405.0, 0.0002592002234299992
406.0, 0.0002681369513701452
407.0, 0.0006777484303598744
408.0, 0.0010232180474611574
409.0, 0.0011998558117277723
410.0, 0.0010605705961928722
411.0, 0.0008862734570717838
412.0, 0.0011425231986471548
413.0, 0.0008505286154931908
414.0, 0.000504403317283638
415.0, 0.00023223448650138665
416.0, 0.0008243966799945147
417.0, 0.00133836021025284
418.0, 0.0023760735863864483
419.0, 0.0027227362139542717
420.0, 0.0038649828968655483
421.0, 0.005080838681752631
422.0, 0.005778629595683492
423.0, 0.007050267321002404
424.0, 0.008443877259617146
425.0, 0.009229497530434738
426.0, 0.010008740344474881
427.0, 0.011070575682326916
428.0, 0.011823070983138192
429.0, 0.011739765529587866
430.0, 0.013176357590243049
431.0, 0.014237835538477605
432.0, 0.015126291632689822
433.0, 0.016830166816375225
434.0, 0.018331765426394475
435.0, 0.019598921207152953
436.0, 0.021037071561657916
437.0, 0.022216169228103995
438.0, 0.023491683049304265
439.0, 0.025402966826487246
440.0, 0.02616969285756647
441.0, 0.027771635976802007
442.0, 0.028769660716828526
443.0, 0.0292595541470149
444.0, 0.02991086174837109
445.0, 0.029830112338146527
446.0, 0.02904159899503551
447.0, 0.02919257069644599
448.0, 0.028858259039522643
449.0, 0.02787420178159874
450.0, 0.027476718657419467
451.0, 0.027338626050887906
452.0, 0.026821043468485222
453.0, 0.02599545232805381
454.0, 0.025120025160096954
455.0, 0.024527609079039413
456.0, 0.024382563251272096
457.0, 0.022965639114001173
458.0, 0.022498010370446412
459.0, 0.022404729469538708
460.0, 0.021750435972444023
461.0, 0.02081028539677949
462.0, 0.021062592107925895
463.0, 0.020607667482708036
464.0, 0.020508620940230052
465.0, 0.020388350277316798
466.0, 0.020043595674837947
467.0, 0.020112693139256045
468.0, 0.020325298966824314
469.0, 0.020540614356208266
470.0, 0.020676543641870344
471.0, 0.02080684672882419
472.0, 0.020911619407347704
473.0, 0.020815284102608408
474.0, 0.02092868297200372
475.0, 0.020601719893531177
476.0, 0.01969620831104293
477.0, 0.018884218981979076
478.0, 0.0185677847024077
479.0, 0.017716699191723716
480.0, 0.016209013157486706
481.0, 0.014743363103599099
482.0, 0.013195045316073304
483.0, 0.01169734983981361
484.0, 0.01072785981442014
485.0, 0.009616703735867633
486.0, 0.008273784589890042
487.0, 0.007144693284823547
488.0, 0.0063118079587962455
489.0, 0.005519451870875493
490.0, 0.004591228049926073
491.0, 0.0039879691115425235
492.0, 0.003616815960754024
493.0, 0.0029976964201849482
494.0, 0.0024780255605811887
495.0, 0.002234460024837603
496.0, 0.0015401309251031241
497.0, 0.0011200631125112572
498.0, 0.001003836801024502
499.0, 0.0010102550183921336
500.0, 0.000745425040085602
501.0, 0.00011975185052889975
502.0, 0.0002741434701333729
503.0, 8.200746420709975e-05
504.0, 0.0001647630646077801
505.0, 3.961238652366087e-05
506.0, 0.0001428369879014436
507.0, 0.00030783192811588054
508.0, 0.00047262586241429374
509.0, 0.00018208595695290208
510.0, 1.2216345704694009e-05
511.0, 0.00015563475173397198
512.0, 0.00035996075370404914
513.0, 0.00023074919911703472
514.0, 4.5050803672818166e-05
515.0, 8.558553981927725e-05
516.0, 0.0002160410846789549
517.0, 0.00034265332534131357
518.0, 0.0003152527505059902
519.0, 0.000239447997972087
520.0, 0.0004019463213556604
521.0, 0.0006896013754913922
522.0, 0.0005465262406034972
523.0, 0.0004708350392859983
524.0, 0.0007082709897505403
525.0, 0.0008321035042978235
526.0, 0.0011064916471726933
527.0, 0.001044474794401774
528.0, 0.0012527378947067838
529.0, 0.0014031385663922198
530.0, 0.0011837046239795903
531.0, 0.0008975255519120939
532.0, 0.0011213119529321993
533.0, 0.0013260832583789912
534.0, 0.001715921267349425
535.0, 0.0018646082993769414
536.0, 0.00192967203998782
537.0, 0.0025144441822887577
538.0, 0.00250832402405782
539.0, 0.0023139590232083883
540.0, 0.0023658849094450557
541.0, 0.002788189052748673
542.0, 0.002998977628072133
543.0, 0.0025739561920943912
544.0, 0.0028907303899197616
545.0, 0.002738616710331907
546.0, 0.0028096133947972534
547.0, 0.00304243868572049
548.0, 0.0029751444230938853
549.0, 0.002781543966402034
550.0, 0.003029640057836922
551.0, 0.003283798400779282
552.0, 0.0030520709258853623
553.0, 0.0031499872103318686
554.0, 0.003533966306549168
555.0, 0.0034352109194275417
556.0, 0.0033122903217848274
557.0, 0.0037133674982382254
558.0, 0.0038445502548817485
559.0, 0.0036804976294991893
560.0, 0.003715094570278546
561.0, 0.004056442197040415
562.0, 0.004013941455565241
563.0, 0.004149439532679778
564.0, 0.004354901950960548
565.0, 0.004374512975134826
566.0, 0.004426920701752674
567.0, 0.004705382660948784
568.0, 0.004819509942355142
569.0, 0.004962322045940255
570.0, 0.005235718014631368
571.0, 0.005587510807505736
572.0, 0.005755310434591864
573.0, 0.00561072974157567
574.0, 0.0055646468096649665
575.0, 0.005805634167616028
576.0, 0.0057883025080734275
577.0, 0.00572397187453837
578.0, 0.005338802773633846
579.0, 0.004946050522975777
580.0, 0.005075893173967092
581.0, 0.005048632141464417
582.0, 0.0046444639467966425
583.0, 0.00468446923676652
584.0, 0.0047163829287321995
585.0, 0.0046634924310023735
586.0, 0.004578010443182994
587.0, 0.004316882912444203
588.0, 0.004432039698283546
589.0, 0.0040906633023723915
590.0, 0.0038386234161750976
591.0, 0.003558506194423693
592.0, 0.0032604346093267488
593.0, 0.003273602902920873
594.0, 0.0033418374323622214
595.0, 0.0030888365080210256
596.0, 0.003165148261014853
597.0, 0.0029074960648537815
598.0, 0.002864143478479246
599.0, 0.0032429803503276114
600.0, 0.0028042841006397936
601.0, 0.0023361978657412156
602.0, 0.002534466492258667
603.0, 0.0023169092430199586
604.0, 0.002190588724362875
605.0, 0.0021605605908907406
606.0, 0.0015168904975858767
607.0, 0.001377801283788744
608.0, 0.0009605881211947928
609.0, 0.0006731202591671825
610.0, 0.0007349953474474225
611.0, 0.0007973155350633033
612.0, 0.0005185808624757461
613.0, 0.00019254792574633007
614.0, 0.0001821649598319515
615.0, 0.00022012144607948557
616.0, 0.00031994792262024616
617.0, 0.000699834353069095
618.0, 0.0011617092672025087
619.0, 0.0013876552631715698
620.0, 0.0011636893580051217
621.0, 0.0015574242285311011
622.0, 0.002069060135242382
623.0, 0.0021881274903554726
624.0, 0.002150154175907032
625.0, 0.002354574926631071
626.0, 0.002581971836154501
627.0, 0.0023232182840506837
628.0, 0.0018971305545631043
629.0, 0.0021515112883195623
630.0, 0.0019111168292391175
631.0, 0.0015939264403877365
632.0, 0.0018642059278831233
633.0, 0.00156512889096956
634.0, 0.0011484999097165478
635.0, 0.0013591154702548352
636.0, 0.0010117983167523175
637.0, 0.00025527796235862415
638.0, 0.0005651696238994153
639.0, 0.001054221718471913
640.0, 0.0013075338917862066
641.0, 0.0023201429376271698
642.0, 0.0031800700903699486
643.0, 0.004178675725790762
644.0, 0.0054137677768794495
645.0, 0.006818719489394641
646.0, 0.008368970149653604
647.0, 0.00984470087873791
648.0, 0.011702793591128706
649.0, 0.013725721269039254
650.0, 0.01594037199683336
651.0, 0.018109704436991
652.0, 0.020781255524580156
653.0, 0.024735044904449426
654.0, 0.027854638877862874
655.0, 0.031198662356534894
656.0, 0.03518360691061607
657.0, 0.03953286542092654
658.0, 0.044688080801964895
659.0, 0.05019548811182058
660.0, 0.05497295285071241
661.0, 0.06126329153603969
662.0, 0.06740758376000971
663.0, 0.07444996274214793
664.0, 0.08102698502426228
665.0, 0.08677912584403578
666.0, 0.09288708048134703
667.0, 0.0995615237099005
668.0, 0.10424053648824802
669.0, 0.10901866904918481
670.0, 0.11229425193047124
671.0, 0.11350520651616959
672.0, 0.11368824912989108
673.0, 0.11264651550225567
674.0, 0.10926655004196664
675.0, 0.10559943014910518
676.0, 0.10053617495926097
677.0, 0.09522914966584227
678.0, 0.08914720642686853
679.0, 0.0817212469061752
680.0, 0.07396772904608846
681.0, 0.0672178184730471
682.0, 0.06101301385185393
683.0, 0.05569153747354213
684.0, 0.04968065161512637
685.0, 0.0436260568968119
686.0, 0.04031403151567578
687.0, 0.03823307181662135
688.0, 0.03456055135438704
689.0, 0.03156937519419139
690.0, 0.030117433638810077
691.0, 0.029135253294945117
692.0, 0.027787292483792816
693.0, 0.027908179245583812
694.0, 0.029002456260118145
695.0, 0.029311220309545912
696.0, 0.03125130942316032
697.0, 0.032762163854967184
698.0, 0.03512314793514192
699.0, 0.03827740664252026
700.0, 0.041560604273429946
701.0, 0.0455400842649795
702.0, 0.050665502083036225
703.0, 0.056419468389186114
704.0, 0.06380580091293249
705.0, 0.07191626423891191
706.0, 0.08087105865165073
707.0, 0.090945177818064
708.0, 0.10332302690883927
709.0, 0.1175149288419742
710.0, 0.131870842593285
711.0, 0.14685757967427213
712.0, 0.16359373619995735
713.0, 0.18058267877430628
714.0, 0.19887389859865245
715.0, 0.21736314550273875
716.0, 0.23570896877997885
717.0, 0.25604284770296176
718.0, 0.2803206854480142
719.0, 0.3062450359645915
720.0, 0.3361533956926013
721.0, 0.3707041504601538
722.0, 0.4101378559635475
723.0, 0.45616382780077225
724.0, 0.508875924713555
725.0, 0.5672107153804496
726.0, 0.6320405947051939
727.0, 0.6978710732910636
728.0, 0.7687234609359215
729.0, 0.8354842811323479
730.0, 0.8958030710287663
731.0, 0.9476922418210201
732.0, 0.9844386050152442
733.0, 0.999440789115853
734.0, 0.9902888320296078
735.0, 0.9501419907409159
736.0, 0.8892025880841954
737.0, 0.8074370077065548
738.0, 0.716468226212536
739.0, 0.6271384141556032
740.0, 0.5421499493816154
741.0, 0.46398387344422864
742.0, 0.3991761633202005
743.0, 0.34347306668708383
744.0, 0.29556107694310124
745.0, 0.25543881748053837
746.0, 0.22273747679261416
747.0, 0.1959092608746238
748.0, 0.17280522799224002
749.0, 0.15262168746330507
750.0, 0.13645964972501087
751.0, 0.12253616279973643
752.0, 0.11020099899480336
753.0, 0.10102742606425925
754.0, 0.09353953041003424
755.0, 0.08614834142537314
756.0, 0.07977207313517938
757.0, 0.07549550426381434
758.0, 0.07223079123369318
759.0, 0.07069512688868788
760.0, 0.07007496112023692
761.0, 0.06949130782204568
762.0, 0.06819558432950676
763.0, 0.06713617548978915
764.0, 0.0671188837320764
765.0, 0.06552339131638378
766.0, 0.06321379800872168
767.0, 0.06035226450605459
768.0, 0.05576503223388371
769.0, 0.05070799968456792
770.0, 0.044900155915520566
771.0, 0.03870771725932412
772.0, 0.03404325487118965
773.0, 0.029273578335316186
774.0, 0.024627045092998318
775.0, 0.020883167296339038
776.0, 0.017557468889301393
777.0, 0.01413766149641598
778.0, 0.011216147461238578
779.0, 0.009307551346259072
780.0, 0.007856416766391787
781.0, 0.00599388681802605
782.0, 0.005132827346473153
783.0, 0.0035346370499113834
784.0, 0.0024019593856685153
785.0, 0.0022329464593235215
786.0, 0.001637925626503454
787.0, 0.0006101452498477337
788.0, 0.00017034275579241867
789.0, 0.0007328892212302663
790.0, 0.0008917572750855525
791.0, 0.0006425708914919518
792.0, 0.0011806678600438248
793.0, 0.0013626643938111104
794.0, 0.0017335002061488302
795.0, 0.00194238477912962
796.0, 0.0015887292630716652
797.0, 0.001912112015306807
798.0, 0.00226927126953371
799.0, 0.00208415033419423
800.0, 0.0021888389685907274
801.0, 0.0022491678418562126
802.0, 0.00203223211132413
803.0, 0.0016500766158389908
804.0, 0.0014522228135982022
805.0, 0.0015905183432779405
806.0, 0.0016298024580537068
807.0, 0.0012195884933069862
808.0, 0.0014879628358743444
809.0, 0.0007922978045505907
810.0, 0.0006828527384871347
811.0, 0.0008976075035240873
812.0, 0.0004325249148380147
813.0, 0.00029805157483390386
814.0, 0.00011646074168820348
815.0, 0.0001720049320835159
816.0, 0.0005038097907002091
817.0, 0.0006744784739730452
818.0, 0.0007995097884639711
819.0, 0.0008760646585132375
820.0, 0.0012689358724057023
821.0, 0.0014827577290241606
822.0, 0.0013771737172749848
823.0, 0.0019356362545485447
824.0, 0.001962262967113326
825.0, 0.0019080427790397127
826.0, 0.0022415109128145934
827.0, 0.002504297095159203
828.0, 0.0027101703456157825
829.0, 0.0030237360187710155
830.0, 0.0031846395305086947
831.0, 0.0031408233284678936
832.0, 0.0035162186624375807
833.0, 0.0038859829769557603
834.0, 0.004059241589236925
835.0, 0.0037613522880686648
836.0, 0.004346102827418499
837.0, 0.004747140628780953
838.0, 0.00476990342703383
839.0, 0.004817960460960701
840.0, 0.004962265555201063
841.0, 0.005421933951435337
842.0, 0.00561979936759325
843.0, 0.00581918203394887
844.0, 0.005870204833519567
845.0, 0.006009656644593163
846.0, 0.006102923442084134
847.0, 0.006145896207047644
848.0, 0.006234328128028429
849.0, 0.006422448429810692
850.0, 0.006689820121438315
851.0, 0.0066838366970839065
852.0, 0.006788399100730937
853.0, 0.006625681297672229
854.0, 0.0065872810039172905
855.0, 0.006554179028939837
856.0, 0.006380819904881728
857.0, 0.006285670265629871
858.0, 0.006359279699677142
859.0, 0.006319971305895559
860.0, 0.005946608822567312
861.0, 0.005787185370016673
862.0, 0.005682528918271363
863.0, 0.005730010485672867
864.0, 0.005776783535004512
865.0, 0.005593795988388659
866.0, 0.005285934611432629
867.0, 0.005085776346825112
868.0, 0.0049461818357158195
869.0, 0.004971219804878476
870.0, 0.004637869269712002
871.0, 0.0050008326264287094
872.0, 0.004727283243665546
873.0, 0.004471045384346488
874.0, 0.004399382815546471
875.0, 0.00427484642834757
876.0, 0.004278042370324184
877.0, 0.004316774747603505
878.0, 0.003995279800196274
879.0, 0.004018135368371739
880.0, 0.00411817348359706
881.0, 0.004037930789077188
882.0, 0.004011642048988095
883.0, 0.0040129520027468
884.0, 0.0038679933322140732
885.0, 0.0037733775616531863
886.0, 0.0037267115291064958
887.0, 0.0035922527229493026
888.0, 0.003606251704913502
889.0, 0.0032836415757137956
890.0, 0.00353964362356374
891.0, 0.003607417089488975
892.0, 0.0034018056924936717
893.0, 0.0033450752223641664
894.0, 0.0033331576306705754
895.0, 0.003196513362456492
896.0, 0.002983093201996298
897.0, 0.002878073158903267
898.0, 0.0029826884324614983
899.0, 0.0029397945481137513
900.0, 0.002692503364324854
901.0, 0.0025181753575823315
902.0, 0.002698499002327445
903.0, 0.002727762727019736
904.0, 0.0027020752226126345
905.0, 0.0025254440298600966
906.0, 0.0023779827486005733
907.0, 0.0024750156104181515
908.0, 0.0022424468316467132
909.0, 0.0022688555663074616
910.0, 0.0022114498478342307
911.0, 0.002340698974479207
912.0, 0.002118683437473191
913.0, 0.0020384638661409883
914.0, 0.0019376581713468552
915.0, 0.001647777292906325
916.0, 0.0016188209112204966
917.0, 0.0018273451888858145
918.0, 0.0017135430731285404
919.0, 0.0016891083954167106
920.0, 0.0018882199427173476
921.0, 0.001442954934909485
922.0, 0.0015014022876190228
923.0, 0.001275345142860316
924.0, 0.0013439653510641306
925.0, 0.0015835601327065334
926.0, 0.0015963471320958504
927.0, 0.0014748117584976997
928.0, 0.001430028959209294
929.0, 0.001452388826962842
930.0, 0.0014263875690269938
931.0, 0.0014595612990277733
932.0, 0.0013291850529152738
933.0, 0.0014030964980735303
934.0, 0.0013268134126150689
935.0, 0.0012423213214303912
936.0, 0.001158563054032787
937.0, 0.0010465419630174954
938.0, 0.0010103885732285413
939.0, 0.0010807108018494101
940.0, 0.0012255016528445566
941.0, 0.001013417227716241
942.0, 0.0007132789649125243
943.0, 0.0009515463203128824
944.0, 0.0011708427359928032
945.0, 0.0009010991038396728
946.0, 0.0006766452849127793
947.0, 0.000681497724504654
948.0, 0.0007982569314716105
949.0, 0.0009427752053475126
950.0, 0.0009003244241585184
951.0, 0.0006886323252157267
952.0, 0.0007346062080108395
953.0, 0.0005195730605470977
954.0, 0.0005928900094753249
955.0, 0.0005750591898112977
956.0, 0.00039046466733866857
957.0, 0.00042893086858641915
958.0, 0.000620860428712549
959.0, 0.0006373023741141356
960.0, 0.00048693198377601407
961.0, 0.00041243460085643344
962.0, 0.0004728602083228795
963.0, 0.000574410416297531
964.0, 0.0006771390421129671
965.0, 0.00048745165827107363
966.0, 0.00029572855560303947
967.0, 0.00035748255657487294
968.0, 0.00038745811372560004
969.0, 0.0004353761071719014
970.0, 0.0004741682011378987
971.0, 0.0004862855528148958
972.0, 0.00042387263658804486
973.0, 0.0002775178849441992
974.0, 0.0003120663580676833
975.0, 0.00031227211826537844
976.0, 0.00020088236772256571
977.0, 0.000589800269754757
978.0, 0.0004149157596548153
979.0, 5.9182624190755476e-05
980.0, 0.00013753094757887826
981.0, 0.00023027638904132594
982.0, 0.0003443832575983276
983.0, 0.00030272117079415263
984.0, 0.0001354101903387029
985.0, 0.00031099068864067533
986.0, 0.00012063644067321903
987.0, 0.00019265010792742909
988.0, 9.007851473030067e-05
989.0, 4.544065032284161e-05
990.0, 0.00017618549643438566
991.0, 5.2470416471178796e-05
992.0, 5.6759625164189205e-05
993.0, 0.00028224716237360134
994.0, 0.00018046964289286204
995.0, 0.00011305348583262374
996.0, 0.00027424239850432866
997.0, 0.0002999816219381012
998.0, 7.659588435355184e-05
999.0, 0.00014920753072773373
1000.0, 0.00033205864042966333
1001.0, 0.0002769960477882507
1002.0, 0.0002289976519778207
1003.0, 6.413849578235311e-05
1004.0, 5.7219685676203325e-05
1005.0, 0.00017141967427767638
1006.0, 0.00024339212431172708
1007.0, 0.0001572843680365081
1008.0, 0.00016344862435315138
1009.0, 0.00024571746602135703
1010.0, 0.00012989924343993666
1011.0, 0.00029033508622176206
1012.0, 0.00028048162330351624
1013.0, 0.00011391901657465548
1014.0, 0.00020456061443516551
1015.0, 0.0002169580692278727
1016.0, 0.00014306580279379964
1017.0, 0.00029292857322235595
1018.0, 0.0002183916005909008
1019.0, 0.00010451535565658502
1020.0, 8.458095421310266e-05
1021.0, 0.00024010159790384595
1022.0, 0.00014706652498278658
1023.0, 0.0001228843668308057
1024.0, 0.00012258708059728626
1025.0, 0.00024060852916159633
1026.0, 0.00014375240923622304
1027.0, 1.558372865277437e-05
1028.0, 0.00023783597557629755
1029.0, 4.584811821404938e-05
1030.0, 0.00010306581518758347
1031.0, 0.0001433220320754045
1032.0, 8.741843121598949e-05
1033.0, 0.00016846055820615377
1034.0, 0.0002738310567638828
1035.0, 0.00017441480860004463
1036.0, 0.00036959076226651563
1037.0, 0.00021984189568425896
1038.0, 0.0001744546139238451
1039.0, 2.5080103611505806e-05
1040.0, 0.00017949784095989182
1041.0, 0.0002654365565583844
1042.0, 0.00035932987076026
1043.0, 0.00011153327993069885
1044.0, 6.2763050916509e-05
1045.0, 0.00023108727665005003
1046.0, 0.00026596757030076054
1047.0, 0.00010528699942656815
1048.0, 9.679730289648131e-05
1049.0, 0.0002909452624179174
1050.0, 0.0002544114847068777
1051.0, 0.000170416225742043
1052.0, 0.00012500673661727704
1053.0, 9.482992043368014e-06
1054.0, 0.00029729713610717064
1055.0, 4.9880198031223164e-05
1056.0, 2.6856621998761797e-05
1057.0, 0.00013091235279400837
1058.0, 3.505280377143629e-05
1059.0, 0.0001560988918977834
1060.0, 0.0003169628715538741
1061.0, 0.0001245921203454166
1062.0, 8.672654467792198e-05
1063.0, 0.00013249490269018053
1064.0, 0.00010599268452245907
1065.0, 0.00023482916913818752
1066.0, 4.7970011958211334e-05
1067.0, 3.644863908664923e-05
1068.0, 0.00021366184858144773
1069.0, 0.00017448520404413743
1070.0, 0.00013399690034485265
1071.0, 0.00010986776157393729
1072.0, 2.556372379523881e-05
1073.0, 2.3088619508238047e-05
1074.0, 0.0002217295101281219
1075.0, 0.0003088120920095955
1076.0, 0.0002601513075832027
1077.0, 0.00023570350929270724
1078.0, 0.00020748387470608922
1079.0, 0.00024144679620904166
1080.0, 0.00026363773057276493
1081.0, 7.546597495028696e-05
1082.0, 0.00018101209025732568
1083.0, 0.000264723072025106
1084.0, 0.00015162018596636198
1085.0, 0.00029581946895317226
1086.0, 5.436148591253268e-05
1087.0, 0.00027435351356137563
1088.0, 7.244762348202295e-05
1089.0, 7.631307532631017e-05
1090.0, 0.00011405037385121199
1091.0, 0.00021201331103674938
1092.0, 0.00016892369928242956
1093.0, 0.0002612991707478985
1094.0, 0.00036278451719388906
1095.0, 0.00027218092941673944
1096.0, 0.00019147863818501295
1097.0, 0.00013478941853968884
1098.0, 5.642459012360033e-05
1099.0, 0.0003104465304573082
1100.0, 0.0004786396155315757
1101.0, 0.000281544364540132
1102.0, 0.00010894680342041323
1103.0, 0.0003366940914649803
1104.0, 0.0003043624351672159
1105.0, 0.00018279623484201683
1106.0, 0.000364303455119129
1107.0, 0.00022359583429653677
1108.0, 0.00011592880983971314
1109.0, 0.00042846255435452377
1110.0, 0.00041930983973468704
1111.0, 0.00010665746978837821
1112.0, 0.00033129780919885775
1113.0, 0.0006720727618665864
1114.0, 0.0003623087445360253
1115.0, 0.0004011599593162629
1116.0, 0.00023591892411277502
1117.0, 0.00011733877632544794
1118.0, 0.00019577537753406057
1119.0, 0.0004763368173876906
1120.0, 0.00013814655820157723
1121.0, 0.0003819983243649037
1122.0, 0.00034557206500938296
1123.0, 0.0003749477522154309
1124.0, 0.00016622735718250977
1125.0, 0.00018430702146470836
1126.0, 0.0002874258201566577
1127.0, 0.0003417497771362083
1128.0, 0.0003256235668386185
1129.0, 0.00032609741494395096
1130.0, 0.00048342702499634005
1131.0, 0.00040658252823736217
1132.0, 0.0002963751862341714
1133.0, 0.0005301322132137366
1134.0, 0.0003659914805960043
1135.0, 0.0002636461455275995
1136.0, 0.00013422593080659507
1137.0, 0.0002886289884985519
1138.0, 0.00014340273556050247
1139.0, 0.0003731042988970586
1140.0, 0.00033655686868157124
1141.0, 0.00022952615245183533
1142.0, 7.759124832587283e-05
1143.0, 0.0001921772855227395
1144.0, 0.0003855958311605264
1145.0, 0.0004513541855813636
1146.0, 0.00017901174118497155
1147.0, 0.0001608909025739436
1148.0, 0.0002533791255344018
1149.0, 0.00012380586495586997
1150.0, 0.0001415112806371514
1151.0, 0.00014900706122671537
1152.0, 0.00026828759155742335
1153.0, 0.00017704831451618522
1154.0, 0.000303700632866757
1155.0, 0.00015017072320503205
1156.0, 0.00033068155344946967
1157.0, 0.0001161981359046741
1158.0, 0.0001199073577355672
1159.0, 0.0004965774048486895
1160.0, 0.00039488989711947527
1161.0, 0.00021575366567924844
1162.0, 0.0004010232294782863
1163.0, 0.00028818594862942923
1164.0, 0.0001954194937683502
1165.0, 0.00014553365005927317
1166.0, 0.00018676652854567882
1167.0, 0.00029808915809553647
1168.0, 0.0002587071279189958
1169.0, 0.0004596035416008522
1170.0, 0.0005582072163559569
1171.0, 0.0003632762826880265
1172.0, 0.0003248760416193512
1173.0, 0.00019478761297616855
1174.0, 0.00045756437836606785
1175.0, 0.00040218556280347207
1176.0, 0.00038637935650423044
1177.0, 0.00013823874334635656
1178.0, 0.00025333440150461615
1179.0, 0.0002184224468165436
1180.0, 1.905720813966356e-05
1181.0, 0.0001768282687138118
1182.0, 0.00024926048529579976
1183.0, 9.490754077900025e-05
1184.0, 0.0002770633830522427
1185.0, 9.756938727536496e-05
1186.0, 0.00033070601353385736
1187.0, 0.0004239721857506341
1188.0, 0.000332829799811916
1189.0, 0.00034321029057955325
1190.0, 0.0004814116393963335
1191.0, 0.00045828085174313976
1192.0, 0.00037008873982276113
1193.0, 0.00030064598406935334
1194.0, 6.113661804023235e-05
1195.0, 5.4823529799398966e-05
1196.0, 0.0001981076115607246
1197.0, 0.0003333268686928739
1198.0, 0.0005016491875736704
1199.0, 0.00025237740982603457
1200.0, 0.0002615831446612874
1201.0, 9.625347888088327e-05
1202.0, 9.055259619226344e-05
1203.0, 9.60746646356812e-06
1204.0, 6.114866272307599e-05
1205.0, 0.00017900302086055884
1206.0, 0.00018758143398027297
1207.0, 3.173101500966103e-05
1208.0, 0.0002353008145292841
1209.0, 0.00023775283330691963
1210.0, 0.00015861856719931518
1211.0, 0.0004164860987464041
1212.0, 0.00035037887901437836
1213.0, 0.0003059799620827728
1214.0, 0.0002768663670099829
1215.0, 0.0003780333437567741
1216.0, 0.000334932216856933
1217.0, 0.00027959971377215244
1218.0, 0.00038991278386939216
1219.0, 0.00021991559247238308
1220.0, 0.00012176036329403591
1221.0, 0.0004043664315938175
1222.0, 0.0004211877210748406
1223.0, 0.00040042689512496813
1224.0, 0.0003194791135723464
1225.0, 0.0002700694369965058
1226.0, 0.0004064930176562376
1227.0, 0.0004890268845767346
1228.0, 0.0004763687579299021
1229.0, 0.0005568186930514438
1230.0, 0.000508738974597627
1231.0, 0.000188091659684234
1232.0, 0.0004434087753686973
1233.0, 0.00047296416713972343
1234.0, 0.00010025863222705309
1235.0, 0.00013279813635587185
1236.0, 3.944856742949352e-05
1237.0, 0.00011221877662121124
1238.0, 0.00021274382299150315
1239.0, 0.0003776750515085847
1240.0, 6.594920933385268e-05
1241.0, 0.0004273823580672758
1242.0, 0.00030536487805418944
1243.0, 0.00028354119132018805
1244.0, 0.00015022053203465327
1245.0, 0.0001700993192906593
1246.0, 8.018253467124125e-05
1247, 0.0
1248, 0.0
1249, 0.0
1250, 0.0
1251, 0.0
1252, 0.0
1253, 0.0
1254, 0.0
1255, 0.0
1256, 0.0
1257, 0.0
1258, 0.0
1259, 0.0
1260, 0.0
1261, 0.0
1262, 0.0
1263, 0.0
1264, 0.0
1265, 0.0
1266, 0.0
1267, 0.0
1268, 0.0
1269, 0.0
1270, 0.0
1271, 0.0
1272, 0.0
1273, 0.0
1274, 0.0
1275, 0.0
1276, 0.0
1277, 0.0
1278, 0.0
1279, 0.0
1280, 0.0
1281, 0.0
1282, 0.0
1283, 0.0
1284, 0.0
1285, 0.0
1286, 0.0
1287, 0.0
1288, 0.0
1289, 0.0
1290, 0.0
1291, 0.0
1292, 0.0
1293, 0.0
1294, 0.0
1295, 0.0
1296, 0.0
1297, 0.0
1298, 0.0
1299, 0.0
1300, 0.0
1301, 0.0
1302, 0.0
1303, 0.0
1304, 0.0
1305, 0.0
1306, 0.0
1307, 0.0
1308, 0.0
1309, 0.0
1310, 0.0
1311, 0.0
1312, 0.0
1313, 0.0
1314, 0.0
1315, 0.0
1316, 0.0
1317, 0.0
1318, 0.0
1319, 0.0
1320, 0.0
1321, 0.0
1322, 0.0
1323, 0.0
1324, 0.0
1325, 0.0
1326, 0.0
1327, 0.0
1328, 0.0
1329, 0.0
1330, 0.0
1331, 0.0
1332, 0.0
1333, 0.0
1334, 0.0
1335, 0.0
1336, 0.0
1337, 0.0
1338, 0.0
1339, 0.0
1340, 0.0
1341, 0.0
1342, 0.0
1343, 0.0
1344, 0.0
1345, 0.0
1346, 0.0
1347, 0.0
1348, 0.0
1349, 0.0
1350, 0.0
1351, 0.0
1352, 0.0
1353, 0.0
1354, 0.0
1355, 0.0
1356, 0.0
1357, 0.0
1358, 0.0
1359, 0.0
1360, 0.0
1361, 0.0
1362, 0.0
1363, 0.0
1364, 0.0
1365, 0.0
1366, 0.0
1367, 0.0
1368, 0.0
1369, 0.0
1370, 0.0
1371, 0.0
1372, 0.0
1373, 0.0
1374, 0.0
1375, 0.0
1376, 0.0
1377, 0.0
1378, 0.0
1379, 0.0
1380, 0.0
1381, 0.0
1382, 0.0
1383, 0.0
1384, 0.0
1385, 0.0
1386, 0.0
1387, 0.0
1388, 0.0
1389, 0.0
1390, 0.0
1391, 0.0
1392, 0.0
1393, 0.0
1394, 0.0
1395, 0.0
1396, 0.0
1397, 0.0
1398, 0.0
1399, 0.0
1400, 0.0
1401, 0.0
1402, 0.0
1403, 0.0
1404, 0.0
1405, 0.0
1406, 0.0
1407, 0.0
1408, 0.0
1409, 0.0
1410, 0.0
1411, 0.0
1412, 0.0
1413, 0.0
1414, 0.0
1415, 0.0
1416, 0.0
1417, 0.0
1418, 0.0
1419, 0.0
1420, 0.0
1421, 0.0
1422, 0.0
1423, 0.0
1424, 0.0
1425, 0.0
1426, 0.0
1427, 0.0
1428, 0.0
1429, 0.0
1430, 0.0
1431, 0.0
1432, 0.0
1433, 0.0
1434, 0.0
1435, 0.0
1436, 0.0
1437, 0.0
1438, 0.0
1439, 0.0
1440, 0.0
1441, 0.0
1442, 0.0
1443, 0.0
1444, 0.0
1445, 0.0
1446, 0.0
1447, 0.0
1448, 0.0
1449, 0.0
1450, 0.0
1451, 0.0
1452, 0.0
1453, 0.0
1454, 0.0
1455, 0.0
1456, 0.0
1457, 0.0
1458, 0.0
1459, 0.0
1460, 0.0
1461, 0.0
1462, 0.0
1463, 0.0
1464, 0.0
1465, 0.0
1466, 0.0
1467, 0.0
1468, 0.0
1469, 0.0
1470, 0.0
1471, 0.0
1472, 0.0
1473, 0.0
1474, 0.0
1475, 0.0
1476, 0.0
1477, 0.0
1478, 0.0
1479, 0.0
1480, 0.0
1481, 0.0
1482, 0.0
1483, 0.0
1484, 0.0
1485, 0.0
1486, 0.0
1487, 0.0
1488, 0.0
1489, 0.0
1490, 0.0
1491, 0.0
1492, 0.0
1493, 0.0
1494, 0.0
1495, 0.0
1496, 0.0
1497, 0.0
1498, 0.0
1499, 0.0
1500, 0.0
1501, 0.0
1502, 0.0
1503, 0.0
1504, 0.0
1505, 0.0
1506, 0.0
1507, 0.0
1508, 0.0
1509, 0.0
1510, 0.0
1511, 0.0
1512, 0.0
1513, 0.0
1514, 0.0
1515, 0.0
1516, 0.0
1517, 0.0
1518, 0.0
1519, 0.0
1520, 0.0
1521, 0.0
1522, 0.0
1523, 0.0
1524, 0.0
1525, 0.0
1526, 0.0
1527, 0.0
1528, 0.0
1529, 0.0
1530, 0.0
1531, 0.0
1532, 0.0
1533, 0.0
1534, 0.0
1535, 0.0
1536, 0.0
1537, 0.0
1538, 0.0
1539, 0.0
1540, 0.0
1541, 0.0
1542, 0.0
1543, 0.0
1544, 0.0
1545, 0.0
1546, 0.0
1547, 0.0
1548, 0.0
1549, 0.0
1550, 0.0
1551, 0.0
1552, 0.0
1553, 0.0
1554, 0.0
1555, 0.0
1556, 0.0
1557, 0.0
1558, 0.0
1559, 0.0
1560, 0.0
1561, 0.0
1562, 0.0
1563, 0.0
1564, 0.0
1565, 0.0
1566, 0.0
1567, 0.0
1568, 0.0
1569, 0.0
1570, 0.0
1571, 0.0
1572, 0.0
1573, 0.0
1574, 0.0
1575, 0.0
1576, 0.0
1577, 0.0
1578, 0.0
1579, 0.0
1580, 0.0
1581, 0.0
1582, 0.0
1583, 0.0
1584, 0.0
1585, 0.0
1586, 0.0
1587, 0.0
1588, 0.0
1589, 0.0
1590, 0.0
1591, 0.0
1592, 0.0
1593, 0.0
1594, 0.0
1595, 0.0
1596, 0.0
1597, 0.0
1598, 0.0
1599, 0.0
