30, 0.0
31, 0.0
32, 0.0
33, 0.0
34, 0.0
35, 0.0
36, 0.0
37, 0.0
38, 0.0
39, 0.0
40, 0.0
41, 0.0
42, 0.0
43, 0.0
44, 0.0
45, 0.0
46, 0.0
47, 0.0
48, 0.0
49, 0.0
50, 0.0
51, 0.0
52, 0.0
53, 0.0
54, 0.0
55, 0.0
56, 0.0
57, 0.0
58, 0.0
59, 0.0
60, 0.0
61, 0.0
62, 0.0
63, 0.0
64, 0.0
65, 0.0
66, 0.0
67, 0.0
68, 0.0
69, 0.0
70, 0.0
71, 0.0
72, 0.0
73, 0.0
74, 0.0
75, 0.0
76, 0.0
77, 0.0
78, 0.0
79, 0.0
80, 0.0
81, 0.0
82, 0.0
83, 0.0
84, 0.0
85, 0.0
86, 0.0
87, 0.0
88, 0.0
89, 0.0
90, 0.0
91, 0.0
92, 0.0
93, 0.0
94, 0.0
95, 0.0
96, 0.0
97, 0.0
98, 0.0
99, 0.0
100, 0.0
101, 0.0
102, 0.0
103, 0.0
104, 0.0
105, 0.0
106, 0.0
107, 0.0
108, 0.0
109, 0.0
110, 0.0
111, 0.0
112, 0.0
113, 0.0
114, 0.0
115, 0.0
116, 0.0
117, 0.0
118, 0.0
119, 0.0
120, 0.0
121, 0.0
122, 0.0
123, 0.0
124, 0.0
125, 0.0
126, 0.0
127, 0.0
128, 0.0
129, 0.0
130, 0.0
131, 0.0
132.0, 0.0020437142904789715
133.0, 0.03168293853608754
134.0, 0.09114921824358796
135.0, 0.1457306383366077
136.0, 0.2108952801773044
137.0, 0.2855081886155173
138.0, 0.3663383925347974
139.0, 0.44757039498491913
140.0, 0.49190031699720693
141.0, 0.5099590492492977
142.0, 0.5069933341504003
143.0, 0.47372320892850933
144.0, 0.40036492582041866
145.0, 0.34611548554884325
146.0, 0.3219077345256357
147.0, 0.3134170467162632
148.0, 0.3110408445136231
149.0, 0.3306726010519187
150.0, 0.3425146893063984
151.0, 0.33376105206141243
152.0, 0.35007565411650365
153.0, 0.36051637855685315
154.0, 0.3706084498370489
155.0, 0.37945169273503865
156.0, 0.3732868180152735
157.0, 0.3711867176092084
158.0, 0.3885594076174108
159.0, 0.4201883683268657
160.0, 0.4547462216564903
161.0, 0.4934062994632662
162.0, 0.5164194078364825
163.0, 0.5187946889953752
164.0, 0.5083620688716813
165.0, 0.48223406282398734
166.0, 0.4439610292896696
167.0, 0.38667398444947426
168.0, 0.31963466096981674
169.0, 0.26893401148315904
170.0, 0.22230214900940154
171.0, 0.1752023595230137
172.0, 0.13846632277045368
173.0, 0.1224981110864724
174.0, 0.12549708205266943
175.0, 0.12628948721395794
176.0, 0.13269542146947993
177.0, 0.14475346762422958
178.0, 0.13735373049417726
179.0, 0.10162001661238651
180.0, 0.06004367927315865
181.0, 0.03108351691332158
182.0, 0.021203029476689384
183.0, 0.020396651397691094
184.0, 0.025616523512643617
185.0, 0.03153148477012755
186.0, 0.032941240153223535
187.0, 0.029338174180748695
188.0, 0.016126933198017127
189.0, 0.0037254533765850727
190.0, 0.010075111461944024
191.0, 0.007513416886934261
192.0, 0.0025599859584661934
193.0, 0.0068758203475011645
194.0, 0.012626973951183312
195.0, 0.00368938234383327
196.0, 0.017260077228525458
197.0, 0.031118621934690574
198.0, 0.030537979279862838
199.0, 0.02107988929438076
200.0, 0.0237537007615008
201.0, 0.013995522748733396
202.0, 0.002716347526571023
203.0, 0.006943375759869361
204.0, 0.007740928568424295
205.0, 0.003284635784052382
206.0, 0.016804575729673824
207.0, 0.023127228575608835
208.0, 0.015590725374463365
209.0, 0.010127377015723612
210.0, 0.010963847529067252
211.0, 0.03283221064612996
212.0, 0.04236655617660166
213.0, 0.034303530680929124
214.0, 0.027158639204745517
215.0, 0.0337067258072949
216.0, 0.047535214805900006
217.0, 0.055788727057730046
218.0, 0.05204744841617801
219.0, 0.05892844709826446
220.0, 0.06346613977579661
221.0, 0.06197581781734977
222.0, 0.06633377101343811
223.0, 0.07128848918618495
224.0, 0.08643719872831053
225.0, 0.1066473775314616
226.0, 0.1250227788109275
227.0, 0.1448982874842346
228.0, 0.1544576817499476
229.0, 0.1610650964638064
230.0, 0.16589278876981958
231.0, 0.16056661088017038
232.0, 0.1511550641531465
233.0, 0.15881304812887195
234.0, 0.17682724842458403
235.0, 0.19727333167084665
236.0, 0.2406763023146085
237.0, 0.27915467415460526
238.0, 0.27792947693752207
239.0, 0.25188427354243154
240.0, 0.2499765684368363
241.0, 0.23271879788714223
242.0, 0.20439345404505768
243.0, 0.17082664002341796
244.0, 0.13551065234691637
245.0, 0.09879995442737072
246.0, 0.07005087204576334
247.0, 0.056030693671046954
248.0, 0.051635821942102055
249.0, 0.048086207911377576
250.0, 0.046713568009510834
251.0, 0.04665877823996287
252.0, 0.05167143669717987
253.0, 0.06048373556781779
254.0, 0.05621538787293711
255.0, 0.05960956473891446
256.0, 0.055173424870083275
257.0, 0.04629499581593299
258.0, 0.04586592634258083
259.0, 0.04070905832193721
260.0, 0.034008465040402724
261.0, 0.034332370477191086
262.0, 0.03995955284469671
263.0, 0.03701608817536355
264.0, 0.035943155773772446
265.0, 0.034638509632381985
266.0, 0.035758212720448095
267.0, 0.041143083995399246
268.0, 0.04993562327360966
269.0, 0.052718908807104885
270.0, 0.05775327290293939
271.0, 0.05769838430571178
272.0, 0.036349732816635554
273.0, 0.030422665314654176
274.0, 0.022443536868120294
275.0, 0.01657141567302233
276.0, 0.01640409567096294
277.0, 0.007486924879513244
278.0, 0.010161275844236966
279.0, 0.016803893726063692
280.0, 0.021014731605303854
281.0, 0.0200637846912133
282.0, 0.01460090908801958
283.0, 0.00964246596743822
284.0, 0.008713410288361747
285.0, 0.009857581821790456
286.0, 0.007855313351799708
287.0, 0.006856989891697994
288.0, 0.008661021229784403
289.0, 0.007609205169397367
290.0, 0.002463751458403271
291.0, 0.005191696971761255
292.0, 0.0066349897858627846
293.0, 0.01239178930034728
294.0, 0.015004610379638133
295.0, 0.008430129628281905
296.0, 0.018234349310919586
297.0, 0.023582538938954973
298.0, 0.034720945855435136
299.0, 0.049930142454341506
300.0, 0.05166094199469298
301.0, 0.04848448411529194
302.0, 0.043383509450803485
303.0, 0.040943584613727275
304.0, 0.03905263319218976
305.0, 0.026045862636029322
306.0, 0.020430341806381303
307.0, 0.019827417350332128
308.0, 0.014236278889644287
309.0, 0.0016704695364632492
310.0, 0.0014554118839636247
311.0, 0.005044221864778989
312.0, 0.009031084554505363
313.0, 0.008537602572483795
314.0, 0.003166648298807632
315.0, 0.005882629832439654
316.0, 0.008004774195827805
317.0, 0.004614429767991054
318.0, 0.002320457895494494
319.0, 0.006695566120811168
320.0, 0.0008298278969182998
321.0, 0.008744172423740867
322.0, 0.018439801944757177
323.0, 0.0190481265608796
324.0, 0.02609645150892017
325.0, 0.02400570369465227
326.0, 0.024953459500236967
327.0, 0.03802310492640179
328.0, 0.058571276600828705
329.0, 0.05824188363257051
330.0, 0.061783564348282353
331.0, 0.08520920394213401
332.0, 0.11059100673599861
333.0, 0.10725432292025588
334.0, 0.11056316144780541
335.0, 0.1356689216412844
336.0, 0.16874236358004213
337.0, 0.20480180627747147
338.0, 0.25368265471698204
339.0, 0.3008708071541372
340.0, 0.3381431967831364
341.0, 0.36137038087083956
342.0, 0.371285664260546
343.0, 0.3753778819122102
344.0, 0.4066349714749182
345.0, 0.443200559130194
346.0, 0.48342869372923986
347.0, 0.5330205052966221
348.0, 0.5883976842345195
349.0, 0.6489555290435307
350.0, 0.7231721161813277
351.0, 0.8064358592358207
352.0, 0.8819167182485871
353.0, 0.9333343790032763
354.0, 0.9849383699894649
355.0, 0.9949878568254793
356.0, 0.9111502430112501
357.0, 0.7342684021968218
358.0, 0.5607850634102045
359.0, 0.42936614687764224
360.0, 0.34897202613751727
361.0, 0.298225404064696
362.0, 0.2492351147909577
363.0, 0.2181628190546524
364.0, 0.19740074822585552
365.0, 0.17922338096306242
366.0, 0.15763152227045074
367.0, 0.13186675513066345
368.0, 0.11933805487050403
369.0, 0.10307390815824741
370.0, 0.0848759058432481
371.0, 0.06915691366893005
372.0, 0.05688305917640323
373.0, 0.05355626472768043
374.0, 0.05225581536204758
375.0, 0.04869454827852566
376.0, 0.04326940663314527
377.0, 0.042983512468793415
378.0, 0.04991765175189364
379.0, 0.04658207336630279
380.0, 0.04321195259481346
381.0, 0.048608325852037254
382.0, 0.05304345107567238
383.0, 0.052995393759975536
384.0, 0.06389067814782455
385.0, 0.07122037059727951
386.0, 0.06968216092818275
387.0, 0.08097941149591162
388.0, 0.08170237662150061
389.0, 0.07065059825723952
390.0, 0.0630073223622652
391.0, 0.06370969526007102
392.0, 0.057515440243049824
393.0, 0.06113654906818103
394.0, 0.06366849499910258
395.0, 0.07533084734318667
396.0, 0.09672306106438047
397.0, 0.10603514153142693
398.0, 0.11731133543663728
399.0, 0.12593474967301993
400.0, 0.13040553576819763
401.0, 0.1264974342931081
402.0, 0.10374360328425769
403.0, 0.08400394914999657
404.0, 0.06945971317793542
405.0, 0.058948974400645615
406.0, 0.05037766876884931
407.0, 0.04109941658122982
408.0, 0.02735288339953718
409.0, 0.029302822032736115
410.0, 0.031704054731080185
411.0, 0.024347839922515144
412.0, 0.02558804490331296
413.0, 0.02178843209194871
414.0, 0.023717264572320595
415.0, 0.02635796070845737
416.0, 0.024922255635366118
417.0, 0.02382679244682599
418.0, 0.020022334678521006
419.0, 0.02676919734521099
420.0, 0.03240268416528853
421.0, 0.030310467404430566
422.0, 0.030979914556005253
423.0, 0.03405394061433607
424.0, 0.03706733264256281
425.0, 0.03439223511745522
426.0, 0.028754056570857466
427.0, 0.028806986973418536
428.0, 0.029350704432348967
429.0, 0.026736352569035844
430.0, 0.02452101415734537
431.0, 0.026036602031552197
432.0, 0.030373911241115804
433.0, 0.025355199926288118
434.0, 0.023872547079757032
435.0, 0.023333769850510364
436.0, 0.02156102606135568
437.0, 0.023038516357218212
438.0, 0.03266727039222737
439.0, 0.019978726521922358
440.0, 0.010480226370973683
441.0, 0.011578864334347466
442.0, 0.010564646602183255
443.0, 0.0043612879224079
444.0, 0.006524320662835508
445.0, 0.0035277340179197285
446.0, 0.00601863786696084
447.0, 0.0004739547801236167
448.0, 0.0030837124359349493
449.0, 0.004769700228641751
450.0, 0.004722075665582738
451.0, 0.00277622455282758
452.0, 0.007197251234431663
453.0, 0.0025855200521770756
454.0, 0.006875643522147365
455.0, 0.006697548392015071
456.0, 0.0032730684789989526
457.0, 0.002908592970560664
458.0, 0.0006936612153409176
459.0, 0.002850888316482618
460.0, 0.003884613224088286
461.0, 0.0020469327244780375
462.0, 0.0022789167405177727
463.0, 0.005171745494138175
464.0, 0.003334045024936236
465.0, 0.006446074941297221
466.0, 0.008386436140636395
467.0, 0.011211417702112212
468.0, 0.012578293389084623
469.0, 0.010913840285311506
470.0, 0.021231190518271725
471.0, 0.015823438685720264
472.0, 0.004833821263983653
473.0, 0.010557634050331173
474.0, 0.012719392098361999
475.0, 0.01793302779613033
476.0, 0.018770787225120402
477.0, 0.017874834250631983
478.0, 0.016309939513784337
479.0, 0.0064316179392689705
480.0, 0.0039090433823518855
481.0, 0.009612220818696612
482.0, 0.005880876118563033
483.0, 0.005922556845006358
484.0, 0.005492196557694946
485.0, 0.0011252867276383715
486.0, 0.003074138688134583
487.0, 0.004502636872478333
488.0, 0.006084867138744848
489.0, 0.008390117752305767
490.0, 0.005692350810881847
491.0, 0.008189664558715044
492.0, 0.013965254254936646
493.0, 0.01713757158901056
494.0, 0.016709969582039408
495.0, 0.01941011276921978
496.0, 0.02915807220370393
497.0, 0.03198972068261091
498.0, 0.03485532977129248
499.0, 0.045798531589778584
500.0, 0.059184373995284575
501.0, 0.060352496564492826
502.0, 0.0664337025721316
503.0, 0.07518396441133651
504.0, 0.08275448024595547
505.0, 0.09007131510341738
506.0, 0.09646949157089359
507.0, 0.1037743045396596
508.0, 0.0963150181550472
509.0, 0.0764131561667234
510.0, 0.05780476212068501
511.0, 0.052262267965421494
512.0, 0.04332580576583785
513.0, 0.044782461031879724
514.0, 0.04631205473275829
515.0, 0.04504736635941849
516.0, 0.05192360637337731
517.0, 0.06335272592504622
518.0, 0.07414155076120899
519.0, 0.08366107922884382
520.0, 0.09190486648798298
521.0, 0.09771389351855875
522.0, 0.09982907828390875
523.0, 0.09838094874363831
524.0, 0.08501451267740293
525.0, 0.06810184804201395
526.0, 0.05502067118591734
527.0, 0.046983421902360614
528.0, 0.05560799550366382
529.0, 0.05411224396629567
530.0, 0.05469293411750666
531.0, 0.06328268479867424
532.0, 0.0732715407769135
533.0, 0.07921171678769004
534.0, 0.07931383154006644
535.0, 0.09396134505435243
536.0, 0.1085378829156066
537.0, 0.1127083403895754
538.0, 0.1172861942069342
539.0, 0.13671563239120973
540.0, 0.14921607795734013
541.0, 0.15088076531787922
542.0, 0.14848065299092206
543.0, 0.14829396559154076
544.0, 0.15012561256113907
545.0, 0.14326229337441804
546.0, 0.14050817817887742
547.0, 0.1360329211781314
548.0, 0.12838842759654434
549.0, 0.12937244203159207
550.0, 0.12136282577499329
551.0, 0.12075291934986689
552.0, 0.1273976149897458
553.0, 0.13611714722402424
554.0, 0.14442417159534435
555.0, 0.15673130543768363
556.0, 0.16617395186738612
557.0, 0.17251409478281038
558.0, 0.16552430399695764
559.0, 0.15068238434455183
560.0, 0.13822664374232801
561.0, 0.10033255677819836
562.0, 0.08279865945669075
563.0, 0.06102896536871368
564.0, 0.041463331714835176
565.0, 0.0332421787332051
566.0, 0.02317296546431724
567.0, 0.012303465838952215
568.0, 0.0027070688673218133
569.0, 0.0028918599718835308
570.0, 0.00014023730648357477
571.0, 0.0006967280292170311
572.0, 0.0020216152338915824
573.0, 0.00292463819895614
574.0, 0.005803529585426199
575.0, 0.003847960898731479
576.0, 0.002112961399602982
577.0, 0.0038205004158932796
578.0, 0.0063586450630395775
579.0, 0.0071774712689857915
580.0, 0.012836344132194236
581.0, 0.019809815082009404
582.0, 0.026157851004441585
583.0, 0.03786956108901565
584.0, 0.04421472395759196
585.0, 0.06229394653612321
586.0, 0.0712524126847912
587.0, 0.07926930262876604
588.0, 0.10384707459449023
589.0, 0.12712017736323517
590.0, 0.13227265948328215
591.0, 0.1493302652819397
592.0, 0.16499777720097558
593.0, 0.16692397784745572
594.0, 0.1652237480877553
595.0, 0.1734139798290085
596.0, 0.18674018656690017
597.0, 0.19965639405400656
598.0, 0.19719923112387822
599.0, 0.17417662007883639
600.0, 0.1402405656821887
601.0, 0.10760606708412093
602.0, 0.07299546688593979
603.0, 0.04748410824802742
604.0, 0.02971905136832792
605.0, 0.017977840553967468
606.0, 0.01507656078312842
607.0, 0.0034763178077455944
608.0, 0.006115183687972733
609.0, 0.0033569735402445627
610.0, 0.004241211913972421
611.0, 0.0032436591387121254
612.0, 0.005430054323349966
613.0, 0.00767288148325529
614.0, 0.011607187225423844
615.0, 0.008760038404270502
616.0, 0.0012186104603208994
617.0, 0.0031222391297410683
618.0, 0.00043759676573539187
619.0, 0.0005161357482164618
620.0, 0.003067385294127739
621.0, 0.006303587351633697
622.0, 0.003280800426782997
623.0, 0.011106854108688268
624.0, 0.010690235082983914
625.0, 0.018095731900557396
626.0, 0.029266489030331206
627.0, 0.04250363405589669
628.0, 0.05814867788274479
629.0, 0.07493976516483158
630.0, 0.09408154404966654
631.0, 0.12156954366390425
632.0, 0.14057905927973793
633.0, 0.16264838909122079
634.0, 0.19393905004721457
635.0, 0.22385917563466562
636.0, 0.2530296693147446
637.0, 0.2721971766390958
638.0, 0.2807479988595525
639.0, 0.28518346799241184
640.0, 0.29253738126011536
641.0, 0.3093221819608041
642.0, 0.34630221505423225
643.0, 0.37701767867733893
644.0, 0.3975025203526382
645.0, 0.41295956201956346
646.0, 0.43229003517879383
647.0, 0.4579272593203546
648.0, 0.46898947096595595
649.0, 0.49024847991109116
650.0, 0.5206874087489965
651.0, 0.5573623758884774
652.0, 0.6010052579106528
653.0, 0.6548455135616134
654.0, 0.7250407421218085
655.0, 0.7742752227320063
656.0, 0.8214781224261574
657.0, 0.8507085558914012
658.0, 0.8446388586272039
659.0, 0.7998961411432404
660.0, 0.7193425138668917
661.0, 0.617068058153359
662.0, 0.5219691298976161
663.0, 0.44268763884472084
664.0, 0.3732870892151021
665.0, 0.31264632388824953
666.0, 0.27198618943674857
667.0, 0.2450440508671222
668.0, 0.22821013916131774
669.0, 0.20103683176331613
670.0, 0.1670050736382729
671.0, 0.14219797237947104
672.0, 0.12254131685722729
673.0, 0.10987564171902615
674.0, 0.09466904026928674
675.0, 0.07399288348642293
676.0, 0.06253685254282709
677.0, 0.06495101902106876
678.0, 0.05846596442041726
679.0, 0.05297988727017776
680.0, 0.04434740405592358
681.0, 0.040342154234300244
682.0, 0.04311495001355927
683.0, 0.04669327352426071
684.0, 0.044010721437960296
685.0, 0.04144874344239296
686.0, 0.0556060812132818
687.0, 0.062257672041599675
688.0, 0.06081025036387395
689.0, 0.06210219125777338
690.0, 0.06629838642158696
691.0, 0.07188774626238918
692.0, 0.07662374874757064
693.0, 0.08174971089554213
694.0, 0.0904398178990293
695.0, 0.09842457143021126
696.0, 0.09859031301635314
697.0, 0.0971250859218155
698.0, 0.10644097573246922
699.0, 0.11132500606238675
700.0, 0.1130215585889251
701.0, 0.11386875224256063
702.0, 0.11509843066054
703.0, 0.12048673585850281
704.0, 0.11499207663465706
705.0, 0.10731582840497432
706.0, 0.10100174311787555
707.0, 0.10277506443449241
708.0, 0.10819744115555227
709.0, 0.09957477947623737
710.0, 0.1039954881622052
711.0, 0.09920192989292402
712.0, 0.0995418326561368
713.0, 0.09948591213108736
714.0, 0.09958989731324883
715.0, 0.1104540133216513
716.0, 0.10971574671847917
717.0, 0.10976719451654278
718.0, 0.09980154146689914
719.0, 0.09234256756103588
720.0, 0.09041776268068309
721.0, 0.08357353501517625
722.0, 0.06896975519485146
723.0, 0.0525513277162342
724.0, 0.04762207683762346
725.0, 0.03812428503936757
726.0, 0.025721408059651694
727.0, 0.01567319207185478
728.0, 0.008429693752022759
729.0, 0.016675454131957704
730.0, 0.0052182513434567935
731.0, 0.0035050935743467394
732.0, 0.0021096896124673204
733.0, 0.0008394041919501834
734.0, 0.0023092690301341895
735.0, 0.007506023460535721
736.0, 0.002812759212351949
737.0, 0.0016954193057833928
738.0, 0.00046973346810965635
739.0, 0.0015742077384305886
740.0, 0.0015526838655418717
741.0, 0.006798606306675658
742.0, 0.004157731317543055
743.0, 0.004806997748521925
744.0, 0.005069855612880119
745.0, 0.0009991879115321886
746.0, 0.0073802185840823155
747.0, 0.011407229304020387
748.0, 0.0015646541768948715
749.0, 0.0017016809662974016
750.0, 0.009603182098196729
751.0, 0.012172783526254073
752.0, 0.008402893419630362
753.0, 0.006421073234676291
754.0, 0.004116044146878005
755.0, 0.001009992739104562
756.0, 0.009153100408410171
757.0, 0.01995447735847279
758.0, 0.021780581612106446
759.0, 0.015808528599120953
760.0, 0.011747489851754831
761.0, 0.01925306455124528
762.0, 0.018015964096430994
763.0, 0.009636812748449504
764.0, 0.017093587961669134
765.0, 0.02130985109657585
766.0, 0.019712512274671003
767.0, 0.026685756969186836
768.0, 0.022041191750701784
769.0, 0.031438783264591964
770.0, 0.02889858153286786
771.0, 0.03941471025198782
772.0, 0.04981641825944353
773.0, 0.04737513739619231
774.0, 0.04668150388891248
775.0, 0.03600363315759881
776.0, 0.03826106266067544
777.0, 0.03093925407973181
778.0, 0.017348654584421815
779.0, 0.008764888237334099
780.0, 0.010193909481565505
781.0, 0.015572588379973842
782.0, 0.011622511432030145
783.0, 0.008032673280668786
784.0, 0.009691594868258576
785.0, 0.008781822799043541
786.0, 0.011015249737926622
787.0, 0.0205296748194467
788.0, 0.02300140828110241
789.0, 0.025147212436422588
790.0, 0.02443415519244981
791.0, 0.023216473364760848
792.0, 0.021206152845902448
793.0, 0.020037363833692708
794.0, 0.022405224418474867
795.0, 0.021970959548738175
796.0, 0.018604968916317778
797.0, 0.012746654172650737
798.0, 0.015114232644295626
799.0, 0.012613790908074613
800.0, 0.006896738398575994
801.0, 0.007967996644354578
802.0, 0.006585396785627577
803.0, 0.013537813220791405
804.0, 0.006814749899187263
805.0, 0.00026261942165479177
806.0, 0.0015421277183452673
807.0, 0.006876557644743204
808.0, 0.00802456798402837
809.0, 0.0058162880323544795
810.0, 0.008388849252774673
811.0, 0.003304012583638465
812.0, 0.0029351257282481625
813.0, 0.0013780412798446251
814.0, 0.004710841909394413
815.0, 0.001611351383997614
816.0, 0.0030184145723951713
817.0, 0.003475696279637207
818.0, 0.004000788339024283
819.0, 0.003563546734452053
820.0, 0.007234286252318987
821.0, 0.013067327779622277
822.0, 0.014597707509858098
823.0, 0.01209186530212238
824.0, 0.02540453316510039
825.0, 0.02670343541427812
826.0, 0.028644849417138376
827.0, 0.029989129747622703
828.0, 0.031750071797127175
829.0, 0.037161819209983286
830.0, 0.04101030294429085
831.0, 0.0550389361519426
832.0, 0.05943096525264703
833.0, 0.06874784624810812
834.0, 0.07006924507121999
835.0, 0.06654411102806668
836.0, 0.07048670470083496
837.0, 0.06581909382797521
838.0, 0.04404840989083995
839.0, 0.029768926004397626
840.0, 0.021974755044141016
841.0, 0.02664931481761607
842.0, 0.029757391097397678
843.0, 0.020908170660819392
844.0, 0.013446412447294342
845.0, 0.010832870514784602
846.0, 0.008943457778757984
847.0, 0.015379793333935615
848.0, 0.02241123286267007
849.0, 0.022852819246037614
850.0, 0.023310425897486952
851.0, 0.03225806220347616
852.0, 0.0339512414970888
853.0, 0.02424798194111107
854.0, 0.02386448900477766
855.0, 0.02102349221349466
856.0, 0.01831224262273982
857.0, 0.015059889321354944
858.0, 0.008763824288697812
859.0, 0.014836519105971887
860.0, 0.016969328644742175
861.0, 0.016892799689322398
862.0, 0.00673852981878064
863.0, 0.0002345077246582073
864.0, 0.005428476547789154
865.0, 0.013887096360321054
866.0, 0.012186948951046559
867.0, 0.012240616298990144
868.0, 0.01750616244113489
869.0, 0.019372419852557464
870.0, 0.018861587541961763
871.0, 0.02178637582845404
872.0, 0.025248683838239503
873.0, 0.020973939047585804
874.0, 0.013559667999933068
875.0, 0.014709160930656611
876.0, 0.007384783156450303
877.0, 0.0016323857509908787
878.0, 0.0007268402205151146
879.0, 0.001935690658878609
880.0, 0.002209046082900638
881.0, 0.0005351594094151749
882.0, 0.00454041164353698
883.0, 0.010684276491057312
884.0, 0.006907264197104123
885.0, 0.005096222441636719
886.0, 0.0012937995287749184
887.0, 0.003830421335757625
888.0, 0.0007614583410638811
889.0, 0.003397068280272271
890.0, 0.0022171681117574642
891.0, 0.008690767266826754
892.0, 0.01684578809065889
893.0, 0.014165248848981921
894.0, 0.009387154273949008
895.0, 0.010524006792358096
896.0, 0.009921422980676687
897.0, 0.007705903238846171
898.0, 0.021886437382955475
899.0, 0.017984760265394476
900.0, 0.013308356069501079
901.0, 0.020832782646173678
902.0, 0.025352485986473525
903.0, 0.01888337526052199
904.0, 0.024138181421604506
905.0, 0.025515435764610774
906.0, 0.017277755953352732
907.0, 0.024515020569986265
908.0, 0.02159091075334395
909.0, 0.017700163833289356
910.0, 0.02246552572069491
911.0, 0.026033531055193376
912.0, 0.025447582778549263
913.0, 0.030843569042312512
914.0, 0.0402134784853717
915.0, 0.04313643360781483
916.0, 0.04731011676883256
917.0, 0.04636533603054116
918.0, 0.04466100096749025
919.0, 0.050963694469818265
920.0, 0.047792950478949645
921.0, 0.04318149691149291
922.0, 0.0354050534540488
923.0, 0.03385103107817403
924.0, 0.03449174141398525
925.0, 0.035250159171033905
926.0, 0.033562260307631875
927.0, 0.029071232807056185
928.0, 0.0335824517452151
929.0, 0.03895336961112016
930.0, 0.03672451646520914
931.0, 0.036198065590742956
932.0, 0.03566257506540153
933.0, 0.037538117410015774
934.0, 0.041087094318693285
935.0, 0.04136509147215097
936.0, 0.042440784466077235
937.0, 0.045171392835497114
938.0, 0.04211553682021315
939.0, 0.044039566877051954
940.0, 0.043930934214848574
941.0, 0.043308090195000676
942.0, 0.04324737575729313
943.0, 0.03950529771851696
944.0, 0.038240345719129994
945.0, 0.03956623208751411
946.0, 0.040068407114831096
947.0, 0.0400457382199033
948.0, 0.03683970754160311
949.0, 0.03285542642567719
950.0, 0.03176390879024981
951.0, 0.033598802542562055
952.0, 0.03568687130973635
953.0, 0.031397156934447605
954.0, 0.029984247702967405
955.0, 0.03593648295771209
956.0, 0.0392398557216474
957.0, 0.03920239480375487
958.0, 0.04129969595587607
959.0, 0.04427930747736961
960.0, 0.041192504720979496
961.0, 0.03434690715123615
962.0, 0.03456044414076354
963.0, 0.02283263554500506
964.0, 0.025354158448159633
965.0, 0.029723804279343652
966.0, 0.027151262236265617
967.0, 0.022571473153249807
968.0, 0.019278880054825802
969.0, 0.0175198518117534
970.0, 0.018774897748753558
971.0, 0.012409022724884412
972.0, 0.004270702173568448
973.0, 0.00400619688803288
974.0, 0.009611608549613111
975.0, 0.010809185686967442
976.0, 0.00619872812015374
977.0, 0.005134381697904723
978.0, 0.0010950712278571244
979.0, 0.00018699538119892154
980.0, 0.0010845203738995962
981.0, 0.01286261745109174
982.0, 0.012484399807004581
983.0, 0.001313232770528869
984.0, 0.0014946466050204225
985.0, 0.004491436386209798
986.0, 0.001029026714242397
987.0, 0.0047439535752299335
988.0, 0.002183861256557139
989.0, 0.002575542560331258
990.0, 0.0003610936137934468
991.0, 0.0023053021792895497
992.0, 0.004812020475153316
993.0, 9.652030879464223e-05
994.0, 0.0005752636170952151
995.0, 0.002541334062519194
996.0, 0.001449095416011925
997.0, 0.0020427800159951203
998.0, 0.004991630469781986
999.0, 0.005846040510629841
1000.0, 0.0009084060418997103
1001.0, 0.002596939559185889
1002.0, 0.0035517957932006683
1003.0, 0.00409723037365747
1004.0, 0.004676490492272361
1005.0, 0.009309494903832262
1006.0, 0.010470108582725563
1007.0, 0.007737514541569495
1008.0, 0.0037736545129782996
1009.0, 0.002898137959480784
1010.0, 0.0060653838503500835
1011.0, 0.011335843254787752
1012.0, 0.01986874415671026
1013.0, 0.028611950158350524
1014.0, 0.030312537380440846
1015.0, 0.02937690325404157
1016.0, 0.03583533129040009
1017.0, 0.03995470991669202
1018.0, 0.04143465030780609
1019.0, 0.0430352768258673
1020.0, 0.044621029818885466
1021.0, 0.05954636640795029
1022.0, 0.05927898207947464
1023.0, 0.07232772522135139
1024.0, 0.07961776906080742
1025.0, 0.0795702249351037
1026.0, 0.08719256422204029
1027.0, 0.09300067926084535
1028.0, 0.08875834952184225
1029.0, 0.08791497111710408
1030.0, 0.09010364014370871
1031.0, 0.08219330963600768
1032.0, 0.08775773214690787
1033.0, 0.09583333583113732
1034.0, 0.09455987551915754
1035.0, 0.08997007213573827
1036.0, 0.09169125488693729
1037.0, 0.10179464900502193
1038.0, 0.10647722175449473
1039.0, 0.09387050161313339
1040.0, 0.09002168173941423
1041.0, 0.08341912469825982
1042.0, 0.08727956479879828
1043.0, 0.08035159232753808
1044.0, 0.07915914900214971
1045.0, 0.08181942326333605
1046.0, 0.07642802719278854
1047.0, 0.06883073051210684
1048.0, 0.07077344044796235
1049.0, 0.07013402080341283
1050.0, 0.060776754626814186
1051.0, 0.06518669059188927
1052.0, 0.06354679975436339
1053.0, 0.060646179753350925
1054.0, 0.05737290767751336
1055.0, 0.05445336050627546
1056.0, 0.049805804309158645
1057.0, 0.042983704084941954
1058.0, 0.04939163148211814
1059.0, 0.04574214495852838
1060.0, 0.0475280563242721
1061.0, 0.040092784607460866
1062.0, 0.04208993653573411
1063.0, 0.04007810768700943
1064.0, 0.04718335110947949
1065.0, 0.059921209701374864
1066.0, 0.05691902599310786
1067.0, 0.05597534349944027
1068.0, 0.0624812587357476
1069.0, 0.0731108890477506
1070.0, 0.07899208145568576
1071.0, 0.0711705039428587
1072.0, 0.07672811885705677
1073.0, 0.07643186297352185
1074.0, 0.07175241213646105
1075.0, 0.0729684319802139
1076.0, 0.07323740707132506
1077.0, 0.07532155280874052
1078.0, 0.06749266378079057
1079.0, 0.06080426221580317
1080.0, 0.06599214561224119
1081.0, 0.07141084363961064
1082.0, 0.06411535958329768
1083.0, 0.05368175275027122
1084.0, 0.05421605642971861
1085.0, 0.05498992651003264
1086.0, 0.04318109511154401
1087.0, 0.04320504272569259
1088.0, 0.04727818150292209
1089.0, 0.03512030590214127
1090.0, 0.032524879867074835
1091.0, 0.027750826448370583
1092.0, 0.030045766162714108
1093.0, 0.03438185665294955
1094.0, 0.03132308541930428
1095.0, 0.022891866632626517
1096.0, 0.014623027163587512
1097.0, 0.010983789402268102
1098.0, 0.012823558698349365
1099.0, 0.009755591815825096
1100.0, 0.012619648071244872
1101.0, 0.015441163841985673
1102.0, 0.009663180912054158
1103.0, 0.002834068800406842
1104.0, 0.006419113876323299
1105.0, 0.0016779446039646405
1106.0, 0.004536164248853353
1107.0, 0.0009675379146807631
1108.0, 0.0037184509421712936
1109.0, 0.0008704654959249066
1110.0, 0.0011734743312362132
1111.0, 0.006755331980567525
1112.0, 0.0008862250436272837
1113.0, 0.006779063494394216
1114.0, 0.011086943888298723
1115.0, 0.014678303160635951
1116.0, 0.015149027647411207
1117.0, 0.016928262994740307
1118.0, 0.023349170969061226
1119.0, 0.02859606552765155
1120.0, 0.03425940971389407
1121.0, 0.04065613869080832
1122.0, 0.04650770190736633
1123.0, 0.051698509500476435
1124.0, 0.05925762265607684
1125.0, 0.06279283944521451
1126.0, 0.058021667194943775
1127.0, 0.053635422980268285
1128.0, 0.05926006599172036
1129.0, 0.0630745752255666
1130.0, 0.053878317567807435
1131.0, 0.053327409799483215
1132.0, 0.057116819548862566
1133.0, 0.049769125086466144
1134.0, 0.04237486334625063
1135.0, 0.03714054998702167
1136.0, 0.03664290695988667
1137.0, 0.03911483589051382
1138.0, 0.03253422086036408
1139.0, 0.025244811003395262
1140.0, 0.017337621993708578
1141.0, 0.020656773896435835
1142.0, 0.027586547164122614
1143.0, 0.03009861663305721
1144.0, 0.03097632018104544
1145.0, 0.024963312558728523
1146.0, 0.019712598221464366
1147.0, 0.021137561231325718
1148.0, 0.021240645901723837
1149.0, 0.01868669670989728
1150.0, 0.016649800813999013
1151.0, 0.009931085498222277
1152.0, 0.011482592536430386
1153.0, 0.010449261863177713
1154.0, 0.009400414779908889
1155.0, 0.013687515612885637
1156.0, 0.006539068186381663
1157.0, 0.0005419744190687113
1158.0, 0.002022566486527664
1159.0, 0.0017117148980994618
1160.0, 0.0007663997563152835
1161.0, 0.003295270363549248
1162.0, 0.0037149286942415468
1163.0, 0.00935275364740712
1164.0, 0.008478155087920967
1165.0, 0.009304393721551618
1166.0, 0.007982228765136367
1167.0, 0.007607536379353352
1168.0, 0.010522612089980761
1169.0, 0.007250684235504366
1170.0, 0.002598752553875486
1171.0, 0.007203021919360172
1172.0, 0.0035104802637755264
1173.0, 0.00039886982698850924
1174.0, 0.0013092188550075812
1175.0, 0.006804095620731896
1176.0, 0.0051666396122278255
1177.0, 0.0040863863675949085
1178.0, 0.007007807426688646
1179.0, 0.005178077990868131
1180.0, 0.005141246827168597
1181.0, 0.006849273824596349
1182.0, 0.002450103517130495
1183.0, 0.0021550364485259602
1184.0, 0.0014504659480714579
1185.0, 0.0066052093825520195
1186.0, 0.004923318564963167
1187.0, 0.006777213588608712
1188.0, 0.004942925487467687
1189.0, 0.013005676465995753
1190.0, 0.013441082358385963
1191.0, 0.012916031114569322
1192.0, 0.015934498827316353
1193.0, 0.01754673503062417
1194.0, 0.018588359387716136
1195.0, 0.01829324715449037
1196.0, 0.017445252626884705
1197.0, 0.024339744253583043
1198.0, 0.020329124091438243
1199.0, 0.019040722973396283
1200.0, 0.021670674546087093
1201.0, 0.02787923377999808
1202.0, 0.031148454119812992
1203.0, 0.02776977671837822
1204.0, 0.018711427684839667
1205.0, 0.015425496653171803
1206.0, 0.01924946986650702
1207.0, 0.021209427931827927
1208.0, 0.027376049220157107
1209.0, 0.019281117825283148
1210.0, 0.019444060357410232
1211.0, 0.013879383856113042
1212.0, 0.0013669041400814219
1213.0, 0.014208348954276905
1214.0, 0.009017958677722477
1215.0, 0.005772462654431832
1216.0, 0.006461432743352338
1217.0, 0.005179525995979048
1218.0, 0.005249962312973907
1219.0, 0.0008894803145947362
1220.0, 0.004841355036142462
1221.0, 0.005283474384801999
1222.0, 0.005807392769811132
1223.0, 0.0049683897862627495
1224.0, 0.0032144080640863415
1225.0, 0.003908828020652726
1226.0, 0.00440725124488787
1227.0, 0.007829743844926237
1228.0, 0.0037120297833433333
1229.0, 0.001324754347111976
1230.0, 0.01073686173972081
1231.0, 0.015427336890038773
1232.0, 0.012478769496914375
1233.0, 0.015820672613900827
1234.0, 0.002648095618079978
1235.0, 0.012414492220417196
1236.0, 0.016519503825246164
1237.0, 0.006938772563843586
1238.0, 0.013278840798659666
1239.0, 0.011219506884733816
1240.0, 0.004166519473500773
1241.0, 0.011277308870997517
1242.0, 0.009599838027731908
1243.0, 0.0009572645560875716
1244.0, 0.004288050305152358
1245.0, 0.015715851428117083
1246.0, 0.01854080232983412
1247.0, 0.013393941456788065
1248.0, 0.012323210863849422
1249.0, 0.014971664183559467
1250.0, 0.018630443668660044
1251.0, 0.020487889155347102
1252.0, 0.019040393559394374
1253.0, 0.019291383279535827
1254.0, 0.022317006699719144
1255.0, 0.019406314375053947
1256.0, 0.023129142406303246
1257.0, 0.029125879281757038
1258.0, 0.025284774370861664
1259.0, 0.024171289453029873
1260.0, 0.025154536713008328
1261.0, 0.021751748208102384
1262.0, 0.01419573133623683
1263.0, 0.019600386781144296
1264.0, 0.02602391958878955
1265.0, 0.024956714615815643
1266.0, 0.022121381303157092
1267.0, 0.02411410088352071
1268.0, 0.019983975182072074
1269.0, 0.01626435997523828
1270.0, 0.01502092631073472
1271.0, 0.017868537762773293
1272.0, 0.019065670408080927
1273.0, 0.011999942686278449
1274.0, 0.01649076400514302
1275.0, 0.017310705278357038
1276.0, 0.01826738302779593
1277.0, 0.015447898642392934
1278.0, 0.012390347384508048
1279.0, 0.009630879733247244
1280.0, 0.014588965528575661
1281.0, 0.01584809901235278
1282.0, 0.014746292340894042
1283.0, 0.013398320098937062
1284.0, 0.017562493711577584
1285.0, 0.02009103634617897
1286.0, 0.0163402540702619
1287.0, 0.014656937776140667
1288.0, 0.016004876902052902
1289.0, 0.020900191663098963
1290.0, 0.019582430095219937
1291.0, 0.01378643245981157
1292.0, 0.01274258908598027
1293.0, 0.01036752346303234
1294.0, 0.00689809284551681
1295.0, 0.011038167197660586
1296.0, 0.017015466025760737
1297.0, 0.018966206602534945
1298.0, 0.006696194755401966
1299.0, 0.0013277940374603423
1300.0, 0.004173076075745068
1301.0, 8.763641610862953e-05
1302, 0.0
1303, 0.0
1304, 0.0
1305, 0.0
1306, 0.0
1307, 0.0
1308, 0.0
1309, 0.0
1310, 0.0
1311, 0.0
1312, 0.0
1313, 0.0
1314, 0.0
1315, 0.0
1316, 0.0
1317, 0.0
1318, 0.0
1319, 0.0
1320, 0.0
1321, 0.0
1322, 0.0
1323, 0.0
1324, 0.0
1325, 0.0
1326, 0.0
1327, 0.0
1328, 0.0
1329, 0.0
1330, 0.0
1331, 0.0
1332, 0.0
1333, 0.0
1334, 0.0
1335, 0.0
1336, 0.0
1337, 0.0
1338, 0.0
1339, 0.0
1340, 0.0
1341, 0.0
1342, 0.0
1343, 0.0
1344, 0.0
1345, 0.0
1346, 0.0
1347, 0.0
1348, 0.0
1349, 0.0
1350, 0.0
1351, 0.0
1352, 0.0
1353, 0.0
1354, 0.0
1355, 0.0
1356, 0.0
1357, 0.0
1358, 0.0
1359, 0.0
1360, 0.0
1361, 0.0
1362, 0.0
1363, 0.0
1364, 0.0
1365, 0.0
1366, 0.0
1367, 0.0
1368, 0.0
1369, 0.0
1370, 0.0
1371, 0.0
1372, 0.0
1373, 0.0
1374, 0.0
1375, 0.0
1376, 0.0
1377, 0.0
1378, 0.0
1379, 0.0
1380, 0.0
1381, 0.0
1382, 0.0
1383, 0.0
1384, 0.0
1385, 0.0
1386, 0.0
1387, 0.0
1388, 0.0
1389, 0.0
1390, 0.0
1391, 0.0
1392, 0.0
1393, 0.0
1394, 0.0
1395, 0.0
1396, 0.0
1397, 0.0
1398, 0.0
1399, 0.0
1400, 0.0
1401, 0.0
1402, 0.0
1403, 0.0
1404, 0.0
1405, 0.0
1406, 0.0
1407, 0.0
1408, 0.0
1409, 0.0
1410, 0.0
1411, 0.0
1412, 0.0
1413, 0.0
1414, 0.0
1415, 0.0
1416, 0.0
1417, 0.0
1418, 0.0
1419, 0.0
1420, 0.0
1421, 0.0
1422, 0.0
1423, 0.0
1424, 0.0
1425, 0.0
1426, 0.0
1427, 0.0
1428, 0.0
1429, 0.0
1430, 0.0
1431, 0.0
1432, 0.0
1433, 0.0
1434, 0.0
1435, 0.0
1436, 0.0
1437, 0.0
1438, 0.0
1439, 0.0
1440, 0.0
1441, 0.0
1442, 0.0
1443, 0.0
1444, 0.0
1445, 0.0
1446, 0.0
1447, 0.0
1448, 0.0
1449, 0.0
1450, 0.0
1451, 0.0
1452, 0.0
1453, 0.0
1454, 0.0
1455, 0.0
1456, 0.0
1457, 0.0
1458, 0.0
1459, 0.0
1460, 0.0
1461, 0.0
1462, 0.0
1463, 0.0
1464, 0.0
1465, 0.0
1466, 0.0
1467, 0.0
1468, 0.0
1469, 0.0
1470, 0.0
1471, 0.0
1472, 0.0
1473, 0.0
1474, 0.0
1475, 0.0
1476, 0.0
1477, 0.0
1478, 0.0
1479, 0.0
1480, 0.0
1481, 0.0
1482, 0.0
1483, 0.0
1484, 0.0
1485, 0.0
1486, 0.0
1487, 0.0
1488, 0.0
1489, 0.0
1490, 0.0
1491, 0.0
1492, 0.0
1493, 0.0
1494, 0.0
1495, 0.0
1496, 0.0
1497, 0.0
1498, 0.0
1499, 0.0
1500, 0.0
1501, 0.0
1502, 0.0
1503, 0.0
1504, 0.0
1505, 0.0
1506, 0.0
1507, 0.0
1508, 0.0
1509, 0.0
1510, 0.0
1511, 0.0
1512, 0.0
1513, 0.0
1514, 0.0
1515, 0.0
1516, 0.0
1517, 0.0
1518, 0.0
1519, 0.0
1520, 0.0
1521, 0.0
1522, 0.0
1523, 0.0
1524, 0.0
1525, 0.0
1526, 0.0
1527, 0.0
1528, 0.0
1529, 0.0
1530, 0.0
1531, 0.0
1532, 0.0
1533, 0.0
1534, 0.0
1535, 0.0
1536, 0.0
1537, 0.0
1538, 0.0
1539, 0.0
1540, 0.0
1541, 0.0
1542, 0.0
1543, 0.0
1544, 0.0
1545, 0.0
1546, 0.0
1547, 0.0
1548, 0.0
1549, 0.0
1550, 0.0
1551, 0.0
1552, 0.0
1553, 0.0
1554, 0.0
1555, 0.0
1556, 0.0
1557, 0.0
1558, 0.0
1559, 0.0
1560, 0.0
1561, 0.0
1562, 0.0
1563, 0.0
1564, 0.0
1565, 0.0
1566, 0.0
1567, 0.0
1568, 0.0
1569, 0.0
1570, 0.0
1571, 0.0
1572, 0.0
1573, 0.0
1574, 0.0
1575, 0.0
1576, 0.0
1577, 0.0
1578, 0.0
1579, 0.0
1580, 0.0
1581, 0.0
1582, 0.0
1583, 0.0
1584, 0.0
1585, 0.0
1586, 0.0
1587, 0.0
1588, 0.0
1589, 0.0
1590, 0.0
1591, 0.0
1592, 0.0
1593, 0.0
1594, 0.0
1595, 0.0
1596, 0.0
1597, 0.0
1598, 0.0
1599, 0.0
