30, 0.0
31, 0.0
32, 0.0
33, 0.0
34, 0.0
35, 0.0
36, 0.0
37, 0.0
38, 0.0
39, 0.0
40, 0.0
41, 0.0
42, 0.0
43, 0.0
44, 0.0
45, 0.0
46, 0.0
47, 0.0
48, 0.0
49, 0.0
50, 0.0
51, 0.0
52, 0.0
53, 0.0
54, 0.0
55, 0.0
56, 0.0
57, 0.0
58, 0.0
59, 0.0
60, 0.0
61, 0.0
62, 0.0
63, 0.0
64, 0.0
65, 0.0
66, 0.0
67, 0.0
68, 0.0
69, 0.0
70, 0.0
71, 0.0
72, 0.0
73, 0.0
74, 0.0
75, 0.0
76, 0.0
77, 0.0
78, 0.0
79, 0.0
80, 0.0
81, 0.0
82, 0.0
83, 0.0
84, 0.0
85, 0.0
86, 0.0
87, 0.0
88, 0.0
89, 0.0
90, 0.0
91, 0.0
92, 0.0
93, 0.0
94, 0.0
95, 0.0
96, 0.0
97, 0.0
98, 0.0
99, 0.0
100, 0.0
101, 0.0
102, 0.0
103, 0.0
104, 0.0
105, 0.0
106, 0.0
107, 0.0
108, 0.0
109, 0.0
110, 0.0
111, 0.0
112, 0.0
113, 0.0
114, 0.0
115, 0.0
116, 0.0
117, 0.0
118, 0.0
119, 0.0
120, 0.0
121, 0.0
122, 0.0
123, 0.0
124, 0.0
125, 0.0
126, 0.0
127, 0.0
128, 0.0
129, 0.0
130, 0.0
131, 0.0
132, 0.0
133, 0.0
134, 0.0
135, 0.0
136, 0.0
137, 0.0
138, 0.0
139, 0.0
140, 0.0
141, 0.0
142, 0.0
143, 0.0
144, 0.0
145, 0.0
146, 0.0
147, 0.0
148, 0.0
149, 0.0
150, 0.0
151, 0.0
152, 0.0
153, 0.0
154, 0.0
155, 0.0
156, 0.0
157, 0.0
158, 0.0
159, 0.0
160, 0.0
161, 0.0
162, 0.0
163, 0.0
164, 0.0
165, 0.0
166, 0.0
167, 0.0
168, 0.0
169, 0.0
170, 0.0
171, 0.0
172, 0.0
173, 0.0
174, 0.0
175, 0.0
176, 0.0
177, 0.0
178, 0.0
179, 0.0
180, 0.0
181, 0.0
182, 0.0
183, 0.0
184, 0.0
185, 0.0
186, 0.0
187, 0.0
188, 0.0
189, 0.0
190, 0.0
191, 0.0
192, 0.0
193, 0.0
194, 0.0
195, 0.0
196, 0.0
197, 0.0
198, 0.0
199, 0.0
200, 0.0
201, 0.0
202, 0.0
203, 0.0
204, 0.0
205.0, 0.0006521337593930034
206.0, 0.0034813059134905264
207.0, 0.00728913323812732
208.0, 0.017327097953270993
209.0, 0.02919895948319908
210.0, 0.03484982312351496
211.0, 0.03760918526914946
212.0, 0.042514957395703976
213.0, 0.0497945998975696
214.0, 0.054602089624797866
215.0, 0.062023859255920064
216.0, 0.07263861279553893
217.0, 0.0813848490869262
218.0, 0.08670224166901028
219.0, 0.08983488286599704
220.0, 0.09180995480131672
221.0, 0.09301011446400398
222.0, 0.08858978258189938
223.0, 0.08608303734954008
224.0, 0.08715402811135668
225.0, 0.08470614730540538
226.0, 0.07556461845305852
227.0, 0.07098583302086571
228.0, 0.06271883198964585
229.0, 0.05322393997980553
230.0, 0.043307184405446786
231.0, 0.03276942929565202
232.0, 0.025638921530460667
233.0, 0.018950840950221585
234.0, 0.01189725276126846
235.0, 0.0069817394612496355
236.0, 0.004516741240668524
237.0, 0.002002650582796345
238.0, 0.00034872034824564956
239.0, 0.0023641561552726355
240.0, 0.0025515277201250824
241.0, 0.0023205067319717306
242.0, 0.0005687559296981227
243.0, 0.002099960608369174
244.0, 0.0031058439611559466
245.0, 0.0016176014441645586
246.0, 0.0028628717068480357
247.0, 0.00445641281321515
248.0, 0.003471255161853152
249.0, 0.006062083782673907
250.0, 0.005478237623616853
251.0, 0.003591431897196312
252.0, 0.004384122497253931
253.0, 0.009402294503396158
254.0, 0.0021674554963773476
255.0, 0.0011294200717747705
256.0, 0.00041736303291481933
257.0, 0.00012037389855382993
258.0, 0.0009380161191389747
259.0, 0.0002104941389855266
260.0, 0.004552611264198
261.0, 0.011787421350536722
262.0, 0.012402140697525165
263.0, 0.014585023399954511
264.0, 0.018622858448990497
265.0, 0.027351995555603976
266.0, 0.03844049000118764
267.0, 0.039281570740440905
268.0, 0.03496686084487133
269.0, 0.03337547858006956
270.0, 0.03739897785196876
271.0, 0.044167484450553914
272.0, 0.04484051169155645
273.0, 0.04238737279431238
274.0, 0.045319467592484786
275.0, 0.05342244084786496
276.0, 0.056366079340262686
277.0, 0.059427152378846854
278.0, 0.06231408618283693
279.0, 0.06461914500124576
280.0, 0.06635765732755178
281.0, 0.06785737644990807
282.0, 0.07051334849581685
283.0, 0.07680578140658421
284.0, 0.08579691217639317
285.0, 0.09373773969073299
286.0, 0.09586710100370001
287.0, 0.1014091513395081
288.0, 0.10661374970180179
289.0, 0.1103197693371417
290.0, 0.12154996617716252
291.0, 0.12504992798762607
292.0, 0.13140166686475002
293.0, 0.14170896782466794
294.0, 0.1514057640692093
295.0, 0.16212139573658657
296.0, 0.1686282334162183
297.0, 0.1772757627373783
298.0, 0.1896188802591838
299.0, 0.20066923742012535
300.0, 0.21181983659475004
301.0, 0.2243201353799605
302.0, 0.23564779158131915
303.0, 0.24483956501505394
304.0, 0.25405623542545774
305.0, 0.2680185337856848
306.0, 0.27769551097879114
307.0, 0.28294612415134607
308.0, 0.28859628117525987
309.0, 0.29442044902233266
310.0, 0.2948838274624206
311.0, 0.29093691842217156
312.0, 0.2889867022397103
313.0, 0.2898744626801125
314.0, 0.27559802892008334
315.0, 0.27460900969554203
316.0, 0.263713237778873
317.0, 0.24178503053396314
318.0, 0.23926326088669686
319.0, 0.22310412732605706
320.0, 0.2088952849686853
321.0, 0.1970231080391163
322.0, 0.18355493897852998
323.0, 0.17233866386312288
324.0, 0.15892658988183903
325.0, 0.1463895487646122
326.0, 0.1379298198917819
327.0, 0.13376487559016897
328.0, 0.12784721475433802
329.0, 0.11788611713757433
330.0, 0.11057052331681164
331.0, 0.10528346743343016
332.0, 0.09695897944024406
333.0, 0.09271747468518533
334.0, 0.08812514120335474
335.0, 0.08325929187553968
336.0, 0.08010090449303915
337.0, 0.07947517071463847
338.0, 0.07380934418121583
339.0, 0.0733388249163179
340.0, 0.07430760511365607
341.0, 0.0716564795827409
342.0, 0.06914694029148206
343.0, 0.0653218261763857
344.0, 0.06316021943547516
345.0, 0.06292022009823531
346.0, 0.0631279273498702
347.0, 0.062438341208669375
348.0, 0.05802388465099377
349.0, 0.05739661698241584
350.0, 0.05960393435762515
351.0, 0.05850433927937037
352.0, 0.05508038136207881
353.0, 0.0526478444881863
354.0, 0.05161764426941864
355.0, 0.050773303126485314
356.0, 0.04903127278005732
357.0, 0.04823352768327481
358.0, 0.04731184880738514
359.0, 0.04559104651094029
360.0, 0.04362180646824402
361.0, 0.042897291448098104
362.0, 0.04468822556160529
363.0, 0.045106155214756964
364.0, 0.0441232701660871
365.0, 0.043675902540770105
366.0, 0.04511906198958164
367.0, 0.04461885504864491
368.0, 0.04365521378844091
369.0, 0.040864293013679755
370.0, 0.03683054490907668
371.0, 0.036721413612699774
372.0, 0.03577215351236572
373.0, 0.032599943349995636
374.0, 0.030509218845969487
375.0, 0.03210569310414655
376.0, 0.03276336400250597
377.0, 0.030261174043803313
378.0, 0.02888153324337473
379.0, 0.028934611719897765
380.0, 0.029396626326002352
381.0, 0.02877866949481797
382.0, 0.02147600601763445
383.0, 0.02381534265861913
384.0, 0.033117875791086694
385.0, 0.03854428555809253
386.0, 0.03812208440792138
387.0, 0.03334166675749733
388.0, 0.0282287189196044
389.0, 0.02498544823836018
390.0, 0.023055458419763954
391.0, 0.020314098807353475
392.0, 0.01876815233404991
393.0, 0.020458439285894556
394.0, 0.02256131898232524
395.0, 0.022245720164480932
396.0, 0.023484904153959235
397.0, 0.02298607969901158
398.0, 0.029725494790794886
399.0, 0.03376695190474757
400.0, 0.020991588234994623
401.0, 0.015481248254565722
402.0, 0.011965780642817376
403.0, 0.008646838589573727
404.0, 0.007467494188432566
405.0, 0.009120412253145648
406.0, 0.007247396670571799
407.0, 0.008042005126527649
408.0, 0.009552294682026454
409.0, 0.009374626766924597
410.0, 0.0075042355701518135
411.0, 0.007439903133140782
412.0, 0.007018163759367185
413.0, 0.005182134432499069
414.0, 0.005619566248414697
415.0, 0.009597969495805263
416.0, 0.006807876413103652
417.0, 0.0034132190969911142
418.0, 0.0014937245601619425
419.0, 0.0033816482098225657
420.0, 0.0036526830637900578
421.0, 0.0009066570053700265
422.0, 0.00047609203890102683
423.0, 0.0037637748854266293
424.0, 0.004608058874898024
425.0, 0.0012663473937779106
426.0, 0.001330938220847237
427.0, 0.003369675012444839
428.0, 0.0015556680104571207
429.0, 0.0008679200380600346
430.0, 0.0031706803114911835
431.0, 0.003079641663534516
432.0, 0.0041637268507876465
433.0, 0.0023486104049227664
434.0, 0.0016853420684662561
435.0, 0.004673299724729721
436.0, 0.0018389024857084807
437.0, 0.0013176734612762055
438.0, 0.0011874749098114428
439.0, 0.0009708930093359374
440.0, 0.0008884349690132415
441.0, 0.000576915127701422
442.0, 0.0003320901690229944
443.0, 0.0005473284824141177
444.0, 0.001809032934150951
445.0, 0.002306763851931037
446.0, 0.0014136469068893437
447.0, 0.0007282197181235604
448.0, 0.006058773126990494
449.0, 0.008740119418360856
450.0, 0.006300230579525732
451.0, 0.006275205411642286
452.0, 0.0038549317735521605
453.0, 0.005375729186683605
454.0, 0.007024257965079609
455.0, 0.006193116337141146
456.0, 0.004567844106862705
457.0, 0.0020981426798472483
458.0, 0.004144508582084824
459.0, 0.01040674940478038
460.0, 0.011166026258853781
461.0, 0.0033705590282181765
462.0, 0.007631986806943108
463.0, 0.011237665166984753
464.0, 0.010147387577926022
465.0, 0.01052586375323818
466.0, 0.015479677369748535
467.0, 0.013439828781888501
468.0, 0.014819515736362747
469.0, 0.014662829121365037
470.0, 0.015603713147457383
471.0, 0.019431629198575474
472.0, 0.020751888906343444
473.0, 0.023974966432230647
474.0, 0.021752289306896502
475.0, 0.01861042266850858
476.0, 0.01938452674552587
477.0, 0.022355215712253764
478.0, 0.024626111356351284
479.0, 0.027114500409983578
480.0, 0.02795430879675414
481.0, 0.025754093585158615
482.0, 0.022773110754356948
483.0, 0.027557343685537607
484.0, 0.02528631588916298
485.0, 0.02498165858847218
486.0, 0.026745170550472
487.0, 0.025858514459419422
488.0, 0.02581485420535178
489.0, 0.02483688513888163
490.0, 0.022481385174779295
491.0, 0.02114245161871052
492.0, 0.022579631096191394
493.0, 0.025494958180963232
494.0, 0.025938179672945268
495.0, 0.024003383552985234
496.0, 0.02285906585799265
497.0, 0.022801831258786175
498.0, 0.021225764867633102
499.0, 0.019497424102173314
500.0, 0.018287235467967393
501.0, 0.02020704710860496
502.0, 0.0220696211713407
503.0, 0.02020666305567577
504.0, 0.01796589825964778
505.0, 0.016672712780390106
506.0, 0.015724736087381265
507.0, 0.015794552719725408
508.0, 0.01575728715806832
509.0, 0.01297778542142815
510.0, 0.016547512925613878
511.0, 0.017171221302525685
512.0, 0.017149236988466432
513.0, 0.017828137396292767
514.0, 0.016678224915115364
515.0, 0.0159875844145024
516.0, 0.01372102803259225
517.0, 0.013822961999947017
518.0, 0.01424697824349381
519.0, 0.011424177784465094
520.0, 0.006012100500620068
521.0, 0.007631962561301872
522.0, 0.006488872250248733
523.0, 0.005612491820076457
524.0, 0.007827132366737762
525.0, 0.008246169059979581
526.0, 0.0028972790070902143
527.0, 0.00432549805094298
528.0, 0.006052255053352466
529.0, 0.002860217933030447
530.0, 0.0021406982640871978
531.0, 0.0012588800329813756
532.0, 0.0028574700164554906
533.0, 0.0013753058981218255
534.0, 0.0006246379173725775
535.0, 0.0011728247089671676
536.0, 0.0011024161171787731
537.0, 0.002516826210928678
538.0, 0.0018342978561161434
539.0, 0.0003196700531156146
540.0, 0.001158848274656836
541.0, 0.00039571753265736035
542.0, 0.004814711384633334
543.0, 0.0028678080583978624
544.0, 0.0015198939675801714
545.0, 0.003169233003700481
546.0, 0.001563102410517497
547.0, 0.000907989752404318
548.0, 0.0059214650074554485
549.0, 0.01148603512379189
550.0, 0.010610477162988139
551.0, 0.006889406069854074
552.0, 0.0073866887660822165
553.0, 0.009168441264391038
554.0, 0.010332439074606684
555.0, 0.013613713945958143
556.0, 0.01740100059343188
557.0, 0.018584700283559925
558.0, 0.0171104132967861
559.0, 0.020619517430568876
560.0, 0.02403293286411175
561.0, 0.02392806017956696
562.0, 0.02382896671486837
563.0, 0.025780926604419555
564.0, 0.023549664063038583
565.0, 0.026019255594484248
566.0, 0.028612568886740304
567.0, 0.03016529680917399
568.0, 0.031069828520108946
569.0, 0.03230171597575453
570.0, 0.03705678262965113
571.0, 0.04131434929768117
572.0, 0.04202935668537671
573.0, 0.04331023572725424
574.0, 0.04758096278240267
575.0, 0.0519899365929723
576.0, 0.054372717669117415
577.0, 0.05543802129028103
578.0, 0.05729149834883152
579.0, 0.05993671449736059
580.0, 0.06347091723022324
581.0, 0.07029499410482125
582.0, 0.0784199526068378
583.0, 0.08034988991273154
584.0, 0.08460651373205866
585.0, 0.09225805425896222
586.0, 0.09659042921926864
587.0, 0.10348614024759911
588.0, 0.11036741473955683
589.0, 0.11536054067236963
590.0, 0.1206570779664701
591.0, 0.12701176771724
592.0, 0.13317500292105566
593.0, 0.14215451679660876
594.0, 0.14471507048839286
595.0, 0.14165475784042247
596.0, 0.13932920095704654
597.0, 0.13925255900543224
598.0, 0.1354168187774671
599.0, 0.12749529900431317
600.0, 0.12057488489481742
601.0, 0.10968677511654956
602.0, 0.09766804998542515
603.0, 0.08982275501506953
604.0, 0.0806570900577067
605.0, 0.07187209733881904
606.0, 0.06653870043562454
607.0, 0.06222385086842437
608.0, 0.05533539037800065
609.0, 0.045672211473982816
610.0, 0.038519310611956924
611.0, 0.03549621603465626
612.0, 0.02796666921625033
613.0, 0.024238474601028327
614.0, 0.025431470486817754
615.0, 0.021336778180964952
616.0, 0.022221489321985
617.0, 0.02272026814908949
618.0, 0.023332528111233385
619.0, 0.02202245354884433
620.0, 0.018387090959320323
621.0, 0.016580892875028442
622.0, 0.01999996529970451
623.0, 0.016379672091081213
624.0, 0.023992997154257425
625.0, 0.02858741333587338
626.0, 0.019573951199790825
627.0, 0.01655125762280684
628.0, 0.01412535740571989
629.0, 0.015067684542094104
630.0, 0.013698232447217273
631.0, 0.01519613578911766
632.0, 0.02086180371009068
633.0, 0.018921268069760935
634.0, 0.019440531048018538
635.0, 0.020675859369133198
636.0, 0.019054031834413194
637.0, 0.018214498506465743
638.0, 0.021640563652039937
639.0, 0.024869301624440295
640.0, 0.019949891118748925
641.0, 0.018410558672773334
642.0, 0.01870100463468319
643.0, 0.01905333785052516
644.0, 0.020430249211299056
645.0, 0.022277724264349392
646.0, 0.01868571867032078
647.0, 0.019703135579229387
648.0, 0.018427795100795005
649.0, 0.015694577257743536
650.0, 0.016899710221289437
651.0, 0.018955451885639574
652.0, 0.012046001690829025
653.0, 0.015547916321170856
654.0, 0.015691658711203565
655.0, 0.013770139842922859
656.0, 0.015099335818245517
657.0, 0.008236717230794837
658.0, 0.008478851455947881
659.0, 0.0039644259443705355
660.0, 0.0034064421774382633
661.0, 0.004206896803594326
662.0, 0.001207669279276019
663.0, 0.00169184793488157
664.0, 0.0018623595447058267
665.0, 0.0022557435328172965
666.0, 0.0018367174802067397
667.0, 0.0004683202330731665
668.0, 0.0008144034095285109
669.0, 0.003373058499016361
670.0, 0.0007568480168730213
671.0, 0.003248040849043359
672.0, 0.004540486262221214
673.0, 0.001535721513627586
674.0, 0.0021822365890288584
675.0, 0.0036735566560285224
676.0, 0.0056672700197402115
677.0, 0.003063060618449002
678.0, 0.0030079077484435495
679.0, 0.003925392450845143
680.0, 0.0030129433949169565
681.0, 0.0012871789471796187
682.0, 0.00048162764637561947
683.0, 0.0004618528798513148
684.0, 0.004727152991388658
685.0, 0.00407034102922282
686.0, 0.0009985291529526672
687.0, 0.0032704765497530205
688.0, 0.0008792577970399145
689.0, 0.003315268586785856
690.0, 0.006158662386674349
691.0, 0.010200440589484295
692.0, 0.012062497232606268
693.0, 0.008844490694717823
694.0, 0.00818253375875026
695.0, 0.00948313741382895
696.0, 0.005497247997669701
697.0, 0.003311377427652701
698.0, 0.002686241922635145
699.0, 0.0023634893404859054
700.0, 0.006536188241906214
701.0, 0.005215194880494005
702.0, 0.005128574934774651
703.0, 0.006143232599534583
704.0, 0.005901052533852103
705.0, 0.005292730272470472
706.0, 0.006780808918799375
707.0, 0.006303508712854486
708.0, 0.0081314449819993
709.0, 0.005711495184357688
710.0, 0.00614529321767673
711.0, 0.009078354709740267
712.0, 0.0058685370605674496
713.0, 0.0007273810102948913
714.0, 0.002823991640540582
715.0, 0.0059771697122433295
716.0, 0.005435855877559161
717.0, 0.0061591967777157655
718.0, 0.011286994517575014
719.0, 0.013363928178266146
720.0, 0.0010333912313300606
721.0, 0.004789968730019961
722.0, 0.010308122749520636
723.0, 0.010128925395148399
724.0, 0.008786928642676991
725.0, 0.01205138410742755
726.0, 0.014541669917425271
727.0, 0.004763241482999343
728.0, 0.004679959367538777
729.0, 0.006098128787790801
730.0, 0.006800717347096217
731.0, 0.00948904041309492
732.0, 0.0033785699649681485
733.0, 0.004301292766715332
734.0, 0.0055088118663902145
735.0, 0.00688584811689378
736.0, 0.006034994180467381
737.0, 0.00313546998881331
738.0, 0.0028330281742336015
739.0, 0.004293131707737207
740.0, 0.005463345310598387
741.0, 0.007046230291637606
742.0, 0.0064125525169886986
743.0, 0.003437098357694835
744.0, 0.002206767878235612
745.0, 0.005947290850016348
746.0, 0.005410775331882254
747.0, 0.007852348141396638
748.0, 0.00869338138420459
749.0, 0.007774218967118559
750.0, 0.00602484370974184
751.0, 0.0042332116097407385
752.0, 0.006516025971243612
753.0, 0.0026744254529200346
754.0, 0.002002528916205746
755.0, 0.004915801944439035
756.0, 0.005404014710347336
757.0, 0.002359475876683017
758.0, 0.0005926195501464492
759.0, 0.003534612744233641
760.0, 0.0025178348352852616
761.0, 0.0029301312895112053
762.0, 0.004163571904003252
763.0, 0.004550085896687966
764.0, 0.004365417231015962
765.0, 0.004030216966903518
766.0, 0.005616612905957312
767.0, 0.006326634132718089
768.0, 0.0020904293762079047
769.0, 0.0011325902996268994
770.0, 0.002841971696855168
771.0, 0.001330015394777917
772.0, 0.008759402872180364
773.0, 0.004190325603501308
774.0, 0.005591997198910748
775.0, 0.005600650234544526
776.0, 0.0045134845712549426
777.0, 0.006034273165875154
778.0, 0.006060597888284438
779.0, 0.004271607906128737
780.0, 0.005602602428633191
781.0, 0.00404721617497704
782.0, 0.0008908493769430696
783.0, 0.0005520505462954686
784.0, 0.0003658584164968729
785.0, 0.0003000561614596259
786.0, 0.0056667604367074105
787.0, 0.00524527840706557
788.0, 0.0036259567579201737
789.0, 0.0053458585346054886
790.0, 0.0047161382383393785
791.0, 0.0016896540830662475
792.0, 0.002312080480026115
793.0, 0.006231199902470935
794.0, 0.009005063300946175
795.0, 0.006918633521932742
796.0, 0.003321246723234599
797.0, 0.0028407533390376488
798.0, 0.005038824968666399
799.0, 0.0054119217397727345
800.0, 0.0006337737302936704
801.0, 0.0017380199642494884
802.0, 0.002484467720304141
803.0, 0.0017294121098928772
804.0, 0.0016531546116962904
805.0, 0.0023082634092721757
806.0, 0.0023608448203632335
807.0, 0.0033331603694244714
808.0, 0.0016217096521188889
809.0, 0.002557354529192612
810.0, 0.0046793330094796895
811.0, 0.003035258047073276
812.0, 0.0054255883254895896
813.0, 0.005935802425792443
814.0, 0.00017216863870373334
815.0, 0.0004061947146718017
816.0, 0.0009384821208627475
817.0, 0.0011340939489632587
818.0, 0.0019289873139505334
819.0, 0.004159149647276721
820.0, 0.00511087882747093
821.0, 0.007759941367484958
822.0, 0.006593443976361108
823.0, 0.009322997144368426
824.0, 0.011937880885462871
825.0, 0.011415574981574566
826.0, 0.01002828880378254
827.0, 0.007098133554915963
828.0, 0.006499051572690422
829.0, 0.002699809678919562
830.0, 0.0018092273542092776
831.0, 0.002662476060158108
832.0, 0.003420103126910269
833.0, 0.004432886358263083
834.0, 0.005987022302980036
835.0, 0.00947963870468193
836.0, 0.008054372142738473
837.0, 0.009052500190480001
838.0, 0.01115403774227225
839.0, 0.01181654130860238
840.0, 0.012404637368631904
841.0, 0.013523030570042036
842.0, 0.009850153077675864
843.0, 0.009802029250311008
844.0, 0.0059168137874264885
845.0, 0.006743581236139551
846.0, 0.009193513356054187
847.0, 0.008046111175166992
848.0, 0.008525394732173517
849.0, 0.0063016004751354935
850.0, 0.007347410995586521
851.0, 0.007135273592918062
852.0, 0.008406121608065318
853.0, 0.010352658951920845
854.0, 0.010407993858087196
855.0, 0.008047961650123165
856.0, 0.0036977191016730588
857.0, 0.004217555056411782
858.0, 0.005713598915778603
859.0, 0.008751102634169214
860.0, 0.00860954747950008
861.0, 0.008078827031835767
862.0, 0.00876665276226046
863.0, 0.004260298876585086
864.0, 0.010239940792335187
865.0, 0.008829098568399496
866.0, 0.009086509550401304
867.0, 0.006601237782576645
868.0, 0.0032306452525233667
869.0, 0.0026482690568691582
870.0, 0.0024262487621614726
871.0, 0.0018760789312904692
872.0, 0.0018309113673246674
873.0, 0.003391951983801974
874.0, 0.0022377016498451273
875.0, 0.001951119405065361
876.0, 0.002194619357923255
877.0, 0.0009009141913651982
878.0, 0.0026735476453445236
879.0, 0.0025944530419690116
880.0, 0.0020013586969464445
881.0, 0.001604515248001358
882.0, 0.001809555029383129
883.0, 0.001921599567316305
884.0, 0.002077111644804635
885.0, 0.003722275341225065
886.0, 0.0008195895074007568
887.0, 0.0031095540501981087
888.0, 0.002750597770919357
889.0, 0.0019272706191605052
890.0, 0.002543911454517934
891.0, 0.0011402928982568777
892.0, 0.0003372410160717039
893.0, 0.0029683923950371304
894.0, 0.0008726858924451632
895.0, 0.0015103969232044961
896.0, 0.0017482187697855864
897.0, 0.0002459038541464683
898.0, 0.0007141020807089757
899.0, 0.0027956972750442545
900.0, 0.004662437480397658
901.0, 0.0017020001168567497
902.0, 0.002037332105067671
903.0, 0.00428266537895827
904.0, 0.0035932829198271313
905.0, 0.003146237280660841
906.0, 0.004418464625805571
907.0, 0.006669472789524984
908.0, 0.009898698752253406
909.0, 0.014190524607612635
910.0, 0.009304246797360019
911.0, 0.011249930097901402
912.0, 0.014806364789155356
913.0, 0.013967359696521088
914.0, 0.013043824602912668
915.0, 0.016835893331103
916.0, 0.022399052874834107
917.0, 0.02637636211510126
918.0, 0.0306259467873444
919.0, 0.035541738253368274
920.0, 0.04179077528532398
921.0, 0.04395030695702495
922.0, 0.04812169067718189
923.0, 0.056973088351945166
924.0, 0.06312117224331287
925.0, 0.07174237561833786
926.0, 0.07998769507597402
927.0, 0.09751557974370995
928.0, 0.10377301526980932
929.0, 0.11354469424437684
930.0, 0.12629287237228104
931.0, 0.13616233797361932
932.0, 0.15209884926843245
933.0, 0.16662276036722484
934.0, 0.18240366146780743
935.0, 0.19421836896515218
936.0, 0.20866329345613874
937.0, 0.2215650283087683
938.0, 0.233401022896154
939.0, 0.24323751135016064
940.0, 0.24369617205219268
941.0, 0.23802071274831077
942.0, 0.22766781638823044
943.0, 0.21109114474409424
944.0, 0.19102202733397622
945.0, 0.1696748041109333
946.0, 0.1500924652707152
947.0, 0.13015709286119356
948.0, 0.10757207927842029
949.0, 0.0925999978451701
950.0, 0.07893206696485859
951.0, 0.06415809282024112
952.0, 0.0516472759410822
953.0, 0.04227476455766041
954.0, 0.0327881370474785
955.0, 0.02609566932111274
956.0, 0.02310524462562687
957.0, 0.015017740798017666
958.0, 0.011099773035709958
959.0, 0.008202719089549088
960.0, 0.004950018877347249
961.0, 0.006085952985119463
962.0, 0.008846929638357603
963.0, 0.009349891415501129
964.0, 0.009328122606984795
965.0, 0.011988106982280335
966.0, 0.011886761607663793
967.0, 0.010658003106008356
968.0, 0.014825339993522417
969.0, 0.018228241486724646
970.0, 0.019600098746086796
971.0, 0.024604678928652444
972.0, 0.034254389506145656
973.0, 0.043325672250228105
974.0, 0.05016985944745079
975.0, 0.05154993133430341
976.0, 0.06343564401366926
977.0, 0.07730262998751883
978.0, 0.08791915151116317
979.0, 0.1016593213865861
980.0, 0.12595448963688935
981.0, 0.15602447947689088
982.0, 0.18339069852968204
983.0, 0.22102618092463436
984.0, 0.26375085069815507
985.0, 0.30675984603312323
986.0, 0.36094211221963035
987.0, 0.42408344442398754
988.0, 0.49319248022410056
989.0, 0.5697941062443288
990.0, 0.6519055001572557
991.0, 0.7351066702461438
992.0, 0.8283027017038384
993.0, 0.9069640445979336
994.0, 0.9665240516627333
995.0, 0.996799360462792
996.0, 0.9912775589493187
997.0, 0.9488651059379205
998.0, 0.8773772953778024
999.0, 0.7915621690147371
1000.0, 0.697372907837037
1001.0, 0.6084781574079524
1002.0, 0.5227035660602573
1003.0, 0.4459827465129307
1004.0, 0.38838888154921186
1005.0, 0.3388353085478299
1006.0, 0.29502514620272413
1007.0, 0.2623163748944616
1008.0, 0.23316924235902117
1009.0, 0.2017184054687958
1010.0, 0.18511897647736825
1011.0, 0.1657725570970979
1012.0, 0.14185303452912282
1013.0, 0.12198604296733455
1014.0, 0.10800449629719573
1015.0, 0.09785712831049898
1016.0, 0.08832712740002552
1017.0, 0.07556023934675976
1018.0, 0.06242479611526348
1019.0, 0.05575296656336535
1020.0, 0.05180913365508133
1021.0, 0.04803656513662843
1022.0, 0.04729366436116091
1023.0, 0.044631334848578
1024.0, 0.03755232774907729
1025.0, 0.03146130194444488
1026.0, 0.028761459158145104
1027.0, 0.024965770568759513
1028.0, 0.023602048620817297
1029.0, 0.021579527106770333
1030.0, 0.016874531039155944
1031.0, 0.012602719255611647
1032.0, 0.006689881892396401
1033.0, 0.003259826213324657
1034.0, 0.005069869472912676
1035.0, 0.005175245616869486
1036.0, 0.002074386899383176
1037.0, 0.0006977163379670437
1038.0, 0.0007714297773583853
1039.0, 0.002706362637585972
1040.0, 0.0032640212682231895
1041.0, 0.0016992604977500761
1042.0, 0.001960339539357065
1043.0, 0.0015289830198821123
1044.0, 0.005103904374804322
1045.0, 0.0013462904003968023
1046.0, 0.010488682609772324
1047.0, 0.005781218074005376
1048.0, 0.004461539862678023
1049.0, 0.010024270089653866
1050.0, 0.012784328770795295
1051.0, 0.0155484175603029
1052.0, 0.01928646118427059
1053.0, 0.02369195514656683
1054.0, 0.03182761101244966
1055.0, 0.03313544143144841
1056.0, 0.03132667116109138
1057.0, 0.033086714026314634
1058.0, 0.0347333765292876
1059.0, 0.031094068166344867
1060.0, 0.03211108870854572
1061.0, 0.029871529573824447
1062.0, 0.022946019718686643
1063.0, 0.023340126987638286
1064.0, 0.022541949534849618
1065.0, 0.022647622836983582
1066.0, 0.01726265722548184
1067.0, 0.012832931667856535
1068.0, 0.00946755060545624
1069.0, 0.00699548566420466
1070.0, 0.005621020872270221
1071.0, 0.0044638738615625255
1072.0, 0.0030684500600165945
1073.0, 0.0016257409964919715
1074.0, 0.0011334023532355644
1075.0, 0.003996383916913858
1076.0, 0.0013198711660523308
1077.0, 0.004392725705813974
1078.0, 0.0029086156213918735
1079.0, 0.0015741191380484
1080.0, 0.0033557578806324953
1081.0, 0.004552930376264684
1082.0, 0.005238448615456408
1083.0, 0.0013586039067934276
1084.0, 0.0011209124198264969
1085.0, 0.0028983088106743376
1086.0, 0.00449810958199138
1087.0, 0.002115991034217491
1088.0, 0.0017874118422414225
1089.0, 0.007465692539619316
1090.0, 0.0026850749927714982
1091.0, 0.0019378858184484916
1092.0, 0.003324634392507157
1093.0, 0.0003561588051727198
1094.0, 0.0010180889988362027
1095.0, 0.005229327483290177
1096.0, 0.0009020165219637046
1097.0, 0.0028744637584249048
1098.0, 0.002253961385764229
1099.0, 0.004407494328237117
1100.0, 0.007225886710816542
1101.0, 0.007167812888099904
1102.0, 0.005652666569742819
1103.0, 0.00421759543306975
1104.0, 0.003318892367699303
1105.0, 0.005645029555960034
1106.0, 0.007212512445489029
1107.0, 0.0059264023090630485
1108.0, 0.007252615139329833
1109.0, 0.010257718784353543
1110.0, 0.01624384377862741
1111.0, 0.016217164834537407
1112.0, 0.011074343890770508
1113.0, 0.012505781658138895
1114.0, 0.017172263970547854
1115.0, 0.013270771574242843
1116.0, 0.01262082143097312
1117.0, 0.01923296112039191
1118.0, 0.017587780298262825
1119.0, 0.016943972732936085
1120.0, 0.020117395618596566
1121.0, 0.02263507520555982
1122.0, 0.023340173074745018
1123.0, 0.022116447076914486
1124.0, 0.020885131459385562
1125.0, 0.025516087253917276
1126.0, 0.024569298110120135
1127.0, 0.02596751637595051
1128.0, 0.029044983052069054
1129.0, 0.029313653156106758
1130.0, 0.029410640423490425
1131.0, 0.030390149836666592
1132.0, 0.037462583280901435
1133.0, 0.04531859831070063
1134.0, 0.048649060153872006
1135.0, 0.05076222955242443
1136.0, 0.04903431092492801
1137.0, 0.057521516846931936
1138.0, 0.068627334365593
1139.0, 0.06614626952639732
1140.0, 0.06950272777653181
1141.0, 0.07724486313224674
1142.0, 0.08317990292801167
1143.0, 0.09020056605473722
1144.0, 0.09815912727798456
1145.0, 0.1050843427364516
1146.0, 0.11278749483487091
1147.0, 0.1195068695248178
1148.0, 0.13255260615909917
1149.0, 0.13790908963313053
1150.0, 0.14419716406989005
1151.0, 0.1412403719799935
1152.0, 0.15080921749631465
1153.0, 0.16031373523289463
1154.0, 0.16055733985632284
1155.0, 0.1589329187961099
1156.0, 0.15995481567263245
1157.0, 0.15921972186633185
1158.0, 0.15528751811637342
1159.0, 0.14503952882639604
1160.0, 0.1402664112331389
1161.0, 0.1344231170192331
1162.0, 0.12137819102061087
1163.0, 0.11311166546755627
1164.0, 0.10661893574345999
1165.0, 0.09352338173672671
1166.0, 0.08021285874602953
1167.0, 0.07302280783652372
1168.0, 0.06719282021857022
1169.0, 0.05650064437970521
1170.0, 0.04356083750951007
1171.0, 0.042636357766230634
1172.0, 0.03914347738881365
1173.0, 0.03234887107249529
1174.0, 0.031980240230350274
1175.0, 0.030752479341481967
1176.0, 0.02901171464575405
1177.0, 0.02358762634298765
1178.0, 0.01932472248602612
1179.0, 0.018531666711397655
1180.0, 0.016396993484324145
1181.0, 0.017829282462608773
1182.0, 0.011413663683530742
1183.0, 0.009854012882024884
1184.0, 0.012896996745995417
1185.0, 0.009359866014057389
1186.0, 0.0071154951002473125
1187.0, 0.006715557561101614
1188.0, 0.007639002838217163
1189.0, 0.00419427979517353
1190.0, 0.002889592949965905
1191.0, 0.007062270571342289
1192.0, 0.006061747180675318
1193.0, 0.0015536059983379685
1194.0, 0.001470068576391636
1195.0, 0.001307817139296954
1196.0, 0.0005433096278294876
1197.0, 0.0035889695288872994
1198.0, 0.008506226419754806
1199.0, 0.0076914332919637545
1200.0, 0.007053287870358374
1201.0, 0.006083693212382625
1202.0, 0.003132054110498886
1203.0, 0.0018286586365892546
1204.0, 0.001873049723489531
1205.0, 0.000980231328138962
1206.0, 0.005812714382048537
1207.0, 0.007104578878159673
1208.0, 0.001247670390488678
1209.0, 0.003956814822474187
1210.0, 0.0033213150698910353
1211.0, 0.006694396330208333
1212.0, 0.005444286132159636
1213.0, 0.0040321705279814605
1214.0, 0.006140809511214672
1215.0, 0.0056337742898021305
1216.0, 0.0034397716444969735
1217.0, 0.0038510517357462385
1218.0, 0.0031988494049019966
1219.0, 0.002400555973293268
1220.0, 0.002982964092529274
1221.0, 0.004010639210173957
1222.0, 0.0050275955275405244
1223.0, 0.0032228710348709486
1224.0, 0.004513015337188773
1225.0, 0.00745390735998756
1226.0, 0.0023663240031771135
1227.0, 0.0015679580346026536
1228.0, 0.0024055887368217826
1229.0, 0.001890085772393884
1230.0, 0.004188565535434416
1231.0, 0.001329720839418315
1232.0, 0.0031491186084548267
1233.0, 0.0021254191957132467
1234.0, 0.004550283258126119
1235.0, 0.00470836427182179
1236.0, 0.0007083869772538091
1237.0, 0.0016665853770387352
1238.0, 0.0012211406763953862
1239.0, 0.0018060627341854151
1240.0, 0.0015116179960726675
1241.0, 0.003048114854398506
1242.0, 0.0007445302531788761
1243.0, 0.000851042302578794
1244.0, 0.006165804489418419
1245.0, 0.006303158687741683
1246.0, 0.004835594723955862
1247.0, 0.0034109053289061615
1248.0, 0.0024217371266374507
1249.0, 0.007965800162009002
1250.0, 0.0034015523787069386
1251.0, 0.003206312435009384
1252.0, 0.0011053087006608505
1253.0, 0.00947078165985955
1254.0, 0.01192058703626108
1255.0, 0.006150261412871681
1256.0, 0.00599261373132236
1257.0, 0.004221497317828901
1258.0, 0.005700283951789124
1259.0, 0.008496464928891678
1260.0, 0.005174400393438035
1261.0, 0.008945288620963639
1262.0, 0.014488393536987405
1263.0, 0.012635932502764284
1264.0, 0.009318136072741838
1265.0, 0.00818727629259834
1266.0, 0.002569211884222984
1267.0, 0.0038829323987325075
1268.0, 0.00750985188963681
1269.0, 0.009383902303286742
1270.0, 0.010768224587142217
1271.0, 0.008003892606936762
1272.0, 0.008061652956815123
1273.0, 0.008387323320248418
1274.0, 0.0047965751920225185
1275.0, 0.007488738027458006
1276.0, 0.012410549299579663
1277.0, 0.006328096113406471
1278.0, 0.0039585822458669115
1279.0, 0.006268764220084033
1280.0, 0.0069395846174895226
1281.0, 0.0059063834745160465
1282.0, 0.00592854944729892
1283.0, 0.004805296139543067
1284.0, 0.004007931988487769
1285.0, 0.004377460871190556
1286.0, 0.0022046922951599705
1287.0, 0.00023170847294202182
1288.0, 0.0009222281643332885
1289.0, 0.0020481807845531648
1290.0, 0.0037157428601829893
1291.0, 0.0008570982103340436
1292.0, 0.0024857454283995326
1293.0, 0.0015073959748587687
1294.0, 0.00438987687068587
1295.0, 0.005456927411275417
1296.0, 0.001392479608768153
1297.0, 0.0016963280192577698
1298.0, 0.002195583318181724
1299.0, 5.445214663791282e-05
1300.0, 0.0029483918351256464
1301.0, 0.004710552709872038
1302, 0.0
1303, 0.0
1304, 0.0
1305, 0.0
1306, 0.0
1307, 0.0
1308, 0.0
1309, 0.0
1310, 0.0
1311, 0.0
1312, 0.0
1313, 0.0
1314, 0.0
1315, 0.0
1316, 0.0
1317, 0.0
1318, 0.0
1319, 0.0
1320, 0.0
1321, 0.0
1322, 0.0
1323, 0.0
1324, 0.0
1325, 0.0
1326, 0.0
1327, 0.0
1328, 0.0
1329, 0.0
1330, 0.0
1331, 0.0
1332, 0.0
1333, 0.0
1334, 0.0
1335, 0.0
1336, 0.0
1337, 0.0
1338, 0.0
1339, 0.0
1340, 0.0
1341, 0.0
1342, 0.0
1343, 0.0
1344, 0.0
1345, 0.0
1346, 0.0
1347, 0.0
1348, 0.0
1349, 0.0
1350, 0.0
1351, 0.0
1352, 0.0
1353, 0.0
1354, 0.0
1355, 0.0
1356, 0.0
1357, 0.0
1358, 0.0
1359, 0.0
1360, 0.0
1361, 0.0
1362, 0.0
1363, 0.0
1364, 0.0
1365, 0.0
1366, 0.0
1367, 0.0
1368, 0.0
1369, 0.0
1370, 0.0
1371, 0.0
1372, 0.0
1373, 0.0
1374, 0.0
1375, 0.0
1376, 0.0
1377, 0.0
1378, 0.0
1379, 0.0
1380, 0.0
1381, 0.0
1382, 0.0
1383, 0.0
1384, 0.0
1385, 0.0
1386, 0.0
1387, 0.0
1388, 0.0
1389, 0.0
1390, 0.0
1391, 0.0
1392, 0.0
1393, 0.0
1394, 0.0
1395, 0.0
1396, 0.0
1397, 0.0
1398, 0.0
1399, 0.0
1400, 0.0
1401, 0.0
1402, 0.0
1403, 0.0
1404, 0.0
1405, 0.0
1406, 0.0
1407, 0.0
1408, 0.0
1409, 0.0
1410, 0.0
1411, 0.0
1412, 0.0
1413, 0.0
1414, 0.0
1415, 0.0
1416, 0.0
1417, 0.0
1418, 0.0
1419, 0.0
1420, 0.0
1421, 0.0
1422, 0.0
1423, 0.0
1424, 0.0
1425, 0.0
1426, 0.0
1427, 0.0
1428, 0.0
1429, 0.0
1430, 0.0
1431, 0.0
1432, 0.0
1433, 0.0
1434, 0.0
1435, 0.0
1436, 0.0
1437, 0.0
1438, 0.0
1439, 0.0
1440, 0.0
1441, 0.0
1442, 0.0
1443, 0.0
1444, 0.0
1445, 0.0
1446, 0.0
1447, 0.0
1448, 0.0
1449, 0.0
1450, 0.0
1451, 0.0
1452, 0.0
1453, 0.0
1454, 0.0
1455, 0.0
1456, 0.0
1457, 0.0
1458, 0.0
1459, 0.0
1460, 0.0
1461, 0.0
1462, 0.0
1463, 0.0
1464, 0.0
1465, 0.0
1466, 0.0
1467, 0.0
1468, 0.0
1469, 0.0
1470, 0.0
1471, 0.0
1472, 0.0
1473, 0.0
1474, 0.0
1475, 0.0
1476, 0.0
1477, 0.0
1478, 0.0
1479, 0.0
1480, 0.0
1481, 0.0
1482, 0.0
1483, 0.0
1484, 0.0
1485, 0.0
1486, 0.0
1487, 0.0
1488, 0.0
1489, 0.0
1490, 0.0
1491, 0.0
1492, 0.0
1493, 0.0
1494, 0.0
1495, 0.0
1496, 0.0
1497, 0.0
1498, 0.0
1499, 0.0
1500, 0.0
1501, 0.0
1502, 0.0
1503, 0.0
1504, 0.0
1505, 0.0
1506, 0.0
1507, 0.0
1508, 0.0
1509, 0.0
1510, 0.0
1511, 0.0
1512, 0.0
1513, 0.0
1514, 0.0
1515, 0.0
1516, 0.0
1517, 0.0
1518, 0.0
1519, 0.0
1520, 0.0
1521, 0.0
1522, 0.0
1523, 0.0
1524, 0.0
1525, 0.0
1526, 0.0
1527, 0.0
1528, 0.0
1529, 0.0
1530, 0.0
1531, 0.0
1532, 0.0
1533, 0.0
1534, 0.0
1535, 0.0
1536, 0.0
1537, 0.0
1538, 0.0
1539, 0.0
1540, 0.0
1541, 0.0
1542, 0.0
1543, 0.0
1544, 0.0
1545, 0.0
1546, 0.0
1547, 0.0
1548, 0.0
1549, 0.0
1550, 0.0
1551, 0.0
1552, 0.0
1553, 0.0
1554, 0.0
1555, 0.0
1556, 0.0
1557, 0.0
1558, 0.0
1559, 0.0
1560, 0.0
1561, 0.0
1562, 0.0
1563, 0.0
1564, 0.0
1565, 0.0
1566, 0.0
1567, 0.0
1568, 0.0
1569, 0.0
1570, 0.0
1571, 0.0
1572, 0.0
1573, 0.0
1574, 0.0
1575, 0.0
1576, 0.0
1577, 0.0
1578, 0.0
1579, 0.0
1580, 0.0
1581, 0.0
1582, 0.0
1583, 0.0
1584, 0.0
1585, 0.0
1586, 0.0
1587, 0.0
1588, 0.0
1589, 0.0
1590, 0.0
1591, 0.0
1592, 0.0
1593, 0.0
1594, 0.0
1595, 0.0
1596, 0.0
1597, 0.0
1598, 0.0
1599, 0.0
