30, 0.0
31, 0.0
32, 0.0
33, 0.0
34, 0.0
35, 0.0
36, 0.0
37, 0.0
38, 0.0
39, 0.0
40, 0.0
41, 0.0
42, 0.0
43, 0.0
44, 0.0
45, 0.0
46, 0.0
47, 0.0
48, 0.0
49, 0.0
50, 0.0
51, 0.0
52, 0.0
53, 0.0
54, 0.0
55, 0.0
56, 0.0
57, 0.0
58, 0.0
59, 0.0
60, 0.0
61, 0.0
62, 0.0
63, 0.0
64, 0.0
65, 0.0
66, 0.0
67, 0.0
68, 0.0
69, 0.0
70, 0.0
71, 0.0
72, 0.0
73, 0.0
74, 0.0
75, 0.0
76, 0.0
77, 0.0
78, 0.0
79, 0.0
80, 0.0
81, 0.0
82, 0.0
83, 0.0
84, 0.0
85, 0.0
86, 0.0
87, 0.0
88, 0.0
89, 0.0
90, 0.0
91, 0.0
92, 0.0
93, 0.0
94, 0.0
95, 0.0
96, 0.0
97, 0.0
98, 0.0
99, 0.0
100, 0.0
101, 0.0
102, 0.0
103, 0.0
104, 0.0
105, 0.0
106, 0.0
107, 0.0
108, 0.0
109, 0.0
110, 0.0
111, 0.0
112, 0.0
113, 0.0
114, 0.0
115, 0.0
116, 0.0
117, 0.0
118, 0.0
119, 0.0
120, 0.0
121, 0.0
122, 0.0
123, 0.0
124, 0.0
125, 0.0
126, 0.0
127, 0.0
128, 0.0
129, 0.0
130, 0.0
131, 0.0
132, 0.0
133, 0.0
134, 0.0
135, 0.0
136, 0.0
137, 0.0
138, 0.0
139, 0.0
140, 0.0
141, 0.0
142, 0.0
143, 0.0
144, 0.0
145, 0.0
146.0, 0.0003174012752249868
147.0, 0.008475192638333129
148.0, 0.020820364748217066
149.0, 0.032544768099471696
150.0, 0.04731422749617412
151.0, 0.0549975478156744
152.0, 0.05107375531558616
153.0, 0.04363525825541546
154.0, 0.04453007183008443
155.0, 0.04433800545959431
156.0, 0.03898552134770282
157.0, 0.035592815031529446
158.0, 0.039233047281356154
159.0, 0.037614308587868156
160.0, 0.041463783986562634
161.0, 0.04496678906075056
162.0, 0.043793829991959604
163.0, 0.049966040842922506
164.0, 0.05210601798550256
165.0, 0.04924439566652642
166.0, 0.04364487027934472
167.0, 0.037532478582855675
168.0, 0.03181218221861531
169.0, 0.03311241381459005
170.0, 0.03094705130529698
171.0, 0.027142230384681557
172.0, 0.02637611691939961
173.0, 0.022721405571397426
174.0, 0.01622045227946032
175.0, 0.014573629634418585
176.0, 0.02115223141280181
177.0, 0.022653638142509272
178.0, 0.020668190564360447
179.0, 0.023487357622758484
180.0, 0.027661442783752606
181.0, 0.021835484397817722
182.0, 0.021285926071042655
183.0, 0.020748195352202622
184.0, 0.01689090467410589
185.0, 0.010219275440601127
186.0, 0.011975117846817927
187.0, 0.010630014598757075
188.0, 0.007328870182065693
189.0, 0.00398255302202972
190.0, 0.0006886571895794425
191.0, 0.0024796181509868713
192.0, 0.006800312400316011
193.0, 0.006792405597402737
194.0, 0.0008201747026489532
195.0, 0.003954004574108522
196.0, 0.004195395908591309
197.0, 0.002658756462121851
198.0, 0.003211896712235032
199.0, 0.004972377470661835
200.0, 0.00030969787683684613
201.0, 0.0012658109171574208
202.0, 0.001350704981725717
203.0, 0.006331607935224282
204.0, 0.015927313228963767
205.0, 0.025109475977269414
206.0, 0.03004152081795388
207.0, 0.0319514119854396
208.0, 0.034925916542587254
209.0, 0.0461677787869515
210.0, 0.05511945136546849
211.0, 0.061308701701998064
212.0, 0.06765398593728911
213.0, 0.07895010356917734
214.0, 0.07576541889934757
215.0, 0.08063363261564856
216.0, 0.08933468789916425
217.0, 0.08991517729660602
218.0, 0.08710757936675013
219.0, 0.08175631310850076
220.0, 0.07310529382360771
221.0, 0.06495889653850068
222.0, 0.06119117398029767
223.0, 0.054354556118607504
224.0, 0.04328164135566661
225.0, 0.03657530317716686
226.0, 0.031287446168054255
227.0, 0.018241916570828316
228.0, 0.019961807304424668
229.0, 0.013801932438639865
230.0, 0.007130982631606719
231.0, 0.006543657165557777
232.0, 0.001025568657097617
233.0, 0.001971333535965629
234.0, 0.003673178743180506
235.0, 0.0020015877752617996
236.0, 0.0006464708756465336
237.0, 0.004090265212534965
238.0, 0.004559002282357517
239.0, 0.00713384557354348
240.0, 0.01321898245111376
241.0, 0.017330582428545925
242.0, 0.021841004038381597
243.0, 0.017101881021751964
244.0, 0.015751853237267896
245.0, 0.02555922383926926
246.0, 0.024893148723375596
247.0, 0.027248801835237747
248.0, 0.02495583770982629
249.0, 0.02225615824709751
250.0, 0.02652801508983275
251.0, 0.02960039517602906
252.0, 0.029243477038828014
253.0, 0.025578328879440348
254.0, 0.02260851219458029
255.0, 0.022124520943679907
256.0, 0.018036276423473073
257.0, 0.016217236120739328
258.0, 0.013932607000970232
259.0, 0.011365451262985958
260.0, 0.011425479994075685
261.0, 0.0030899536869996437
262.0, 0.0012207693330419742
263.0, 0.0014371594321480215
264.0, 0.00024072111198669357
265.0, 0.002597068075369985
266.0, 0.0030288710470170593
267.0, 0.00472727095983087
268.0, 0.0012780030101430132
269.0, 0.004162751293761727
270.0, 0.006565557505620629
271.0, 0.00917520796740488
272.0, 0.01361389792900001
273.0, 0.0183528063182546
274.0, 0.024313088926011108
275.0, 0.03881075476605737
276.0, 0.04443087883036286
277.0, 0.04617556379090697
278.0, 0.052266792947177565
279.0, 0.06346831510976814
280.0, 0.06558532032166112
281.0, 0.07825245977480806
282.0, 0.08897378507425964
283.0, 0.09222709063254969
284.0, 0.09434793590005061
285.0, 0.09662340568826469
286.0, 0.09430010394347434
287.0, 0.0970419893179696
288.0, 0.10291409070224108
289.0, 0.10053772965398843
290.0, 0.10752763230655349
291.0, 0.11063812383676012
292.0, 0.1120292863003736
293.0, 0.1152597482474514
294.0, 0.11646172285135442
295.0, 0.11046167107905831
296.0, 0.11119221692963387
297.0, 0.1144389544022243
298.0, 0.11359229868989139
299.0, 0.1065111770708557
300.0, 0.09264942997773042
301.0, 0.0781340999445933
302.0, 0.06897483753022865
303.0, 0.062492059618333984
304.0, 0.048490742422677424
305.0, 0.0316769005270434
306.0, 0.023227302327770233
307.0, 0.018047062906241557
308.0, 0.011518009535261086
309.0, 0.009311569940746195
310.0, 0.006335882388473003
311.0, 0.008440768860703536
312.0, 0.008646161697726654
313.0, 0.0029144289275975788
314.0, 0.0031102244667155104
315.0, 0.007567457915038427
316.0, 0.01008437385202441
317.0, 0.014101318983616568
318.0, 0.020618197677530353
319.0, 0.022187573241966997
320.0, 0.019935736715554587
321.0, 0.023144596989282503
322.0, 0.02859170674471041
323.0, 0.029610188380091704
324.0, 0.024178428214438004
325.0, 0.026755254603268334
326.0, 0.023523751457871372
327.0, 0.01586932916198593
328.0, 0.012519755717590744
329.0, 0.01472794564560887
330.0, 0.012366487015936118
331.0, 0.014394833132465187
332.0, 0.01944067049378911
333.0, 0.021832770826046365
334.0, 0.021600751474992262
335.0, 0.026882889770304244
336.0, 0.02908014594819777
337.0, 0.03245135825710506
338.0, 0.04012592999845359
339.0, 0.04941624801251736
340.0, 0.05579763171456315
341.0, 0.06318750028649042
342.0, 0.073097426790608
343.0, 0.08365284842149082
344.0, 0.09163644901301814
345.0, 0.09491711718298897
346.0, 0.10133558079530702
347.0, 0.1044216991795617
348.0, 0.10634622099076213
349.0, 0.11287569441009912
350.0, 0.10003573555554912
351.0, 0.09203599157132804
352.0, 0.08650157814621973
353.0, 0.07924273339731958
354.0, 0.07104300078187657
355.0, 0.0648265858928307
356.0, 0.05591767115079726
357.0, 0.04990679123981109
358.0, 0.04346211883270891
359.0, 0.03423049681711573
360.0, 0.03658067868407637
361.0, 0.030429721340666748
362.0, 0.02843588733748898
363.0, 0.02817046739772499
364.0, 0.02408141254809294
365.0, 0.025068069963266562
366.0, 0.02695188540034409
367.0, 0.024408863227702443
368.0, 0.02320297798697794
369.0, 0.02553755686320268
370.0, 0.024666100345950605
371.0, 0.029698021073434
372.0, 0.027587515427761236
373.0, 0.030831277756715115
374.0, 0.03732199993746985
375.0, 0.03182943715531955
376.0, 0.032152678973460996
377.0, 0.036375410263798404
378.0, 0.03436603279955763
379.0, 0.031983258862610414
380.0, 0.03938078503120236
381.0, 0.0376444684093929
382.0, 0.036507217449615506
383.0, 0.036714276783902745
384.0, 0.03582697365301303
385.0, 0.031750182807266984
386.0, 0.025176434898955623
387.0, 0.023487438341100512
388.0, 0.027690130765742844
389.0, 0.0241813992571394
390.0, 0.013054286354380069
391.0, 0.007356326500722069
392.0, 0.011955024807538114
393.0, 0.01343227399105628
394.0, 0.0068720577228952905
395.0, 0.0019218885205691631
396.0, 0.006572801308936206
397.0, 0.009856464294463498
398.0, 0.007893015569733096
399.0, 0.004887048963301758
400.0, 0.0032216503329471975
401.0, 0.0024644317339897327
402.0, 0.0013160299905394628
403.0, 0.00405152334290927
404.0, 0.007831778207134208
405.0, 0.007384131116076673
406.0, 0.009302135720173268
407.0, 0.018393025090671807
408.0, 0.017853329799463268
409.0, 0.017300651511279484
410.0, 0.01956593718484139
411.0, 0.023445164815011934
412.0, 0.025045411665365728
413.0, 0.016797013573830136
414.0, 0.020090700053633972
415.0, 0.023496540676553653
416.0, 0.02274569279450474
417.0, 0.02737605751051829
418.0, 0.04492555728430736
419.0, 0.04462023127599951
420.0, 0.04980101529501666
421.0, 0.05556026415787174
422.0, 0.058276296375366715
423.0, 0.06278423221047238
424.0, 0.07602419114319636
425.0, 0.07380577307845987
426.0, 0.07483210649273199
427.0, 0.07790868907571899
428.0, 0.07585295005962919
429.0, 0.06969627704262249
430.0, 0.07160190797829262
431.0, 0.06736967206506514
432.0, 0.062214939066327836
433.0, 0.06143146282308457
434.0, 0.06260413548511946
435.0, 0.058460987094814905
436.0, 0.05492512789146937
437.0, 0.04697033920299736
438.0, 0.040725066068812585
439.0, 0.038605222917310555
440.0, 0.0336578300077263
441.0, 0.03432418568452752
442.0, 0.036514144971559075
443.0, 0.035782709913875256
444.0, 0.035190007291837196
445.0, 0.03905550807948598
446.0, 0.03967930488017649
447.0, 0.04018286559484531
448.0, 0.040095247684340196
449.0, 0.03681589979120108
450.0, 0.032914265665453614
451.0, 0.033028942358608815
452.0, 0.0298255325170112
453.0, 0.02631229817393099
454.0, 0.02185687651667919
455.0, 0.016513905768988032
456.0, 0.012105393562986642
457.0, 0.011836292632212234
458.0, 0.008394043792139223
459.0, 0.006340527697821549
460.0, 0.0028397679490423334
461.0, 0.0005182523375486193
462.0, 0.0029867406635254224
463.0, 0.003317606846286392
464.0, 0.0009076016789258969
465.0, 0.0016051615112987175
466.0, 0.0035575173110428977
467.0, 0.0038909402944605656
468.0, 0.002750675014490181
469.0, 0.0024978092179743392
470.0, 0.004473935808116701
471.0, 0.0032058424045594692
472.0, 0.0019955859223221135
473.0, 0.0026846610210924274
474.0, 0.0022558974840321488
475.0, 0.006491408156177376
476.0, 0.00438246899143612
477.0, 0.0017062557324442063
478.0, 0.0008106358506817109
479.0, 0.0015344910113301133
480.0, 0.007955807426352398
481.0, 0.008609602703920291
482.0, 0.008105888342698594
483.0, 0.009869972642508027
484.0, 0.01294951072116268
485.0, 0.015096824664207512
486.0, 0.016371889547804566
487.0, 0.01542349261346818
488.0, 0.01957633164490971
489.0, 0.02278432669550092
490.0, 0.01992711668991555
491.0, 0.017690414035378483
492.0, 0.023069056521815685
493.0, 0.020506624246815576
494.0, 0.018639116254906055
495.0, 0.017659405614502684
496.0, 0.016317586164278648
497.0, 0.020390129648039552
498.0, 0.0183635597831053
499.0, 0.019624338570524247
500.0, 0.01778808780903006
501.0, 0.01395800137142255
502.0, 0.014438709857593683
503.0, 0.01865351521409648
504.0, 0.02152457135146651
505.0, 0.01944499823201869
506.0, 0.02142799348601961
507.0, 0.02517597793555242
508.0, 0.024910130575647678
509.0, 0.021454707570698436
510.0, 0.02118738818486738
511.0, 0.022933099937485407
512.0, 0.02732838383814764
513.0, 0.030210604864934584
514.0, 0.02981185757600571
515.0, 0.03246933117228092
516.0, 0.03452589642260103
517.0, 0.035497131005951525
518.0, 0.03742605189720356
519.0, 0.03845650073965422
520.0, 0.0365473942771858
521.0, 0.0346956376998847
522.0, 0.037528071793149105
523.0, 0.035584988957962485
524.0, 0.03340109085692092
525.0, 0.03306178648010307
526.0, 0.035510995946910213
527.0, 0.04016560705058218
528.0, 0.03518760784453065
529.0, 0.03882664695563019
530.0, 0.03716729770808805
531.0, 0.034704674296124394
532.0, 0.037884290992819286
533.0, 0.03653043887862696
534.0, 0.033499772457198075
535.0, 0.030417999208064758
536.0, 0.029320212695632737
537.0, 0.03143728183842758
538.0, 0.034434678384711793
539.0, 0.03267257732605296
540.0, 0.03545343702716244
541.0, 0.0348124613119178
542.0, 0.03427631045095738
543.0, 0.03485942035880713
544.0, 0.032961713039054145
545.0, 0.026156600286022794
546.0, 0.021482934696245223
547.0, 0.013542810844066899
548.0, 0.010717904560401953
549.0, 0.010506026056223366
550.0, 0.010257137551385338
551.0, 0.011939373243645232
552.0, 0.01234221480289544
553.0, 0.014013855248476021
554.0, 0.012835962946472292
555.0, 0.009672004884414472
556.0, 0.0081864424156129
557.0, 0.00942111570787293
558.0, 0.008649398864449062
559.0, 0.003949782191996029
560.0, 0.004002446839547251
561.0, 0.002915154429454229
562.0, 0.0004089578866747738
563.0, 0.00010305748448217436
564.0, 0.002968106175458787
565.0, 0.0009977921775325403
566.0, 0.0014133611856026258
567.0, 0.0006418670055975054
568.0, 0.002838597297780111
569.0, 0.0056134503201174905
570.0, 0.004268545624483726
571.0, 0.0067015540079689365
572.0, 0.004301529000087406
573.0, 0.004472304938342232
574.0, 0.003774989845866365
575.0, 0.0017827532330100806
576.0, 0.0034222344376173856
577.0, 0.00037961827302487275
578.0, 0.0027284097050960026
579.0, 0.0012959843042955322
580.0, 0.0031121456875417347
581.0, 0.00743338996804604
582.0, 0.0032629525374827206
583.0, 0.002739255200383206
584.0, 0.0026338394139757684
585.0, 0.004710943102453715
586.0, 0.002693865150858086
587.0, 0.00314835377738299
588.0, 0.00732806457368422
589.0, 0.0014718425110884278
590.0, 0.0027792410305210575
591.0, 0.009289566434670516
592.0, 0.008284411298188726
593.0, 0.00813055940565101
594.0, 0.012075730889934565
595.0, 0.014785905898221628
596.0, 0.023090046213413106
597.0, 0.02767937833202286
598.0, 0.028163416461694124
599.0, 0.03213232096689811
600.0, 0.034686263765772815
601.0, 0.03456595846439602
602.0, 0.039942995267874384
603.0, 0.04188597362461004
604.0, 0.04373143009631687
605.0, 0.044809922546048334
606.0, 0.045033662438277736
607.0, 0.045329519941350906
608.0, 0.046582306094580236
609.0, 0.04814550268559371
610.0, 0.04748412260082229
611.0, 0.04511682478904829
612.0, 0.04819585245307431
613.0, 0.05138208106269003
614.0, 0.05160487674423912
615.0, 0.053165526984655834
616.0, 0.05675123477934542
617.0, 0.062293082670593095
618.0, 0.05799249450088666
619.0, 0.06031096987530347
620.0, 0.0684954064924134
621.0, 0.07471969203638291
622.0, 0.08011077897113913
623.0, 0.0873173279802903
624.0, 0.09403108549464166
625.0, 0.10182702244341348
626.0, 0.11161061505182943
627.0, 0.11985335100688213
628.0, 0.12695221147150354
629.0, 0.13868285596340832
630.0, 0.1489899165548017
631.0, 0.16879378250748536
632.0, 0.18906752079682526
633.0, 0.21004222009274218
634.0, 0.23151791977712527
635.0, 0.2513042602337323
636.0, 0.27840565899001196
637.0, 0.3118417108582423
638.0, 0.3482449566937181
639.0, 0.390193425142518
640.0, 0.43427224179925383
641.0, 0.4789219085639568
642.0, 0.5296532777270688
643.0, 0.5880501354747026
644.0, 0.6457989767697486
645.0, 0.7007060020866015
646.0, 0.7568862143930647
647.0, 0.8161316931302549
648.0, 0.873842031347281
649.0, 0.9201504146696501
650.0, 0.9519965874570067
651.0, 0.9766667088736303
652.0, 0.9969757640175528
653.0, 0.9936885582671297
654.0, 0.9725984747569811
655.0, 0.9381510744087306
656.0, 0.8806825772968533
657.0, 0.8201635337659355
658.0, 0.768566344521851
659.0, 0.7052826305448195
660.0, 0.6392797857550746
661.0, 0.580625235419111
662.0, 0.5303664482458824
663.0, 0.4834889785709637
664.0, 0.4357465993843156
665.0, 0.39979315582912756
666.0, 0.3682771101207324
667.0, 0.34252130703421046
668.0, 0.32455853549251334
669.0, 0.30883539072026395
670.0, 0.2914008573698963
671.0, 0.2777993546492725
672.0, 0.2653808656972404
673.0, 0.2580691092801966
674.0, 0.25629038472376736
675.0, 0.25686635575189953
676.0, 0.25584696326380535
677.0, 0.2535730574112288
678.0, 0.2564577773644315
679.0, 0.26363154775179143
680.0, 0.26614737215439377
681.0, 0.26987969894443564
682.0, 0.2725778921850214
683.0, 0.27413360065695924
684.0, 0.2779494165170736
685.0, 0.27605397231772677
686.0, 0.2764603578552856
687.0, 0.26991948992485265
688.0, 0.2685611447122223
689.0, 0.25891038445880016
690.0, 0.24422120620644644
691.0, 0.2343931533371282
692.0, 0.21611224416890382
693.0, 0.19788827281092625
694.0, 0.18107794505746055
695.0, 0.15989237452252136
696.0, 0.1402728700126065
697.0, 0.12137807497697216
698.0, 0.10403348356767515
699.0, 0.0951844474180075
700.0, 0.08914164515992135
701.0, 0.07701330468555978
702.0, 0.07050684515983192
703.0, 0.06547873164956362
704.0, 0.060228342710716996
705.0, 0.05951602316370579
706.0, 0.0625534390743839
707.0, 0.06117470082609265
708.0, 0.06617508152575863
709.0, 0.06846225101820212
710.0, 0.06597791419558867
711.0, 0.06459499519501016
712.0, 0.06562095606010078
713.0, 0.0667055439817383
714.0, 0.06757931701409921
715.0, 0.06704385150329241
716.0, 0.06598006823829143
717.0, 0.06092128972294687
718.0, 0.05523183940443508
719.0, 0.04943514986993685
720.0, 0.043349822099104596
721.0, 0.038142023755801426
722.0, 0.033228442348203185
723.0, 0.02837881383472105
724.0, 0.025533098465413746
725.0, 0.018259402055839286
726.0, 0.010868524998783897
727.0, 0.00786360209073235
728.0, 0.005921768826877441
729.0, 0.001503228012385375
730.0, 0.0015912189830826695
731.0, 0.0006496203397078526
732.0, 0.003633986388096452
733.0, 0.002867995623845401
734.0, 0.0008989696922196439
735.0, 0.001009203021369426
736.0, 0.002640386222062755
737.0, 0.004549765696303023
738.0, 0.00339045405015541
739.0, 0.0010746466753971534
740.0, 0.0016119804770107402
741.0, 0.003842534391600855
742.0, 0.004843870026052918
743.0, 0.003918608514995712
744.0, 0.002886029610689022
745.0, 0.0037874108677732805
746.0, 0.00957531780324377
747.0, 0.006950091582055344
748.0, 0.0053014251687687015
749.0, 0.0012714382690485083
750.0, 0.001515070287675701
751.0, 0.0024719957145595823
752.0, 0.0026207773143023553
753.0, 0.0034412336509573077
754.0, 0.0026449645269987134
755.0, 0.0022165618907656606
756.0, 0.0003122335649168004
757.0, 0.0017842526826817916
758.0, 0.004637148909702845
759.0, 0.004282816477816717
760.0, 0.005971212675242213
761.0, 0.010972016531455374
762.0, 0.007922256452793515
763.0, 0.010813125978510148
764.0, 0.012564182495994591
765.0, 0.014283121410215123
766.0, 0.014342311873603795
767.0, 0.014023689960327887
768.0, 0.016490387125354625
769.0, 0.01323880028742123
770.0, 0.013604934467779469
771.0, 0.013995866983191468
772.0, 0.010604628933950326
773.0, 0.010456425047735548
774.0, 0.011855394347999143
775.0, 0.011686889711706278
776.0, 0.01047043667378471
777.0, 0.007719949997561237
778.0, 0.0033865355311440345
779.0, 0.005023017651337498
780.0, 0.00607607565995321
781.0, 0.005190882614476337
782.0, 0.005163647038255096
783.0, 0.006333874270576081
784.0, 0.005786614224978581
785.0, 0.004780744134543436
786.0, 0.010988269290455004
787.0, 0.00912682397846886
788.0, 0.004749536340430993
789.0, 0.005640523434569885
790.0, 0.006195352839875799
791.0, 0.008465252582919101
792.0, 0.011023024578504775
793.0, 0.0065766331891377715
794.0, 0.006377613687781314
795.0, 0.006659167834625049
796.0, 0.007116456615227439
797.0, 0.009272126204234591
798.0, 0.005298383664485552
799.0, 0.0032372840212502962
800.0, 0.005404445825211969
801.0, 0.0044117401933140695
802.0, 0.00300821636829024
803.0, 0.0032093922103576217
804.0, 0.0011384411921901176
805.0, 0.0041358435322379926
806.0, 0.0031768383573811715
807.0, 0.002726624578843576
808.0, 0.004453719273236897
809.0, 0.004405581978065119
810.0, 0.0035556046106788143
811.0, 0.005993915473907088
812.0, 0.005803679479129897
813.0, 0.0041453216076729376
814.0, 0.0026150287272743433
815.0, 0.003117318571637052
816.0, 0.0055993940112759105
817.0, 0.005739475045699826
818.0, 0.005294175969018038
819.0, 0.007873380111770713
820.0, 0.0045294795321029445
821.0, 0.0015891264652729015
822.0, 0.00589056105283226
823.0, 0.004668877604877087
824.0, 0.003349919042030761
825.0, 0.00434766531607568
826.0, 0.007627518088057049
827.0, 0.009774283492048483
828.0, 0.004608628611973049
829.0, 0.006313464666259684
830.0, 0.003245222208480468
831.0, 0.0062982745632844525
832.0, 0.005912340802030553
833.0, 0.005773552819155963
834.0, 0.006755155323170857
835.0, 0.007756946680778434
836.0, 0.008599119397242394
837.0, 0.0071077879640614626
838.0, 0.0022472096224901016
839.0, 0.0024426167024429036
840.0, 0.002564779235802646
841.0, 0.003782931930000216
842.0, 0.0053875634187528845
843.0, 0.004468699612928747
844.0, 0.005065937957166346
845.0, 0.008110927751365585
846.0, 0.006605435089869372
847.0, 0.004255287813044861
848.0, 0.0025968140163386763
849.0, 0.005285978078830401
850.0, 0.003126232180103895
851.0, 0.001017202980200704
852.0, 0.003660230921009092
853.0, 0.004807154781823759
854.0, 0.003655667776040637
855.0, 0.005452138298625527
856.0, 0.0045665328239972965
857.0, 0.0043503873826745984
858.0, 0.002955427402955539
859.0, 0.005118091775221113
860.0, 0.0038561692867411035
861.0, 0.0010528040902806558
862.0, 0.00041410849231901753
863.0, 0.0007420458216438606
864.0, 0.0013011798637238628
865.0, 0.0026805055862119693
866.0, 0.0008295582684354946
867.0, 0.002367454268429922
868.0, 0.0005948623488800549
869.0, 0.0020315541354184205
870.0, 0.0026829418129754785
871.0, 0.002480178251898968
872.0, 0.0003106435385781402
873.0, 0.001794087076111282
874.0, 0.0005607024135120508
875.0, 0.0009539708616427718
876.0, 0.00041960738070492544
877.0, 0.0023970036966161354
878.0, 0.0032063375710888737
879.0, 0.0009087307388639074
880.0, 0.00024093787745453914
881.0, 0.0007241790731282876
882.0, 0.0013163238312341855
883.0, 0.0029549103600696445
884.0, 0.0011233611184986263
885.0, 0.0017402740787648373
886.0, 0.0030857830964647
887.0, 0.0038703554506611315
888.0, 0.0018901737664280545
889.0, 0.005049932467019703
890.0, 0.006317423686370448
891.0, 0.003687704717998739
892.0, 0.0012648048473548308
893.0, 0.001586540105112137
894.0, 0.004363842560315024
895.0, 0.005739705449489335
896.0, 0.004252812105855796
897.0, 0.003443731398633037
898.0, 0.0031592812589944525
899.0, 0.0018757966567629885
900.0, 0.002672773041572771
901.0, 0.0050135282187504775
902.0, 0.005474194311819422
903.0, 0.003729683617964901
904.0, 0.0031856207859942655
905.0, 0.006090894763308524
906.0, 0.007989523694336016
907.0, 0.009585558610365474
908.0, 0.009374973797367772
909.0, 0.010544073536636311
910.0, 0.013241761636379589
911.0, 0.01872190897317064
912.0, 0.023181486313322744
913.0, 0.023426731286289065
914.0, 0.024627443565209114
915.0, 0.03228601634469637
916.0, 0.03175839925639385
917.0, 0.03763507732113638
918.0, 0.04478558374629866
919.0, 0.051965084501561114
920.0, 0.05538992553766969
921.0, 0.060891669111209995
922.0, 0.07026675512063488
923.0, 0.08119027095634833
924.0, 0.091505024052018
925.0, 0.09933009045376281
926.0, 0.1074689858366938
927.0, 0.12314930444862039
928.0, 0.13493133928489023
929.0, 0.13755387366249305
930.0, 0.1492443616080486
931.0, 0.1572056391177181
932.0, 0.15576999422227963
933.0, 0.15116714157406155
934.0, 0.1452319749920888
935.0, 0.13579270622301023
936.0, 0.12354838639388181
937.0, 0.11319354852069209
938.0, 0.09762838696328302
939.0, 0.08531219209825916
940.0, 0.0756449113064912
941.0, 0.06446800783968026
942.0, 0.05263984301956716
943.0, 0.041876267087816874
944.0, 0.033551546193459625
945.0, 0.028299154735259412
946.0, 0.022250144133460468
947.0, 0.013271150887087885
948.0, 0.013387811890129142
949.0, 0.009121021735358475
950.0, 0.005916889523668381
951.0, 0.0055953781808379885
952.0, 0.005834960105532837
953.0, 0.003950779883304377
954.0, 0.0014143515007150596
955.0, 0.001288174428721569
956.0, 0.0024154271195009525
957.0, 0.00016466984008091357
958.0, 0.0008185835547637643
959.0, 0.0004846677608865146
960.0, 0.0012594452494579787
961.0, 0.002040810793278628
962.0, 0.0008002729330652489
963.0, 0.005560405587320826
964.0, 0.004862613726143229
965.0, 0.0031107498829422786
966.0, 0.0011966250804732606
967.0, 0.0012163005558305262
968.0, 0.002616312025110877
969.0, 0.000513030350199957
970.0, 0.003216900723162752
971.0, 0.003556197441055329
972.0, 0.0010012672907217944
973.0, 0.005576027502702287
974.0, 0.00623922243998043
975.0, 0.0068444414418736225
976.0, 0.013255092007093612
977.0, 0.01391408013379927
978.0, 0.015471451992001712
979.0, 0.01819162877835924
980.0, 0.016646321692556434
981.0, 0.020677276972352113
982.0, 0.024172553652948042
983.0, 0.02161261505484497
984.0, 0.024143634692589407
985.0, 0.023934706663453348
986.0, 0.020457097344232424
987.0, 0.024400553870095452
988.0, 0.02504029155077575
989.0, 0.023727164472921246
990.0, 0.024949820712350596
991.0, 0.026775210437743058
992.0, 0.028936834611752234
993.0, 0.03197641854656326
994.0, 0.034294594049451864
995.0, 0.03873588492021758
996.0, 0.04006641134067546
997.0, 0.04523133093811087
998.0, 0.04842629801787933
999.0, 0.04854434744566697
1000.0, 0.05086635092398221
1001.0, 0.054266612064098066
1002.0, 0.06012309751692324
1003.0, 0.06723610550000252
1004.0, 0.07245380310328037
1005.0, 0.08007121649314793
1006.0, 0.09288985502255923
1007.0, 0.10347957574419611
1008.0, 0.11513587137543324
1009.0, 0.13162491728627213
1010.0, 0.13905418476985643
1011.0, 0.15655833727080018
1012.0, 0.16650289185388842
1013.0, 0.1735159040931143
1014.0, 0.18244580896661028
1015.0, 0.18682587415055188
1016.0, 0.18973231143967376
1017.0, 0.19407060182392105
1018.0, 0.19651536053027713
1019.0, 0.20226152828951544
1020.0, 0.21242243461913923
1021.0, 0.2219424434202517
1022.0, 0.23604799255981837
1023.0, 0.25400801300755455
1024.0, 0.2689360555152737
1025.0, 0.2851278723115886
1026.0, 0.3036777195135186
1027.0, 0.3250913419808876
1028.0, 0.3363420531968371
1029.0, 0.34616921694110914
1030.0, 0.3538740914095605
1031.0, 0.35351337803887595
1032.0, 0.35092106074936996
1033.0, 0.3311616704910101
1034.0, 0.3159307042461857
1035.0, 0.2955494061007876
1036.0, 0.26974432676581833
1037.0, 0.2475638767318695
1038.0, 0.23167256707790634
1039.0, 0.21496791623385766
1040.0, 0.2041118849680017
1041.0, 0.1955941126664272
1042.0, 0.19622405419188566
1043.0, 0.19564619892223545
1044.0, 0.19692006550155888
1045.0, 0.20662394467109102
1046.0, 0.20753904431627423
1047.0, 0.2191176460457375
1048.0, 0.22181693870341632
1049.0, 0.22914615414645595
1050.0, 0.2267881715925953
1051.0, 0.2249227018908392
1052.0, 0.21886312705236227
1053.0, 0.20868577263589064
1054.0, 0.19583517451679244
1055.0, 0.18531799310802405
1056.0, 0.175344436172661
1057.0, 0.16225579336918322
1058.0, 0.15298893748451267
1059.0, 0.1452473176644213
1060.0, 0.13585738287204913
1061.0, 0.1353922650777717
1062.0, 0.1319603528513724
1063.0, 0.12504207068914824
1064.0, 0.12635732773560743
1065.0, 0.12302833809830628
1066.0, 0.11691661510679625
1067.0, 0.11948808371325255
1068.0, 0.11323780436775577
1069.0, 0.10639192434779245
1070.0, 0.09929291841049097
1071.0, 0.0926635020829868
1072.0, 0.08376585722085826
1073.0, 0.0761794079177696
1074.0, 0.06764029363432172
1075.0, 0.0579370243725946
1076.0, 0.055907677170822415
1077.0, 0.04720028427453019
1078.0, 0.04498280495738487
1079.0, 0.04051768657650744
1080.0, 0.036004851618444016
1081.0, 0.02922892679322994
1082.0, 0.026229943829382086
1083.0, 0.024432603030507805
1084.0, 0.022654804482132338
1085.0, 0.021771386716214314
1086.0, 0.021093678500126344
1087.0, 0.020494868171005407
1088.0, 0.019737038432328727
1089.0, 0.018810571517175138
1090.0, 0.01817270086655648
1091.0, 0.016902518246900172
1092.0, 0.015251344830320214
1093.0, 0.017024943894050352
1094.0, 0.013753592418464135
1095.0, 0.01217206606778224
1096.0, 0.01066656420107819
1097.0, 0.007782772784553526
1098.0, 0.003063609513260194
1099.0, 0.0024418291304365916
1100.0, 0.0019116145167525505
1101.0, 0.0034045792266043868
1102.0, 0.0033885362665709113
1103.0, 0.0027795003604982613
1104.0, 0.00119422451322319
1105.0, 0.0001243985648660225
1106.0, 0.000406151628896459
1107.0, 0.00035200568012445823
1108.0, 0.0020274083476008943
1109.0, 0.0032376957627291464
1110.0, 0.00028201545128772853
1111.0, 0.0005515475686622543
1112.0, 0.0023981175465025498
1113.0, 0.002536670538812033
1114.0, 0.0018997344321576891
1115.0, 0.0024703852908535932
1116.0, 0.000765710560692913
1117.0, 0.003690211604330398
1118.0, 0.0033516350251677563
1119.0, 0.002394006075132245
1120.0, 0.0004956268548738725
1121.0, 0.001096640526510854
1122.0, 0.0030704194964508123
1123.0, 0.001488805572850089
1124.0, 0.0005191020436718342
1125.0, 0.0006040072745127422
1126.0, 0.0003879630581252581
1127.0, 0.0014874832292835329
1128.0, 0.0024177067685993386
1129.0, 0.0007340964934846535
1130.0, 0.0034158236484767225
1131.0, 0.00031222376064882884
1132.0, 0.0008846798972321957
1133.0, 0.0007643062453880537
1134.0, 0.0032929182330872784
1135.0, 0.0011398720352309175
1136.0, 0.00013248924081199216
1137.0, 0.00012869528763789144
1138.0, 0.0007858589737149171
1139.0, 0.0036269140894546613
1140.0, 0.004831222738966849
1141.0, 0.0032606573541229832
1142.0, 0.002719679780672466
1143.0, 0.00394691722217837
1144.0, 0.006229497628733034
1145.0, 0.0029979903162387026
1146.0, 0.0028070182620731324
1147.0, 0.004041756888346824
1148.0, 0.001188326099075762
1149.0, 0.0011979770502909216
1150.0, 0.003498645768633302
1151.0, 0.003558816215469273
1152.0, 0.005574816284245179
1153.0, 0.002626102384396283
1154.0, 0.00042588133858367626
1155.0, 0.002467867141460352
1156.0, 0.0047432051376023665
1157.0, 0.0030850258753968786
1158.0, 0.003916801561179536
1159.0, 0.0031893341497706263
1160.0, 0.0038983676287729207
1161.0, 0.0061549192680968945
1162.0, 0.005487666901529094
1163.0, 0.0036425348279497585
1164.0, 0.0035002454872429217
1165.0, 0.0036429431489217253
1166.0, 0.006760433561987126
1167.0, 0.010796876719250599
1168.0, 0.005389892701523352
1169.0, 0.004191859180373934
1170.0, 0.004653629496973933
1171.0, 0.005434804858535445
1172.0, 0.005240922762897127
1173.0, 0.007174701937797957
1174.0, 0.005161453356061619
1175.0, 0.008412433845936212
1176.0, 0.005872386338527199
1177.0, 0.006674609459718305
1178.0, 0.005588630394898187
1179.0, 0.00668375388225409
1180.0, 0.003013528436182981
1181.0, 0.003282607715790847
1182.0, 0.004135162584871033
1183.0, 0.005577232397436619
1184.0, 0.005001685187559227
1185.0, 0.00493887480373054
1186.0, 0.00697699302680367
1187.0, 0.006038244517367726
1188.0, 0.004701474319900587
1189.0, 0.004822493553326332
1190.0, 0.0037188660972773836
1191.0, 0.0023802391773000446
1192.0, 0.002882121242709627
1193.0, 0.0018924289765730991
1194.0, 0.002868351703238469
1195.0, 0.003778488016492651
1196.0, 0.002512695127311132
1197.0, 0.004168786711367229
1198.0, 0.004668670830179572
1199.0, 0.004372343531027974
1200.0, 0.0059378809997569625
1201.0, 0.006399168275204552
1202.0, 0.004590107165566316
1203.0, 0.004080459410216205
1204.0, 0.00330704712619244
1205.0, 0.0073991435609893404
1206.0, 0.0076612179782672265
1207.0, 0.005771977877444906
1208.0, 0.003809668065508476
1209.0, 0.0049754880676469845
1210.0, 0.004376334950270161
1211.0, 0.0011455655064366182
1212.0, 0.0023516359646328796
1213.0, 0.003570934196480038
1214.0, 0.0035868459594115814
1215.0, 0.003980288411751293
1216.0, 0.0037531095844995145
1217.0, 0.003674149800307407
1218.0, 0.005040739060350374
1219.0, 0.001479752512246549
1220.0, 0.000282053354921066
1221.0, 0.004058326179801269
1222.0, 0.004942523331123075
1223.0, 0.005796568667250736
1224.0, 0.004372616519803717
1225.0, 0.005526142491726244
1226.0, 0.002169268177248084
1227.0, 0.0017710432545991947
1228.0, 0.0010091950020767407
1229.0, 0.0037052798700637625
1230.0, 0.003359267493633363
1231.0, 0.001165066877206304
1232.0, 0.002754736876787568
1233.0, 0.004051695279871799
1234.0, 0.003790516835716279
1235.0, 0.003502392106960134
1236.0, 0.0031290377579909785
1237.0, 0.0016180312360828796
1238.0, 0.002232311433199115
1239.0, 0.002183570366295829
1240.0, 0.0031800790934651377
1241.0, 0.0031840701468922386
1242.0, 0.0016361961027778421
1243.0, 0.003818726165780493
1244.0, 0.004900257108900181
1245.0, 0.004060445576612074
1246.0, 0.003939482225932111
1247.0, 0.004828602673461829
1248.0, 0.004702368242731102
1249.0, 0.003557816594710065
1250.0, 0.0009703734125428061
1251.0, 0.002689544566667549
1252.0, 0.0026559338490785922
1253.0, 0.0025944766763999353
1254.0, 0.004749502332067225
1255.0, 0.005703260394109627
1256.0, 0.0045657576810555905
1257.0, 0.0009734983431513173
1258.0, 0.0005144833481754578
1259.0, 0.0008535847372517933
1260.0, 0.0022466079666793952
1261.0, 0.0005263084559269797
1262.0, 0.0035887377744693296
1263.0, 0.0007622790193312999
1264.0, 0.001375916370933741
1265.0, 0.0033015763599362844
1266.0, 0.002979427976225722
1267, 0.0
1268, 0.0
1269, 0.0
1270, 0.0
1271, 0.0
1272, 0.0
1273, 0.0
1274, 0.0
1275, 0.0
1276, 0.0
1277, 0.0
1278, 0.0
1279, 0.0
1280, 0.0
1281, 0.0
1282, 0.0
1283, 0.0
1284, 0.0
1285, 0.0
1286, 0.0
1287, 0.0
1288, 0.0
1289, 0.0
1290, 0.0
1291, 0.0
1292, 0.0
1293, 0.0
1294, 0.0
1295, 0.0
1296, 0.0
1297, 0.0
1298, 0.0
1299, 0.0
1300, 0.0
1301, 0.0
1302, 0.0
1303, 0.0
1304, 0.0
1305, 0.0
1306, 0.0
1307, 0.0
1308, 0.0
1309, 0.0
1310, 0.0
1311, 0.0
1312, 0.0
1313, 0.0
1314, 0.0
1315, 0.0
1316, 0.0
1317, 0.0
1318, 0.0
1319, 0.0
1320, 0.0
1321, 0.0
1322, 0.0
1323, 0.0
1324, 0.0
1325, 0.0
1326, 0.0
1327, 0.0
1328, 0.0
1329, 0.0
1330, 0.0
1331, 0.0
1332, 0.0
1333, 0.0
1334, 0.0
1335, 0.0
1336, 0.0
1337, 0.0
1338, 0.0
1339, 0.0
1340, 0.0
1341, 0.0
1342, 0.0
1343, 0.0
1344, 0.0
1345, 0.0
1346, 0.0
1347, 0.0
1348, 0.0
1349, 0.0
1350, 0.0
1351, 0.0
1352, 0.0
1353, 0.0
1354, 0.0
1355, 0.0
1356, 0.0
1357, 0.0
1358, 0.0
1359, 0.0
1360, 0.0
1361, 0.0
1362, 0.0
1363, 0.0
1364, 0.0
1365, 0.0
1366, 0.0
1367, 0.0
1368, 0.0
1369, 0.0
1370, 0.0
1371, 0.0
1372, 0.0
1373, 0.0
1374, 0.0
1375, 0.0
1376, 0.0
1377, 0.0
1378, 0.0
1379, 0.0
1380, 0.0
1381, 0.0
1382, 0.0
1383, 0.0
1384, 0.0
1385, 0.0
1386, 0.0
1387, 0.0
1388, 0.0
1389, 0.0
1390, 0.0
1391, 0.0
1392, 0.0
1393, 0.0
1394, 0.0
1395, 0.0
1396, 0.0
1397, 0.0
1398, 0.0
1399, 0.0
1400, 0.0
1401, 0.0
1402, 0.0
1403, 0.0
1404, 0.0
1405, 0.0
1406, 0.0
1407, 0.0
1408, 0.0
1409, 0.0
1410, 0.0
1411, 0.0
1412, 0.0
1413, 0.0
1414, 0.0
1415, 0.0
1416, 0.0
1417, 0.0
1418, 0.0
1419, 0.0
1420, 0.0
1421, 0.0
1422, 0.0
1423, 0.0
1424, 0.0
1425, 0.0
1426, 0.0
1427, 0.0
1428, 0.0
1429, 0.0
1430, 0.0
1431, 0.0
1432, 0.0
1433, 0.0
1434, 0.0
1435, 0.0
1436, 0.0
1437, 0.0
1438, 0.0
1439, 0.0
1440, 0.0
1441, 0.0
1442, 0.0
1443, 0.0
1444, 0.0
1445, 0.0
1446, 0.0
1447, 0.0
1448, 0.0
1449, 0.0
1450, 0.0
1451, 0.0
1452, 0.0
1453, 0.0
1454, 0.0
1455, 0.0
1456, 0.0
1457, 0.0
1458, 0.0
1459, 0.0
1460, 0.0
1461, 0.0
1462, 0.0
1463, 0.0
1464, 0.0
1465, 0.0
1466, 0.0
1467, 0.0
1468, 0.0
1469, 0.0
1470, 0.0
1471, 0.0
1472, 0.0
1473, 0.0
1474, 0.0
1475, 0.0
1476, 0.0
1477, 0.0
1478, 0.0
1479, 0.0
1480, 0.0
1481, 0.0
1482, 0.0
1483, 0.0
1484, 0.0
1485, 0.0
1486, 0.0
1487, 0.0
1488, 0.0
1489, 0.0
1490, 0.0
1491, 0.0
1492, 0.0
1493, 0.0
1494, 0.0
1495, 0.0
1496, 0.0
1497, 0.0
1498, 0.0
1499, 0.0
1500, 0.0
1501, 0.0
1502, 0.0
1503, 0.0
1504, 0.0
1505, 0.0
1506, 0.0
1507, 0.0
1508, 0.0
1509, 0.0
1510, 0.0
1511, 0.0
1512, 0.0
1513, 0.0
1514, 0.0
1515, 0.0
1516, 0.0
1517, 0.0
1518, 0.0
1519, 0.0
1520, 0.0
1521, 0.0
1522, 0.0
1523, 0.0
1524, 0.0
1525, 0.0
1526, 0.0
1527, 0.0
1528, 0.0
1529, 0.0
1530, 0.0
1531, 0.0
1532, 0.0
1533, 0.0
1534, 0.0
1535, 0.0
1536, 0.0
1537, 0.0
1538, 0.0
1539, 0.0
1540, 0.0
1541, 0.0
1542, 0.0
1543, 0.0
1544, 0.0
1545, 0.0
1546, 0.0
1547, 0.0
1548, 0.0
1549, 0.0
1550, 0.0
1551, 0.0
1552, 0.0
1553, 0.0
1554, 0.0
1555, 0.0
1556, 0.0
1557, 0.0
1558, 0.0
1559, 0.0
1560, 0.0
1561, 0.0
1562, 0.0
1563, 0.0
1564, 0.0
1565, 0.0
1566, 0.0
1567, 0.0
1568, 0.0
1569, 0.0
1570, 0.0
1571, 0.0
1572, 0.0
1573, 0.0
1574, 0.0
1575, 0.0
1576, 0.0
1577, 0.0
1578, 0.0
1579, 0.0
1580, 0.0
1581, 0.0
1582, 0.0
1583, 0.0
1584, 0.0
1585, 0.0
1586, 0.0
1587, 0.0
1588, 0.0
1589, 0.0
1590, 0.0
1591, 0.0
1592, 0.0
1593, 0.0
1594, 0.0
1595, 0.0
1596, 0.0
1597, 0.0
1598, 0.0
1599, 0.0
