30, 0.0
31, 0.0
32, 0.0
33, 0.0
34, 0.0
35, 0.0
36, 0.0
37, 0.0
38, 0.0
39, 0.0
40, 0.0
41, 0.0
42, 0.0
43, 0.0
44, 0.0
45, 0.0
46, 0.0
47, 0.0
48, 0.0
49, 0.0
50, 0.0
51, 0.0
52, 0.0
53, 0.0
54, 0.0
55, 0.0
56, 0.0
57, 0.0
58, 0.0
59, 0.0
60, 0.0
61, 0.0
62, 0.0
63, 0.0
64, 0.0
65, 0.0
66, 0.0
67, 0.0
68, 0.0
69, 0.0
70, 0.0
71, 0.0
72.0, 4.60875779489833e-06
73.0, 2.2825191766828477e-05
74.0, 0.0012048592196641041
75.0, 0.0018223105311239573
76.0, 0.0017154311239347404
77.0, 0.004111260990238721
78.0, 0.0030783587495574437
79.0, 0.0012237920568763413
80.0, 0.0017637115083648275
81.0, 0.0012254849481330987
82.0, 0.001626303003173417
83.0, 0.003141282819703499
84.0, 0.0038411686041690384
85.0, 0.0036548723202433583
86.0, 0.003490393180435105
87.0, 0.004338858230224376
88.0, 0.004294448690950277
89.0, 0.004068769804430319
90.0, 0.0038825148001336955
91.0, 0.004659857628546259
92.0, 0.0044381396424981
93.0, 0.0036831048548379174
94.0, 0.0026395173035369695
95.0, 0.0026794058059654365
96.0, 0.002788716198740848
97.0, 0.0027303911415258236
98.0, 0.0017294593804228302
99.0, 0.0015371862804971419
100.0, 0.0016602919729622654
101.0, 0.0018636921110369486
102.0, 0.002334967241468375
103.0, 0.002722443354697717
104.0, 0.0030020509936283476
105.0, 0.003110003116090115
106.0, 0.004108529232927469
107.0, 0.0049822395299431626
108.0, 0.005299710248903114
109.0, 0.005533709517415968
110.0, 0.005597630471363525
111.0, 0.0057825401376841125
112.0, 0.0067631353891476655
113.0, 0.007598995253253314
114.0, 0.008449416147822327
115.0, 0.009261709527387965
116.0, 0.008331749415029668
117.0, 0.006925294327841696
118.0, 0.005356477569262632
119.0, 0.004008279371363061
120.0, 0.002749093466613823
121.0, 0.001983703536228748
122.0, 0.0016792668731850503
123.0, 0.0010570754796070247
124.0, 0.0012474454777313675
125.0, 0.0014537916475938647
126.0, 0.0010173226452997674
127.0, 0.001277009745054748
128.0, 0.0017015859005734724
129.0, 0.0021598395794405773
130.0, 0.002283568977931134
131.0, 0.0026624392244299997
132.0, 0.0030776903467039257
133.0, 0.0034306881296761746
134.0, 0.003635512576950488
135.0, 0.0038816065258927895
136.0, 0.004214049080304456
137.0, 0.004754428437049772
138.0, 0.005536591453970156
139.0, 0.005983456410460944
140.0, 0.005898239035810753
141.0, 0.004856655957023372
142.0, 0.0040628991516421025
143.0, 0.0037519476543085195
144.0, 0.004329234731400311
145.0, 0.0036941903761641974
146.0, 0.0032911730106253427
147.0, 0.003280193375593143
148.0, 0.0036648828999158215
149.0, 0.003765052983893727
150.0, 0.0037279368313185425
151.0, 0.0036169755316979666
152.0, 0.0037332073629499874
153.0, 0.0038122295182658676
154.0, 0.004169690780296991
155.0, 0.005666509221086847
156.0, 0.00605460948634432
157.0, 0.00688571916120824
158.0, 0.008597143559062659
159.0, 0.010963821087549838
160.0, 0.015650638343379798
161.0, 0.022277639499876774
162.0, 0.030908008403865168
163.0, 0.04200604057395167
164.0, 0.05349667387489933
165.0, 0.06283513722514754
166.0, 0.05889016570657464
167.0, 0.048950618310687234
168.0, 0.03703989830237355
169.0, 0.024930687192933423
170.0, 0.018037902342596158
171.0, 0.012422498857979636
172.0, 0.008200437537077585
173.0, 0.005922049831674512
174.0, 0.004553788970127838
175.0, 0.003201369618590602
176.0, 0.0018107204521557395
177.0, 0.001451703986062977
178.0, 0.0013106410176604777
179.0, 0.0012168988086795041
180.0, 0.001045828129472005
181.0, 0.0005137696700466664
182.0, 0.00027488993677251595
183.0, 0.0002972408286763217
184.0, 0.00045487231130540446
185.0, 0.00027847130157839585
186.0, 0.00020799859081914131
187.0, 0.0003625471823207095
188.0, 0.0004090309048369986
189.0, 0.0006737235837927159
190.0, 0.000883317896320289
191.0, 0.0007293195667460773
192.0, 0.0008316444370260372
193.0, 0.0010114801408206754
194.0, 0.001105976643195101
195.0, 0.0005501337047819236
196.0, 0.0006731448204371819
197.0, 0.000717346585704768
198.0, 0.0004305431940990483
199.0, 0.0010399808305632488
200.0, 0.0011417083595999464
201.0, 0.0010437984356233118
202.0, 0.0011027422137224428
203.0, 0.0006352561961957662
204.0, 0.0005764226342034658
205.0, 0.0007801807225565185
206.0, 0.00017273757756634166
207.0, 0.0002513495736027896
208.0, 0.00032677211048651547
209.0, 0.00012170339044337348
210.0, 0.0003526155948841636
211.0, 0.0003211493328323314
212.0, 0.000424659169603112
213.0, 0.0012408254130622956
214.0, 0.0015553236741438971
215.0, 0.002114424155792867
216.0, 0.002845803846120896
217.0, 0.003057751187363297
218.0, 0.0033359919177269443
219.0, 0.0037029575395053755
220.0, 0.004144424295152186
221.0, 0.003766818469345703
222.0, 0.0037528344163326407
223.0, 0.0038432663902063526
224.0, 0.003724640392995554
225.0, 0.003605136350662546
226.0, 0.0036108054081469107
227.0, 0.0036642990125717693
228.0, 0.0034262179017598418
229.0, 0.0032689796651378823
230.0, 0.003193862033621815
231.0, 0.0031865474059565454
232.0, 0.002888388254074902
233.0, 0.002966652443130171
234.0, 0.003203956435825232
235.0, 0.0034005928644622
236.0, 0.00344631657634179
237.0, 0.0032151955903787274
238.0, 0.002950314840822375
239.0, 0.0033902841618644246
240.0, 0.003760075324102953
241.0, 0.004246029139114615
242.0, 0.004802801607342397
243.0, 0.00442010657191927
244.0, 0.003888417418610249
245.0, 0.0040112532224317295
246.0, 0.005490045486305937
247.0, 0.004998262009013542
248.0, 0.005145308698015654
249.0, 0.005296282652053064
250.0, 0.004016972775005724
251.0, 0.004953610396961665
252.0, 0.0055395616358458995
253.0, 0.005453702866216163
254.0, 0.0054913614336264535
255.0, 0.0055166785499497295
256.0, 0.005750180533738948
257.0, 0.006296133622682995
258.0, 0.006399342355965356
259.0, 0.006363431057928245
260.0, 0.006413073508107325
261.0, 0.006843924599868445
262.0, 0.006771036724949346
263.0, 0.006480585086586922
264.0, 0.0062377138061636105
265.0, 0.006784169802093364
266.0, 0.00712422724576468
267.0, 0.007272230409364437
268.0, 0.007340286876032414
269.0, 0.008333043390862055
270.0, 0.007833959369217
271.0, 0.007287285010980578
272.0, 0.0076479895613691855
273.0, 0.007305425767665515
274.0, 0.0076882057589881215
275.0, 0.008375491974789335
276.0, 0.008728018014852186
277.0, 0.008867822606307842
278.0, 0.009205556176167203
279.0, 0.009731150468561371
280.0, 0.010242564771785962
281.0, 0.010624016624747507
282.0, 0.011039585562685444
283.0, 0.011532023589557966
284.0, 0.011973106875374636
285.0, 0.012382585982761742
286.0, 0.012898093872842267
287.0, 0.013629852920514624
288.0, 0.014063370609539836
289.0, 0.014448217678047366
290.0, 0.015135592439923773
291.0, 0.01673288888282001
292.0, 0.017321090701144425
293.0, 0.018111679701402702
294.0, 0.01921530747793751
295.0, 0.020545333151511035
296.0, 0.021511803235258566
297.0, 0.02295828343110097
298.0, 0.02498072505140792
299.0, 0.02610931027206413
300.0, 0.027462462151671575
301.0, 0.028095948171204133
302.0, 0.027387494619321006
303.0, 0.02705734206636946
304.0, 0.027233956623725984
305.0, 0.02742969038986459
306.0, 0.027012994706805037
307.0, 0.02752182343251525
308.0, 0.028311865808029513
309.0, 0.029359415874982638
310.0, 0.030772771909868338
311.0, 0.033437380055458356
312.0, 0.036575756166686735
313.0, 0.04033661438279341
314.0, 0.046385017402989316
315.0, 0.052339675785278206
316.0, 0.059640590137457046
317.0, 0.0688440745204425
318.0, 0.07776943601035284
319.0, 0.08800223573707447
320.0, 0.09860254450425322
321.0, 0.10883861630712827
322.0, 0.11516646965259553
323.0, 0.1176080443858033
324.0, 0.11606045040501631
325.0, 0.10987964366751332
326.0, 0.10350929311396945
327.0, 0.09668492036842188
328.0, 0.08947415320356261
329.0, 0.08210546459489779
330.0, 0.07926892623657562
331.0, 0.07624020239697202
332.0, 0.07298167063087548
333.0, 0.07531729024915754
334.0, 0.07771082527703332
335.0, 0.0824583556164189
336.0, 0.0905717013179203
337.0, 0.10086237269894367
338.0, 0.1136948719806537
339.0, 0.130191779316507
340.0, 0.1514630556330026
341.0, 0.1755600770697941
342.0, 0.20738057047929478
343.0, 0.2434757308618056
344.0, 0.27967345420631534
345.0, 0.3071258126973433
346.0, 0.3270169088333894
347.0, 0.3341843962587055
348.0, 0.3155545403935126
349.0, 0.29002069031570454
350.0, 0.25661732871695164
351.0, 0.21800647424152214
352.0, 0.18454198723044907
353.0, 0.15700593389283313
354.0, 0.13324888908405155
355.0, 0.11346197144102434
356.0, 0.10271141390068665
357.0, 0.09151103191882631
358.0, 0.08342711172581581
359.0, 0.08017236201768169
360.0, 0.07889556692745726
361.0, 0.07774791328925951
362.0, 0.07822278620692777
363.0, 0.08155649276533518
364.0, 0.08702487651409894
365.0, 0.09570167022844273
366.0, 0.10643159826079963
367.0, 0.1179663200581599
368.0, 0.1326544527914375
369.0, 0.14957723636232548
370.0, 0.16668432980128
371.0, 0.18026523475814824
372.0, 0.18972817947882364
373.0, 0.19057006402678817
374.0, 0.1841452680847484
375.0, 0.175235284610458
376.0, 0.157206106087049
377.0, 0.13766467262807278
378.0, 0.11846900509356402
379.0, 0.10089602274074765
380.0, 0.08550723990291846
381.0, 0.07266997319671596
382.0, 0.06228979275797449
383.0, 0.052479131791702625
384.0, 0.045575656405681855
385.0, 0.04013860300407633
386.0, 0.035419436827240684
387.0, 0.02960316869991711
388.0, 0.026688671610971288
389.0, 0.02461393994111277
390.0, 0.0220837214092576
391.0, 0.02021600545062518
392.0, 0.018136157886912425
393.0, 0.01639835919061411
394.0, 0.015540752109526271
395.0, 0.014431173652832044
396.0, 0.012862040218296143
397.0, 0.011469753713270182
398.0, 0.0111035070291572
399.0, 0.010709124130008069
400.0, 0.009996102436377524
401.0, 0.009344035621726265
402.0, 0.009452404547749663
403.0, 0.007898999819619687
404.0, 0.007383373471019258
405.0, 0.0075192192552293305
406.0, 0.0068238122843352345
407.0, 0.006453762798853652
408.0, 0.006058119788387101
409.0, 0.005608299966231378
410.0, 0.005180004534975172
411.0, 0.005373389139726524
412.0, 0.0051295426770042825
413.0, 0.004535418428912185
414.0, 0.004866800536852917
415.0, 0.004585722113722179
416.0, 0.004085412892682847
417.0, 0.003592008104894579
418.0, 0.0037424897198362513
419.0, 0.0034332585285220102
420.0, 0.0032392489809025013
421.0, 0.0033022078409286723
422.0, 0.0031251153994889926
423.0, 0.00285747350114515
424.0, 0.0026759057797888695
425.0, 0.0026390315062372145
426.0, 0.0025042818053467226
427.0, 0.0020937392113307353
428.0, 0.0016300715775769547
429.0, 0.0012902454398540447
430.0, 0.0018888300987008999
431.0, 0.0016612217609288983
432.0, 0.0014988042822038103
433.0, 0.001936662569991802
434.0, 0.0017884795724098645
435.0, 0.0018168600877361718
436.0, 0.0016681463923491299
437.0, 0.001094038878368014
438.0, 0.0014705058087487249
439.0, 0.0008485800220361606
440.0, 0.00018703874243100447
441.0, 0.00034007291925961365
442.0, 0.0001853285225136859
443.0, 0.0004410996469861281
444.0, 0.0007382283381548458
445.0, 0.0006967647946070192
446.0, 0.0010245900739124562
447.0, 0.0009084992395081614
448.0, 0.0005613952896801647
449.0, 0.00023442178032573096
450.0, 0.0007541672948170092
451.0, 0.0009218324527494357
452.0, 0.001009248755148048
453.0, 0.0013995340084994893
454.0, 0.0010824829558517242
455.0, 0.000785976500646931
456.0, 0.000765531191543589
457.0, 0.0013499147432437708
458.0, 0.0013334087980790535
459.0, 0.001214673603086817
460.0, 0.0010713825735151987
461.0, 0.0009811433545077854
462.0, 0.0010183545882311467
463.0, 0.00109920886847214
464.0, 0.0011681277497657735
465.0, 0.0011450190363444324
466.0, 0.0013747452591606312
467.0, 0.001379746387291749
468.0, 0.001248707728562624
469.0, 0.001172203200666417
470.0, 0.0012500688634720922
471.0, 0.0015552841908529902
472.0, 0.0018379125045527096
473.0, 0.0016709761167451088
474.0, 0.002205466178765608
475.0, 0.0027613067436768344
476.0, 0.0029129692487483605
477.0, 0.002010182114686365
478.0, 0.002159766427954161
479.0, 0.002436658360588077
480.0, 0.00231705682495439
481.0, 0.0010227127916811766
482.0, 0.001219787918967059
483.0, 0.0012540764534349324
484.0, 0.0012057028478902065
485.0, 0.001397702845306296
486.0, 0.0014790077487760814
487.0, 0.0016717418146293401
488.0, 0.0018449582045039423
489.0, 0.001768659666424565
490.0, 0.0017788159698543292
491.0, 0.0017840345132842735
492.0, 0.0019278000186290969
493.0, 0.0024364419079253804
494.0, 0.0030044819950739727
495.0, 0.0035553222104024325
496.0, 0.004116443974783876
497.0, 0.004732029616378625
498.0, 0.005752337899363427
499.0, 0.006009602988889041
500.0, 0.005886171825703006
501.0, 0.005930472089967515
502.0, 0.006293063477666275
503.0, 0.005653099247182356
504.0, 0.004765183993509385
505.0, 0.004553873055556211
506.0, 0.004011154863462387
507.0, 0.0037610463239538105
508.0, 0.003592610740204043
509.0, 0.0032756691589713493
510.0, 0.0030488928693378618
511.0, 0.0034786693865829785
512.0, 0.003749853108914079
513.0, 0.0031342631523295244
514.0, 0.0036085153012474927
515.0, 0.004221683555428972
516.0, 0.004689812017412883
517.0, 0.004805557221916279
518.0, 0.005233444554518914
519.0, 0.00557756524394501
520.0, 0.005891401965279273
521.0, 0.006222809279509949
522.0, 0.006739147794842021
523.0, 0.007272426112193378
524.0, 0.0079012143503129
525.0, 0.008578729558720593
526.0, 0.008289418851237296
527.0, 0.008172173034549202
528.0, 0.008337148517209928
529.0, 0.008723716070136278
530.0, 0.008412262833038843
531.0, 0.008686257518192856
532.0, 0.008822254303257745
533.0, 0.008781582154918451
534.0, 0.010035156142909969
535.0, 0.010721853388850297
536.0, 0.01166494924197132
537.0, 0.013010579181020714
538.0, 0.014221271605421103
539.0, 0.014565629841809655
540.0, 0.01619003372073729
541.0, 0.018999747805513986
542.0, 0.02085975401963601
543.0, 0.02339312139249687
544.0, 0.027132308069956243
545.0, 0.03180355861676781
546.0, 0.03646017124188012
547.0, 0.04327255983743487
548.0, 0.05061820265216121
549.0, 0.058903793911239885
550.0, 0.06937084744403894
551.0, 0.07860527109405785
552.0, 0.08477238971407873
553.0, 0.08881060759335374
554.0, 0.09233959405715035
555.0, 0.08925024699230304
556.0, 0.08334893586635822
557.0, 0.07590558928110024
558.0, 0.06820491034196532
559.0, 0.05790608840294778
560.0, 0.049222504305981
561.0, 0.04182994459670041
562.0, 0.03548589025852367
563.0, 0.03143492339533091
564.0, 0.027645347464911513
565.0, 0.024060477286796424
566.0, 0.020752978003470802
567.0, 0.01880681947433553
568.0, 0.016779994511768873
569.0, 0.014970837764942591
570.0, 0.013544398962455947
571.0, 0.012674037228313832
572.0, 0.011558971485455921
573.0, 0.01084545317320469
574.0, 0.010456548992350094
575.0, 0.009312516190070924
576.0, 0.009267119835587463
577.0, 0.008768553084698103
578.0, 0.00799138025461039
579.0, 0.008209963815367446
580.0, 0.008223555568736782
581.0, 0.007859282001137785
582.0, 0.007407835899782378
583.0, 0.0074119678567304585
584.0, 0.007603681122024684
585.0, 0.007775881852928868
586.0, 0.008156960439868025
587.0, 0.009024553644459758
588.0, 0.009814433133269318
589.0, 0.010846142154838053
590.0, 0.012269094767868529
591.0, 0.014123041689683256
592.0, 0.015174185406413078
593.0, 0.016281039359776452
594.0, 0.01587890004159507
595.0, 0.013565628650967628
596.0, 0.012605617527423757
597.0, 0.010534064496118743
598.0, 0.008508044427773906
599.0, 0.00704606209295647
600.0, 0.006600421053858669
601.0, 0.005322581207932667
602.0, 0.004303436769326534
603.0, 0.0037362243989612384
604.0, 0.003534985417510765
605.0, 0.0035709618794691187
606.0, 0.0035835967985127022
607.0, 0.0034342744877662416
608.0, 0.002957088057684844
609.0, 0.0023635787614397926
610.0, 0.002580239679530092
611.0, 0.0028003895465280406
612.0, 0.002256225607909392
613.0, 0.0022992275363408147
614.0, 0.002407497242784657
615.0, 0.0024226967471049888
616.0, 0.002259582182938744
617.0, 0.0020136432831967255
618.0, 0.002681026475481288
619.0, 0.0028951039114069213
620.0, 0.002542898133780406
621.0, 0.0031962629919061684
622.0, 0.0035237730001780906
623.0, 0.0032144859947877574
624.0, 0.002743177671564541
625.0, 0.0033372048349147474
626.0, 0.003239105011955468
627.0, 0.003421428466790062
628.0, 0.0037323608795080273
629.0, 0.0038521864945750294
630.0, 0.004186646720002717
631.0, 0.0040612235550482375
632.0, 0.0038050933506660533
633.0, 0.0036687476067030563
634.0, 0.0033200158041419617
635.0, 0.0034321997850663886
636.0, 0.003436023298134254
637.0, 0.00316864341566546
638.0, 0.003159297838558855
639.0, 0.0028614790290652815
640.0, 0.00263493596882832
641.0, 0.0024851912629973074
642.0, 0.0021910625246949773
643.0, 0.0013828473322249138
644.0, 0.0010948586313290851
645.0, 0.0011079760995385366
646.0, 0.0009384024246536292
647.0, 0.0005866852789681452
648.0, 0.0005983140772227319
649.0, 0.0008206296194758314
650.0, 0.0010562422720893513
651.0, 0.000566448938823301
652.0, 0.0007431265686617313
653.0, 0.0007837130995144855
654.0, 0.00048368331730401574
655.0, 0.0005606917646292099
656.0, 0.0003396553111796797
657.0, 0.00022943673551175582
658.0, 0.00023753265123929856
659.0, 0.00017187123866165975
660.0, 8.205752568638143e-05
661.0, 8.791209470728219e-05
662.0, 0.0002196574776352908
663.0, 0.00048542605910173215
664.0, 0.00022575488313013862
665.0, 0.00020660466705279802
666.0, 0.00025667188381543917
667.0, 0.0002563745871049699
668.0, 0.00017397022160166542
669.0, 0.0001839033636152216
670.0, 0.0001481043763253767
671.0, 0.00012995751056635318
672.0, 0.000470453072782991
673.0, 0.0005237165528260847
674.0, 0.00045194986698573515
675.0, 0.0003658095094837381
676.0, 0.0004004179599363131
677.0, 0.00013844012365208676
678.0, 0.0005140097737510468
679.0, 0.0008877460371039704
680.0, 0.0007904842195710173
681.0, 0.0009343870897885545
682.0, 0.0004694641985077421
683.0, 0.00015201278641854067
684.0, 0.0002673515906627996
685.0, 0.0007508462851253014
686.0, 0.0006972020712927236
687.0, 0.0006192466315175019
688.0, 0.000551622927532395
689.0, 0.00040608704163841203
690.0, 0.0007394966033413293
691.0, 0.0007354520749564235
692.0, 0.0006632138536717221
693.0, 0.0007563234838080992
694.0, 0.0007357013260512203
695.0, 0.0007630812653638385
696.0, 0.0007172019319364725
697.0, 0.0006795771803136863
698.0, 0.0011378647287595544
699.0, 0.0006793083314279175
700.0, 0.000517811333436634
701.0, 0.0006650231777182635
702.0, 0.000801357408758821
703.0, 0.0003492237591438954
704.0, 0.0001169000895806742
705.0, 6.927897603777703e-05
706.0, 0.00014373392599838916
707.0, 0.00020957989759567953
708.0, 0.0004863691339804369
709.0, 0.0005188014977082417
710.0, 0.0003039075563384381
711.0, 0.00035001367861596744
712.0, 0.0001886184957338339
713.0, 0.00019365993282882902
714.0, 0.00033450584042590397
715.0, 0.0004973417419834715
716.0, 0.0006571936264524498
717.0, 0.0005706543392914392
718.0, 0.0006606932915409816
719.0, 0.0010095910190866622
720.0, 0.00042178993700787694
721.0, 0.0002705173429246044
722.0, 0.00045266767030862807
723.0, 0.0006896499835440642
724.0, 0.00040991331918922705
725.0, 0.0007981081538080606
726.0, 0.001069524041091201
727.0, 0.0010579040448770824
728.0, 0.0007128641485569068
729.0, 0.0008345115212762534
730.0, 0.0011681398926143799
731.0, 0.0012205009077218586
732.0, 0.0009617732882190859
733.0, 0.001098603390985521
734.0, 0.0009355611504142255
735.0, 0.0009321270758910464
736.0, 0.0010688900144188512
737.0, 0.0012050830828705746
738.0, 0.0010786842598564576
739.0, 0.001116785791711664
740.0, 0.0009969580291303624
741.0, 0.0006739185554326473
742.0, 0.0011511496006026845
743.0, 0.0012547079476715214
744.0, 0.001123920719468471
745.0, 0.000999918095516034
746.0, 0.0013069128055712175
747.0, 0.0012727595123534453
748.0, 0.0011510814048298471
749.0, 0.00108009890272237
750.0, 0.001109001870318695
751.0, 0.0006409627873763693
752.0, 0.0008242330038840682
753.0, 0.0010374921957972503
754.0, 0.0011743090388979431
755.0, 0.0015433139558030944
756.0, 0.0011115454480800056
757.0, 0.0008276594643814636
758.0, 0.0006905138055428118
759.0, 0.0005916655979668258
760.0, 0.00044881247773762614
761.0, 0.0012177254734162856
762.0, 0.0018652077368352944
763.0, 0.0018913761453965934
764.0, 0.0011585675796721285
765.0, 0.0014826817546041559
766.0, 0.001089129390675711
767.0, 0.0005811408000628155
768.0, 0.0009875717493696818
769.0, 0.0015899435053927562
770.0, 0.0013957112900889845
771.0, 0.001251918260778915
772.0, 0.0014499229259725198
773.0, 0.001414713226500691
774.0, 0.0015307401922061677
775.0, 0.0015009683626644131
776.0, 0.0013766695737122098
777.0, 0.0013134938903358129
778.0, 0.0021338876605900134
779.0, 0.0022933498530201286
780.0, 0.002629300830395202
781.0, 0.003361202787035904
782.0, 0.0034665717645628565
783.0, 0.0031771765600808887
784.0, 0.0034911365978000045
785.0, 0.004086378332434136
786.0, 0.0042640550854740585
787.0, 0.004135935184762205
788.0, 0.004270286968849707
789.0, 0.0042909871839707835
790.0, 0.0040792339937296305
791.0, 0.00399782204078002
792.0, 0.003670132676943376
793.0, 0.0034285424256144553
794.0, 0.0034092681824094166
795.0, 0.0036928664052913772
796.0, 0.003642600674831064
797.0, 0.0035576737783259123
798.0, 0.003466616580226152
799.0, 0.0034699867440206277
800.0, 0.0038854778454862245
801.0, 0.003841427586504567
802.0, 0.004082766384165352
803.0, 0.0045687804143546545
804.0, 0.005091946767170938
805.0, 0.005258382086413394
806.0, 0.005886049254547139
807.0, 0.006898429994918488
808.0, 0.00788185920964209
809.0, 0.007672047910460215
810.0, 0.00866224409141196
811.0, 0.008824753378598725
812.0, 0.008618197867699238
813.0, 0.008762587055130663
814.0, 0.009259737068198805
815.0, 0.009563866683305553
816.0, 0.009597362407709187
817.0, 0.00945550359838874
818.0, 0.009438120840015251
819.0, 0.008843709127825929
820.0, 0.009173055345172557
821.0, 0.009302353327426906
822.0, 0.008524732394357587
823.0, 0.009132525768013244
824.0, 0.009234582263430815
825.0, 0.009302665492454343
826.0, 0.009319711364749652
827.0, 0.009035552359256271
828.0, 0.008750279493008559
829.0, 0.008726643956718926
830.0, 0.008809033661220541
831.0, 0.008816782685513674
832.0, 0.00841748095982516
833.0, 0.008799705480432305
834.0, 0.008896305658499026
835.0, 0.008756801592522248
836.0, 0.00873172596867235
837.0, 0.00978178110720018
838.0, 0.009490073570780803
839.0, 0.009492383692595512
840.0, 0.01009844201028916
841.0, 0.010153604998812028
842.0, 0.010766063695858457
843.0, 0.011127824713030879
844.0, 0.011600924788786968
845.0, 0.012485159528616882
846.0, 0.013169098895204788
847.0, 0.013873746850155263
848.0, 0.014618113587019605
849.0, 0.015240444489235104
850.0, 0.015462776335436086
851.0, 0.01654015857821004
852.0, 0.017858964186432645
853.0, 0.019307891083747527
854.0, 0.020579422823279136
855.0, 0.02077939438429158
856.0, 0.02112708394020286
857.0, 0.022087066087750615
858.0, 0.023020777302024873
859.0, 0.023227358102757438
860.0, 0.023325647841868236
861.0, 0.022111664741352823
862.0, 0.021919907858433365
863.0, 0.02237598508690927
864.0, 0.021180694546500504
865.0, 0.022184609738202778
866.0, 0.022874434906109117
867.0, 0.02311938876016694
868.0, 0.023229634835845153
869.0, 0.024650258534683788
870.0, 0.025341952367439333
871.0, 0.02593166190069505
872.0, 0.027137725567415644
873.0, 0.029362286390851648
874.0, 0.0294109501727263
875.0, 0.030732333853517004
876.0, 0.03323520369482983
877.0, 0.035696318433995615
878.0, 0.035793203126558565
879.0, 0.03934856597188287
880.0, 0.042023887675786284
881.0, 0.04431171992539929
882.0, 0.046991569942728184
883.0, 0.051642609341131886
884.0, 0.05498426871063466
885.0, 0.059964665109569104
886.0, 0.06506534779511328
887.0, 0.06866334695121722
888.0, 0.07353940076699754
889.0, 0.08131303429550382
890.0, 0.08775981054612385
891.0, 0.09408170074497398
892.0, 0.10407526862780048
893.0, 0.11175826484431657
894.0, 0.12128891272355496
895.0, 0.13586417352071925
896.0, 0.15409418266496316
897.0, 0.16773205305430597
898.0, 0.1955717992282149
899.0, 0.22123090931329342
900.0, 0.25038400038312314
901.0, 0.28983736072849825
902.0, 0.3474178024172195
903.0, 0.39501236189799754
904.0, 0.45868971084894855
905.0, 0.5412889573776798
906.0, 0.6372073132886863
907.0, 0.718361797185922
908.0, 0.8252935842589401
909.0, 0.9061087755154024
910.0, 0.9544510070135458
911.0, 0.9923698275796624
912.0, 0.9983987901175834
913.0, 0.941381276492362
914.0, 0.8704878101253624
915.0, 0.7998362244229855
916.0, 0.6889622279399115
917.0, 0.6008014822151239
918.0, 0.5251682554317769
919.0, 0.45237836381384444
920.0, 0.3798047333197768
921.0, 0.33168085789387913
922.0, 0.29411976822236713
923.0, 0.2543616085235395
924.0, 0.22011214240675595
925.0, 0.19984173275921396
926.0, 0.17049058950516688
927.0, 0.15165507337694029
928.0, 0.1353773884127415
929.0, 0.12010531223435535
930.0, 0.10693099611256553
931.0, 0.09632092906366306
932.0, 0.08655172777789585
933.0, 0.07803138886707742
934.0, 0.07070970444956519
935.0, 0.06406777633970091
936.0, 0.05786958694070031
937.0, 0.05347294289089264
938.0, 0.04964933887323353
939.0, 0.045536356927788985
940.0, 0.04093495657888195
941.0, 0.038524892449538044
942.0, 0.03584707459574751
943.0, 0.03342326261170921
944.0, 0.0316486986160992
945.0, 0.029567063298101597
946.0, 0.02737451554885283
947.0, 0.02653614265202491
948.0, 0.02569541082930417
949.0, 0.023598225145079338
950.0, 0.023598970830119016
951.0, 0.0227649974278187
952.0, 0.021445717536229574
953.0, 0.020304844109655464
954.0, 0.020001001509888348
955.0, 0.018937191794765187
956.0, 0.018382776733709874
957.0, 0.018300572386026216
958.0, 0.0179997483107268
959.0, 0.016450826925175643
960.0, 0.017566821443337252
961.0, 0.0168566654103359
962.0, 0.01609781875741781
963.0, 0.016068532084023174
964.0, 0.016723218912383403
965.0, 0.015651067336396957
966.0, 0.015476909775626178
967.0, 0.015646583971988884
968.0, 0.01571012717916277
969.0, 0.0153701427006702
970.0, 0.015859084461757916
971.0, 0.015401362130617628
972.0, 0.014651312045106295
973.0, 0.014283000655274613
974.0, 0.014873568527512237
975.0, 0.01401462030265654
976.0, 0.01339883590474735
977.0, 0.013074734313470612
978.0, 0.012782819504776029
979.0, 0.011781247520585092
980.0, 0.011754817169348553
981.0, 0.010912485195363659
982.0, 0.01036679556356201
983.0, 0.01076362323628819
984.0, 0.009394536123117532
985.0, 0.008955064340774302
986.0, 0.009505163357925037
987.0, 0.009925879434327434
988.0, 0.009286493564718301
989.0, 0.00879721005742563
990.0, 0.009535471543192325
991.0, 0.009337902028261456
992.0, 0.008867286853352804
993.0, 0.009193953059071903
994.0, 0.009391992584832433
995.0, 0.008913398226808901
996.0, 0.009007013207596542
997.0, 0.009273472435312194
998.0, 0.009029193257730762
999.0, 0.009484203036338006
1000.0, 0.008992453944832434
1001.0, 0.008909918344850139
1002.0, 0.009412283830565228
1003.0, 0.010101650565664522
1004.0, 0.00920023629429858
1005.0, 0.009170208348853098
1006.0, 0.009351441675043683
1007.0, 0.009568787916473257
1008.0, 0.009806602623171474
1009.0, 0.009881223454578982
1010.0, 0.009720240573367879
1011.0, 0.009616320782479332
1012.0, 0.009919928700902922
1013.0, 0.01079083642049137
1014.0, 0.009794937784777653
1015.0, 0.010129115526703626
1016.0, 0.010855804920568155
1017.0, 0.010956574657380392
1018.0, 0.009770307439775633
1019.0, 0.011831576442967041
1020.0, 0.011923393319301773
1021.0, 0.011856724807163245
1022.0, 0.012493830001525753
1023.0, 0.013993653081022383
1024.0, 0.012949931578169637
1025.0, 0.013267364418678072
1026.0, 0.01408131897096689
1027.0, 0.014958812928402862
1028.0, 0.015696943468856406
1029.0, 0.01689744994269003
1030.0, 0.016633603781851716
1031.0, 0.01764037274633255
1032.0, 0.019032805557734307
1033.0, 0.018777912048843607
1034.0, 0.018183598262680113
1035.0, 0.01752235991959367
1036.0, 0.016753918663461202
1037.0, 0.01587047196896736
1038.0, 0.015503433376229232
1039.0, 0.021395721769445777
1040.0, 0.02380823800591846
1041.0, 0.021487326992701773
1042.0, 0.0157529050629684
1043.0, 0.009362277627041579
1044.0, 0.007676507259203152
1045.0, 0.0073256329971937255
1046.0, 0.006814635018002387
1047.0, 0.006118922989596423
1048.0, 0.005564012745550995
1049.0, 0.00529163412889161
1050.0, 0.004527838696375201
1051.0, 0.004087586932196716
1052.0, 0.0038982691828717843
1053.0, 0.0037275872606474165
1054.0, 0.0034879583561268257
1055.0, 0.00310434864371547
1056.0, 0.00293429537984594
1057.0, 0.0028812851878279935
1058.0, 0.002808345315057461
1059.0, 0.002681696001315046
1060.0, 0.0016979232607710819
1061.0, 0.002093954914738829
1062.0, 0.0022385548451011837
1063.0, 0.001445802663127445
1064.0, 0.002011668322963431
1065.0, 0.0018931839534116757
1066.0, 0.0018366432271015088
1067.0, 0.0015864381213375061
1068.0, 0.001190932921345246
1069.0, 0.0012744708255232095
1070.0, 0.0007927155768954102
1071.0, 0.001441879899536587
1072.0, 0.0017015857609368225
1073.0, 0.0012173162887918361
1074.0, 0.001012950324347318
1075.0, 0.0010326183473682382
1076.0, 0.00043493820968731146
1077.0, 0.0005543182730253516
1078.0, 0.0009574480661767255
1079.0, 7.115331318800907e-05
1080.0, 0.0005427022257797478
1081.0, 0.0005876872458054699
1082.0, 0.0006271409660918655
1083.0, 0.0006356590500519674
1084.0, 0.0004364737425327665
1085.0, 0.0004894588869090689
1086.0, 0.00046109551000591534
1087.0, 0.0003591449253011895
1088.0, 0.000312237062843915
1089.0, 0.00038648034964961197
1090.0, 0.00014927572707056162
1091.0, 0.0002575510307385005
1092.0, 0.0003087809317477222
1093.0, 0.0003041080168302683
1094.0, 0.0002646355275550419
1095.0, 4.8328619416849534e-05
1096.0, 0.00028861233626222867
1097.0, 0.0002766587656434371
1098.0, 0.000314571104486373
1099.0, 0.0005330123970020058
1100.0, 0.0006246580059711272
1101.0, 0.0005110990860790591
1102.0, 0.0004526572975802657
1103.0, 0.00043966907750680437
1104.0, 0.0004551932546830797
1105.0, 0.0004826919333968578
1106.0, 0.000510322367559953
1107.0, 0.0006276392056849043
1108.0, 0.000589010444881776
1109.0, 0.0004271894249306178
1110.0, 0.00029849266476250435
1111.0, 4.5173218568925216e-05
1112.0, 0.0005559617417749202
1113.0, 0.0009744129002506424
1114.0, 0.0010574406661362655
1115.0, 0.0009131844570474432
1116.0, 0.001298343321084262
1117.0, 0.0007615769015482696
1118.0, 0.00033510742300588977
1119.0, 0.0001705636698506883
1120.0, 0.0003009466971842473
1121.0, 0.0007820439800308365
1122.0, 0.001364711499750962
1123.0, 0.0015362826317729286
1124.0, 0.0014182534935112798
1125.0, 0.001174409856074277
1126.0, 0.0009528145145223277
1127.0, 0.0002747149761711738
1128.0, 0.00037122572099623015
1129.0, 0.0006727586250763729
1130.0, 0.0006582240540994305
1131.0, 9.660219031049357e-05
1132.0, 0.0005324793319562541
1133.0, 0.0003384465527353069
1134.0, 0.0001364134399938668
1135.0, 3.367180592118624e-05
1136.0, 5.252312731929734e-05
1137.0, 0.0003383150447647218
1138.0, 0.0001919900377274733
1139.0, 0.0003001262033203518
1140.0, 0.0004681770148119954
1141.0, 0.0005287080274185428
1142.0, 0.0004687694622360282
1143.0, 0.0008768319996995714
1144.0, 0.0010326463597708964
1145.0, 0.0011689955289695337
1146.0, 0.001339437244021078
1147.0, 0.0014762961755289002
1148.0, 0.001494269558381561
1149.0, 0.0019839473637697476
1150.0, 0.0019874444473111726
1151.0, 0.0017881629627800814
1152.0, 0.0019227248330775156
1153.0, 0.002656299101543573
1154.0, 0.002782877328001778
1155.0, 0.0033933968687309313
1156.0, 0.003755935259262652
1157.0, 0.0035886653496119644
1158.0, 0.00340490624882418
1159.0, 0.003815537455024105
1160.0, 0.003863972340404473
1161.0, 0.003689716390728032
1162.0, 0.003599615124040843
1163.0, 0.003887349464641258
1164.0, 0.004239354327932872
1165.0, 0.004478442300240552
1166.0, 0.004669790388171885
1167.0, 0.004509750482122569
1168.0, 0.004100169658907784
1169.0, 0.004596159782767925
1170.0, 0.004307508890249237
1171.0, 0.0035414305965278535
1172.0, 0.003796257405129265
1173.0, 0.004651370909964804
1174.0, 0.004194554578821274
1175.0, 0.00442545356116729
1176.0, 0.00463452627473953
1177.0, 0.004214951144850927
1178.0, 0.004177086702128017
1179.0, 0.005194908795436601
1180.0, 0.0048413886036321905
1181.0, 0.0044939143499077155
1182.0, 0.004381976114194129
1183.0, 0.00423217069985893
1184.0, 0.003980241931884599
1185.0, 0.0038788826659370834
1186.0, 0.0038361257657179232
1187.0, 0.003644688237875442
1188.0, 0.0037102732470432297
1189.0, 0.003840291501419151
1190.0, 0.003709914039722763
1191.0, 0.003700188623284765
1192.0, 0.003727285235314322
1193.0, 0.003673078454571176
1194.0, 0.003549173729835506
1195.0, 0.0034237466539773615
1196.0, 0.003405686265968416
1197.0, 0.003052340450190501
1198.0, 0.0031439534340806205
1199.0, 0.0031777978123975602
1200.0, 0.003164334613209283
1201.0, 0.0032856599271015004
1202.0, 0.003110819182701761
1203.0, 0.002912394026235717
1204.0, 0.002738365771832826
1205.0, 0.0027713455071340766
1206.0, 0.0029816385522653693
1207.0, 0.002996016957799796
1208.0, 0.002726255689651106
1209.0, 0.0027209709566182747
1210.0, 0.002483121010810231
1211.0, 0.0022430598555421045
1212.0, 0.002348048176549652
1213.0, 0.0017923574687722904
1214.0, 0.0024661370542211594
1215.0, 0.0022959129384979935
1216.0, 0.002068805002905308
1217.0, 0.002368378509581915
1218.0, 0.002858409816120043
1219.0, 0.002435270840354773
1220.0, 0.0018518083062807125
1221.0, 0.002069066520729856
1222.0, 0.0023382345653307646
1223.0, 0.0018265628203123785
1224.0, 0.0023663463414305723
1225.0, 0.0027546080704804353
1226.0, 0.0025973490372225958
1227.0, 0.0025998026076344215
1228.0, 0.0028390792323719164
1229.0, 0.0026458284047482516
1230.0, 0.0026301253818943856
1231.0, 0.0033133870994336775
1232.0, 0.002803950732534297
1233.0, 0.002495794311945906
1234.0, 0.003553945188792296
1235.0, 0.0036703052451696645
1236.0, 0.002921099816870266
1237.0, 0.003136735800582744
1238.0, 0.00334601433059999
1239.0, 0.0033635513640869184
1240.0, 0.0036144637134093984
1241.0, 0.0035603669985159432
1242.0, 0.0036093825050636475
1243.0, 0.003610506985284009
1244.0, 0.0036989808636695948
1245.0, 0.0038140681657993997
1246.0, 0.0035285415786697402
1247.0, 0.003944582828521035
1248.0, 0.004090210895039211
1249.0, 0.004071134491833548
1250.0, 0.004236488452843575
1251.0, 0.00468608889327478
1252.0, 0.004284310842756937
1253.0, 0.0037156999891173087
1254.0, 0.0041613690316496975
1255.0, 0.004392542587840741
1256.0, 0.004369423396550554
1257.0, 0.0050628551011310825
1258.0, 0.0047739134136438235
1259.0, 0.004227398364346447
1260.0, 0.004801217010561826
1261.0, 0.005082538426810402
1262.0, 0.004436622242527538
1263.0, 0.0046278764842866945
1264.0, 0.004941021378113356
1265.0, 0.004813642823021917
1266.0, 0.004308250616012022
1267.0, 0.003999535075947226
1268.0, 0.004237943534246918
1269.0, 0.0039510892208879525
1270.0, 0.003773942682051307
1271.0, 0.00422165791446072
1272.0, 0.00420859395376656
1273.0, 0.004105150459117982
1274.0, 0.004957319848797707
1275.0, 0.003915905199309689
1276.0, 0.004238286358031574
1277.0, 0.004218211589612648
1278.0, 0.003828133596261064
1279.0, 0.003416253975000549
1280.0, 0.0033794357269941668
1281.0, 0.003742794738049234
1282.0, 0.0033223731159982917
1283.0, 0.003154686240851425
1284.0, 0.0029292802746315985
1285.0, 0.002446337458545949
1286.0, 0.0026338205230869672
1287.0, 0.0023112505877054576
1288.0, 0.0022451429319346474
1289.0, 0.0020121395106078876
1290.0, 0.001736452106930498
1291.0, 0.0017226357411263145
1292.0, 0.0018758705195155933
1293.0, 0.0019978086664818985
1294.0, 0.0020085390719900235
1295.0, 0.0017689503240692842
1296.0, 0.0016198926998099495
1297.0, 0.0019397398696197172
1298.0, 0.0013632591395602996
1299.0, 0.001266771058286381
1300.0, 0.0009655701724639518
1301.0, 0.000651747139300641
1302.0, 0.0006171460757387766
1303.0, 0.000973422826154574
1304.0, 0.0005943919578030167
1305.0, 0.00016223888640265
1306.0, 0.0002738525124704704
1307.0, 0.0005188326423441681
1308.0, 0.0004790973879135748
1309.0, 0.00012878667680558538
1310.0, 9.60230137522023e-05
1311.0, 0.00043741945377345683
1312.0, 0.000569897624937127
1313.0, 0.0004519812181972057
1314.0, 0.0002556987036739329
1315.0, 0.0001952005129831607
1316.0, 0.0004904052643932631
1317.0, 0.0005461739081799793
1318.0, 0.00038447004297576654
1319.0, 0.00036071677946687155
1320.0, 0.0005630783648440433
1321.0, 0.00016208359158126963
1322.0, 0.000450025879589622
1323.0, 0.00032930850663363543
1324.0, 0.0002666084120429295
1325.0, 0.00022359179196987882
1326.0, 8.906760747972855e-05
1327.0, 0.0003677460027798004
1328.0, 0.00019551424792219182
1329.0, 8.426333629806172e-05
1330.0, 0.00014555264321536277
1331.0, 0.0004960676998801402
1332.0, 0.0009755226783077107
1333.0, 0.0004709845654824091
1334.0, 0.00037857702479230244
1335.0, 0.00039267514326898147
1336.0, 0.0005358389335827458
1337.0, 0.0005297173414284874
1338.0, 0.000165866357346082
1339.0, 0.0003181127005693267
1340.0, 0.0005237336637106619
1341.0, 0.00033420450822517614
1342.0, 0.0005917789433932561
1343.0, 0.0008001501224376493
1344.0, 3.036687627802723e-05
1345.0, 4.079494740193345e-05
1346.0, 0.00018632724732110353
1347.0, 9.088283873525348e-05
1348.0, 0.00016365644907598262
1349.0, 0.0003066171386663651
1350.0, 0.00019984276969263988
1351.0, 0.0005564265527369962
1352.0, 0.00016773280682973974
1353.0, 0.0003329511044607362
1354.0, 0.00038567746423328724
1355.0, 0.0002628069163036023
1356.0, 0.0003672547495903218
1357.0, 0.0003556913186695479
1358.0, 0.0003750305311577605
1359.0, 0.00042090030888777754
1360.0, 0.00038617622687924994
1361.0, 0.0002848523215041553
1362.0, 0.00021466263056669439
1363.0, 0.00020184774608306377
1364.0, 0.00036128164765821425
1365.0, 0.0007049776029440488
1366.0, 0.000700985323439346
1367.0, 0.0005147402392290338
1368.0, 0.0006049924599839971
1369.0, 0.000524248077193729
1370.0, 0.000231909819254701
1371.0, 0.00026849760891356863
1372.0, 0.00021222555967025642
1373.0, 0.0001252621770325593
1374.0, 0.00023742128691815056
1375.0, 0.00015543947359334502
1376.0, 0.00010562793658665026
1377.0, 0.0002497080007178418
1378.0, 0.0002503459192658938
1379.0, 0.00010818248797809322
1380.0, 4.969081878028441e-05
1381.0, 0.00031571464649572645
1382.0, 7.51536132186188e-05
1383.0, 0.0003740571817006034
1384.0, 0.000682571698492998
1385.0, 0.0006370105586600604
1386.0, 0.000286038113722088
1387.0, 0.0002763739883531386
1388.0, 0.00039899382610176506
1389.0, 0.0001352909621602847
1390.0, 0.000206053806965597
1391.0, 0.0003797359767656179
1392.0, 0.0004057429104427069
1393.0, 0.0006328607546086905
1394.0, 0.0007316536711659331
1395.0, 0.00047710876190324174
1396.0, 0.0003280220021012681
1397.0, 0.0003674822046566427
1398.0, 0.0006752268008281942
1399.0, 0.0012799602560309119
1400.0, 0.00017086170038191632
1401.0, 0.0009909646174314586
1402.0, 0.0010106705352346472
1403.0, 0.0007128452249577788
1404.0, 0.0008152104994142506
1405.0, 0.0012503810107096854
1406.0, 0.000166602235616854
1407.0, 0.0007874968333793673
1408.0, 0.0010123466681035665
1409.0, 0.0009549531582381227
1410.0, 0.000914853791119872
1411.0, 0.0009740705534554767
1412.0, 0.0007189909732709803
1413.0, 0.0006362175907076723
1414.0, 0.0007552024971464516
1415.0, 0.0006986223018564326
1416.0, 0.0007782431355871883
1417.0, 0.0012056253873669418
1418.0, 0.001049232509084922
1419.0, 0.000747116475372134
1420.0, 0.0009727486324179719
1421.0, 0.0008687775093524181
1422.0, 0.0006499967986575508
1423.0, 0.0007665335417891021
1424.0, 0.001240061920083367
1425.0, 0.0007033002602301815
1426.0, 0.0003176596559388934
1427.0, 0.0005093471722392647
1428.0, 0.000923558687150549
1429.0, 0.0011645067767453708
1430.0, 0.0011080621474199143
1431.0, 0.00111388897700874
1432.0, 0.0011100110198308008
1433.0, 0.0010798530002527357
1434.0, 0.0010785225632840194
1435.0, 0.001045431071818928
1436.0, 0.0009554435615699698
1437.0, 0.0011258449367907539
1438.0, 0.0006628053076134805
1439.0, 0.0006264134224595223
1440.0, 0.0009577798133029841
1441.0, 0.0013388670669013045
1442.0, 0.001387618849787746
1443.0, 0.0009244812082774827
1444.0, 0.0015505215635890231
1445.0, 0.001325168965307758
1446.0, 0.0014126615462277208
1447.0, 0.0017354706725239298
1448.0, 0.0016904114719309906
1449.0, 0.0009121622572384606
1450.0, 0.001254941506321646
1451.0, 0.0013042580838471495
1452.0, 0.0009713577669221675
1453.0, 0.0010618353314747917
1454.0, 0.0013722377019702438
1455.0, 0.0013318664753873472
1456.0, 0.0011921388372189165
1457.0, 0.0018148243647118228
1458.0, 0.0012793638767040632
1459.0, 0.0013133629825596474
1460.0, 0.0014811479547207334
1461.0, 0.001421224793828006
1462.0, 0.0017257499498612961
1463.0, 0.001676435359063316
1464.0, 0.0014867419203812053
1465.0, 0.0009510144306386274
1466.0, 0.001264464125618513
1467.0, 0.0017260798130621067
1468.0, 0.00117363361699946
1469.0, 0.001650848679803786
1470.0, 0.002012792418259271
1471.0, 0.001729768412785568
1472.0, 0.001761509843615086
1473.0, 0.0018755230018508763
1474.0, 0.0016911844788792066
1475.0, 0.001395596846985769
1476.0, 0.0015519256873999944
1477.0, 0.0015297649402270846
1478.0, 0.001243957202051932
1479.0, 0.0013518707145987266
1480.0, 0.0015274453998233386
1481.0, 0.0011674825334840378
1482.0, 0.001339257833666757
1483.0, 0.0014626730613572308
1484.0, 0.0008556779567342673
1485.0, 0.0010231359031628343
1486.0, 0.0012724271363076403
1487.0, 0.0011077830945168446
1488.0, 0.0013175221507039801
1489.0, 0.0012038916095500666
1490.0, 0.0012304459581789784
1491.0, 0.0010342846877401787
1492.0, 0.0010528821275203153
1493.0, 0.0010292001509386282
1494.0, 0.0006960957503701707
1495.0, 0.0010505783852981822
1496.0, 0.0008038306768141591
1497.0, 0.00040073951362266523
1498.0, 0.000504367045321717
1499.0, 0.0006421474773758768
1500.0, 0.0006338361567737997
1501.0, 0.0008120182782306654
1502.0, 0.00038051832208969513
1503.0, 0.0006406446408300806
1504.0, 0.0002883128752989773
1505.0, 0.000372407921134222
1506.0, 0.0007122437509178419
1507.0, 0.0006931677489772232
1508.0, 0.0003965670199248492
1509.0, 0.0008199856117412825
1510.0, 0.0008842796086655271
1511.0, 0.0005417331309111761
1512.0, 0.0006993364360233741
1513.0, 0.000827823761184405
1514.0, 8.789228570963404e-05
1515.0, 0.00046803765420204673
1516.0, 0.0001718722965455836
1517.0, 3.8049639880858316e-05
1518.0, 0.0004818399561954875
1519.0, 0.0008231903516178135
1520.0, 0.000563271690315676
1521.0, 9.484476783682236e-07
1522.0, 4.602362663817041e-08
1523, 0.0
1524, 0.0
1525, 0.0
1526, 0.0
1527, 0.0
1528, 0.0
1529, 0.0
1530, 0.0
1531, 0.0
1532, 0.0
1533, 0.0
1534, 0.0
1535, 0.0
1536, 0.0
1537, 0.0
1538, 0.0
1539, 0.0
1540, 0.0
1541, 0.0
1542, 0.0
1543, 0.0
1544, 0.0
1545, 0.0
1546, 0.0
1547, 0.0
1548, 0.0
1549, 0.0
1550, 0.0
1551, 0.0
1552, 0.0
1553, 0.0
1554, 0.0
1555, 0.0
1556, 0.0
1557, 0.0
1558, 0.0
1559, 0.0
1560, 0.0
1561, 0.0
1562, 0.0
1563, 0.0
1564, 0.0
1565, 0.0
1566, 0.0
1567, 0.0
1568, 0.0
1569, 0.0
1570, 0.0
1571, 0.0
1572, 0.0
1573, 0.0
1574, 0.0
1575, 0.0
1576, 0.0
1577, 0.0
1578, 0.0
1579, 0.0
1580, 0.0
1581, 0.0
1582, 0.0
1583, 0.0
1584, 0.0
1585, 0.0
1586, 0.0
1587, 0.0
1588, 0.0
1589, 0.0
1590, 0.0
1591, 0.0
1592, 0.0
1593, 0.0
1594, 0.0
1595, 0.0
1596, 0.0
1597, 0.0
1598, 0.0
1599, 0.0
