30, 0.0
31, 0.0
32, 0.0
33, 0.0
34, 0.0
35, 0.0
36, 0.0
37, 0.0
38, 0.0
39, 0.0
40, 0.0
41, 0.0
42, 0.0
43, 0.0
44, 0.0
45, 0.0
46, 0.0
47, 0.0
48, 0.0
49, 0.0
50, 0.0
51, 0.0
52, 0.0
53, 0.0
54, 0.0
55, 0.0
56, 0.0
57, 0.0
58, 0.0
59, 0.0
60, 0.0
61, 0.0
62, 0.0
63, 0.0
64, 0.0
65, 0.0
66, 0.0
67, 0.0
68, 0.0
69, 0.0
70, 0.0
71, 0.0
72, 0.0
73, 0.0
74, 0.0
75, 0.0
76, 0.0
77, 0.0
78, 0.0
79, 0.0
80, 0.0
81, 0.0
82, 0.0
83, 0.0
84, 0.0
85, 0.0
86, 0.0
87, 0.0
88, 0.0
89, 0.0
90, 0.0
91.0, 0.0001764660333185269
92.0, 0.00014021339645898872
93.0, 0.00025070107167794443
94.0, 0.0014146239235327933
95.0, 0.0015058736601138215
96.0, 0.0007417499921712329
97.0, 0.0003047807748418454
98.0, 0.0011348565299776582
99.0, 0.0018901509395893663
100.0, 0.0016746508904313926
101.0, 0.0016674151073808373
102.0, 0.002355193970057592
103.0, 0.002110178553259144
104.0, 0.0020042517064751872
105.0, 0.002457422439132643
106.0, 0.0028897637901784674
107.0, 0.0032994393453406965
108.0, 0.003497344091130066
109.0, 0.003390413862738938
110.0, 0.0025001084831736326
111.0, 0.002155026697066222
112.0, 0.003823483701029049
113.0, 0.0047300573457519654
114.0, 0.004642260693232756
115.0, 0.005006768391065122
116.0, 0.004149435265499334
117.0, 0.002185638183626045
118.0, 0.0006323772077507826
119.0, 0.00078994419911781
120.0, 0.0011895259872113054
121.0, 0.0014516812083197298
122.0, 0.0010610670908300902
123.0, 0.0002105824589250626
124.0, 0.0004775070298912683
125.0, 0.0007977709922123702
126.0, 0.0005271824009957756
127.0, 0.00016842957076920124
128.0, 0.00035079091371259747
129.0, 0.0007179285241660993
130.0, 0.00012249135610932504
131.0, 0.0018094386345596813
132.0, 0.0006167383639179326
133.0, 0.0004069067020129085
134.0, 0.00022169155894522137
135.0, 0.00015164731513932268
136.0, 0.0003393154591987515
137.0, 0.0009000498586875641
138.0, 0.002639024326994881
139.0, 0.0043557733509028505
140.0, 0.004843148953466606
141.0, 0.004787146925132596
142.0, 0.0057848017476737346
143.0, 0.006608123279987917
144.0, 0.006712120955122203
145.0, 0.007309470411311484
146.0, 0.00787948939203529
147.0, 0.01020612987356543
148.0, 0.013357656340109852
149.0, 0.014822391586595063
150.0, 0.018415219045641928
151.0, 0.02278576033843426
152.0, 0.026747938064931753
153.0, 0.02999527379731863
154.0, 0.03404735414421688
155.0, 0.037670852653144106
156.0, 0.040157588801062495
157.0, 0.04177036361797194
158.0, 0.04391569367698393
159.0, 0.04519878170963991
160.0, 0.04824454634772008
161.0, 0.05228971530572736
162.0, 0.05424387265138386
163.0, 0.05643280833096061
164.0, 0.060880845669050346
165.0, 0.0658034710979788
166.0, 0.07047973894264574
167.0, 0.07660625087232563
168.0, 0.07970699893080002
169.0, 0.08197668360625675
170.0, 0.08307105768673248
171.0, 0.07645728641115254
172.0, 0.0657912525752531
173.0, 0.05590133904943098
174.0, 0.04779649684767579
175.0, 0.04007903673288927
176.0, 0.03386190502136035
177.0, 0.030126465843148213
178.0, 0.02697712162366786
179.0, 0.02300464977241807
180.0, 0.021359932559420456
181.0, 0.01916470626948869
182.0, 0.01733911536166602
183.0, 0.016397128585870155
184.0, 0.014587168934681755
185.0, 0.013388594582758387
186.0, 0.013043835647812245
187.0, 0.013058392844621236
188.0, 0.012729217275829981
189.0, 0.013542909884578853
190.0, 0.013621206921540879
191.0, 0.01322937488708556
192.0, 0.013384584225643628
193.0, 0.013587735174288029
194.0, 0.014739143594648353
195.0, 0.015882863707129928
196.0, 0.016751571477190898
197.0, 0.01814262974833707
198.0, 0.017809583450971108
199.0, 0.0190106068002386
200.0, 0.021168351386797454
201.0, 0.022247761474599864
202.0, 0.02327662430314717
203.0, 0.025253862069278214
204.0, 0.028154006980132
205.0, 0.03094197219873578
206.0, 0.03198398652131525
207.0, 0.033804193783662125
208.0, 0.03642467393639208
209.0, 0.03910691847166985
210.0, 0.0410097593426914
211.0, 0.042212518283825676
212.0, 0.042342391357640015
213.0, 0.04307656686920574
214.0, 0.04484805626251343
215.0, 0.042544937305314105
216.0, 0.039930892223307854
217.0, 0.03688280391460851
218.0, 0.034154492799680365
219.0, 0.033246255541377945
220.0, 0.029925198235132764
221.0, 0.02626441295475831
222.0, 0.024006097912529244
223.0, 0.023003882881429388
224.0, 0.020135582701140454
225.0, 0.01784139540498609
226.0, 0.01575410855404207
227.0, 0.014183984446060513
228.0, 0.014230562385835541
229.0, 0.01294442798067557
230.0, 0.01090439360072966
231.0, 0.009581996870060245
232.0, 0.009705367112818315
233.0, 0.009588272207188862
234.0, 0.008343452277247863
235.0, 0.007074686391914512
236.0, 0.006266845040609176
237.0, 0.005445889546422313
238.0, 0.00571810897633622
239.0, 0.005974670165186486
240.0, 0.005601875110097759
241.0, 0.004581147307768766
242.0, 0.004432386156756929
243.0, 0.0041206475826120045
244.0, 0.0032388277013786844
245.0, 0.001986757070251002
246.0, 0.0013391793306695048
247.0, 0.0028973367399851473
248.0, 0.0026175820655445345
249.0, 0.0018536896567283572
250.0, 0.002295961017468452
251.0, 0.0008704240979489017
252.0, 0.0008390581489249871
253.0, 0.001254185355224768
254.0, 0.001208334311666564
255.0, 0.0005547681253247856
256.0, 0.0008016623834397615
257.0, 0.0005117207950073502
258.0, 0.00022167317012025475
259.0, 0.0005162268675649793
260.0, 0.0005186717621317332
261.0, 0.0006662271668802196
262.0, 0.0003061672297071417
263.0, 0.0007257102870065638
264.0, 5.8751571800483705e-05
265.0, 5.94014071499336e-05
266.0, 0.001240573698716611
267.0, 0.0016117699647887832
268.0, 0.0005815207796509108
269.0, 0.0012089254179116003
270.0, 0.001109315706038949
271.0, 0.00041827858242748754
272.0, 0.0006330380806674431
273.0, 0.0002013103728562035
274.0, 0.0018001575432860736
275.0, 0.0004886344118311911
276.0, 0.0012458211715976866
277.0, 0.0013463407155269115
278.0, 0.0010900063167682509
279.0, 0.0005375186802145356
280.0, 0.00014935778577200267
281.0, 0.0003047520800757922
282.0, 0.00012097812123023941
283.0, 0.0008710818650762269
284.0, 0.0008457815928302451
285.0, 0.0006939249150427075
286.0, 0.0012276024554398056
287.0, 0.002256680075991401
288.0, 0.00240111941020766
289.0, 0.002720669209883066
290.0, 0.0032012925694873853
291.0, 0.003517058759205983
292.0, 0.0035771377216590756
293.0, 0.003476981177140409
294.0, 0.0038984894550858702
295.0, 0.005079034007916445
296.0, 0.006504493685185983
297.0, 0.0068336860685705705
298.0, 0.007722537343307113
299.0, 0.008640459201756571
300.0, 0.009107592070334191
301.0, 0.009423762285988083
302.0, 0.010790697404710291
303.0, 0.012484079620664284
304.0, 0.013894554135446368
305.0, 0.015345970059683842
306.0, 0.017656362073862748
307.0, 0.019409267518115985
308.0, 0.020990561348346183
309.0, 0.02311721799551801
310.0, 0.026198295727467347
311.0, 0.029934439163375876
312.0, 0.03341684608774807
313.0, 0.036929176996451304
314.0, 0.041040530960120225
315.0, 0.04534712681148797
316.0, 0.04710069388320257
317.0, 0.04716732471276796
318.0, 0.04674530390850906
319.0, 0.04664792884927117
320.0, 0.04752797786808643
321.0, 0.0502522107585117
322.0, 0.05285763120829978
323.0, 0.055912564335004494
324.0, 0.05992329729074335
325.0, 0.06448205321814361
326.0, 0.06934643190348573
327.0, 0.07604626698035387
328.0, 0.08340850002424416
329.0, 0.0903489219166912
330.0, 0.0988208221943651
331.0, 0.10448483237731443
332.0, 0.10966727570417989
333.0, 0.11556207740785535
334.0, 0.12196404924335448
335.0, 0.1288565126489404
336.0, 0.13704582554907346
337.0, 0.1467921014298907
338.0, 0.15728517717290452
339.0, 0.16865629252821432
340.0, 0.18779434973216402
341.0, 0.20459056605167214
342.0, 0.2220507625217383
343.0, 0.2445709306955437
344.0, 0.27020576654927325
345.0, 0.29008317038357095
346.0, 0.3066375929131734
347.0, 0.31777107145738764
348.0, 0.31962394819015677
349.0, 0.30867824304781444
350.0, 0.28645233635683465
351.0, 0.25741903874723837
352.0, 0.22602696506754935
353.0, 0.19589804791029852
354.0, 0.16891575380104512
355.0, 0.14620294092417374
356.0, 0.12948369285206135
357.0, 0.1159008392151632
358.0, 0.10337245871900767
359.0, 0.09714142347748991
360.0, 0.09156328972935855
361.0, 0.0888920133676098
362.0, 0.08799359494290554
363.0, 0.08590596913463353
364.0, 0.08753298170381063
365.0, 0.08988605008190884
366.0, 0.09156402422803567
367.0, 0.09335952934624343
368.0, 0.09664984826081428
369.0, 0.09897824635248331
370.0, 0.10081093378733638
371.0, 0.1015662785693475
372.0, 0.10069546835499794
373.0, 0.09837867039468867
374.0, 0.09575661087691524
375.0, 0.09005124553579798
376.0, 0.08290177196506873
377.0, 0.07537396084215194
378.0, 0.06670680931540206
379.0, 0.05896080371954745
380.0, 0.051029343016528506
381.0, 0.04344644154818226
382.0, 0.03729919396766242
383.0, 0.032510823431347716
384.0, 0.027710147831582772
385.0, 0.02336150648662035
386.0, 0.020949567663615085
387.0, 0.01976146717222592
388.0, 0.016214648320264598
389.0, 0.013307693279313021
390.0, 0.012217525825139916
391.0, 0.011171692093184898
392.0, 0.00938914706584339
393.0, 0.008746034391483195
394.0, 0.006659418960136613
395.0, 0.005264581174190679
396.0, 0.004985579961754314
397.0, 0.00492951146082108
398.0, 0.004265947216621079
399.0, 0.0032357084068720763
400.0, 0.002382820305667332
401.0, 0.001671512329822894
402.0, 0.0012217491457728847
403.0, 0.0019977279204398215
404.0, 0.0014742182632252144
405.0, 0.0013287838612536576
406.0, 0.0014027161139252425
407.0, 0.0011177379542930527
408.0, 0.0012892749439024204
409.0, 0.0006355272815898979
410.0, 7.247145617552062e-05
411.0, 0.00011970957779432641
412.0, 0.0001900533757019302
413.0, 0.0008138917366896743
414.0, 0.0008771041069175484
415.0, 0.00024177950534207368
416.0, 0.0005147546469245609
417.0, 0.0005527747746257364
418.0, 0.00015485840357806738
419.0, 0.0008355009863001267
420.0, 0.0011019031036975662
421.0, 0.0005864972333675798
422.0, 0.0003455567861028848
423.0, 0.0006416277426651498
424.0, 0.0005875799571827864
425.0, 0.0007215673980503061
426.0, 0.00028002408187345834
427.0, 0.0005878074314602828
428.0, 0.00025060835669124933
429.0, 1.6059481373498316e-05
430.0, 0.00023057566598639888
431.0, 0.0005037535179692101
432.0, 0.0003116180467251887
433.0, 0.0003313562694748825
434.0, 5.0199158442936144e-05
435.0, 0.00036136417780498794
436.0, 0.0008743491300898698
437.0, 0.000811265055098548
438.0, 0.00015549862595933987
439.0, 1.7671223990207513e-05
440.0, 6.129163626293821e-06
441.0, 0.00011505928767873202
442.0, 4.555837323276914e-05
443.0, 0.0007415129443636536
444.0, 0.0005517605382510814
445.0, 0.0002035062455463861
446.0, 0.0002299965440304052
447.0, 0.0001624811223182752
448.0, 0.0001638101766785918
449.0, 0.0001242984799497758
450.0, 0.000490549088091517
451.0, 0.0010211720019657196
452.0, 0.0013227199447710786
453.0, 0.0012075849695934436
454.0, 0.0008752811101156879
455.0, 0.0012102408067069966
456.0, 0.0011584370796965608
457.0, 0.0013982751525196276
458.0, 0.0026228425276578838
459.0, 0.00318074302944745
460.0, 0.002574194016696061
461.0, 0.0024449535756445517
462.0, 0.003387817437432066
463.0, 0.004393208865402285
464.0, 0.0041855691518633345
465.0, 0.005833893342521452
466.0, 0.006855847547831292
467.0, 0.007852466569711723
468.0, 0.009054230262757382
469.0, 0.008921944363008326
470.0, 0.009412727361331957
471.0, 0.011794128130053573
472.0, 0.013873789041890142
473.0, 0.014720207719021843
474.0, 0.015760903782524795
475.0, 0.01791359393519468
476.0, 0.019238750368526323
477.0, 0.021532595582278262
478.0, 0.02355930510119781
479.0, 0.023494878595826368
480.0, 0.024010508590622974
481.0, 0.022512378658461056
482.0, 0.020688084708258867
483.0, 0.01914329610110222
484.0, 0.01761891278100762
485.0, 0.015972535064931386
486.0, 0.015978454716912626
487.0, 0.016921290931169744
488.0, 0.01778170921643941
489.0, 0.01850047783300114
490.0, 0.02019432367144944
491.0, 0.02349429717448087
492.0, 0.027011725467196605
493.0, 0.030687985233209834
494.0, 0.03549454306723247
495.0, 0.042135178197941374
496.0, 0.04905586236387165
497.0, 0.05439677703854111
498.0, 0.06248663454972391
499.0, 0.07098536374252276
500.0, 0.07621041256268209
501.0, 0.07971435620728996
502.0, 0.07933870544218316
503.0, 0.07228550285151918
504.0, 0.0621464700529138
505.0, 0.05149435580838124
506.0, 0.03991232241381818
507.0, 0.03064712703620655
508.0, 0.02439313007147818
509.0, 0.01895116457561191
510.0, 0.014463692549105218
511.0, 0.012064434106770017
512.0, 0.009801276770483978
513.0, 0.008765416885023075
514.0, 0.007278184102785698
515.0, 0.00585122290438392
516.0, 0.005025168293060089
517.0, 0.0037047514566095987
518.0, 0.00407595140525255
519.0, 0.0037406016133647653
520.0, 0.0031916337972616856
521.0, 0.002959498289055068
522.0, 0.002695686224822293
523.0, 0.002254235825000644
524.0, 0.0024127677979553465
525.0, 0.002670482590305686
526.0, 0.002743418163184541
527.0, 0.0026499586304463215
528.0, 0.0024325986734626067
529.0, 0.0024277578002377923
530.0, 0.0024787116823551665
531.0, 0.0025223700143764695
532.0, 0.0029027642408685503
533.0, 0.0038332199670096474
534.0, 0.004005749191189248
535.0, 0.004509260386770391
536.0, 0.005979188198613488
537.0, 0.007787785398021724
538.0, 0.009079443811355292
539.0, 0.009958766661341049
540.0, 0.012096165808659975
541.0, 0.014497318591159304
542.0, 0.016900578774534734
543.0, 0.019791068038720376
544.0, 0.023508880737999775
545.0, 0.027405694396081932
546.0, 0.03072205222221117
547.0, 0.03453770093452282
548.0, 0.03911481257260442
549.0, 0.04436972415196052
550.0, 0.05131469997836535
551.0, 0.058988844696270096
552.0, 0.06599942848085845
553.0, 0.07293471557656762
554.0, 0.08017801464306284
555.0, 0.086291356271011
556.0, 0.08913105804754588
557.0, 0.08998995518853194
558.0, 0.08673577522197315
559.0, 0.08019605644030828
560.0, 0.07199436105293965
561.0, 0.061755519034642124
562.0, 0.05177191265864102
563.0, 0.042060650391877036
564.0, 0.03405526756717179
565.0, 0.027992063575010325
566.0, 0.02299618496517184
567.0, 0.0183666072886766
568.0, 0.014570094224943462
569.0, 0.012520310424860005
570.0, 0.01066301945382379
571.0, 0.008322891021363863
572.0, 0.007037993981126715
573.0, 0.0062251202753174605
574.0, 0.006457782387546943
575.0, 0.0068179291065872515
576.0, 0.006429969065069998
577.0, 0.005623927433647918
578.0, 0.006643288706655737
579.0, 0.006953713196304221
580.0, 0.007210677794283069
581.0, 0.009081315961013164
582.0, 0.010904817241205499
583.0, 0.010387904213566295
584.0, 0.011606934285944625
585.0, 0.01125648329312755
586.0, 0.01026939785060002
587.0, 0.009235855951441696
588.0, 0.007858273520026328
589.0, 0.005911339004790389
590.0, 0.005263159194696689
591.0, 0.004408390428094572
592.0, 0.0038224961320156
593.0, 0.003359066858225102
594.0, 0.003190557017587574
595.0, 0.004391747487564931
596.0, 0.004542993791235979
597.0, 0.0041911649307521314
598.0, 0.003343453547096871
599.0, 0.003348465999689714
600.0, 0.004599618210889611
601.0, 0.0036751673714551574
602.0, 0.002042095112453377
603.0, 0.0010581594691555537
604.0, 0.00078838455089122
605.0, 0.0007872332563384688
606.0, 0.0004392981373407597
607.0, 0.0010201186287226104
608.0, 0.001183146230337788
609.0, 0.0011285270819317995
610.0, 0.0011867697681399846
611.0, 0.0011795616661680224
612.0, 0.0012546224772294582
613.0, 0.0014474751824922127
614.0, 0.0002721803934518841
615.0, 0.00031054166967788986
616.0, 0.0005913601212406991
617.0, 0.0012170161178832399
618.0, 0.0013834350609046309
619.0, 0.0016766907125451587
620.0, 0.0017152160241081108
621.0, 0.0028520855288142475
622.0, 0.004504857659566827
623.0, 0.005590573773047761
624.0, 0.006848499835699215
625.0, 0.00803753071060106
626.0, 0.009574497075309642
627.0, 0.011481116993077625
628.0, 0.013388225970844896
629.0, 0.01515945584672146
630.0, 0.01727043877663261
631.0, 0.019058483997594088
632.0, 0.02033899018725495
633.0, 0.021212190297888244
634.0, 0.021628962199442932
635.0, 0.02118110375222906
636.0, 0.019184083815819805
637.0, 0.017003678670972733
638.0, 0.014524385521272509
639.0, 0.012457596964632651
640.0, 0.010547292445387083
641.0, 0.00849545711577197
642.0, 0.00766159319513665
643.0, 0.006457212265663826
644.0, 0.006049060808086209
645.0, 0.005564742316001777
646.0, 0.004678005321487562
647.0, 0.003935365756098897
648.0, 0.0037189430757025464
649.0, 0.003137698791882518
650.0, 0.0027634934367190174
651.0, 0.0023604749362694296
652.0, 0.0019186425287605671
653.0, 0.0017752911058769845
654.0, 0.0017928624725892556
655.0, 0.0011902893921195766
656.0, 0.0011428425690943073
657.0, 0.0012751387254429476
658.0, 0.0011350390335613848
659.0, 0.0008234949249304547
660.0, 0.0009271846843950016
661.0, 0.0003470316218254326
662.0, 0.00044863170088890747
663.0, 0.0010214972736246515
664.0, 0.0010078127677744454
665.0, 0.00024999284873776116
666.0, 6.969557627066704e-05
667.0, 0.00029839105857215446
668.0, 0.000959745627728691
669.0, 0.0009915459550221036
670.0, 0.000531581741050329
671.0, 0.00024777319805309163
672.0, 0.00029345277624226473
673.0, 0.0006799107800862817
674.0, 0.000517535196275632
675.0, 0.0008987866034251383
676.0, 0.0007121969880427107
677.0, 0.0003495197192391626
678.0, 0.00016755604031465626
679.0, 0.00018824539804907756
680.0, 0.0002980208135152198
681.0, 0.00042623235335009313
682.0, 0.000485745412947595
683.0, 0.00036393313926370044
684.0, 6.546465249394694e-05
685.0, 0.000390538335906479
686.0, 0.0004970450142471782
687.0, 0.0001590855445070742
688.0, 0.000906924765067291
689.0, 0.00136110947644883
690.0, 0.0007023923411501463
691.0, 0.0007421853391753992
692.0, 0.0008926961834654717
693.0, 0.0008526647707476872
694.0, 0.0008899699019352136
695.0, 0.000968582666268977
696.0, 0.00092512669607142
697.0, 0.0010497736810066037
698.0, 0.0015771636834895912
699.0, 0.0016047356781949593
700.0, 0.0014218156170067017
701.0, 0.0014886410443165708
702.0, 0.001600438132752158
703.0, 0.0011537426043973693
704.0, 0.0013523356546614749
705.0, 0.0019424600138628876
706.0, 0.001745277984952292
707.0, 0.0016427068521175851
708.0, 0.0022087157808018468
709.0, 0.00253703052078441
710.0, 0.0021887703721616835
711.0, 0.002007930996809609
712.0, 0.0019269402868591894
713.0, 0.0023562178053303058
714.0, 0.002569881027973983
715.0, 0.0017188391652065513
716.0, 0.0016426455293438304
717.0, 0.002590471580280981
718.0, 0.002203931574199468
719.0, 0.002372206206619604
720.0, 0.0028681508991307216
721.0, 0.0025282250447575334
722.0, 0.0023882951101978924
723.0, 0.0028170730931227936
724.0, 0.003075264192880681
725.0, 0.002802714440824805
726.0, 0.0024016084899846665
727.0, 0.002540292109138244
728.0, 0.0031914958950739064
729.0, 0.002840094542212807
730.0, 0.0034270906994720934
731.0, 0.0034454834746692415
732.0, 0.003017585846331736
733.0, 0.0029171472498129743
734.0, 0.0031972246833968125
735.0, 0.0033484904114682045
736.0, 0.004002895233921815
737.0, 0.0036889586852389667
738.0, 0.003805234010711378
739.0, 0.0040603834427419385
740.0, 0.004166832762871099
741.0, 0.004548185021801268
742.0, 0.004249281830412089
743.0, 0.004249758994778224
744.0, 0.004011687626012978
745.0, 0.0036472112431610755
746.0, 0.003921319158059906
747.0, 0.004512554277914041
748.0, 0.004274307982839403
749.0, 0.0046476676512638565
750.0, 0.0038668884484953053
751.0, 0.004581407311664997
752.0, 0.0054219850228395235
753.0, 0.005624894135160136
754.0, 0.005900426434232256
755.0, 0.005108374066845233
756.0, 0.00474029478466918
757.0, 0.005646892149875356
758.0, 0.005705080354148302
759.0, 0.005280979434129587
760.0, 0.005583182150113515
761.0, 0.006010561282335248
762.0, 0.0059194751048742816
763.0, 0.005695930481845462
764.0, 0.005346667863139144
765.0, 0.005031315920640239
766.0, 0.004916474884730128
767.0, 0.0048341288152907655
768.0, 0.004653913445644221
769.0, 0.004931406377336692
770.0, 0.004366946316610744
771.0, 0.003956541242009501
772.0, 0.004252927121316449
773.0, 0.004399392563418152
774.0, 0.003639481725530386
775.0, 0.0028508974928204644
776.0, 0.002735408919712546
777.0, 0.0037466152463868333
778.0, 0.0030373379740720394
779.0, 0.002176521474101385
780.0, 0.0025450444021119785
781.0, 0.0024166992997906025
782.0, 0.0019530235449232193
783.0, 0.002306569640557564
784.0, 0.0022784852475981245
785.0, 0.002000420139012169
786.0, 0.0019360281768620725
787.0, 0.0017470887032759164
788.0, 0.0010998561995562918
789.0, 0.001442713036155124
790.0, 0.001582838000083512
791.0, 0.0013584356075139667
792.0, 0.0012183438061294668
793.0, 0.0009720153223987195
794.0, 0.0006541211346257023
795.0, 0.0009022258443310125
796.0, 0.00034014011344331985
797.0, 0.00011335848956211826
798.0, 0.00023138678189869237
799.0, 0.0002932370059526607
800.0, 1.1287470015452847e-05
801.0, 0.00024268330277396166
802.0, 0.000653289058417726
803.0, 6.158522640909884e-05
804.0, 0.00011051147522101408
805.0, 0.0003965985484644501
806.0, 0.0002542648605878818
807.0, 0.00013390242320910538
808.0, 0.0003586714740143943
809.0, 0.00038594139045588176
810.0, 0.0001540507870078599
811.0, 8.089877613424617e-05
812.0, 5.468512916906933e-05
813.0, 7.809242959988091e-05
814.0, 8.271573430974957e-05
815.0, 0.00020529472974060452
816.0, 0.00025260841206966466
817.0, 0.0002586811523134301
818.0, 0.00024035431071304218
819.0, 0.00034527889319032614
820.0, 0.0006802228601811005
821.0, 0.0008113222151596088
822.0, 0.0003837821568750462
823.0, 0.000955271510446075
824.0, 0.00110134604165291
825.0, 0.0009139034948797483
826.0, 0.0008874537436177391
827.0, 0.001039834963033048
828.0, 0.0007174221476088745
829.0, 0.0003024708387032728
830.0, 0.0010596316167124096
831.0, 0.0008172394543214708
832.0, 0.0009962969314941444
833.0, 0.00033578006160265114
834.0, 0.0004425703683651053
835.0, 0.0003512322358103216
836.0, 0.00039184607482450776
837.0, 0.0021620609033211778
838.0, 0.0012804740874666483
839.0, 0.002264595920746018
840.0, 0.0019743793506395036
841.0, 0.0027354534221180437
842.0, 0.0032592444916824045
843.0, 0.003196096963110045
844.0, 0.004887178890839989
845.0, 0.006174923675986577
846.0, 0.008542185764475704
847.0, 0.008900015154434601
848.0, 0.011682115299818508
849.0, 0.014301873294026185
850.0, 0.015128810716947482
851.0, 0.01652845657773875
852.0, 0.0185041551130951
853.0, 0.021634885990824925
854.0, 0.022780550244700014
855.0, 0.026473796830828684
856.0, 0.02999446894023578
857.0, 0.032673984644018
858.0, 0.03598623107544603
859.0, 0.0387602732886865
860.0, 0.04161445722677371
861.0, 0.04506257854495805
862.0, 0.04800246342939681
863.0, 0.0495650555882612
864.0, 0.049883590133346895
865.0, 0.04879542467611668
866.0, 0.045912322246478156
867.0, 0.04277715150323757
868.0, 0.040206200917997016
869.0, 0.03672767180829239
870.0, 0.03418660722940639
871.0, 0.03213828421449547
872.0, 0.029696190145805657
873.0, 0.027622099472187012
874.0, 0.027507249320296558
875.0, 0.026200820562909802
876.0, 0.026817358303062797
877.0, 0.028069784018035306
878.0, 0.028242850789544312
879.0, 0.02878685491930586
880.0, 0.029912599536141588
881.0, 0.03025281621957227
882.0, 0.03248284140121189
883.0, 0.034599929151730255
884.0, 0.03827476287512181
885.0, 0.04222075069496141
886.0, 0.046332216343766705
887.0, 0.05040117113019034
888.0, 0.05504629270979468
889.0, 0.06171961586088328
890.0, 0.06724530364333786
891.0, 0.07411126856659296
892.0, 0.08213065536754274
893.0, 0.09009278646424825
894.0, 0.09916670911209959
895.0, 0.1094172661639403
896.0, 0.1200793197450137
897.0, 0.13271818861049453
898.0, 0.14640318725588708
899.0, 0.16051054932444692
900.0, 0.175810534185691
901.0, 0.19457244064977783
902.0, 0.21616255634583373
903.0, 0.24205067916754391
904.0, 0.27524829210888413
905.0, 0.31117236348517646
906.0, 0.35105080644389963
907.0, 0.39962568935566223
908.0, 0.4482073651989955
909.0, 0.5058772249543971
910.0, 0.5726082515566855
911.0, 0.6425994139681597
912.0, 0.7184541902013197
913.0, 0.7939890789444924
914.0, 0.8714586337231486
915.0, 0.9326971649299729
916.0, 0.979808381853818
917.0, 0.9998449725438944
918.0, 0.9890571919574226
919.0, 0.9478848387906552
920.0, 0.8708242120443371
921.0, 0.7798170741263808
922.0, 0.6816891067621001
923.0, 0.5831107599952537
924.0, 0.49604382155471893
925.0, 0.4205681780301411
926.0, 0.3561066389967945
927.0, 0.3031589582846091
928.0, 0.257095265865957
929.0, 0.21929043599479572
930.0, 0.1882961546735205
931.0, 0.16540253969249943
932.0, 0.14316047702833565
933.0, 0.12427490489046804
934.0, 0.10936792112083221
935.0, 0.09520583113444164
936.0, 0.08294104419568549
937.0, 0.07181798528474952
938.0, 0.06300085085532225
939.0, 0.05531413631331802
940.0, 0.0479036915545177
941.0, 0.04141868481255791
942.0, 0.03652902012457848
943.0, 0.031800920631616894
944.0, 0.02650118969417674
945.0, 0.024874130599258835
946.0, 0.021525920938138664
947.0, 0.017879694220848022
948.0, 0.015444933968014121
949.0, 0.01334142301862912
950.0, 0.011082852858131181
951.0, 0.009671666424661829
952.0, 0.009320710958966987
953.0, 0.007715116554190874
954.0, 0.00577786847751308
955.0, 0.005877304137343057
956.0, 0.005877029772968754
957.0, 0.00440363567355796
958.0, 0.003013416606559463
959.0, 0.0028445922993744067
960.0, 0.0026377311239710564
961.0, 0.0015138340638648706
962.0, 0.0014145308166856614
963.0, 0.0023785481919808625
964.0, 0.0013785066496338344
965.0, 0.00014537745556194025
966.0, 0.00030284573403999897
967.0, 0.0008667684305939614
968.0, 0.00066172808050025
969.0, 0.0004265994526284937
970.0, 0.00013970749402329117
971.0, 0.00015878477278836935
972.0, 0.0008118004662234825
973.0, 0.00044842966783214725
974.0, 0.00015848106326179086
975.0, 0.0005496274213388379
976.0, 0.0005502898555507806
977.0, 0.00019497653666918554
978.0, 0.000253717386646888
979.0, 0.0007848125525391218
980.0, 0.0005084699584988653
981.0, 8.239541735844537e-05
982.0, 0.00013884054633730617
983.0, 0.00018381204011735981
984.0, 0.0005595338667362029
985.0, 0.0008880521405234944
986.0, 0.0007129610201761422
987.0, 0.001242804115866845
988.0, 0.0009905435393147567
989.0, 0.0005277919150012289
990.0, 0.0006464519804806228
991.0, 0.0005787501093220854
992.0, 0.0007568137489871865
993.0, 0.0013864646225960594
994.0, 0.0014584342936554836
995.0, 0.0005540876847734205
996.0, 0.0002978255306901193
997.0, 0.0007244569360549141
998.0, 0.0001932761207619063
999.0, 0.00029507353436241366
1000.0, 0.0004442525649747085
1001.0, 0.0009611659317182251
1002.0, 0.000713158445683475
1003.0, 0.0011959392031970367
1004.0, 0.0009722402944421112
1005.0, 0.0022299588881787903
1006.0, 0.00247477213347791
1007.0, 0.0026030991941911404
1008.0, 0.0033197449854777
1009.0, 0.003602434516338379
1010.0, 0.00449837721532552
1011.0, 0.005842303463459832
1012.0, 0.00541189852309313
1013.0, 0.005799325268300571
1014.0, 0.006709551961543856
1015.0, 0.007430265557199532
1016.0, 0.008598958676942397
1017.0, 0.009644143428879072
1018.0, 0.010840510994160118
1019.0, 0.011919314831501413
1020.0, 0.01277528406493009
1021.0, 0.0140219796617251
1022.0, 0.01510028563124293
1023.0, 0.01605948515337766
1024.0, 0.017575919037647457
1025.0, 0.018936305616569525
1026.0, 0.020425564668290406
1027.0, 0.022786773184882144
1028.0, 0.025508876031591455
1029.0, 0.027871618152409846
1030.0, 0.030058688649817696
1031.0, 0.032361655994081216
1032.0, 0.03534331964374098
1033.0, 0.0384079827038995
1034.0, 0.04144167730223689
1035.0, 0.04472182882736772
1036.0, 0.04678005605606906
1037.0, 0.048389044717401644
1038.0, 0.051151202122293064
1039.0, 0.053502150980505106
1040.0, 0.05347262652829581
1041.0, 0.055814503635019184
1042.0, 0.05428055245460001
1043.0, 0.053563577168824116
1044.0, 0.050913472905081955
1045.0, 0.04835275960635266
1046.0, 0.04538933391225178
1047.0, 0.04191884071633947
1048.0, 0.03890435400341082
1049.0, 0.03511109001258053
1050.0, 0.031018935802385787
1051.0, 0.02772533543882201
1052.0, 0.023602740900689236
1053.0, 0.020653624255980208
1054.0, 0.018469765996317486
1055.0, 0.0155931506343502
1056.0, 0.013501633377795195
1057.0, 0.011823700439049296
1058.0, 0.009203158345044224
1059.0, 0.008157360275313165
1060.0, 0.00690694473028564
1061.0, 0.007051020688862035
1062.0, 0.0057582338344899665
1063.0, 0.004749418481921954
1064.0, 0.004521559489176465
1065.0, 0.0044407210753016025
1066.0, 0.0036912201776617224
1067.0, 0.0026552973681496805
1068.0, 0.0023426712066982355
1069.0, 0.002131599338531921
1070.0, 0.00216105407614842
1071.0, 0.0020974200539541766
1072.0, 0.0020170789885063304
1073.0, 0.001299525817226395
1074.0, 0.001463820301564152
1075.0, 0.0017506772126965298
1076.0, 0.0017761174311342407
1077.0, 0.0019343979504008934
1078.0, 0.0012907362757660866
1079.0, 0.001205211029885066
1080.0, 0.0008751613911055499
1081.0, 0.00034790550746592884
1082.0, 0.0010721605931117506
1083.0, 0.001014761266794563
1084.0, 0.0007201796209767297
1085.0, 0.00140361864259975
1086.0, 0.0015864290789047318
1087.0, 0.0006842906342119123
1088.0, 0.0009360921718246889
1089.0, 0.0008939124926528774
1090.0, 0.0005159650683233771
1091.0, 0.000999256849661406
1092.0, 0.0007388717479353713
1093.0, 0.0007438803134602036
1094.0, 0.0010469538030943991
1095.0, 0.0008291364551365459
1096.0, 0.00048405176501133346
1097.0, 0.0006276134914650717
1098.0, 0.0006534879808363943
1099.0, 0.0005152127355102493
1100.0, 0.0007338973812874481
1101.0, 0.00040900061164697213
1102.0, 0.0004786375835773677
1103.0, 6.595454875629346e-05
1104.0, 0.00034787493697620346
1105.0, 0.00030042245370111406
1106.0, 0.00040776831400393687
1107.0, 0.00032823006985232856
1108.0, 0.0002939721617460502
1109.0, 0.00016016026278328866
1110.0, 3.894127780087515e-05
1111.0, 0.00046289936556213846
1112.0, 0.0005665279768459468
1113.0, 6.436034622313447e-05
1114.0, 0.0007462754631850499
1115.0, 0.0005971757865848846
1116.0, 0.00022118582582610844
1117.0, 0.000749641333924373
1118.0, 0.0011377133391234288
1119.0, 0.0010794778854879097
1120.0, 0.00040149768036145615
1121.0, 0.000976902986168675
1122.0, 0.0007210061321619936
1123.0, 0.00021850182108043264
1124.0, 0.00023545040004065816
1125.0, 0.0001700508662818961
1126.0, 0.00033267006356159097
1127.0, 0.0004198917786966158
1128.0, 0.0009217827755234452
1129.0, 9.798722075217944e-05
1130.0, 0.00013717879848970007
1131.0, 0.0008646582013053701
1132.0, 0.0007150989868102237
1133.0, 0.000514461507238038
1134.0, 0.000127468092254924
1135.0, 0.0007222715826444357
1136.0, 0.0011903984860145516
1137.0, 0.0007999513792573638
1138.0, 0.000713839157672945
1139.0, 0.0008746729535489981
1140.0, 0.00044805786893165284
1141.0, 0.0009093344692888042
1142.0, 0.0013789180904756335
1143.0, 0.0004797148517396674
1144.0, 0.0012996740943670684
1145.0, 0.0011667486581879132
1146.0, 0.0013581945480830835
1147.0, 0.0010374572606517854
1148.0, 0.001114252387435441
1149.0, 0.0017852117500402748
1150.0, 0.0016549167122831428
1151.0, 0.0013128025444389163
1152.0, 0.0015872215186710336
1153.0, 0.002032881266140194
1154.0, 0.0020494589572853943
1155.0, 0.002750899380726985
1156.0, 0.0022515627826546836
1157.0, 0.002949124726277594
1158.0, 0.003099871414603129
1159.0, 0.002782480583340736
1160.0, 0.002933197163088297
1161.0, 0.003087879301023358
1162.0, 0.003103760656515536
1163.0, 0.003513801699973391
1164.0, 0.003693633338346651
1165.0, 0.0036947088277142024
1166.0, 0.0033984447500541855
1167.0, 0.0026091425421189284
1168.0, 0.0035116881821238765
1169.0, 0.004065740369029359
1170.0, 0.0037445695052561725
1171.0, 0.0037168181662282163
1172.0, 0.004244979670535801
1173.0, 0.004121640066983688
1174.0, 0.0033296035117577507
1175.0, 0.0035593695635808085
1176.0, 0.0034364486529031993
1177.0, 0.0034945706371359796
1178.0, 0.0036611077373403314
1179.0, 0.0039301886088415295
1180.0, 0.0035902843996090316
1181.0, 0.0035928138032005424
1182.0, 0.003682652833324206
1183.0, 0.0032936140487783007
1184.0, 0.0031627912966155757
1185.0, 0.0037752787214662587
1186.0, 0.0040011571528590206
1187.0, 0.0037534906343533046
1188.0, 0.00360809783386451
1189.0, 0.003368598720081282
1190.0, 0.0028803942334385715
1191.0, 0.0026965955054685984
1192.0, 0.0030961417599484485
1193.0, 0.0034157371532163036
1194.0, 0.003266679744672133
1195.0, 0.0030728937768900854
1196.0, 0.0027987172868901944
1197.0, 0.002424277061636599
1198.0, 0.002547924472780386
1199.0, 0.002596378217517913
1200.0, 0.0022394156060091706
1201.0, 0.001857090596230287
1202.0, 0.0016659493032464582
1203.0, 0.0014764051696737057
1204.0, 0.0017147175459675962
1205.0, 0.0010425405249345644
1206.0, 0.0009205391449227178
1207.0, 0.0016552137479895171
1208.0, 0.0020046033277719656
1209.0, 0.0018320520961215832
1210.0, 0.001502242514979761
1211.0, 0.0005121809719750294
1212.0, 0.00028417717295090353
1213.0, 0.0008845744753324869
1214.0, 0.0009969270286057143
1215.0, 0.0010691007334698013
1216.0, 0.0005515072906998132
1217.0, 0.0005936928056660217
1218.0, 0.0011679378293515711
1219.0, 0.0009052988442892559
1220.0, 0.00013784103871525971
1221.0, 0.00010959358149207619
1222.0, 0.0007689604727639216
1223.0, 0.0006311562628952466
1224.0, 0.00043443441122349756
1225.0, 0.00039573460145124126
1226.0, 0.00033248404942398305
1227.0, 0.0002568693343463781
1228.0, 8.522812310217145e-05
1229.0, 0.0003345192472082836
1230.0, 0.0001473426950797436
1231.0, 0.0005238079812602374
1232.0, 0.0002251934626855825
1233.0, 0.0003999376756353985
1234.0, 0.00018160255328299275
1235.0, 3.127838095713701e-05
1236.0, 8.5985849282809e-05
1237.0, 0.000440776463959787
1238.0, 0.00018438797941583673
1239.0, 0.00025851978149094706
1240.0, 0.0004612176965881839
1241.0, 0.001001424423400695
1242.0, 0.00032851353539052727
1243.0, 0.0007476847181573737
1244.0, 0.0008566408089622422
1245.0, 0.0009802558648411986
1246.0, 0.001163913489521326
1247.0, 0.000600793217834118
1248.0, 0.0006954538152556351
1249.0, 0.0016454795827856796
1250.0, 0.0010527711308181732
1251.0, 0.0002367078627615212
1252.0, 0.0010285797989446172
1253.0, 0.001514809960820873
1254.0, 0.001046839848726795
1255.0, 0.001913995173367066
1256.0, 0.0015713293260622714
1257.0, 0.0014992062203852696
1258.0, 0.0015146495053886995
1259.0, 0.0018156840290257036
1260.0, 0.0020359219838271135
1261.0, 0.001702280105425101
1262.0, 0.0012193119532168991
1263.0, 0.0018014967022898423
1264.0, 0.003614980473772348
1265.0, 0.003732758244060998
1266.0, 0.0019411854787752762
1267.0, 0.00207989930938767
1268.0, 0.0025105798160281615
1269.0, 0.0014163296369885572
1270.0, 0.0012925299291589821
1271.0, 0.0008280897574639379
1272.0, 0.0015051064310924933
1273.0, 0.001414921058135299
1274.0, 0.0010720591821389016
1275.0, 0.0012216803466834987
1276.0, 0.001266934340637813
1277.0, 0.0011178943678216168
1278.0, 0.0008357529997461002
1279.0, 0.0009268038085406055
1280.0, 0.0018649199195296623
1281.0, 0.0016954825166834741
1282.0, 0.0011223151134452359
1283.0, 0.0002728106535480506
1284.0, 0.00135335909379697
1285.0, 0.0012113578523362456
1286.0, 0.0007620173768454917
1287.0, 0.00087713993118107
1288.0, 0.00037406802352365364
1289.0, 0.0006534385391932413
1290.0, 0.0007756610401466218
1291.0, 0.00031829909972422115
1292.0, 0.000445955225623956
1293.0, 0.0005076602900138772
1294.0, 0.0007167076469353173
1295.0, 0.0003063401443376848
1296.0, 0.00046003872915730215
1297.0, 5.876914691523429e-06
1298.0, 0.00038658733287123137
1299.0, 0.00032190957508977837
1300.0, 2.9124504694978763e-05
1301.0, 0.0005760298875316473
1302.0, 0.00024127637925550603
1303.0, 1.056942277980967e-07
1304, 0.0
1305, 0.0
1306, 0.0
1307, 0.0
1308, 0.0
1309, 0.0
1310, 0.0
1311, 0.0
1312, 0.0
1313, 0.0
1314, 0.0
1315, 0.0
1316, 0.0
1317, 0.0
1318, 0.0
1319, 0.0
1320, 0.0
1321, 0.0
1322, 0.0
1323, 0.0
1324, 0.0
1325, 0.0
1326, 0.0
1327, 0.0
1328, 0.0
1329, 0.0
1330, 0.0
1331, 0.0
1332, 0.0
1333, 0.0
1334, 0.0
1335, 0.0
1336, 0.0
1337, 0.0
1338, 0.0
1339, 0.0
1340, 0.0
1341, 0.0
1342, 0.0
1343, 0.0
1344, 0.0
1345, 0.0
1346, 0.0
1347, 0.0
1348, 0.0
1349, 0.0
1350, 0.0
1351, 0.0
1352, 0.0
1353, 0.0
1354, 0.0
1355, 0.0
1356, 0.0
1357, 0.0
1358, 0.0
1359, 0.0
1360, 0.0
1361, 0.0
1362, 0.0
1363, 0.0
1364, 0.0
1365, 0.0
1366, 0.0
1367, 0.0
1368, 0.0
1369, 0.0
1370, 0.0
1371, 0.0
1372, 0.0
1373, 0.0
1374, 0.0
1375, 0.0
1376, 0.0
1377, 0.0
1378, 0.0
1379, 0.0
1380, 0.0
1381, 0.0
1382, 0.0
1383, 0.0
1384, 0.0
1385, 0.0
1386, 0.0
1387, 0.0
1388, 0.0
1389, 0.0
1390, 0.0
1391, 0.0
1392, 0.0
1393, 0.0
1394, 0.0
1395, 0.0
1396, 0.0
1397, 0.0
1398, 0.0
1399, 0.0
1400, 0.0
1401, 0.0
1402, 0.0
1403, 0.0
1404, 0.0
1405, 0.0
1406, 0.0
1407, 0.0
1408, 0.0
1409, 0.0
1410, 0.0
1411, 0.0
1412, 0.0
1413, 0.0
1414, 0.0
1415, 0.0
1416, 0.0
1417, 0.0
1418, 0.0
1419, 0.0
1420, 0.0
1421, 0.0
1422, 0.0
1423, 0.0
1424, 0.0
1425, 0.0
1426, 0.0
1427, 0.0
1428, 0.0
1429, 0.0
1430, 0.0
1431, 0.0
1432, 0.0
1433, 0.0
1434, 0.0
1435, 0.0
1436, 0.0
1437, 0.0
1438, 0.0
1439, 0.0
1440, 0.0
1441, 0.0
1442, 0.0
1443, 0.0
1444, 0.0
1445, 0.0
1446, 0.0
1447, 0.0
1448, 0.0
1449, 0.0
1450, 0.0
1451, 0.0
1452, 0.0
1453, 0.0
1454, 0.0
1455, 0.0
1456, 0.0
1457, 0.0
1458, 0.0
1459, 0.0
1460, 0.0
1461, 0.0
1462, 0.0
1463, 0.0
1464, 0.0
1465, 0.0
1466, 0.0
1467, 0.0
1468, 0.0
1469, 0.0
1470, 0.0
1471, 0.0
1472, 0.0
1473, 0.0
1474, 0.0
1475, 0.0
1476, 0.0
1477, 0.0
1478, 0.0
1479, 0.0
1480, 0.0
1481, 0.0
1482, 0.0
1483, 0.0
1484, 0.0
1485, 0.0
1486, 0.0
1487, 0.0
1488, 0.0
1489, 0.0
1490, 0.0
1491, 0.0
1492, 0.0
1493, 0.0
1494, 0.0
1495, 0.0
1496, 0.0
1497, 0.0
1498, 0.0
1499, 0.0
1500, 0.0
1501, 0.0
1502, 0.0
1503, 0.0
1504, 0.0
1505, 0.0
1506, 0.0
1507, 0.0
1508, 0.0
1509, 0.0
1510, 0.0
1511, 0.0
1512, 0.0
1513, 0.0
1514, 0.0
1515, 0.0
1516, 0.0
1517, 0.0
1518, 0.0
1519, 0.0
1520, 0.0
1521, 0.0
1522, 0.0
1523, 0.0
1524, 0.0
1525, 0.0
1526, 0.0
1527, 0.0
1528, 0.0
1529, 0.0
1530, 0.0
1531, 0.0
1532, 0.0
1533, 0.0
1534, 0.0
1535, 0.0
1536, 0.0
1537, 0.0
1538, 0.0
1539, 0.0
1540, 0.0
1541, 0.0
1542, 0.0
1543, 0.0
1544, 0.0
1545, 0.0
1546, 0.0
1547, 0.0
1548, 0.0
1549, 0.0
1550, 0.0
1551, 0.0
1552, 0.0
1553, 0.0
1554, 0.0
1555, 0.0
1556, 0.0
1557, 0.0
1558, 0.0
1559, 0.0
1560, 0.0
1561, 0.0
1562, 0.0
1563, 0.0
1564, 0.0
1565, 0.0
1566, 0.0
1567, 0.0
1568, 0.0
1569, 0.0
1570, 0.0
1571, 0.0
1572, 0.0
1573, 0.0
1574, 0.0
1575, 0.0
1576, 0.0
1577, 0.0
1578, 0.0
1579, 0.0
1580, 0.0
1581, 0.0
1582, 0.0
1583, 0.0
1584, 0.0
1585, 0.0
1586, 0.0
1587, 0.0
1588, 0.0
1589, 0.0
1590, 0.0
1591, 0.0
1592, 0.0
1593, 0.0
1594, 0.0
1595, 0.0
1596, 0.0
1597, 0.0
1598, 0.0
1599, 0.0
