30, 0.0
31, 0.0
32, 0.0
33, 0.0
34, 0.0
35, 0.0
36, 0.0
37, 0.0
38, 0.0
39, 0.0
40, 0.0
41, 0.0
42, 0.0
43, 0.0
44, 0.0
45, 0.0
46, 0.0
47, 0.0
48, 0.0
49, 0.0
50, 0.0
51, 0.0
52, 0.0
53, 0.0
54, 0.0
55, 0.0
56, 0.0
57, 0.0
58, 0.0
59, 0.0
60, 0.0
61, 0.0
62, 0.0
63, 0.0
64, 0.0
65, 0.0
66, 0.0
67, 0.0
68, 0.0
69, 0.0
70, 0.0
71, 0.0
72, 0.0
73, 0.0
74, 0.0
75, 0.0
76, 0.0
77, 0.0
78, 0.0
79, 0.0
80, 0.0
81, 0.0
82, 0.0
83, 0.0
84, 0.0
85, 0.0
86, 0.0
87, 0.0
88, 0.0
89, 0.0
90, 0.0
91, 0.0
92, 0.0
93, 0.0
94, 0.0
95, 0.0
96, 0.0
97, 0.0
98, 0.0
99, 0.0
100, 0.0
101, 0.0
102, 0.0
103, 0.0
104, 0.0
105, 0.0
106, 0.0
107, 0.0
108, 0.0
109, 0.0
110, 0.0
111, 0.0
112, 0.0
113, 0.0
114, 0.0
115, 0.0
116, 0.0
117, 0.0
118, 0.0
119, 0.0
120, 0.0
121, 0.0
122, 0.0
123, 0.0
124, 0.0
125, 0.0
126, 0.0
127, 0.0
128, 0.0
129, 0.0
130, 0.0
131, 0.0
132, 0.0
133, 0.0
134, 0.0
135, 0.0
136, 0.0
137, 0.0
138, 0.0
139, 0.0
140, 0.0
141, 0.0
142, 0.0
143, 0.0
144, 0.0
145, 0.0
146, 0.0
147, 0.0
148, 0.0
149, 0.0
150, 0.0
151, 0.0
152, 0.0
153, 0.0
154, 0.0
155, 0.0
156, 0.0
157.0, 1.637309394202322e-05
158.0, 0.0007127141882984479
159.0, 0.001880497236673869
160.0, 0.0026661257815736084
161.0, 0.002382356168277515
162.0, 0.0013114619902583054
163.0, 0.0005076509670932024
164.0, 0.0008119986081560391
165.0, 0.0014372435409001206
166.0, 0.0003180714404383245
167.0, 8.726762400465413e-05
168.0, 0.0009982757464899847
169.0, 0.001386996766267519
170.0, 0.0021530595422561936
171.0, 0.0014905200214365348
172.0, 0.0018128954193805762
173.0, 0.0016964485666988705
174.0, 0.003499347573141856
175.0, 0.003307159533346121
176.0, 0.0052144807118051925
177.0, 0.0054606488050215445
178.0, 0.004065939197815586
179.0, 0.00542826303634498
180.0, 0.006886338648579666
181.0, 0.005822858860642684
182.0, 0.006074140064371206
183.0, 0.006132438038540559
184.0, 0.006799452649096189
185.0, 0.008123745765700768
186.0, 0.009478498555174991
187.0, 0.010254576981033426
188.0, 0.010758524944729203
189.0, 0.012709706178497931
190.0, 0.016374770516165083
191.0, 0.01841058648366341
192.0, 0.019260665061588387
193.0, 0.020478741085007718
194.0, 0.02210290728439511
195.0, 0.02282808665576109
196.0, 0.02376265470075634
197.0, 0.025751492599790357
198.0, 0.027823037330939045
199.0, 0.02877665965593347
200.0, 0.030248250248919507
201.0, 0.03151148804076257
202.0, 0.03281697106505854
203.0, 0.03457477337655716
204.0, 0.03672157203883934
205.0, 0.03833460509462353
206.0, 0.04220073917425714
207.0, 0.04707145029944536
208.0, 0.04951808305851617
209.0, 0.05317218014988348
210.0, 0.05769015477827515
211.0, 0.06195136823651297
212.0, 0.06491472944677225
213.0, 0.06694345415923024
214.0, 0.069442443302842
215.0, 0.06986671008218837
216.0, 0.06745106245598378
217.0, 0.06422316297450124
218.0, 0.06251188005917147
219.0, 0.05899718038226377
220.0, 0.053793945293839004
221.0, 0.04827159043264159
222.0, 0.0435975780838324
223.0, 0.04089679687175155
224.0, 0.03700449874002818
225.0, 0.03209593233589077
226.0, 0.030221319629475458
227.0, 0.029142760592871353
228.0, 0.027288333403482724
229.0, 0.024190896059502223
230.0, 0.020809758362592638
231.0, 0.019845160675759588
232.0, 0.018288284093668998
233.0, 0.016802545645097672
234.0, 0.015849361834070184
235.0, 0.015434717127527779
236.0, 0.015465362851820834
237.0, 0.013417865939707996
238.0, 0.01237060766879606
239.0, 0.01110135179992593
240.0, 0.01183096702462557
241.0, 0.010583494106916511
242.0, 0.011243548142964058
243.0, 0.01026744947606768
244.0, 0.0077341214833445025
245.0, 0.008053525505588705
246.0, 0.008214563829612699
247.0, 0.007094087982345782
248.0, 0.005304795554862196
249.0, 0.004375519434484528
250.0, 0.0042949757861907405
251.0, 0.0035161605203031746
252.0, 0.0023453342515070627
253.0, 0.0028832171497148217
254.0, 0.002917904592110781
255.0, 0.0018126973164731628
256.0, 0.001113181699623774
257.0, 0.0015479890986567805
258.0, 0.0008257414405350503
259.0, 0.0009909601074299145
260.0, 0.0012626119596764783
261.0, 0.0010095143958785478
262.0, 0.00021455090423278713
263.0, 0.00011193301183957952
264.0, 0.000647499101013707
265.0, 0.0007670738844778773
266.0, 0.0002940331580173094
267.0, 0.0005477730204804681
268.0, 0.0011026298783428827
269.0, 0.0006066425082520856
270.0, 0.0001137373994326072
271.0, 0.00033783752424461745
272.0, 0.00044679877359280867
273.0, 0.00047513053289455556
274.0, 0.00011890740873357256
275.0, 0.0018468010249015952
276.0, 0.0011932409438299412
277.0, 0.0007335287086225523
278.0, 0.0015156243209069732
279.0, 0.0010642175583247789
280.0, 0.0007317159077968859
281.0, 0.0004949643855636293
282.0, 0.0010597863168954728
283.0, 0.0007718262437089829
284.0, 0.0012618234309849147
285.0, 0.0019818341102899152
286.0, 0.0020752920352314634
287.0, 0.0028110506110770516
288.0, 0.0029756158913272
289.0, 0.0017714567175733898
290.0, 0.0022003517974943654
291.0, 0.002952284965762642
292.0, 0.003244369228324395
293.0, 0.0033363986769086714
294.0, 0.004019890932245527
295.0, 0.005372231631620671
296.0, 0.006200009216387056
297.0, 0.007184397858299826
298.0, 0.008240873974705567
299.0, 0.00883744545789824
300.0, 0.010753157065902665
301.0, 0.014060273145736771
302.0, 0.016195227650518163
303.0, 0.016823732848691264
304.0, 0.0190233558642097
305.0, 0.021677709428638
306.0, 0.026137480076602694
307.0, 0.0299841526691535
308.0, 0.032307124063479
309.0, 0.03870416294759736
310.0, 0.044633750366102495
311.0, 0.050832009061040614
312.0, 0.05572484381660146
313.0, 0.05702224405664173
314.0, 0.05916519124871471
315.0, 0.059581207650012735
316.0, 0.05716541829162375
317.0, 0.053906622671997716
318.0, 0.053578813920002535
319.0, 0.052983747833551254
320.0, 0.05250217355127811
321.0, 0.053034663935568584
322.0, 0.05553048632612772
323.0, 0.06075121470477563
324.0, 0.06394407877941065
325.0, 0.06755272410943433
326.0, 0.07310505945399115
327.0, 0.08018447909040471
328.0, 0.08536748666511255
329.0, 0.09240989468763361
330.0, 0.09883004561129778
331.0, 0.10507284144118954
332.0, 0.11376885598197296
333.0, 0.12458423074934773
334.0, 0.13598966338443272
335.0, 0.15025487241884286
336.0, 0.16833404074580594
337.0, 0.18890156729668509
338.0, 0.21293366160471208
339.0, 0.24043727464267775
340.0, 0.2728869001188152
341.0, 0.30883570638091656
342.0, 0.34077288390055316
343.0, 0.37201628339838183
344.0, 0.3954214165064576
345.0, 0.4062737774432165
346.0, 0.4017263186836604
347.0, 0.3800883483872445
348.0, 0.3423690193225199
349.0, 0.29932642565384715
350.0, 0.2568800288231172
351.0, 0.21640741890100776
352.0, 0.18332082195535393
353.0, 0.15632574838447694
354.0, 0.1339980482324979
355.0, 0.11605431589736509
356.0, 0.102610410603194
357.0, 0.09343874373339676
358.0, 0.08650637919815303
359.0, 0.0809685582498485
360.0, 0.0768436205727516
361.0, 0.07480371546714866
362.0, 0.07389149817654438
363.0, 0.07419305338199135
364.0, 0.07485689962020313
365.0, 0.07538865316229514
366.0, 0.07581795628496268
367.0, 0.07742250866263
368.0, 0.07893918450243488
369.0, 0.08030282473569973
370.0, 0.0814981584084327
371.0, 0.08128006361009504
372.0, 0.07785808174890915
373.0, 0.07406892079741918
374.0, 0.07001140896046232
375.0, 0.06561035520609455
376.0, 0.06283977114027502
377.0, 0.055474813249056544
378.0, 0.04847064279024825
379.0, 0.042717966473522516
380.0, 0.036839494570926556
381.0, 0.032386685588890414
382.0, 0.028365690574270904
383.0, 0.02470627158216466
384.0, 0.02150944776173662
385.0, 0.018915597197503582
386.0, 0.017990778773061995
387.0, 0.015251710690719776
388.0, 0.012861054220175236
389.0, 0.011479941962274625
390.0, 0.009774887205768188
391.0, 0.010775367219585833
392.0, 0.008124947560774098
393.0, 0.006761146896991024
394.0, 0.0054574379752629545
395.0, 0.005959561195788119
396.0, 0.005090678191209933
397.0, 0.004038835476039268
398.0, 0.003190003359242703
399.0, 0.0026201872729386924
400.0, 0.002673825116832459
401.0, 0.0026038419540702035
402.0, 0.0021480547430848054
403.0, 0.001706758073218006
404.0, 0.0012478632675764383
405.0, 0.0007020615689544
406.0, 0.0009907276890422925
407.0, 0.0009036021554315261
408.0, 0.0016131977319985822
409.0, 0.002119786458386258
410.0, 0.0008822319025746136
411.0, 0.0010298074994374747
412.0, 0.001346975411181596
413.0, 0.000994782373771067
414.0, 0.0002612311461262268
415.0, 0.00031588644156731475
416.0, 0.0011764657711265058
417.0, 0.0003800281581129372
418.0, 5.265653795280245e-05
419.0, 0.0006606586825231008
420.0, 0.001376958013629555
421.0, 0.0005132373000301888
422.0, 0.0005690187787636373
423.0, 0.0006848475590021145
424.0, 0.0006396062480050988
425.0, 0.0006684713836682785
426.0, 0.00025763026876898646
427.0, 0.0004238319319910057
428.0, 0.0009001104007488373
429.0, 0.0013537556932498758
430.0, 0.00021140093515387146
431.0, 0.0008292609523290356
432.0, 0.0005714310446336265
433.0, 0.0008638046438795854
434.0, 5.962983462596084e-05
435.0, 0.0015507397555705681
436.0, 0.0014325761900781035
437.0, 0.0004973823022922061
438.0, 0.0003847865459071594
439.0, 0.0013112110350562256
440.0, 0.0008964334652963197
441.0, 0.0010905661231687478
442.0, 0.0009476940464995466
443.0, 0.0007258928301831059
444.0, 0.00030144697655219694
445.0, 0.0004609505762586436
446.0, 0.0007991772766307129
447.0, 0.0006961187781683788
448.0, 0.0012761800375596288
449.0, 0.0012422528710482026
450.0, 0.0012698553986343812
451.0, 0.0011432132929067005
452.0, 0.0016756833160246154
453.0, 0.0021362201724601034
454.0, 0.0024642240735759354
455.0, 0.0025041411749523496
456.0, 0.0023820253497384473
457.0, 0.003718307543691298
458.0, 0.004613362994346116
459.0, 0.004755129644501141
460.0, 0.0052036076784022275
461.0, 0.0065581973355113505
462.0, 0.007551278577537059
463.0, 0.008643292899223906
464.0, 0.010424679970820104
465.0, 0.012032396126295109
466.0, 0.012767297708836845
467.0, 0.013915669080440854
468.0, 0.016661001550875878
469.0, 0.01919344251015724
470.0, 0.021358104254661014
471.0, 0.024176967854587988
472.0, 0.028597628835398903
473.0, 0.03316788388699516
474.0, 0.037906945992945154
475.0, 0.04255150454042697
476.0, 0.04593954309000477
477.0, 0.046660062376137006
478.0, 0.04582229775421421
479.0, 0.04247878106955146
480.0, 0.037939300940303476
481.0, 0.033163412074370714
482.0, 0.028393543065630758
483.0, 0.025047121860468025
484.0, 0.023710468416447594
485.0, 0.02394016021205622
486.0, 0.02549955325147066
487.0, 0.028081377826187554
488.0, 0.03130987780005362
489.0, 0.03711219492732169
490.0, 0.043348384129406545
491.0, 0.05119056825581057
492.0, 0.06189299678899345
493.0, 0.07528664421327792
494.0, 0.09094782568279242
495.0, 0.1087176180466307
496.0, 0.12966227840315436
497.0, 0.15139514211475086
498.0, 0.1697102859232878
499.0, 0.18167262386306185
500.0, 0.18184848397933548
501.0, 0.1661253072514244
502.0, 0.14122197030311612
503.0, 0.11620019617285697
504.0, 0.09145310666565379
505.0, 0.07266434751078645
506.0, 0.05573610535498297
507.0, 0.04285828790868615
508.0, 0.03487478204552402
509.0, 0.026969741750158496
510.0, 0.021734635322615273
511.0, 0.018038077737996233
512.0, 0.015011045125160744
513.0, 0.012264608351036474
514.0, 0.010204285849773757
515.0, 0.010596831592964533
516.0, 0.006822828842435869
517.0, 0.005860715206115969
518.0, 0.006321307338143538
519.0, 0.004582019805778901
520.0, 0.0033632334581551546
521.0, 0.0035934001265616492
522.0, 0.0028980078213362067
523.0, 0.0022780139655906094
524.0, 0.0022269070525371922
525.0, 0.0016065885269676676
526.0, 0.001502786481112527
527.0, 0.0010028757116138677
528.0, 0.001082030567101081
529.0, 0.0011198239342229924
530.0, 0.0006549406410651411
531.0, 0.0019799588536376883
532.0, 0.0019765307356047835
533.0, 0.002301046077785225
534.0, 0.0025613836443288637
535.0, 0.002666147933106202
536.0, 0.003844610195910013
537.0, 0.005564482758451609
538.0, 0.006820715262790958
539.0, 0.0077635043360339065
540.0, 0.009149731600135321
541.0, 0.011647241106282603
542.0, 0.015160636468965212
543.0, 0.01764928225831653
544.0, 0.021106270539873625
545.0, 0.02522016010931961
546.0, 0.02964306996936876
547.0, 0.035214437659002035
548.0, 0.04072431266904094
549.0, 0.04864342306649989
550.0, 0.05842682334712262
551.0, 0.06818371727191429
552.0, 0.0762824175126103
553.0, 0.0830052768548796
554.0, 0.09053576842251995
555.0, 0.09416621685741068
556.0, 0.09217521078903711
557.0, 0.08546761962779122
558.0, 0.07598373832171382
559.0, 0.06595792149781901
560.0, 0.05447177822349209
561.0, 0.04366162548033737
562.0, 0.03504011726844681
563.0, 0.028838884227497665
564.0, 0.024103718023698845
565.0, 0.018464723397110742
566.0, 0.014816606021731722
567.0, 0.013269522203949821
568.0, 0.011775368313338417
569.0, 0.009401811069006047
570.0, 0.009306205740493158
571.0, 0.00878269614122174
572.0, 0.008971960357929357
573.0, 0.009702329917927535
574.0, 0.010550197598708441
575.0, 0.011927591484424379
576.0, 0.014246293169423508
577.0, 0.015661219361046554
578.0, 0.018202555720927976
579.0, 0.021569887647671367
580.0, 0.02417904865743253
581.0, 0.02651326133469161
582.0, 0.02710383227613565
583.0, 0.0245335090076551
584.0, 0.021911263756359125
585.0, 0.01895990720714812
586.0, 0.013722675475008758
587.0, 0.01153124786185775
588.0, 0.009324228013582889
589.0, 0.008155707777592254
590.0, 0.007489503898166009
591.0, 0.006369994841686032
592.0, 0.005051895154950007
593.0, 0.004981743481715062
594.0, 0.005794933796563673
595.0, 0.006613345050881831
596.0, 0.005938974276520988
597.0, 0.004223239696034757
598.0, 0.004203663291350184
599.0, 0.002708364853668284
600.0, 0.002033409335993866
601.0, 0.0007740095136038083
602.0, 0.0002875325218187104
603.0, 0.00019393981893900373
604.0, 0.0009966635172295561
605.0, 0.0010754627067434777
606.0, 0.0009718096508022317
607.0, 0.0010886633351002136
608.0, 0.00111987793558452
609.0, 0.0009639039274803329
610.0, 0.0014306019533601795
611.0, 0.000975211683835859
612.0, 0.0005262148498105705
613.0, 0.001057800934837087
614.0, 0.0007389413359921231
615.0, 0.0017975918369018782
616.0, 0.0027915187209008574
617.0, 0.004023614580335459
618.0, 0.005295235760081375
619.0, 0.006516429436493596
620.0, 0.007955344643383919
621.0, 0.009801588377607431
622.0, 0.011586447121774344
623.0, 0.017035190507647558
624.0, 0.018517055766673063
625.0, 0.019495751448663234
626.0, 0.02411568381585999
627.0, 0.028412882827726776
628.0, 0.031952502026528315
629.0, 0.03606409199756018
630.0, 0.039660801451202383
631.0, 0.041074905589751944
632.0, 0.040352269831658946
633.0, 0.03870951763951149
634.0, 0.03372847497432731
635.0, 0.028127417312197776
636.0, 0.023958019586246916
637.0, 0.020804405430114366
638.0, 0.017478188378007554
639.0, 0.013702357222094147
640.0, 0.0117601905305539
641.0, 0.010415376939804169
642.0, 0.008505341614303654
643.0, 0.006995065227159245
644.0, 0.00654743393604468
645.0, 0.0054453790021789855
646.0, 0.005061385002126312
647.0, 0.004876968470806913
648.0, 0.003812455501038847
649.0, 0.003126271859238186
650.0, 0.004417235107265439
651.0, 0.00630569998452235
652.0, 0.0029815745812995145
653.0, 0.005863640688541627
654.0, 0.0074305780478331
655.0, 0.0053527634296418585
656.0, 0.0030706485423343715
657.0, 0.0020541810240272958
658.0, 0.001893378818780982
659.0, 0.0011808354906350975
660.0, 0.0011947830179762603
661.0, 0.0013480776581970867
662.0, 0.0007754279597738418
663.0, 0.0007548876645245774
664.0, 0.0002090127199854362
665.0, 0.00037879274028695324
666.0, 0.00045277561416381793
667.0, 0.00023939667587245274
668.0, 0.00012218977749663536
669.0, 0.000466394244093864
670.0, 0.00024279344799795792
671.0, 0.00019764787291120397
672.0, 0.00032147590740165256
673.0, 0.0004763121403303319
674.0, 7.481349114653274e-05
675.0, 0.0003377781737260183
676.0, 0.00027272131977055045
677.0, 0.0006753657756563134
678.0, 0.0012242394881632522
679.0, 0.0009415911559226713
680.0, 0.0006135561677231864
681.0, 0.0011160502879834539
682.0, 0.0007400878557555259
683.0, 0.00033788067188635524
684.0, 0.0011289634706195882
685.0, 0.0013940215936167108
686.0, 0.0007296078899449825
687.0, 0.0006239273646294518
688.0, 0.0009563493961372986
689.0, 0.0009116600217717704
690.0, 0.0013414718733128742
691.0, 0.0013232196675895583
692.0, 0.001221538681331809
693.0, 0.001638677224962948
694.0, 0.0009161580567300008
695.0, 0.0006534551997695044
696.0, 0.0009322381850751411
697.0, 0.0011657382495970105
698.0, 0.001128861460644454
699.0, 0.0009264139943313932
700.0, 0.001646747123244915
701.0, 0.001369572588703754
702.0, 0.0014181875802949852
703.0, 0.0017620816609985191
704.0, 0.0016749878506150092
705.0, 0.002104529625217982
706.0, 0.0018607905872161906
707.0, 0.002466266242144116
708.0, 0.0024040848319551644
709.0, 0.00211449669795264
710.0, 0.002410288476620513
711.0, 0.002382860054426516
712.0, 0.0027274935572925473
713.0, 0.0025211499675531768
714.0, 0.0022575783886734455
715.0, 0.002430011218962101
716.0, 0.0020694743255758766
717.0, 0.0020496783357624995
718.0, 0.0034755000294859964
719.0, 0.003372491754241178
720.0, 0.0036342318936807764
721.0, 0.0027741076310534175
722.0, 0.0031092786229796254
723.0, 0.003622892520337883
724.0, 0.0033874149932766654
725.0, 0.0033277925141824666
726.0, 0.002972846097502106
727.0, 0.0032347706968350372
728.0, 0.002919113125028367
729.0, 0.0029279311396007294
730.0, 0.0037065761433884865
731.0, 0.0042277925523172746
732.0, 0.0033533696670292037
733.0, 0.0045493356914295
734.0, 0.0037840277764562185
735.0, 0.0029479422620555602
736.0, 0.003166045818186804
737.0, 0.003954432062015785
738.0, 0.00418227079033648
739.0, 0.0030416491490065554
740.0, 0.003598263008691486
741.0, 0.0037190106140622963
742.0, 0.0036457831474293045
743.0, 0.004030586317286019
744.0, 0.004445662190012612
745.0, 0.004397980419221602
746.0, 0.00425173365211142
747.0, 0.004226483952227154
748.0, 0.003965475024315285
749.0, 0.0034342482803267145
750.0, 0.003313216785939125
751.0, 0.0043226067851722914
752.0, 0.0043241239956740155
753.0, 0.0036794853481548766
754.0, 0.004271938729489175
755.0, 0.004452158146962364
756.0, 0.004104449158758658
757.0, 0.00413240025138168
758.0, 0.003969880418850953
759.0, 0.003496386583815238
760.0, 0.0027710886578158097
761.0, 0.0031819636899795426
762.0, 0.0034643713093484583
763.0, 0.0032188436715699653
764.0, 0.0033528804510525156
765.0, 0.004081266621539693
766.0, 0.004147562663295615
767.0, 0.004803012402482618
768.0, 0.004678908248738112
769.0, 0.004175337867477154
770.0, 0.0036268093324764794
771.0, 0.0026685933703680088
772.0, 0.0028404900349462215
773.0, 0.0030746902272696286
774.0, 0.002221332901659878
775.0, 0.002348723210557809
776.0, 0.0027140400663681423
777.0, 0.0023376594560936687
778.0, 0.00236622758601346
779.0, 0.0017690975675665917
780.0, 0.0016517133729016626
781.0, 0.0024283279058955887
782.0, 0.0024223915488410758
783.0, 0.001682964882490412
784.0, 0.0014644566230791296
785.0, 0.0017338063271545266
786.0, 0.001754620187381377
787.0, 0.0018921074236296761
788.0, 0.0010317214527988526
789.0, 0.0009969245631180966
790.0, 0.001254674858536477
791.0, 0.0003666292649957156
792.0, 0.0007507251879586614
793.0, 0.000223095416062943
794.0, 0.00016067018013186463
795.0, 0.00048646685637563063
796.0, 0.00010544324717518805
797.0, 0.00014587349103976
798.0, 0.0003655229473687488
799.0, 0.0001854660486976347
800.0, 0.0005041662708842523
801.0, 0.00028134606274456163
802.0, 0.00011053596103487276
803.0, 0.0006992123316248153
804.0, 0.0007906228847510933
805.0, 0.0005264209279336301
806.0, 0.00027669818996751267
807.0, 0.000165594962406758
808.0, 0.0004960428472845185
809.0, 0.0005828478711511053
810.0, 0.0014996040735184013
811.0, 0.0010471982837348716
812.0, 0.0002574872005321308
813.0, 0.0003127109338341771
814.0, 0.0003887710354386336
815.0, 3.526905101111095e-05
816.0, 0.0002196955853340264
817.0, 0.0007021067812774032
818.0, 0.0013000217590151291
819.0, 0.0005237329165293158
820.0, 0.0007754440605567526
821.0, 0.0005827054261205587
822.0, 0.0008633727658235867
823.0, 0.0007919113588695506
824.0, 0.0010896084600748343
825.0, 0.0018021527842843382
826.0, 0.001669713192050327
827.0, 0.00024549949198468535
828.0, 0.00021699026431449439
829.0, 0.0002820796103305209
830.0, 0.0002522695752839909
831.0, 0.0002890076634129978
832.0, 0.0004710615733325369
833.0, 9.483351165049201e-05
834.0, 0.000445062713886507
835.0, 0.0014467046726922294
836.0, 0.001948663093661022
837.0, 0.002274939793758071
838.0, 0.002521220782650128
839.0, 0.00299737871060703
840.0, 0.004066135622651175
841.0, 0.005556683426333771
842.0, 0.006193044693124166
843.0, 0.008321099430381418
844.0, 0.00977505596032641
845.0, 0.010393802235737689
846.0, 0.011618885409928111
847.0, 0.01436445973709939
848.0, 0.01742080532347485
849.0, 0.01872279591568205
850.0, 0.0208428457046944
851.0, 0.025489701347827663
852.0, 0.029269734419056743
853.0, 0.03320313746018858
854.0, 0.03789039910584214
855.0, 0.04236849973437566
856.0, 0.04964403836371099
857.0, 0.05479849320583658
858.0, 0.05991928287753456
859.0, 0.06621334374689362
860.0, 0.07037577695657775
861.0, 0.07251921311638897
862.0, 0.07397297536759319
863.0, 0.07221889140514669
864.0, 0.06917148447665833
865.0, 0.06470651642103038
866.0, 0.059408737996567845
867.0, 0.05503233315039756
868.0, 0.04973998664128383
869.0, 0.044459493365357775
870.0, 0.042939880204163464
871.0, 0.04030004011078782
872.0, 0.03750771385594105
873.0, 0.03515049487249869
874.0, 0.03439485593501621
875.0, 0.0340076644677521
876.0, 0.03392721130198593
877.0, 0.035113454463770725
878.0, 0.03628588189051532
879.0, 0.036419131896676664
880.0, 0.03806863107505578
881.0, 0.04160943995059095
882.0, 0.044934995358882485
883.0, 0.04915737135373913
884.0, 0.0542934249490684
885.0, 0.05844502672344387
886.0, 0.06373761460696681
887.0, 0.07008298424775435
888.0, 0.0776596030192663
889.0, 0.08600074472184413
890.0, 0.09548238342072339
891.0, 0.1066996260830003
892.0, 0.11874056695614091
893.0, 0.13022518692942617
894.0, 0.14287000926880192
895.0, 0.15732283997194213
896.0, 0.16816581808886455
897.0, 0.17884848481682486
898.0, 0.19129494174934605
899.0, 0.2039750603536824
900.0, 0.21746592682957672
901.0, 0.23644573431664356
902.0, 0.25694017031054467
903.0, 0.2840045156757001
904.0, 0.3179915855477351
905.0, 0.3583439084247738
906.0, 0.4068200817287496
907.0, 0.46573448098636605
908.0, 0.5346801606370549
909.0, 0.6109415704059765
910.0, 0.6941538814385604
911.0, 0.7787007145540719
912.0, 0.8610986851655389
913.0, 0.9319243375889782
914.0, 0.9811962116053909
915.0, 0.9999630382398756
916.0, 0.9816093919353479
917.0, 0.9277234201447228
918.0, 0.845456331594218
919.0, 0.7475810761432907
920.0, 0.6484568483999209
921.0, 0.5546966813991581
922.0, 0.4718787194969638
923.0, 0.40126119881798816
924.0, 0.34054321021298795
925.0, 0.2906526727023942
926.0, 0.24850172101449
927.0, 0.21220288436204834
928.0, 0.18365525531917554
929.0, 0.15941597530833507
930.0, 0.1390971280406725
931.0, 0.12234160882014151
932.0, 0.10679478222827676
933.0, 0.09396293699088713
934.0, 0.08030887592588196
935.0, 0.0708198591111217
936.0, 0.061472283077460624
937.0, 0.05352463513691857
938.0, 0.046849365128737094
939.0, 0.04016820962830481
940.0, 0.03435102021127744
941.0, 0.03007014220722678
942.0, 0.025043790926787806
943.0, 0.022060841138689
944.0, 0.0183749138384233
945.0, 0.015126450272268601
946.0, 0.012784019038874134
947.0, 0.011059522547120119
948.0, 0.009816328810020725
949.0, 0.007440278288351045
950.0, 0.00671906000196094
951.0, 0.006069423165374425
952.0, 0.005470776742408481
953.0, 0.0043628713309527
954.0, 0.0035721913964368896
955.0, 0.0026417435080004154
956.0, 0.0014785575609546958
957.0, 0.0021790075073595413
958.0, 0.0013534192224902751
959.0, 0.0015043413481816326
960.0, 0.00014640516662076862
961.0, 0.0009307682208406115
962.0, 0.00011068648334375605
963.0, 0.0007763546122250334
964.0, 0.00014345114405651894
965.0, 0.0009814217915135315
966.0, 0.000769879736376343
967.0, 0.0006083488147118538
968.0, 0.0006609132082974754
969.0, 0.00016729637036983684
970.0, 0.00017659652654018618
971.0, 3.707380429008748e-05
972.0, 3.784947669719309e-05
973.0, 0.0002557107615991245
974.0, 0.0009896838703314492
975.0, 0.0006135726282188017
976.0, 0.000806063665454834
977.0, 0.000827928438412992
978.0, 0.0012762612317782616
979.0, 0.0005677299164107606
980.0, 0.0006117334238874268
981.0, 0.0001308794140352335
982.0, 0.0003073650459693022
983.0, 0.0005145161817242281
984.0, 0.0003549358464854055
985.0, 0.00039187496291701865
986.0, 0.0008004028611470666
987.0, 0.0002832859370811843
988.0, 0.0009864528517412533
989.0, 0.0007713948035686046
990.0, 0.0009408776001940396
991.0, 0.00029450572863244607
992.0, 0.0008952919398435951
993.0, 0.00023773554836988963
994.0, 0.0003217263829406484
995.0, 0.00025591841054812647
996.0, 0.0001103377228377734
997.0, 0.00020158171867066206
998.0, 0.0004550450585913556
999.0, 0.00121730278860584
1000.0, 0.0012819506833149322
1001.0, 0.0015677832907497822
1002.0, 0.002025138404872202
1003.0, 0.0033661690851257728
1004.0, 0.004143636085668377
1005.0, 0.004322675161835352
1006.0, 0.0050790706733874775
1007.0, 0.006566534619904917
1008.0, 0.007515005027795646
1009.0, 0.007876168673762512
1010.0, 0.0081949477633391
1011.0, 0.009733833713450372
1012.0, 0.012057159475544216
1013.0, 0.012770666134092296
1014.0, 0.012778809010819929
1015.0, 0.014282719661942481
1016.0, 0.0168250420216644
1017.0, 0.018189397366164158
1018.0, 0.019767982437845066
1019.0, 0.021983396253866107
1020.0, 0.02392024888034155
1021.0, 0.02601807506939053
1022.0, 0.02937572802372917
1023.0, 0.03332578293159489
1024.0, 0.036746939978126614
1025.0, 0.040363601641670833
1026.0, 0.04511624519976021
1027.0, 0.04951491154676666
1028.0, 0.054858541360995786
1029.0, 0.06138143998024089
1030.0, 0.06698359620769562
1031.0, 0.07475483633757096
1032.0, 0.08130887770743923
1033.0, 0.08832983394693607
1034.0, 0.09691840021842082
1035.0, 0.10288198064094678
1036.0, 0.10886779193269444
1037.0, 0.11274201333347603
1038.0, 0.11309562210433678
1039.0, 0.11314104665045562
1040.0, 0.11024293325067924
1041.0, 0.1051539753340478
1042.0, 0.09859244109938066
1043.0, 0.0914583295752901
1044.0, 0.08444233727060153
1045.0, 0.07557134509176848
1046.0, 0.06671323634118705
1047.0, 0.057628009583333785
1048.0, 0.051048858836151886
1049.0, 0.04374726264114575
1050.0, 0.03896928898895975
1051.0, 0.0334188492450032
1052.0, 0.027445365927066732
1053.0, 0.024347396445117082
1054.0, 0.021035816015025053
1055.0, 0.017493665701124046
1056.0, 0.016401727047243228
1057.0, 0.014133979463852812
1058.0, 0.01152469929743138
1059.0, 0.010276334455832379
1060.0, 0.009590507881482819
1061.0, 0.008489660342123137
1062.0, 0.007316189960668306
1063.0, 0.006733618548616056
1064.0, 0.0060375559699570504
1065.0, 0.0040337052075430455
1066.0, 0.005121737178550915
1067.0, 0.003618019758247937
1068.0, 0.0020957913521152836
1069.0, 0.0028270491149223185
1070.0, 0.00241922445065399
1071.0, 0.0023151376281559818
1072.0, 0.003206002413358377
1073.0, 0.0019049352938522827
1074.0, 0.0017170694522093545
1075.0, 0.0013233134771794119
1076.0, 0.001136306576878854
1077.0, 0.0017686850464952047
1078.0, 0.0015274580304816853
1079.0, 0.0008072328558782814
1080.0, 0.0005678498884633424
1081.0, 0.0016868050885214096
1082.0, 0.0025059528082215475
1083.0, 0.0012424388995005125
1084.0, 0.001756076642232938
1085.0, 0.0006863425951843478
1086.0, 0.0011073332822032354
1087.0, 0.0012055868489130373
1088.0, 0.0007231318631204018
1089.0, 0.0006767066503830043
1090.0, 0.001115296648857788
1091.0, 0.001022788687403901
1092.0, 0.0009247742126022966
1093.0, 0.001420143618099617
1094.0, 0.0007350287012923768
1095.0, 0.0008575862581382065
1096.0, 0.0012198242302428192
1097.0, 0.000734163024319191
1098.0, 1.868743357748347e-05
1099.0, 0.00037820844644786495
1100.0, 0.0008344615394472021
1101.0, 0.0009301484609624839
1102.0, 0.0009537137182415797
1103.0, 0.0006715967635335723
1104.0, 0.0006359585920836958
1105.0, 0.000664098114241638
1106.0, 0.000260593535742269
1107.0, 0.00025251777507904544
1108.0, 0.00032798662236052526
1109.0, 0.0004201463089824031
1110.0, 0.00010295401985355998
1111.0, 0.0002154247923523242
1112.0, 0.0003306506397568646
1113.0, 0.00028891335038252835
1114.0, 0.0008403164985841034
1115.0, 0.0001553900490046588
1116.0, 0.0014072657732288989
1117.0, 0.0017955492076240538
1118.0, 0.0017158883743116833
1119.0, 0.0007678144866573017
1120.0, 0.00011562212376199144
1121.0, 0.0004852343336551214
1122.0, 0.0005737129935961652
1123.0, 0.00012048793473150181
1124.0, 0.00023058094541551555
1125.0, 0.00041037861505128007
1126.0, 0.00029718256734766635
1127.0, 0.000554470644694105
1128.0, 0.000957053310039062
1129.0, 0.000631569987810905
1130.0, 0.00013515765584259335
1131.0, 0.00018383420057576036
1132.0, 0.0006915790270198116
1133.0, 0.0007981446938582769
1134.0, 0.0010237447063359522
1135.0, 0.0016338847430153393
1136.0, 0.0011087941140393556
1137.0, 0.0009414609544779321
1138.0, 0.0013209711790284075
1139.0, 0.000924694619833644
1140.0, 0.0008551119623260965
1141.0, 0.0008431694652220252
1142.0, 0.0014787848079834043
1143.0, 0.002176216256812886
1144.0, 0.0016737645092614632
1145.0, 0.0012438918187114905
1146.0, 0.00213552126986246
1147.0, 0.002090097334673251
1148.0, 0.0024643345140535817
1149.0, 0.002210166030048811
1150.0, 0.0029051296961443984
1151.0, 0.0022455664547109244
1152.0, 0.00197749439693877
1153.0, 0.0017971828835415822
1154.0, 0.002583748317225899
1155.0, 0.002503161857075977
1156.0, 0.0030635089284062693
1157.0, 0.002946406091293925
1158.0, 0.002241344837155341
1159.0, 0.0033992121668797557
1160.0, 0.004357110754195449
1161.0, 0.0036358704724439943
1162.0, 0.0032821866003243916
1163.0, 0.004079967974203749
1164.0, 0.004354411514860787
1165.0, 0.004504493821714373
1166.0, 0.004595427935302546
1167.0, 0.00447290883068646
1168.0, 0.004010449695980966
1169.0, 0.0029827299994128185
1170.0, 0.0033665719214667975
1171.0, 0.0030452358593688503
1172.0, 0.0037658924599528964
1173.0, 0.004168280914795466
1174.0, 0.004076039167956537
1175.0, 0.004213720423835157
1176.0, 0.004272172155753065
1177.0, 0.003983085440346508
1178.0, 0.003592770734219471
1179.0, 0.003158542287288059
1180.0, 0.002644969102558916
1181.0, 0.0027814622517026866
1182.0, 0.0032587109477600663
1183.0, 0.0024898506079757575
1184.0, 0.004143618982682978
1185.0, 0.003806346862144622
1186.0, 0.003564528094241325
1187.0, 0.0031250766900041225
1188.0, 0.002595759456937529
1189.0, 0.0026514847827542143
1190.0, 0.0030257116832376886
1191.0, 0.0033351449746385374
1192.0, 0.0031154706099852246
1193.0, 0.0019273646578748067
1194.0, 0.0025709202099677146
1195.0, 0.0027992962076168392
1196.0, 0.0025478349644752173
1197.0, 0.002293638929340988
1198.0, 0.002580992150012211
1199.0, 0.002337562609522327
1200.0, 0.001463515307231422
1201.0, 0.001191086433050496
1202.0, 0.0014829777633303053
1203.0, 0.0017489208091398482
1204.0, 0.0015347758093302284
1205.0, 0.0009460994245807962
1206.0, 0.002165080373197646
1207.0, 0.0015105990665454938
1208.0, 0.0009685425430423627
1209.0, 0.0019140627883326511
1210.0, 0.0010460061209144637
1211.0, 0.0001777825250781779
1212.0, 0.0002566475180901163
1213.0, 0.000789887137194872
1214.0, 0.00037426674092772314
1215.0, 0.00026083061850197786
1216.0, 0.0008583331187360976
1217.0, 0.0008391533193403357
1218.0, 0.000549452241581194
1219.0, 0.00023447788366804328
1220.0, 0.00012790222512767732
1221.0, 3.537972432193003e-05
1222.0, 0.0005430544421379793
1223.0, 0.0005453787479563396
1224.0, 0.00015797070511306947
1225.0, 0.00037263447128618905
1226.0, 0.00035189147458866194
1227.0, 0.000590031539182837
1228.0, 0.0012170721398583244
1229.0, 0.0010968497249547208
1230.0, 0.0002282583679445486
1231.0, 0.00044989319277645825
1232.0, 0.0009542542078383676
1233.0, 0.000737042821235513
1234.0, 0.0010731753418688995
1235.0, 0.0008453523623443714
1236.0, 0.0013204227175831708
1237.0, 0.0012646065378262483
1238.0, 0.0005911270282134518
1239.0, 0.00010828271430217767
1240.0, 0.0001465982672278431
1241.0, 0.0006294848697957444
1242.0, 0.0013654839082756051
1243.0, 0.0009464605284972374
1244.0, 0.0005150573682698624
1245.0, 0.0012959105183976377
1246.0, 0.00030397488100940116
1247.0, 0.002104951962977954
1248.0, 0.000470602375904479
1249.0, 0.0008327567509802986
1250.0, 0.001347835379409166
1251.0, 0.0017611309540989356
1252.0, 0.0016743557635344908
1253.0, 0.0011010522594249105
1254.0, 0.000620230270896629
1255.0, 0.0008488443907516733
1256.0, 0.0009446988354772257
1257.0, 0.0008753381513420151
1258.0, 0.002377133863726556
1259.0, 0.002749685964930035
1260.0, 0.0021130080703698076
1261.0, 0.0025282495547781204
1262.0, 0.0024623504208963628
1263.0, 0.0014292653803604507
1264.0, 0.0023037207387851177
1265.0, 0.0024243950856277768
1266.0, 0.0013257640584415664
1267.0, 0.00045678001734360995
1268.0, 0.0011479595410182554
1269.0, 0.0025298414231101195
1270.0, 0.0022750165592354318
1271.0, 0.0010640962717223044
1272.0, 0.0017079487584918725
1273.0, 0.002679285590859105
1274.0, 0.0013312283496033641
1275.0, 0.0019324401987987677
1276.0, 0.002192157949726781
1277.0, 0.002042400944298347
1278.0, 0.0024733057257612353
1279.0, 0.001491663156394926
1280.0, 0.0014959480982786068
1281.0, 0.001030284418681171
1282.0, 0.0014373922970663565
1283.0, 0.001757248986477283
1284.0, 0.0011170309003853442
1285.0, 0.0009779030388088867
1286.0, 0.0009040676471459225
1287.0, 0.0011165923762877926
1288.0, 0.0013752263638038195
1289.0, 0.001142286735543427
1290.0, 0.0005643586816423365
1291.0, 0.00016912235687165518
1292.0, 0.0003949110731844917
1293.0, 0.001283806208200703
1294.0, 0.0004438144486309983
1295.0, 0.0002893385717038005
1296.0, 0.0002278462716184829
1297.0, 0.0007455156796561995
1298.0, 0.000815005987781366
1299.0, 0.0012654569306780323
1300.0, 0.0002006757832963683
1301.0, 0.0006792805861818506
1302, 0.0
1303, 0.0
1304, 0.0
1305, 0.0
1306, 0.0
1307, 0.0
1308, 0.0
1309, 0.0
1310, 0.0
1311, 0.0
1312, 0.0
1313, 0.0
1314, 0.0
1315, 0.0
1316, 0.0
1317, 0.0
1318, 0.0
1319, 0.0
1320, 0.0
1321, 0.0
1322, 0.0
1323, 0.0
1324, 0.0
1325, 0.0
1326, 0.0
1327, 0.0
1328, 0.0
1329, 0.0
1330, 0.0
1331, 0.0
1332, 0.0
1333, 0.0
1334, 0.0
1335, 0.0
1336, 0.0
1337, 0.0
1338, 0.0
1339, 0.0
1340, 0.0
1341, 0.0
1342, 0.0
1343, 0.0
1344, 0.0
1345, 0.0
1346, 0.0
1347, 0.0
1348, 0.0
1349, 0.0
1350, 0.0
1351, 0.0
1352, 0.0
1353, 0.0
1354, 0.0
1355, 0.0
1356, 0.0
1357, 0.0
1358, 0.0
1359, 0.0
1360, 0.0
1361, 0.0
1362, 0.0
1363, 0.0
1364, 0.0
1365, 0.0
1366, 0.0
1367, 0.0
1368, 0.0
1369, 0.0
1370, 0.0
1371, 0.0
1372, 0.0
1373, 0.0
1374, 0.0
1375, 0.0
1376, 0.0
1377, 0.0
1378, 0.0
1379, 0.0
1380, 0.0
1381, 0.0
1382, 0.0
1383, 0.0
1384, 0.0
1385, 0.0
1386, 0.0
1387, 0.0
1388, 0.0
1389, 0.0
1390, 0.0
1391, 0.0
1392, 0.0
1393, 0.0
1394, 0.0
1395, 0.0
1396, 0.0
1397, 0.0
1398, 0.0
1399, 0.0
1400, 0.0
1401, 0.0
1402, 0.0
1403, 0.0
1404, 0.0
1405, 0.0
1406, 0.0
1407, 0.0
1408, 0.0
1409, 0.0
1410, 0.0
1411, 0.0
1412, 0.0
1413, 0.0
1414, 0.0
1415, 0.0
1416, 0.0
1417, 0.0
1418, 0.0
1419, 0.0
1420, 0.0
1421, 0.0
1422, 0.0
1423, 0.0
1424, 0.0
1425, 0.0
1426, 0.0
1427, 0.0
1428, 0.0
1429, 0.0
1430, 0.0
1431, 0.0
1432, 0.0
1433, 0.0
1434, 0.0
1435, 0.0
1436, 0.0
1437, 0.0
1438, 0.0
1439, 0.0
1440, 0.0
1441, 0.0
1442, 0.0
1443, 0.0
1444, 0.0
1445, 0.0
1446, 0.0
1447, 0.0
1448, 0.0
1449, 0.0
1450, 0.0
1451, 0.0
1452, 0.0
1453, 0.0
1454, 0.0
1455, 0.0
1456, 0.0
1457, 0.0
1458, 0.0
1459, 0.0
1460, 0.0
1461, 0.0
1462, 0.0
1463, 0.0
1464, 0.0
1465, 0.0
1466, 0.0
1467, 0.0
1468, 0.0
1469, 0.0
1470, 0.0
1471, 0.0
1472, 0.0
1473, 0.0
1474, 0.0
1475, 0.0
1476, 0.0
1477, 0.0
1478, 0.0
1479, 0.0
1480, 0.0
1481, 0.0
1482, 0.0
1483, 0.0
1484, 0.0
1485, 0.0
1486, 0.0
1487, 0.0
1488, 0.0
1489, 0.0
1490, 0.0
1491, 0.0
1492, 0.0
1493, 0.0
1494, 0.0
1495, 0.0
1496, 0.0
1497, 0.0
1498, 0.0
1499, 0.0
1500, 0.0
1501, 0.0
1502, 0.0
1503, 0.0
1504, 0.0
1505, 0.0
1506, 0.0
1507, 0.0
1508, 0.0
1509, 0.0
1510, 0.0
1511, 0.0
1512, 0.0
1513, 0.0
1514, 0.0
1515, 0.0
1516, 0.0
1517, 0.0
1518, 0.0
1519, 0.0
1520, 0.0
1521, 0.0
1522, 0.0
1523, 0.0
1524, 0.0
1525, 0.0
1526, 0.0
1527, 0.0
1528, 0.0
1529, 0.0
1530, 0.0
1531, 0.0
1532, 0.0
1533, 0.0
1534, 0.0
1535, 0.0
1536, 0.0
1537, 0.0
1538, 0.0
1539, 0.0
1540, 0.0
1541, 0.0
1542, 0.0
1543, 0.0
1544, 0.0
1545, 0.0
1546, 0.0
1547, 0.0
1548, 0.0
1549, 0.0
1550, 0.0
1551, 0.0
1552, 0.0
1553, 0.0
1554, 0.0
1555, 0.0
1556, 0.0
1557, 0.0
1558, 0.0
1559, 0.0
1560, 0.0
1561, 0.0
1562, 0.0
1563, 0.0
1564, 0.0
1565, 0.0
1566, 0.0
1567, 0.0
1568, 0.0
1569, 0.0
1570, 0.0
1571, 0.0
1572, 0.0
1573, 0.0
1574, 0.0
1575, 0.0
1576, 0.0
1577, 0.0
1578, 0.0
1579, 0.0
1580, 0.0
1581, 0.0
1582, 0.0
1583, 0.0
1584, 0.0
1585, 0.0
1586, 0.0
1587, 0.0
1588, 0.0
1589, 0.0
1590, 0.0
1591, 0.0
1592, 0.0
1593, 0.0
1594, 0.0
1595, 0.0
1596, 0.0
1597, 0.0
1598, 0.0
1599, 0.0
