30, 0.0
31, 0.0
32, 0.0
33, 0.0
34, 0.0
35, 0.0
36, 0.0
37, 0.0
38, 0.0
39, 0.0
40, 0.0
41, 0.0
42, 0.0
43, 0.0
44, 0.0
45, 0.0
46, 0.0
47, 0.0
48, 0.0
49, 0.0
50, 0.0
51, 0.0
52, 0.0
53, 0.0
54, 0.0
55, 0.0
56, 0.0
57, 0.0
58, 0.0
59, 0.0
60, 0.0
61, 0.0
62, 0.0
63, 0.0
64, 0.0
65, 0.0
66, 0.0
67, 0.0
68, 0.0
69, 0.0
70, 0.0
71, 0.0
72, 0.0
73, 0.0
74, 0.0
75, 0.0
76, 0.0
77, 0.0
78, 0.0
79, 0.0
80, 0.0
81, 0.0
82, 0.0
83, 0.0
84, 0.0
85, 0.0
86, 0.0
87, 0.0
88, 0.0
89, 0.0
90, 0.0
91, 0.0
92, 0.0
93, 0.0
94, 0.0
95, 0.0
96, 0.0
97, 0.0
98, 0.0
99, 0.0
100, 0.0
101, 0.0
102, 0.0
103, 0.0
104, 0.0
105, 0.0
106, 0.0
107, 0.0
108, 0.0
109, 0.0
110, 0.0
111, 0.0
112, 0.0
113, 0.0
114, 0.0
115, 0.0
116, 0.0
117, 0.0
118, 0.0
119, 0.0
120, 0.0
121, 0.0
122, 0.0
123, 0.0
124, 0.0
125, 0.0
126, 0.0
127, 0.0
128, 0.0
129, 0.0
130, 0.0
131, 0.0
132, 0.0
133, 0.0
134, 0.0
135, 0.0
136, 0.0
137, 0.0
138, 0.0
139, 0.0
140, 0.0
141, 0.0
142, 0.0
143, 0.0
144, 0.0
145, 0.0
146, 0.0
147, 0.0
148, 0.0
149, 0.0
150, 0.0
151, 0.0
152, 0.0
153, 0.0
154, 0.0
155, 0.0
156, 0.0
157, 0.0
158, 0.0
159.0, 0.009443213290841895
160.0, 0.0034379190761581937
161.0, 0.004380614611988987
162.0, 0.014993030232253094
163.0, 0.017054400277354363
164.0, 0.03789425817222004
165.0, 0.0415134804821117
166.0, 0.038055890316515906
167.0, 0.05013855356973167
168.0, 0.04969654390977241
169.0, 0.05635095266162352
170.0, 0.06600336218886506
171.0, 0.06952288170101942
172.0, 0.0673531176404034
173.0, 0.052669121439250864
174.0, 0.03677030273417572
175.0, 0.03061572369351652
176.0, 0.035428953840091794
177.0, 0.04015125475925108
178.0, 0.047547208805930975
179.0, 0.056704433758194575
180.0, 0.05553332471016499
181.0, 0.05157562942168595
182.0, 0.0523214483484133
183.0, 0.05981472838687253
184.0, 0.06823860280853596
185.0, 0.05247077709052442
186.0, 0.041568208656695145
187.0, 0.04986296633920996
188.0, 0.05851359985989107
189.0, 0.04797996940318607
190.0, 0.04290628062707918
191.0, 0.040684329170227476
192.0, 0.035665103493592414
193.0, 0.03669916759073377
194.0, 0.02313918258849199
195.0, 0.01777137692353438
196.0, 0.029218485396615403
197.0, 0.03801433671300162
198.0, 0.031124839675734758
199.0, 0.036110153914939304
200.0, 0.052313559587153904
201.0, 0.05916138605620089
202.0, 0.059628005616606
203.0, 0.0803136799526005
204.0, 0.09517799684241104
205.0, 0.08032026939462113
206.0, 0.06966161317727276
207.0, 0.06888710648135059
208.0, 0.05569053922460661
209.0, 0.029175048859942043
210.0, 0.02703086344255047
211.0, 0.016110939684456226
212.0, 0.0033985986878196975
213.0, 0.0074814295060185295
214.0, 0.011444784992179222
215.0, 0.022891594676145332
216.0, 0.01788173939012142
217.0, 0.003288997470343513
218.0, 0.014439408635002086
219.0, 0.015476588302213939
220.0, 0.02432193734415156
221.0, 0.03153951421998435
222.0, 0.026658976414830372
223.0, 0.008158380744059696
224.0, 0.001977881063252712
225.0, 0.003964077911883401
226.0, 0.006370898031167456
227.0, 0.0033421019591410965
228.0, 0.0024029756934628344
229.0, 0.004097872982045242
230.0, 0.010285536181601308
231.0, 0.019937899857390317
232.0, 0.02182108884888858
233.0, 0.024613046029059202
234.0, 0.03520686621023357
235.0, 0.05334813868073355
236.0, 0.06940630818231631
237.0, 0.07896638029920663
238.0, 0.07652237448453283
239.0, 0.07269105968465842
240.0, 0.08402956776343129
241.0, 0.0864001378351092
242.0, 0.09013075055079091
243.0, 0.09396562347402211
244.0, 0.0939693300100166
245.0, 0.09326483568535544
246.0, 0.10016565865087772
247.0, 0.10788174653958676
248.0, 0.11453687290776934
249.0, 0.12530033381957503
250.0, 0.10506000843389438
251.0, 0.1207768316159069
252.0, 0.14973439191270732
253.0, 0.14308124429077004
254.0, 0.15779890599871585
255.0, 0.17012443638485156
256.0, 0.1783953247657778
257.0, 0.1882965210352203
258.0, 0.2025915330387225
259.0, 0.20391427001838158
260.0, 0.20545658178593929
261.0, 0.2103671893244436
262.0, 0.21310000224456105
263.0, 0.22088676177345587
264.0, 0.24324718254941113
265.0, 0.2579489626429277
266.0, 0.2511285003554781
267.0, 0.2529047414729945
268.0, 0.26575597334032613
269.0, 0.26328513195769143
270.0, 0.2440519979888464
271.0, 0.2304968756398502
272.0, 0.22015570153297126
273.0, 0.21054836791489256
274.0, 0.20783007601534031
275.0, 0.2147204132916828
276.0, 0.1906083117311306
277.0, 0.18765261336711564
278.0, 0.1874062283971037
279.0, 0.182393459569929
280.0, 0.18831315690454145
281.0, 0.18899644793473816
282.0, 0.18874570656054698
283.0, 0.18068027538014694
284.0, 0.1627684057534574
285.0, 0.1608518413933101
286.0, 0.15789590430431577
287.0, 0.14376329859802897
288.0, 0.12583081417811992
289.0, 0.12213192127241501
290.0, 0.09937732495079957
291.0, 0.0924934827648984
292.0, 0.09936332774521514
293.0, 0.10403111758468392
294.0, 0.1165012001964918
295.0, 0.11151020463124317
296.0, 0.10512300979597172
297.0, 0.10388165069604824
298.0, 0.09404937484327855
299.0, 0.08316004512748389
300.0, 0.07942643347770621
301.0, 0.0739809594736133
302.0, 0.06064689527698585
303.0, 0.05297547170264704
304.0, 0.04101145668214604
305.0, 0.025282577836392588
306.0, 0.024049340468083366
307.0, 0.05564398374241626
308.0, 0.04346856857488437
309.0, 0.04732149790266431
310.0, 0.05549062996359552
311.0, 0.046159761732784896
312.0, 0.05252970537556054
313.0, 0.049004798791439624
314.0, 0.041791907419969014
315.0, 0.03572013863002098
316.0, 0.02785256199527205
317.0, 0.014645270325069125
318.0, 0.012716805980301404
319.0, 0.020571009480314432
320.0, 0.026479052732766264
321.0, 0.01977707930666329
322.0, 0.06306764330488177
323.0, 0.06776237348305855
324.0, 0.044324137793088574
325.0, 0.046699372968964814
326.0, 0.028394068252476975
327.0, 0.0247292431887105
328.0, 0.01752150070131909
329.0, 0.001435662487429545
330.0, 0.0038663254035323294
331.0, 0.0033925692244180074
332.0, 0.010121213128488349
333.0, 0.006694889046076755
334.0, 0.0067931632703074375
335.0, 0.017742563609108614
336.0, 0.02556931117515408
337.0, 0.024545214419592655
338.0, 0.0296624907767563
339.0, 0.0433840423779578
340.0, 0.03405040664144188
341.0, 0.02063829505670182
342.0, 0.013398886818076012
343.0, 0.012134601571314022
344.0, 0.007769453092659092
345.0, 0.012614665870827964
346.0, 0.01192411039569035
347.0, 0.019233917509471104
348.0, 0.041281988639411966
349.0, 0.027263243421576714
350.0, 0.024456481699825262
351.0, 0.03552602321825277
352.0, 0.047441225590773094
353.0, 0.05032577555203731
354.0, 0.030264522121244496
355.0, 0.0343989528152591
356.0, 0.033483605184167105
357.0, 0.01327847330719186
358.0, 0.012141729402831576
359.0, 0.00267315394559024
360.0, 0.003562437939174592
361.0, 0.0038380821711005977
362.0, 0.001868841723461886
363.0, 0.007633179879915224
364.0, 0.010117776163087563
365.0, 0.032848743776225486
366.0, 0.05573686673149878
367.0, 0.03686792953542534
368.0, 0.048185454382215206
369.0, 0.04014413122860978
370.0, 0.02696919081210496
371.0, 0.018139811573534424
372.0, 0.0021160433252256205
373.0, 0.007154631739839008
374.0, 0.013181367772667896
375.0, 0.017749001691711595
376.0, 0.016223079053932964
377.0, 0.011031985868674998
378.0, 0.00393079766627837
379.0, 0.013215347870328286
380.0, 0.019268799463856824
381.0, 0.02135900411175015
382.0, 0.026313520280341653
383.0, 0.018608158500220177
384.0, 0.015145496098681509
385.0, 0.01214794784224946
386.0, 0.01783507720434656
387.0, 0.015166083718443935
388.0, 0.018634430706940944
389.0, 0.016078351746257633
390.0, 0.007995112684691084
391.0, 0.012010338469799679
392.0, 0.012850318011173667
393.0, 0.008600380532504427
394.0, 0.0022203473902987114
395.0, 0.0023548483404440454
396.0, 0.0013159209066028917
397.0, 0.027744422328179502
398.0, 0.033206303365189156
399.0, 0.038798467875521464
400.0, 0.07283119357998392
401.0, 0.057102175081480355
402.0, 0.055483197338195483
403.0, 0.053305118570913246
404.0, 0.04352514137042565
405.0, 0.032375769770594615
406.0, 0.013866372808366534
407.0, 0.005342414315644142
408.0, 0.016629729566537462
409.0, 0.03154630793328614
410.0, 0.025147593244309728
411.0, 0.03735527209414012
412.0, 0.04361066736999111
413.0, 0.04481856275009494
414.0, 0.044617150113689316
415.0, 0.03896034115401187
416.0, 0.02688637442730642
417.0, 0.0416058344159717
418.0, 0.06058164794905826
419.0, 0.06422223925871079
420.0, 0.06520743686348708
421.0, 0.08558870279557602
422.0, 0.09500911622129603
423.0, 0.09126996059285299
424.0, 0.0870814811815349
425.0, 0.09681609868072323
426.0, 0.11536038588251801
427.0, 0.12890168418537723
428.0, 0.12845024806161867
429.0, 0.11368474913059548
430.0, 0.09799672595224472
431.0, 0.10738287878891674
432.0, 0.1185957441112852
433.0, 0.12604885509137853
434.0, 0.13447692574614062
435.0, 0.13678359079549263
436.0, 0.1440439637197836
437.0, 0.15889038795535024
438.0, 0.18044515917529014
439.0, 0.2087695342119775
440.0, 0.24344388897923697
441.0, 0.2358287965430163
442.0, 0.25377011121278886
443.0, 0.28547587691144505
444.0, 0.2892684605697073
445.0, 0.31288627288633875
446.0, 0.3251867079558588
447.0, 0.3501299407258247
448.0, 0.38471244461971643
449.0, 0.411525399212221
450.0, 0.44537702865190937
451.0, 0.4647657082921289
452.0, 0.47763937497582554
453.0, 0.49594092097454023
454.0, 0.5245516069107954
455.0, 0.5470893060971027
456.0, 0.5795942424766807
457.0, 0.6226126196440792
458.0, 0.6656907115657984
459.0, 0.7013887818761401
460.0, 0.7398633819507123
461.0, 0.7924627549328193
462.0, 0.8387171977106377
463.0, 0.889777620336031
464.0, 0.9542613444424302
465.0, 0.964939533557309
466.0, 0.9520197843146493
467.0, 0.8996174977004221
468.0, 0.8205402471766311
469.0, 0.7371355766238893
470.0, 0.6245585657936077
471.0, 0.530321404115816
472.0, 0.44513351785590116
473.0, 0.3729402183754827
474.0, 0.32252896277726295
475.0, 0.2719056766650353
476.0, 0.24170627676064346
477.0, 0.22030040819314495
478.0, 0.19726973535273548
479.0, 0.1721416084656563
480.0, 0.15408375513594139
481.0, 0.13569143031120062
482.0, 0.11072246744982692
483.0, 0.082955695713408
484.0, 0.06197741033151733
485.0, 0.057605020373461845
486.0, 0.06044062348734212
487.0, 0.06239989962448344
488.0, 0.05850724074810673
489.0, 0.04509838579108656
490.0, 0.01750224260249127
491.0, 0.021159187230562586
492.0, 0.012773944085429362
493.0, 0.000858506973252862
494.0, 0.003210056818143769
495.0, 0.004073211982941837
496.0, 0.009817212491005194
497.0, 0.013291124691422617
498.0, 0.00443191621231411
499.0, 0.01665866385734235
500.0, 0.024613070611637505
501.0, 0.03491537491215268
502.0, 0.019292523254426413
503.0, 0.01118664946253594
504.0, 0.019446915421568792
505.0, 0.015365398187308954
506.0, 0.02318444956214362
507.0, 0.009575212029327762
508.0, 0.002604438674468276
509.0, 0.009011348356569951
510.0, 0.00676685116379301
511.0, 0.0041688047057089755
512.0, 0.00484493517400136
513.0, 0.0018814879001241545
514.0, 0.015432928342143586
515.0, 0.031629578869107396
516.0, 0.041297668759399664
517.0, 0.03716366572790688
518.0, 0.03272939793236464
519.0, 0.03226859684118649
520.0, 0.03353752456750452
521.0, 0.032863432012740765
522.0, 0.037433826091995484
523.0, 0.04877363216382642
524.0, 0.06139279015061301
525.0, 0.0822581638996476
526.0, 0.12944669616258125
527.0, 0.16441972525601348
528.0, 0.18818507722863345
529.0, 0.22403451696148716
530.0, 0.2762638610624014
531.0, 0.3236313306411643
532.0, 0.34431231546511354
533.0, 0.3892232197293066
534.0, 0.43806281610959713
535.0, 0.4786478170860246
536.0, 0.5230309076338547
537.0, 0.5937607118335828
538.0, 0.6351496806386472
539.0, 0.6764479357940467
540.0, 0.7158913276529517
541.0, 0.736276819179221
542.0, 0.7446955083787542
543.0, 0.7266842347839525
544.0, 0.686948629593484
545.0, 0.6474938567581789
546.0, 0.6103517342473095
547.0, 0.5526707274697819
548.0, 0.47321606448124137
549.0, 0.4184787091142579
550.0, 0.37342222501795724
551.0, 0.32413015291868136
552.0, 0.2764269633838043
553.0, 0.24235909035500353
554.0, 0.19119452222419822
555.0, 0.17460896874806434
556.0, 0.14936077864254896
557.0, 0.0828091830476209
558.0, 0.07695985839559702
559.0, 0.04499440913559577
560.0, 0.01950514561507008
561.0, 0.004438428093971814
562.0, 0.006937896113035764
563.0, 0.003383833039097855
564.0, 0.013423789419287388
565.0, 0.017078771845114995
566.0, 0.008457004816848237
567.0, 0.009077763270234695
568.0, 0.03113494408031801
569.0, 0.05564209703100175
570.0, 0.03673633340188695
571.0, 0.03373774560944326
572.0, 0.04419910081654218
573.0, 0.048459520190528994
574.0, 0.054945244171447846
575.0, 0.04839503272494303
576.0, 0.037486164088305574
577.0, 0.024723410573755007
578.0, 0.015329839346273189
579.0, 0.012784450620332557
580.0, 0.003180649043057098
581.0, 0.005665370727572157
582.0, 0.007079349605826101
583.0, 0.014187105399058934
584.0, 0.028462417479092506
585.0, 0.02251075162886643
586.0, 0.033785193673524165
587.0, 0.05082785128004438
588.0, 0.06141738572599205
589.0, 0.05457430688856625
590.0, 0.033534634551245016
591.0, 0.04958364302355333
592.0, 0.04393608422690045
593.0, 0.021644929217220207
594.0, 0.012239257380459586
595.0, 0.019996243051912412
596.0, 0.011738536693752438
597.0, 0.0030333603119088322
598.0, 0.014640257783491446
599.0, 0.033557706937631465
600.0, 0.04072878196891319
601.0, 0.04941639642840205
602.0, 0.05058077607624499
603.0, 0.030286184556503462
604.0, 0.028756908138237156
605.0, 0.04329721687449706
606.0, 0.046043003757166925
607.0, 0.02439019100600141
608.0, 0.003487384096835594
609.0, 0.008889171901335782
610.0, 0.019843716606472182
611.0, 0.015499671450042699
612.0, 0.007198857732492643
613.0, 0.004907324529022413
614.0, 0.013813011027282999
615.0, 0.019151360568858068
616.0, 0.027307300374832193
617.0, 0.033594118250828836
618.0, 0.020449904520325222
619.0, 0.02791394982582396
620.0, 0.03691047363166772
621.0, 0.036255469171084985
622.0, 0.04313669991143002
623.0, 0.05881760241443991
624.0, 0.042211844818959524
625.0, 0.022391547373434073
626.0, 0.026217988756639738
627.0, 0.029967843179408545
628.0, 0.028599157176754875
629.0, 0.038074279090998864
630.0, 0.046821890652104486
631.0, 0.015233091549007479
632.0, 0.019028913157929313
633.0, 0.030618064856636852
634.0, 0.021083579543003567
635.0, 0.02878059159073035
636.0, 0.03937169814631584
637.0, 0.03705258807692987
638.0, 0.051005702091599436
639.0, 0.06843927297732387
640.0, 0.06963562199019643
641.0, 0.0771643937188692
642.0, 0.07736612378840851
643.0, 0.06655598038195451
644.0, 0.0717495368854638
645.0, 0.07581499210772287
646.0, 0.050191397969310825
647.0, 0.034983891231591534
648.0, 0.024176652702249776
649.0, 0.020644713057814127
650.0, 0.023231220888671963
651.0, 0.03394663497715188
652.0, 0.05666089300447752
653.0, 0.05326608667586112
654.0, 0.06966050524041444
655.0, 0.07976579269785847
656.0, 0.07751977668826951
657.0, 0.07732155997142083
658.0, 0.08601332514290597
659.0, 0.06733208757444428
660.0, 0.05643653967928311
661.0, 0.05271330018328914
662.0, 0.05285419823200854
663.0, 0.04654297587136139
664.0, 0.020538223589083304
665.0, 0.03157966022824106
666.0, 0.03646653513842895
667.0, 0.04272033687015592
668.0, 0.04740172409268463
669.0, 0.04435008840061963
670.0, 0.06023566684307613
671.0, 0.07108209009541112
672.0, 0.07584237441696125
673.0, 0.07531014856168713
674.0, 0.07560276131458919
675.0, 0.07894972695372429
676.0, 0.07236401537495561
677.0, 0.04693457613306753
678.0, 0.053734571950128006
679.0, 0.04377818381929252
680.0, 0.015005114580104131
681.0, 0.005546560539022645
682.0, 0.009091307324096114
683.0, 0.002229724452872275
684.0, 0.0052720213247522026
685.0, 0.01726420112977293
686.0, 0.017778391808969195
687.0, 0.004878926054264345
688.0, 0.025743420142833533
689.0, 0.02967154872879773
690.0, 0.04389794541935698
691.0, 0.05478137954929304
692.0, 0.05807207289274534
693.0, 0.06675631808426077
694.0, 0.05753311357125584
695.0, 0.06257422701710508
696.0, 0.0723313756799062
697.0, 0.0706131400941236
698.0, 0.06276347280257828
699.0, 0.06516556888243849
700.0, 0.07171879617000393
701.0, 0.07967559782749077
702.0, 0.042901036859360996
703.0, 0.033826801265575884
704.0, 0.04793113443067268
705.0, 0.01584887651805668
706.0, 0.005732336720105967
707.0, 0.009911454576366224
708.0, 0.0033044967303742286
709.0, 0.020171109694049835
710.0, 0.027292333025587194
711.0, 0.0407311327759831
712.0, 0.057513323739586855
713.0, 0.06786885116451975
714.0, 0.0857596931274563
715.0, 0.11104197799225668
716.0, 0.12400272563657389
717.0, 0.1147562426308573
718.0, 0.1132602194671683
719.0, 0.1011107365349614
720.0, 0.07674126924339267
721.0, 0.07518397736575443
722.0, 0.07736609712982734
723.0, 0.05105165359879184
724.0, 0.03527327211113582
725.0, 0.01149434865740302
726.0, 0.021962849636710236
727.0, 0.034281370721338245
728.0, 0.02902460909794458
729.0, 0.02536845191077806
730.0, 0.042090569971934444
731.0, 0.03989810675160096
732.0, 0.04284563921850132
733.0, 0.04186255981701915
734.0, 0.04495321450549414
735.0, 0.058711616608633
736.0, 0.06688416241194312
737.0, 0.06248352509825283
738.0, 0.0756810272364205
739.0, 0.07293673020469843
740.0, 0.07176314072749547
741.0, 0.07863445639326745
742.0, 0.0660775118951047
743.0, 0.07934492741099773
744.0, 0.0760579762922103
745.0, 0.08387197203442011
746.0, 0.0820504497235392
747.0, 0.07827884868157411
748.0, 0.09379081321354538
749.0, 0.06975082588509485
750.0, 0.06595786218523732
751.0, 0.0588129558381401
752.0, 0.04509662970955287
753.0, 0.032989086371967624
754.0, 0.017818855551875307
755.0, 0.008396699028175745
756.0, 0.012976282895825845
757.0, 0.011646965804744632
758.0, 0.003033459844073465
759.0, 0.0009322172555812631
760.0, 0.01605895800786524
761.0, 0.029332302504287065
762.0, 0.04407442370470336
763.0, 0.05601732144672477
764.0, 0.05429152429270877
765.0, 0.05806197209752429
766.0, 0.05618158425241886
767.0, 0.02955288033305913
768.0, 0.035078621089271095
769.0, 0.04557886359567672
770.0, 0.04468094437776058
771.0, 0.03627678297320862
772.0, 0.03403397489008464
773.0, 0.04098706207979822
774.0, 0.04410275907650985
775.0, 0.04531126109876073
776.0, 0.056554951262717826
777.0, 0.058765762689224815
778.0, 0.059091030458019465
779.0, 0.06392420749581666
780.0, 0.0632835824961211
781.0, 0.06032894308543216
782.0, 0.08285377928684798
783.0, 0.08701997268692732
784.0, 0.07147372964977469
785.0, 0.05240252990514213
786.0, 0.0497656283993674
787.0, 0.0749947946670281
788.0, 0.03387449349841026
789.0, 0.008391262991916915
790.0, 0.007531578966118384
791.0, 0.014777685089594221
792.0, 0.019413089569483455
793.0, 0.01932547910717864
794.0, 0.01570936370593259
795.0, 0.0369430651725679
796.0, 0.03361700212445738
797.0, 0.044398576552833684
798.0, 0.05854393373377608
799.0, 0.04883565831711261
800.0, 0.04183936361328462
801.0, 0.021900329906329907
802.0, 0.005447596140072324
803.0, 0.007801168176642558
804.0, 0.0004498953110923777
805.0, 0.0010692156062973017
806.0, 0.004292705394868779
807.0, 0.0044583547206207596
808.0, 0.04201723371962568
809.0, 0.04683463662542644
810.0, 0.03624480114006575
811.0, 0.03941245537275619
812.0, 0.04883898194826059
813.0, 0.04713143643648507
814.0, 0.04009529780176003
815.0, 0.017283250459660275
816.0, 0.016601039977983224
817.0, 0.02996906682134573
818.0, 0.03908603307042972
819.0, 0.03952353252192404
820.0, 0.042314925371297135
821.0, 0.05152314372647663
822.0, 0.04831433958896687
823.0, 0.025343867682284978
824.0, 0.007858470332207306
825.0, 0.013488857192524153
826.0, 0.031014790639573533
827.0, 0.029034555349188824
828.0, 0.027065374517716644
829.0, 0.013076975790648255
830.0, 0.029898963461692317
831.0, 0.03996105241684554
832.0, 0.027819791190969036
833.0, 0.029631880706638546
834.0, 0.02829266652195319
835.0, 0.039497768895589806
836.0, 0.039667832276924345
837.0, 0.03769422498539704
838.0, 0.03321385276954886
839.0, 0.020845134965952923
840.0, 0.007797709539383652
841.0, 0.015233701591430447
842.0, 0.0022817544329686917
843.0, 0.010726304976088667
844.0, 0.024524971725278486
845.0, 0.028651225352309045
846.0, 0.02784089315146263
847.0, 0.028353132464795462
848.0, 0.057739186355613106
849.0, 0.044221962184578606
850.0, 0.04208570471816961
851.0, 0.06011038462688437
852.0, 0.07734430769941397
853.0, 0.08305581868740253
854.0, 0.08717734282535136
855.0, 0.10868884825290885
856.0, 0.10496437197667967
857.0, 0.08774350476678915
858.0, 0.07736870929179869
859.0, 0.07279268320179604
860.0, 0.06168133446689683
861.0, 0.04159311407409094
862.0, 0.02450843783809713
863.0, 0.021065950615402788
864.0, 0.025863634002848888
865.0, 0.036197384227645873
866.0, 0.0424158125549044
867.0, 0.04227460926335147
868.0, 0.04782981168453724
869.0, 0.057965082875179444
870.0, 0.05230654264975064
871.0, 0.0697479588765106
872.0, 0.08291524548056002
873.0, 0.08464841596137852
874.0, 0.07589827096785502
875.0, 0.05567138196578252
876.0, 0.057028694990444904
877.0, 0.04951221808054181
878.0, 0.04434763967273798
879.0, 0.029436597724813933
880.0, 0.0034898014439814487
881.0, 0.010379477400830821
882.0, 0.0019954490527349924
883.0, 0.0014145881656119179
884.0, 0.002242600525950384
885.0, 0.0015257786481180148
886.0, 0.00857350991512712
887.0, 0.01596648550570486
888.0, 0.019481606598972266
889.0, 0.026299401026807712
890.0, 0.025239046452670128
891.0, 0.03860320547961124
892.0, 0.019982816600013355
893.0, 0.02973543443964393
894.0, 0.028428893334651834
895.0, 0.004148870942139539
896.0, 0.009501027627467587
897.0, 0.00503710573923781
898.0, 0.00398413194733967
899.0, 0.013171224757581795
900.0, 0.02210753708452336
901.0, 0.026298463690189795
902.0, 0.03439295980543056
903.0, 0.04372976824369428
904.0, 0.03283978658447316
905.0, 0.005706615208841154
906.0, 0.025356681954847072
907.0, 0.006584326402164022
908.0, 0.0030328890057075885
909.0, 0.016221880616116034
910.0, 0.02258292975531494
911.0, 0.026910006416513067
912.0, 0.04200743594230203
913.0, 0.046128255953945596
914.0, 0.02724048056175221
915.0, 0.03163961993603771
916.0, 0.04498556467435786
917.0, 0.04804390240949024
918.0, 0.042749537199225085
919.0, 0.03383971849937215
920.0, 0.03407551645562209
921.0, 0.021994627999540297
922.0, 0.01524435779074424
923.0, 0.022412816070753107
924.0, 0.02894011344992228
925.0, 0.02704617648041093
926.0, 0.024602726798441405
927.0, 0.02574085776806387
928.0, 0.034342362185834474
929.0, 0.02060204954986443
930.0, 0.012862363353861848
931.0, 0.007449653767229113
932.0, 0.004946085507713211
933.0, 0.0034113787403479163
934.0, 0.009059398717123902
935.0, 0.010693374313081741
936.0, 0.005440652120724741
937.0, 0.003926646918285172
938.0, 0.003300773374883949
939.0, 0.004787561100443537
940.0, 0.006320531466245007
941.0, 0.02548155841959835
942.0, 0.018921176283820264
943.0, 0.010767047810816093
944.0, 0.02106956392731721
945.0, 0.020676068576345172
946.0, 0.028612465176997986
947.0, 0.030466532325425927
948.0, 0.02640150121244224
949.0, 0.03828490996473739
950.0, 0.03708248498165413
951.0, 0.03958096250845784
952.0, 0.05370501150675253
953.0, 0.07138753617161231
954.0, 0.07171069892657696
955.0, 0.06390664556750271
956.0, 0.07440749447022367
957.0, 0.09691988217018509
958.0, 0.09069725139597397
959.0, 0.09523827299183835
960.0, 0.08154296696491328
961.0, 0.06412197714564852
962.0, 0.06091401984158112
963.0, 0.06790656743126543
964.0, 0.062257096508357986
965.0, 0.03548047964875379
966.0, 0.053658337204599504
967.0, 0.0697727148147409
968.0, 0.08279096710922015
969.0, 0.09411505200988192
970.0, 0.10485733468979021
971.0, 0.11538317595996032
972.0, 0.13288252609439163
973.0, 0.16152541993142705
974.0, 0.1801692217437946
975.0, 0.21239891064542632
976.0, 0.25764153768980114
977.0, 0.30677899401442205
978.0, 0.37220415978122756
979.0, 0.4251144207827458
980.0, 0.4540992463131839
981.0, 0.5052017560165726
982.0, 0.5663101156985842
983.0, 0.6266067326566059
984.0, 0.6777486620640014
985.0, 0.7223747105036368
986.0, 0.7710452011401585
987.0, 0.8302313379037667
988.0, 0.8952142440707327
989.0, 0.9415963615169636
990.0, 0.9709430679606065
991.0, 0.9987045682026459
992.0, 0.9868749400875345
993.0, 0.9498210183967931
994.0, 0.8834637296072622
995.0, 0.7972517004698287
996.0, 0.709468018215795
997.0, 0.6249070494307638
998.0, 0.5446793254962207
999.0, 0.4841835490615406
1000.0, 0.4253540556467865
1001.0, 0.40859832217017206
1002.0, 0.39418058163624375
1003.0, 0.37630905633828576
1004.0, 0.3602220460711979
1005.0, 0.3385954962448578
1006.0, 0.3222011712399357
1007.0, 0.3064826701088183
1008.0, 0.29009697630304737
1009.0, 0.2719822268584773
1010.0, 0.2402247411855168
1011.0, 0.221813623666683
1012.0, 0.2262019765327114
1013.0, 0.23213809717876208
1014.0, 0.22470976938325332
1015.0, 0.20601680637924977
1016.0, 0.21532045992278262
1017.0, 0.21340073248772562
1018.0, 0.18823975882824276
1019.0, 0.17131834340923477
1020.0, 0.15033064400582527
1021.0, 0.120148988130023
1022.0, 0.09727386468609493
1023.0, 0.05977626606437892
1024.0, 0.03924462518622698
1025.0, 0.036798007019191496
1026.0, 0.03404800644342958
1027.0, 0.028475550221071084
1028.0, 0.019608627747456007
1029.0, 0.02455247910115927
1030.0, 0.03511674248881026
1031.0, 0.014932215765294967
1032.0, 0.0034632611436402746
1033.0, 0.016458287320857933
1034.0, 0.01924014735382905
1035.0, 0.017211576373692753
1036.0, 0.01874276299733054
1037.0, 0.03036679630662168
1038.0, 0.03151346696196063
1039.0, 0.018614705766790612
1040.0, 0.02175067840362617
1041.0, 0.00728226513663966
1042.0, 0.026552179605670738
1043.0, 0.04587790967447987
1044.0, 0.02010257942631607
1045.0, 0.008577075715693362
1046.0, 0.02276482860600305
1047.0, 0.040667069078652855
1048.0, 0.012388723112908378
1049.0, 0.028017859080999907
1050.0, 0.020301958479800455
1051.0, 0.0404641035191394
1052.0, 0.03940446451184417
1053.0, 0.02226823082773438
1054.0, 0.00610650622392961
1055.0, 0.021108538580832184
1056.0, 0.047502759075510374
1057.0, 0.048211327197569064
1058.0, 0.08594677408281577
1059.0, 0.09912440849134065
1060.0, 0.12066835274651047
1061.0, 0.11937145347869593
1062.0, 0.11449165018434626
1063.0, 0.1120841705287172
1064.0, 0.1180455011775886
1065.0, 0.1335245810656949
1066.0, 0.1486589589485311
1067.0, 0.1621306407167278
1068.0, 0.15566782761978584
1069.0, 0.16899563157934044
1070.0, 0.18796614831014524
1071.0, 0.18224440607780776
1072.0, 0.1792028260016457
1073.0, 0.19737501556354028
1074.0, 0.20316084342025947
1075.0, 0.17972058201409064
1076.0, 0.17916274683527167
1077.0, 0.1698291138112626
1078.0, 0.17484313692516334
1079.0, 0.17778542259358793
1080.0, 0.16621411125181576
1081.0, 0.17192863134010525
1082.0, 0.15203968339252688
1083.0, 0.11823649503449254
1084.0, 0.11917265108891563
1085.0, 0.12161241523292757
1086.0, 0.14227841944628952
1087.0, 0.13747151060551058
1088.0, 0.15291277012000667
1089.0, 0.15504919399239048
1090.0, 0.15634094630237597
1091.0, 0.173434335568721
1092.0, 0.18398317346581836
1093.0, 0.17807629746869072
1094.0, 0.17670993871230362
1095.0, 0.17582185256189642
1096.0, 0.1609680506716612
1097.0, 0.17004062844707976
1098.0, 0.16680013200512964
1099.0, 0.15870483836961632
1100.0, 0.135904604158296
1101.0, 0.12432343129559853
1102.0, 0.12427186316467007
1103.0, 0.106595655884464
1104.0, 0.10364635703179399
1105.0, 0.09209060502331028
1106.0, 0.056171902342352815
1107.0, 0.061759123437607255
1108.0, 0.05707198606217743
1109.0, 0.0454749195030674
1110.0, 0.03371496972568608
1111.0, 0.022581041797122257
1112.0, 0.025298741663835427
1113.0, 0.04233124560047014
1114.0, 0.04303509167823367
1115.0, 0.07662962235547795
1116.0, 0.07282764311034602
1117.0, 0.06259725354839445
1118.0, 0.06162883677061744
1119.0, 0.07075064616880719
1120.0, 0.0696239319020112
1121.0, 0.055550742590418846
1122.0, 0.05328828097461599
1123.0, 0.06747096616094475
1124.0, 0.05854379071533192
1125.0, 0.050074923859363414
1126.0, 0.05726794428002579
1127.0, 0.03282608451458414
1128.0, 0.04988223499599747
1129.0, 0.05010117517623168
1130.0, 0.03413270877217261
1131.0, 0.039078671492203995
1132.0, 0.04899706545502779
1133.0, 0.054832482508101625
1134.0, 0.07147290376352898
1135.0, 0.055861545595335065
1136.0, 0.062051404570128116
1137.0, 0.06405330041985129
1138.0, 0.0730325783765617
1139.0, 0.08293127085452145
1140.0, 0.07740119914627995
1141.0, 0.06098324392181474
1142.0, 0.05806472566240282
1143.0, 0.06316884895386762
1144.0, 0.042215315401061305
1145.0, 0.041123008687201694
1146.0, 0.03648467478868842
1147.0, 0.03699741593909359
1148.0, 0.03039447590288344
1149.0, 0.03819805010369036
1150.0, 0.054776980963202306
1151.0, 0.06518921066828263
1152.0, 0.05872108099634779
1153.0, 0.03588660837043076
1154.0, 0.021068290745458535
1155.0, 0.01858203282896365
1156.0, 0.03238955435352269
1157.0, 0.04330076913754785
1158.0, 0.05721286019363341
1159.0, 0.05473351900983524
1160.0, 0.03057310302312944
1161.0, 0.023874972669613054
1162.0, 0.042904315084328855
1163.0, 0.05325622137971936
1164.0, 0.046032600748274935
1165.0, 0.04321905376444217
1166.0, 0.030775893605948346
1167.0, 0.030832631516045556
1168.0, 0.011267577632802889
1169.0, 0.003945684038236554
1170.0, 0.006835112222149495
1171.0, 0.011966799656889633
1172.0, 0.031686948339947875
1173.0, 0.051183666130247406
1174.0, 0.06662475194631588
1175.0, 0.05067497160904734
1176.0, 0.05690014597790821
1177.0, 0.06558960838285598
1178.0, 0.08130542937860931
1179.0, 0.04850843951105739
1180.0, 0.05785223594354197
1181.0, 0.060226723557668185
1182.0, 0.04341165753245207
1183.0, 0.04483418162201572
1184.0, 0.05945489897361443
1185.0, 0.06489509772435018
1186.0, 0.07527300501866396
1187.0, 0.07023372743171945
1188.0, 0.06288320654474037
1189.0, 0.06259779083284644
1190.0, 0.05849249875402157
1191.0, 0.059185667711910125
1192.0, 0.052326032165351394
1193.0, 0.04591378759633548
1194.0, 0.05770622406429855
1195.0, 0.07498968157688887
1196.0, 0.06372272749218681
1197.0, 0.03214530788656583
1198.0, 0.031129552648431678
1199.0, 0.04526127270488034
1200.0, 0.03179600326346865
1201.0, 0.02170610853027047
1202.0, 0.018620865160555982
1203.0, 0.006449128525200546
1204.0, 0.00016194014288100814
1205.0, 0.011239691428886494
1206.0, 0.01239354840743451
1207.0, 0.010262681694060388
1208.0, 0.011954739861956498
1209.0, 0.01735787480064392
1210.0, 0.011027986131597384
1211.0, 0.027085835375736698
1212.0, 0.009324470660442796
1213.0, 0.012892458076611322
1214.0, 0.010604571458982442
1215.0, 0.013015995527529634
1216.0, 0.0062961489110668015
1217.0, 0.008987301972208908
1218.0, 0.0015437733444461292
1219.0, 0.013707662556535776
1220.0, 0.009372931036037958
1221.0, 0.0017970581316768847
1222.0, 0.010824313607139096
1223.0, 0.01846578715651426
1224.0, 0.02222659335315091
1225.0, 0.01740149950965874
1226.0, 0.04501340393139951
1227.0, 0.04172163755217174
1228.0, 0.01829768514545722
1229.0, 0.02042958561076392
1230.0, 0.0412805730543242
1231.0, 0.05056819711410184
1232.0, 0.04335493993413422
1233.0, 0.051125904566595784
1234.0, 0.029395255407280666
1235.0, 0.028771136043490304
1236.0, 0.0420574321494619
1237.0, 0.028080341998850976
1238.0, 0.004470415996665253
1239.0, 0.010612782162474868
1240.0, 0.019898292124161714
1241.0, 0.019890508137953428
1242.0, 0.01902632777545979
1243.0, 0.005466081546606459
1244.0, 0.011567614558155368
1245.0, 0.0011743748505514385
1246.0, 0.01728127721169097
1247.0, 0.039113488417678914
1248.0, 0.006556029226366198
1249.0, 0.0014061654639355304
1250.0, 0.009136603536254088
1251.0, 0.014557606766718044
1252.0, 0.02903736135880584
1253.0, 0.04316206253602572
1254.0, 0.06048571448117913
1255.0, 0.07371834979398274
1256.0, 0.050791475603165125
1257.0, 0.011118177241056362
1258.0, 0.014829239956038534
1259.0, 0.01155208862092557
1260.0, 0.02378381844924913
1261.0, 0.03051967381561975
1262.0, 0.04489598084234767
1263.0, 0.04071685185123254
1264.0, 0.031797808855171264
1265.0, 0.011365664391547022
1266.0, 0.025817385199084015
1267.0, 0.054522859586193725
1268.0, 0.03842503900848648
1269.0, 0.021379129924882057
1270.0, 0.041885025139121394
1271.0, 0.05753760124039827
1272.0, 0.03220694479132081
1273.0, 0.03805690286945563
1274.0, 0.025851646073261625
1275.0, 0.005367544169605613
1276.0, 0.004970814064405581
1277.0, 0.02164103732711912
1278.0, 0.009528062122750296
1279.0, 0.0057878264691453365
1280.0, 0.00948663577068136
1281.0, 0.013058947366373396
1282.0, 0.02232899845156522
1283.0, 0.04976873899473067
1284.0, 0.03850601632158873
1285.0, 0.04175063519208104
1286.0, 0.043418144610244486
1287.0, 0.024046835862777637
1288.0, 0.02591390776782762
1289.0, 0.008072240347618628
1290.0, 0.0020892316960719327
1291.0, 0.0009526988876823623
1292.0, 0.02541106198689972
1293.0, 0.03222334979465034
1294.0, 0.025327299084485902
1295.0, 0.03403126530237454
1296.0, 0.049194210761749485
1297.0, 0.0689799271232699
1298.0, 0.07125412420288102
1299.0, 0.053257836689002185
1300.0, 0.04847917993865266
1301.0, 0.03410757221329647
1302.0, 0.02950476209143514
1303.0, 0.017770282645520552
1304.0, 0.01819344110739046
1305.0, 0.0057860040326476745
1306, 0.0
1307, 0.0
1308, 0.0
1309, 0.0
1310, 0.0
1311, 0.0
1312, 0.0
1313, 0.0
1314, 0.0
1315, 0.0
1316, 0.0
1317, 0.0
1318, 0.0
1319, 0.0
1320, 0.0
1321, 0.0
1322, 0.0
1323, 0.0
1324, 0.0
1325, 0.0
1326, 0.0
1327, 0.0
1328, 0.0
1329, 0.0
1330, 0.0
1331, 0.0
1332, 0.0
1333, 0.0
1334, 0.0
1335, 0.0
1336, 0.0
1337, 0.0
1338, 0.0
1339, 0.0
1340, 0.0
1341, 0.0
1342, 0.0
1343, 0.0
1344, 0.0
1345, 0.0
1346, 0.0
1347, 0.0
1348, 0.0
1349, 0.0
1350, 0.0
1351, 0.0
1352, 0.0
1353, 0.0
1354, 0.0
1355, 0.0
1356, 0.0
1357, 0.0
1358, 0.0
1359, 0.0
1360, 0.0
1361, 0.0
1362, 0.0
1363, 0.0
1364, 0.0
1365, 0.0
1366, 0.0
1367, 0.0
1368, 0.0
1369, 0.0
1370, 0.0
1371, 0.0
1372, 0.0
1373, 0.0
1374, 0.0
1375, 0.0
1376, 0.0
1377, 0.0
1378, 0.0
1379, 0.0
1380, 0.0
1381, 0.0
1382, 0.0
1383, 0.0
1384, 0.0
1385, 0.0
1386, 0.0
1387, 0.0
1388, 0.0
1389, 0.0
1390, 0.0
1391, 0.0
1392, 0.0
1393, 0.0
1394, 0.0
1395, 0.0
1396, 0.0
1397, 0.0
1398, 0.0
1399, 0.0
1400, 0.0
1401, 0.0
1402, 0.0
1403, 0.0
1404, 0.0
1405, 0.0
1406, 0.0
1407, 0.0
1408, 0.0
1409, 0.0
1410, 0.0
1411, 0.0
1412, 0.0
1413, 0.0
1414, 0.0
1415, 0.0
1416, 0.0
1417, 0.0
1418, 0.0
1419, 0.0
1420, 0.0
1421, 0.0
1422, 0.0
1423, 0.0
1424, 0.0
1425, 0.0
1426, 0.0
1427, 0.0
1428, 0.0
1429, 0.0
1430, 0.0
1431, 0.0
1432, 0.0
1433, 0.0
1434, 0.0
1435, 0.0
1436, 0.0
1437, 0.0
1438, 0.0
1439, 0.0
1440, 0.0
1441, 0.0
1442, 0.0
1443, 0.0
1444, 0.0
1445, 0.0
1446, 0.0
1447, 0.0
1448, 0.0
1449, 0.0
1450, 0.0
1451, 0.0
1452, 0.0
1453, 0.0
1454, 0.0
1455, 0.0
1456, 0.0
1457, 0.0
1458, 0.0
1459, 0.0
1460, 0.0
1461, 0.0
1462, 0.0
1463, 0.0
1464, 0.0
1465, 0.0
1466, 0.0
1467, 0.0
1468, 0.0
1469, 0.0
1470, 0.0
1471, 0.0
1472, 0.0
1473, 0.0
1474, 0.0
1475, 0.0
1476, 0.0
1477, 0.0
1478, 0.0
1479, 0.0
1480, 0.0
1481, 0.0
1482, 0.0
1483, 0.0
1484, 0.0
1485, 0.0
1486, 0.0
1487, 0.0
1488, 0.0
1489, 0.0
1490, 0.0
1491, 0.0
1492, 0.0
1493, 0.0
1494, 0.0
1495, 0.0
1496, 0.0
1497, 0.0
1498, 0.0
1499, 0.0
1500, 0.0
1501, 0.0
1502, 0.0
1503, 0.0
1504, 0.0
1505, 0.0
1506, 0.0
1507, 0.0
1508, 0.0
1509, 0.0
1510, 0.0
1511, 0.0
1512, 0.0
1513, 0.0
1514, 0.0
1515, 0.0
1516, 0.0
1517, 0.0
1518, 0.0
1519, 0.0
1520, 0.0
1521, 0.0
1522, 0.0
1523, 0.0
1524, 0.0
1525, 0.0
1526, 0.0
1527, 0.0
1528, 0.0
1529, 0.0
1530, 0.0
1531, 0.0
1532, 0.0
1533, 0.0
1534, 0.0
1535, 0.0
1536, 0.0
1537, 0.0
1538, 0.0
1539, 0.0
1540, 0.0
1541, 0.0
1542, 0.0
1543, 0.0
1544, 0.0
1545, 0.0
1546, 0.0
1547, 0.0
1548, 0.0
1549, 0.0
1550, 0.0
1551, 0.0
1552, 0.0
1553, 0.0
1554, 0.0
1555, 0.0
1556, 0.0
1557, 0.0
1558, 0.0
1559, 0.0
1560, 0.0
1561, 0.0
1562, 0.0
1563, 0.0
1564, 0.0
1565, 0.0
1566, 0.0
1567, 0.0
1568, 0.0
1569, 0.0
1570, 0.0
1571, 0.0
1572, 0.0
1573, 0.0
1574, 0.0
1575, 0.0
1576, 0.0
1577, 0.0
1578, 0.0
1579, 0.0
1580, 0.0
1581, 0.0
1582, 0.0
1583, 0.0
1584, 0.0
1585, 0.0
1586, 0.0
1587, 0.0
1588, 0.0
1589, 0.0
1590, 0.0
1591, 0.0
1592, 0.0
1593, 0.0
1594, 0.0
1595, 0.0
1596, 0.0
1597, 0.0
1598, 0.0
1599, 0.0
