30, 0.0
31, 0.0
32, 0.0
33, 0.0
34, 0.0
35, 0.0
36, 0.0
37, 0.0
38, 0.0
39, 0.0
40, 0.0
41, 0.0
42, 0.0
43, 0.0
44, 0.0
45, 0.0
46, 0.0
47, 0.0
48, 0.0
49, 0.0
50, 0.0
51, 0.0
52, 0.0
53, 0.0
54, 0.0
55, 0.0
56, 0.0
57, 0.0
58, 0.0
59, 0.0
60, 0.0
61, 0.0
62, 0.0
63, 0.0
64, 0.0
65, 0.0
66, 0.0
67, 0.0
68, 0.0
69, 0.0
70, 0.0
71, 0.0
72, 0.0
73, 0.0
74, 0.0
75, 0.0
76, 0.0
77, 0.0
78, 0.0
79, 0.0
80, 0.0
81, 0.0
82, 0.0
83, 0.0
84, 0.0
85, 0.0
86, 0.0
87, 0.0
88, 0.0
89, 0.0
90, 0.0
91, 0.0
92, 0.0
93, 0.0
94, 0.0
95, 0.0
96, 0.0
97, 0.0
98, 0.0
99, 0.0
100, 0.0
101, 0.0
102, 0.0
103, 0.0
104, 0.0
105, 0.0
106, 0.0
107, 0.0
108, 0.0
109, 0.0
110, 0.0
111, 0.0
112, 0.0
113, 0.0
114, 0.0
115, 0.0
116, 0.0
117, 0.0
118, 0.0
119, 0.0
120, 0.0
121, 0.0
122, 0.0
123, 0.0
124, 0.0
125, 0.0
126, 0.0
127, 0.0
128, 0.0
129, 0.0
130, 0.0
131, 0.0
132, 0.0
133, 0.0
134, 0.0
135, 0.0
136, 0.0
137, 0.0
138, 0.0
139.0, 7.229836349867695e-06
140.0, 0.0001064819060018925
141.0, 0.0005513094282838769
142.0, 0.0011974460279699476
143.0, 0.0015788208063602768
144.0, 0.0024315525613856463
145.0, 0.0035491487652754158
146.0, 0.004618536116374781
147.0, 0.005291301868156941
148.0, 0.005387347474105531
149.0, 0.005088432452907381
150.0, 0.004653206846980764
151.0, 0.004378893848280949
152.0, 0.0040812115220705495
153.0, 0.0038793608562905763
154.0, 0.0034657426562555932
155.0, 0.0029693144668003425
156.0, 0.002765451649032858
157.0, 0.00241141347128256
158.0, 0.002139466076789672
159.0, 0.0018353386490202375
160.0, 0.001290155315279965
161.0, 0.0008115608091480438
162.0, 0.0003005664178724951
163.0, 4.368070610434518e-05
164.0, 0.00010682371350211133
165.0, 0.00011051568739289369
166.0, 0.00013834935296462588
167.0, 5.854378477193899e-05
168.0, 0.00014097188349733734
169.0, 0.0003375504398267582
170.0, 0.0005648804039022961
171.0, 0.0007988137199597147
172.0, 0.0010434538753908097
173.0, 0.0013014767932919176
174.0, 0.001514187518704188
175.0, 0.0016865862493637563
176.0, 0.0018687905037080813
177.0, 0.002109129112570612
178.0, 0.0023473999930299005
179.0, 0.0025825354972348583
180.0, 0.002862938019383773
181.0, 0.0032181013067244823
182.0, 0.003663203793638713
183.0, 0.004109137966619774
184.0, 0.004952820787267778
185.0, 0.006015534213035253
186.0, 0.007056128137473421
187.0, 0.008322209293470351
188.0, 0.009261053172446734
189.0, 0.009785782290005186
190.0, 0.009823342509060872
191.0, 0.009167888751941602
192.0, 0.007718941903240691
193.0, 0.006157450221503848
194.0, 0.004764415808144658
195.0, 0.0034850900932883837
196.0, 0.0023953426773574726
197.0, 0.0017182995797618747
198.0, 0.0012413021638476493
199.0, 0.0008185230900327677
200.0, 0.0005848493622936147
201.0, 0.00043564615163873297
202.0, 0.0003001294826496047
203.0, 0.00015169727157682096
204.0, 2.1763276657096874e-05
205.0, 3.049915696985728e-05
206.0, 4.301887485521202e-05
207.0, 1.3203723522045687e-05
208.0, 2.298920183481873e-05
209.0, 1.932641965230463e-05
210.0, 7.773123722196193e-05
211.0, 6.054645750531873e-05
212.0, 6.49979871610765e-05
213.0, 1.1893521805408032e-05
214.0, 1.2238913156582544e-05
215.0, 8.870054982733452e-06
216.0, 2.9142802864046102e-05
217.0, 2.9235666203892867e-05
218.0, 6.39986582730156e-05
219.0, 0.0001744682964653391
220.0, 0.0001467901983949268
221.0, 2.5059522843910682e-05
222.0, 0.00011298223417144956
223.0, 4.657701444470696e-05
224.0, 5.5669778155741305e-05
225.0, 0.00010861733206783342
226.0, 0.00010311475298335472
227.0, 6.415391057547286e-05
228.0, 1.518550510015476e-05
229.0, 5.368293363911974e-05
230.0, 0.0001392408602417883
231.0, 0.00010170523596235369
232.0, 0.0001173627301889688
233.0, 0.00019093975719818487
234.0, 0.0002259842020183034
235.0, 0.0001736809274793884
236.0, 0.00016642769850660016
237.0, 0.0001850304672781103
238.0, 0.00023320906665198396
239.0, 0.00028687627879101505
240.0, 0.0002907456806170123
241.0, 0.00020901542129511308
242.0, 0.00017505723489121295
243.0, 0.00020340109975784567
244.0, 0.00025054704918916115
245.0, 0.00027223381633625677
246.0, 0.00027315960640764635
247.0, 0.0002679851900898796
248.0, 0.000274333468717197
249.0, 0.0003037629518482477
250.0, 0.00029782265327085207
251.0, 0.00029069838124966654
252.0, 0.000275661151024915
253.0, 0.0002586117888934227
254.0, 0.00030408579207932997
255.0, 0.0003866125795303179
256.0, 0.00035784786426733137
257.0, 0.00033802448372332065
258.0, 0.0004928809587841209
259.0, 0.0004243193863411415
260.0, 0.0003664702771250148
261.0, 0.00039931940741846103
262.0, 0.0004633089937313347
263.0, 0.00043759334384282277
264.0, 0.00039163943647480904
265.0, 0.00042919376175794353
266.0, 0.0004339446721951799
267.0, 0.0003155909028324137
268.0, 0.00030961375788882606
269.0, 0.00024197277680231664
270.0, 0.00023158932559823285
271.0, 0.0002866381940860906
272.0, 0.00028475783916139593
273.0, 0.0003052408848991362
274.0, 0.0003339962860498723
275.0, 0.00034310959830164117
276.0, 0.00032264402955004207
277.0, 0.0002853271712484704
278.0, 0.00024133068529742048
279.0, 0.00023376102798040367
280.0, 0.0002831557099757115
281.0, 0.0003633357504920775
282.0, 0.00039321081206180003
283.0, 0.00043242718513343634
284.0, 0.0004276297528982215
285.0, 0.0003753986285548756
286.0, 0.0003432606360589379
287.0, 0.00028259952785067064
288.0, 0.00026716074350188935
289.0, 0.0002706601093034828
290.0, 0.0002653710530829299
291.0, 0.0002822327805604461
292.0, 0.0003195261439983105
293.0, 0.00026893381520197034
294.0, 0.0002120240027651008
295.0, 0.00024500538033030904
296.0, 0.00010971293573085913
297.0, 0.00011941251325886316
298.0, 0.00013205234048450427
299.0, 9.18203242745571e-05
300.0, 0.0001506335212542637
301.0, 0.00027352990506564954
302.0, 0.00019782103373897628
303.0, 9.40160960027187e-05
304.0, 0.0001353005662882379
305.0, 0.0002408278929984267
306.0, 0.0002424199142518141
307.0, 0.00016430475959913863
308.0, 0.000124596051398839
309.0, 0.0001719885718601629
310.0, 0.00013981161629608407
311.0, 0.0001652065793147683
312.0, 0.00013481001172582725
313.0, 8.451330103067426e-05
314.0, 0.00011609688374278535
315.0, 1.3186846383122968e-05
316.0, 0.00010695544629253176
317.0, 0.00020104533579627388
318.0, 0.00015356389778442483
319.0, 3.5492555527454894e-05
320.0, 8.412546535966618e-05
321.0, 7.524902695881299e-05
322.0, 6.839168420018487e-05
323.0, 0.00010987777687993804
324.0, 2.7014988882682337e-05
325.0, 2.1295810133504845e-05
326.0, 2.873132421495262e-05
327.0, 2.9373185246024668e-05
328.0, 6.449488137487308e-05
329.0, 2.2739461249946874e-05
330.0, 1.9038306345447822e-05
331.0, 6.60928814005934e-05
332.0, 0.00012044562545257306
333.0, 3.686536495488059e-05
334.0, 3.204361021865215e-05
335.0, 4.875852337610859e-05
336.0, 4.804182130456444e-05
337.0, 1.5017173390872868e-05
338.0, 9.331079756478722e-06
339.0, 3.7115534414239003e-05
340.0, 4.017301822558236e-05
341.0, 1.0839364962215535e-05
342.0, 2.0805063796113355e-05
343.0, 9.734612115180003e-05
344.0, 2.2041290030076207e-05
345.0, 6.033590666559811e-05
346.0, 1.6001241337117267e-05
347.0, 5.031795809523435e-05
348.0, 0.00012814585070853576
349.0, 3.961368323311121e-05
350.0, 2.2357200036827193e-05
351.0, 1.8877431487030885e-05
352.0, 1.7889351268609294e-05
353.0, 7.782547434233357e-06
354.0, 6.2900405399638215e-06
355.0, 4.3069051198680434e-06
356.0, 2.5108526578599732e-05
357.0, 6.922540003326052e-05
358.0, 0.0001314293069339521
359.0, 8.325959317955011e-05
360.0, 1.3068186335572175e-05
361.0, 2.1101068778168463e-05
362.0, 1.7333856005774252e-06
363.0, 2.788615050275839e-06
364.0, 6.726739979755307e-05
365.0, 8.312149851370379e-05
366.0, 3.336969353755762e-05
367.0, 1.6994062198035568e-05
368.0, 2.905681765763107e-05
369.0, 2.092583331543413e-05
370.0, 5.4825530755269444e-05
371.0, 3.348194849318378e-05
372.0, 6.412957686149519e-05
373.0, 5.670796739118634e-05
374.0, 2.283616674579553e-05
375.0, 4.6755870150873246e-05
376.0, 8.697715931503865e-05
377.0, 1.4023377139459456e-05
378.0, 4.576338453062238e-05
379.0, 7.998658226989199e-05
380.0, 0.00010551048068507848
381.0, 0.0001398023309908101
382.0, 7.872891818634528e-05
383.0, 1.0596778456167003e-05
384.0, 3.688959698909107e-05
385.0, 9.805802048809931e-05
386.0, 6.875826578557127e-05
387.0, 2.724553643743202e-06
388.0, 5.415940197146949e-06
389.0, 3.448529616305067e-05
390.0, 7.318687427423989e-05
391.0, 8.609437869822261e-05
392.0, 4.187389813459959e-05
393.0, 7.88998036776995e-05
394.0, 7.413182505077921e-05
395.0, 2.0351370408123877e-05
396.0, 4.5243605298211605e-05
397.0, 2.0839119577608986e-05
398.0, 1.1049874102535281e-05
399.0, 6.31868031627786e-05
400.0, 6.155837254209138e-05
401.0, 2.7089173015622422e-05
402.0, 0.00011396508905503621
403.0, 6.211002408234095e-05
404.0, 9.23766238677293e-05
405.0, 9.686072120351588e-05
406.0, 7.053352302147107e-06
407.0, 3.922378695271084e-05
408.0, 0.00011653944593666448
409.0, 0.0001625268596890314
410.0, 0.00023260503858637608
411.0, 0.00033939218951444016
412.0, 0.0003746203031370974
413.0, 0.0004909447196939575
414.0, 0.0006240211784795143
415.0, 0.0006783072897615044
416.0, 0.0007402498417040767
417.0, 0.001035872507693578
418.0, 0.0012261589220716714
419.0, 0.0013858514223082418
420.0, 0.0015598305383643688
421.0, 0.0018018088017733996
422.0, 0.002209262509172389
423.0, 0.0026880330093315232
424.0, 0.0031496258195174514
425.0, 0.0037702332532991416
426.0, 0.0045127944543483555
427.0, 0.0050607309015540764
428.0, 0.006189210303687458
429.0, 0.007428926021988283
430.0, 0.00887047217540163
431.0, 0.010828405711844607
432.0, 0.01362754146175714
433.0, 0.017122582789196306
434.0, 0.021209330414180924
435.0, 0.026180904858405973
436.0, 0.03196529262076259
437.0, 0.038058905959639455
438.0, 0.04415016690595876
439.0, 0.050154586240102904
440.0, 0.05651112063913068
441.0, 0.06362420121654828
442.0, 0.07190615383383722
443.0, 0.08177746804159033
444.0, 0.09310474736993118
445.0, 0.10608596350078629
446.0, 0.12144812345077985
447.0, 0.13951453102146047
448.0, 0.15987759479896982
449.0, 0.1821821801064917
450.0, 0.20368165246584727
451.0, 0.22249720814641097
452.0, 0.2356593423472522
453.0, 0.23525973530914335
454.0, 0.21779119421617507
455.0, 0.1871828092338179
456.0, 0.15267871811370237
457.0, 0.12367902125001208
458.0, 0.1046115681987774
459.0, 0.09347597472537324
460.0, 0.08745006377535447
461.0, 0.08389196988675054
462.0, 0.07898540094477068
463.0, 0.0689592751243548
464.0, 0.05379187363204682
465.0, 0.03952189544138015
466.0, 0.02827925890849961
467.0, 0.020491799570497928
468.0, 0.015782198786815797
469.0, 0.01239836554504591
470.0, 0.009722333963922938
471.0, 0.007847023028945405
472.0, 0.006604670987535384
473.0, 0.005547347803729395
474.0, 0.004424241950149761
475.0, 0.0037411999553944183
476.0, 0.0033202230932463097
477.0, 0.002868231108219612
478.0, 0.0023782880846738366
479.0, 0.0021131211825262115
480.0, 0.0017525714930394674
481.0, 0.0015354157839026835
482.0, 0.0014255528468514838
483.0, 0.001275232001019531
484.0, 0.0010107253289395538
485.0, 0.000898992932500284
486.0, 0.0008628615253700145
487.0, 0.0006943839438683814
488.0, 0.0004781782075329003
489.0, 0.0004045421279780836
490.0, 0.00029945208570758607
491.0, 0.0002991278076550014
492.0, 0.00023227772633770648
493.0, 0.00015623801892808192
494.0, 0.000141089536561486
495.0, 2.4030641792556544e-05
496.0, 1.289492006895539e-05
497.0, 3.889009911041415e-05
498.0, 3.831117555289951e-05
499.0, 5.3786553754753054e-05
500.0, 0.00010128762443250415
501.0, 1.890947687778228e-05
502.0, 7.068277710185815e-05
503.0, 6.891065786179429e-05
504.0, 3.288310836843584e-06
505.0, 8.250917146643225e-06
506.0, 0.00015491416831350476
507.0, 9.429685431709078e-05
508.0, 5.807119552191296e-05
509.0, 5.9828247563827156e-05
510.0, 7.173747722319035e-05
511.0, 0.00018247203642119046
512.0, 0.0001916490915704208
513.0, 0.00013999111047296897
514.0, 8.987395999558196e-05
515.0, 7.658332373280113e-05
516.0, 0.00010396819584970666
517.0, 0.00011993508555078092
518.0, 0.00019384048286645936
519.0, 0.0001739149971241909
520.0, 0.00015060750674156958
521.0, 0.00019359828910975405
522.0, 5.857653568753218e-05
523.0, 0.00019121910807988352
524.0, 0.00019889310602722629
525.0, 0.00013493389743502834
526.0, 0.00012081553741643281
527.0, 0.00010683600676180432
528.0, 0.00011995522311595822
529.0, 0.00018229390146392923
530.0, 0.00024781129784006816
531.0, 0.00026811261270300187
532.0, 0.00022501033290598383
533.0, 0.0001188745354909236
534.0, 0.000106859508207287
535.0, 7.708979415667328e-05
536.0, 9.469274618003114e-05
537.0, 0.00020124849525747938
538.0, 0.00030820383724354365
539.0, 0.0002852149910197138
540.0, 0.00021898223416789235
541.0, 0.00015215591873258476
542.0, 0.00014333061853766122
543.0, 0.000166447144407206
544.0, 7.493468103531378e-05
545.0, 0.00010228518486860426
546.0, 7.132385817769364e-05
547.0, 8.150116670111556e-05
548.0, 0.00013950988806793062
549.0, 8.164958394815812e-05
550.0, 4.269726575609988e-05
551.0, 9.966657676287209e-05
552.0, 6.932568514045555e-05
553.0, 2.292821430123424e-05
554.0, 8.231888720358505e-05
555.0, 0.00010293382026637739
556.0, 8.430725699730745e-05
557.0, 5.2570112767490224e-05
558.0, 2.803892826603125e-05
559.0, 0.00011680915383762183
560.0, 0.00012238477660945186
561.0, 0.00010572626639110303
562.0, 1.236890086852298e-05
563.0, 2.5344606526312322e-05
564.0, 4.461070645003011e-05
565.0, 3.3847558228996966e-05
566.0, 2.3629336217101195e-05
567.0, 4.336907577563248e-05
568.0, 9.53926012374956e-05
569.0, 0.00013473210014937966
570.0, 4.863503003368016e-05
571.0, 9.801051316720072e-06
572.0, 0.00011575121477112474
573.0, 4.2625006418348674e-05
574.0, 6.227754902455663e-05
575.0, 6.279410109674721e-05
576.0, 1.3415142237076439e-05
577.0, 4.6663094152967456e-05
578.0, 2.8410238545912204e-05
579.0, 0.00011460190211412785
580.0, 6.394484113927674e-05
581.0, 4.3943990023812235e-05
582.0, 0.00016894566330237805
583.0, 0.0001378427458368417
584.0, 5.23732018276515e-05
585.0, 0.00019880094292011222
586.0, 0.000323859441853202
587.0, 0.00030226909740795977
588.0, 0.00026257686735327887
589.0, 0.0004591997028303359
590.0, 0.0004977085292829693
591.0, 0.0005508692027364732
592.0, 0.0006538392092347338
593.0, 0.000808580113560067
594.0, 0.0010531255189735675
595.0, 0.0013809724326664702
596.0, 0.0015273132202637833
597.0, 0.0020161607454518343
598.0, 0.0026428046011012767
599.0, 0.003304277521512601
600.0, 0.004321640586548249
601.0, 0.005620716765697944
602.0, 0.0068793846345856485
603.0, 0.008243896998060874
604.0, 0.009653931009861007
605.0, 0.011121533665128497
606.0, 0.012858933674010985
607.0, 0.014651238784514723
608.0, 0.017225558458082053
609.0, 0.02001914754901211
610.0, 0.023177766588596358
611.0, 0.027229081830821452
612.0, 0.03196387769613233
613.0, 0.03650306037976137
614.0, 0.04165543539277956
615.0, 0.046540248588157605
616.0, 0.05002724650250562
617.0, 0.05101887778752545
618.0, 0.04826808690320505
619.0, 0.04202371317735099
620.0, 0.0350655706626273
621.0, 0.02881730600151161
622.0, 0.02364195587357211
623.0, 0.019644287381022155
624.0, 0.01675810461626661
625.0, 0.014443017371200071
626.0, 0.013025897800025377
627.0, 0.012092354201255312
628.0, 0.01158370881614768
629.0, 0.011658995968857201
630.0, 0.011522618797957953
631.0, 0.011375505288141421
632.0, 0.011333690401777341
633.0, 0.011169536580985311
634.0, 0.010904955636998462
635.0, 0.010837991794800935
636.0, 0.01101602324846531
637.0, 0.011417022460336351
638.0, 0.011917873659292628
639.0, 0.012761475826161502
640.0, 0.014028491941076908
641.0, 0.015509876227553685
642.0, 0.0171419642832729
643.0, 0.01895433823387535
644.0, 0.020585790195073513
645.0, 0.022184376634768018
646.0, 0.02354367856223918
647.0, 0.023857595653278198
648.0, 0.022568716535697343
649.0, 0.0194367328368475
650.0, 0.015442732553160555
651.0, 0.01150289497904399
652.0, 0.008128595280676458
653.0, 0.00559069811221219
654.0, 0.004022345647286183
655.0, 0.0029750961969276755
656.0, 0.002288205287521603
657.0, 0.0018044885103553948
658.0, 0.0014226335198329583
659.0, 0.0011190549135076853
660.0, 0.0008710429489123725
661.0, 0.0006851604032993948
662.0, 0.0005770250978707598
663.0, 0.0005202940449804365
664.0, 0.00039336769175275863
665.0, 0.00020505237492040302
666.0, 0.00031367322087919524
667.0, 0.00025725425780603146
668.0, 0.00013647174234970822
669.0, 7.106872898637123e-05
670.0, 5.353724827861582e-05
671.0, 2.4070886747099884e-05
672.0, 2.736148531087507e-05
673.0, 6.047954638848192e-05
674.0, 2.1169767054626962e-05
675.0, 2.483632036384586e-05
676.0, 4.0530381352289746e-05
677.0, 1.4416356922449001e-05
678.0, 0.00011771936560208156
679.0, 4.054874880523951e-05
680.0, 4.4427706776511354e-05
681.0, 5.673309844642286e-05
682.0, 5.7348779611585555e-05
683.0, 9.837233063418119e-05
684.0, 0.00013481046099131168
685.0, 1.1603310384561695e-05
686.0, 3.16700134388042e-05
687.0, 8.285160055903201e-05
688.0, 0.00011232669736282598
689.0, 0.00013330064835408728
690.0, 9.711912055729906e-05
691.0, 0.0001682764013322915
692.0, 7.233201558388147e-05
693.0, 5.950249522481794e-05
694.0, 0.00012729940433582718
695.0, 0.00017077390183008876
696.0, 0.000158619275055444
697.0, 3.46653295730313e-05
698.0, 3.611747815138182e-05
699.0, 6.513124889132964e-05
700.0, 0.00012010100674849069
701.0, 9.725183571852321e-05
702.0, 0.00010262348499394868
703.0, 2.294144647197469e-05
704.0, 9.563373504012422e-06
705.0, 4.19770413482191e-05
706.0, 8.128948773911631e-05
707.0, 9.666981373083085e-05
708.0, 8.707792125670147e-05
709.0, 7.124836086770545e-05
710.0, 3.7201338340510494e-05
711.0, 3.616459130601536e-05
712.0, 1.8362631367893586e-05
713.0, 5.74773119589608e-05
714.0, 6.485374398160607e-05
715.0, 4.1167972337823966e-05
716.0, 2.4897978793831317e-05
717.0, 2.1594498876728644e-05
718.0, 2.5882977644290583e-05
719.0, 2.529390273551697e-05
720.0, 2.6226236382943394e-05
721.0, 5.8115049655836255e-05
722.0, 6.190596024960643e-06
723.0, 5.9011403743684875e-05
724.0, 1.387785720784229e-05
725.0, 2.8281716583548103e-05
726.0, 1.500021010149742e-05
727.0, 9.129550338718125e-05
728.0, 9.780714548083061e-05
729.0, 3.8269788176583315e-05
730.0, 6.816119089156539e-05
731.0, 4.162093021161925e-05
732.0, 2.992463322559139e-05
733.0, 1.2434803624719633e-05
734.0, 8.281014813579703e-05
735.0, 8.873602869622388e-05
736.0, 8.871846152196805e-05
737.0, 5.5834474723846436e-05
738.0, 3.606937408784474e-05
739.0, 4.955559801947299e-05
740.0, 7.217895980942854e-05
741.0, 8.668906354788631e-05
742.0, 0.00014353765416071052
743.0, 0.00013031305455540317
744.0, 0.00011863689177979169
745.0, 8.228819288534707e-05
746.0, 8.952285600338824e-05
747.0, 0.0001674882159392312
748.0, 0.00012109595058782538
749.0, 0.00013904192309342335
750.0, 9.043523627092273e-05
751.0, 0.00011706923909117987
752.0, 0.00014059935527765895
753.0, 0.00011164253400369991
754.0, 0.00014539468364312507
755.0, 0.0001742637555279701
756.0, 0.00015158333179751123
757.0, 0.00017404058047197076
758.0, 0.00014630400566714556
759.0, 0.0001407242044165075
760.0, 0.00021177377463964684
761.0, 0.00019030688819195608
762.0, 0.0002153878406895805
763.0, 0.00017124653031617417
764.0, 0.00018454707505138968
765.0, 0.00024940080015601137
766.0, 0.0002935871019740107
767.0, 0.0002768166898313887
768.0, 0.00022899825484129914
769.0, 0.00026966705790211915
770.0, 0.0003731458859106587
771.0, 0.0003805225221992675
772.0, 0.00035575550579391025
773.0, 0.00035144370359276164
774.0, 0.00029885891620799504
775.0, 0.0002642464469637124
776.0, 0.0002692045590185754
777.0, 0.00038881659993263466
778.0, 0.00040674216457554056
779.0, 0.00032840992291715843
780.0, 0.00031450635515902967
781.0, 0.00035799623719115714
782.0, 0.00034425967702396225
783.0, 0.0003278487734002944
784.0, 0.0003121775674202358
785.0, 0.00032796668143412485
786.0, 0.0003617747670053861
787.0, 0.0003539550639176294
788.0, 0.00029097037378031756
789.0, 0.00035894482216034115
790.0, 0.00035744777474356254
791.0, 0.00036022282646796557
792.0, 0.0003718519498865776
793.0, 0.0003747610450850159
794.0, 0.00037855056189883124
795.0, 0.0003545421981246707
796.0, 0.0002805874205676079
797.0, 0.00038483829982694553
798.0, 0.0004177457363537587
799.0, 0.00043241628297056536
800.0, 0.00045001760051302525
801.0, 0.00042322689794898136
802.0, 0.0004844283876700957
803.0, 0.0003051229812679782
804.0, 0.00039347384449810765
805.0, 0.00044077837020646755
806.0, 0.00038191051421869487
807.0, 0.00033927250547837004
808.0, 0.00035989506268328504
809.0, 0.0003441900023914881
810.0, 0.000352890458238777
811.0, 0.000417848202881903
812.0, 0.00043214759849372
813.0, 0.00038789728137732433
814.0, 0.00036505906580185305
815.0, 0.0003852453208647156
816.0, 0.00036454970882599636
817.0, 0.0004386947994159357
818.0, 0.00040934900441916684
819.0, 0.00039755219210000123
820.0, 0.00040106371209904277
821.0, 0.00042415626236400126
822.0, 0.0004797905258409351
823.0, 0.0004619193362854905
824.0, 0.0003895644226792538
825.0, 0.00035468675914490113
826.0, 0.00031707679455454825
827.0, 0.00036725248284779895
828.0, 0.0003849207035097362
829.0, 0.0002998906077017098
830.0, 0.00040512404615184665
831.0, 0.0002654086790359821
832.0, 0.00021757282598442945
833.0, 0.00033853573279660513
834.0, 0.0003288278347924092
835.0, 0.00026399414621380477
836.0, 0.00031122365275445694
837.0, 0.00023976949900375
838.0, 0.0002896779601869557
839.0, 0.00023310366800912547
840.0, 0.00015788391677354466
841.0, 0.00015915615313319005
842.0, 0.00019991023391925162
843.0, 0.00021348425987937505
844.0, 0.00019809442264741458
845.0, 0.00020704237574288218
846.0, 3.8131647335661174e-05
847.0, 2.5762088611496045e-05
848.0, 8.552136690937799e-05
849.0, 0.0001239334658386499
850.0, 8.216489083437325e-05
851.0, 2.2442043972240274e-05
852.0, 8.386535094765661e-05
853.0, 0.00010538032558257522
854.0, 7.347571770703403e-05
855.0, 6.748889415859334e-06
856.0, 2.7350120718971532e-05
857.0, 9.427816438678197e-05
858.0, 8.576631212656838e-05
859.0, 7.772619143114784e-05
860.0, 3.568308116654922e-05
861.0, 1.4427842317372243e-05
862.0, 3.794089798919043e-05
863.0, 7.69130373764821e-05
864.0, 8.468911030782402e-05
865.0, 1.579843601694828e-05
866.0, 6.196671851798515e-05
867.0, 0.00011794499022624415
868.0, 4.145887866809578e-05
869.0, 3.254759516108888e-05
870.0, 9.427156527465236e-05
871.0, 0.00013561108499060304
872.0, 8.941117452273355e-05
873.0, 2.060882366296842e-05
874.0, 0.00010505970782738366
875.0, 7.974145627241824e-05
876.0, 5.320804864400122e-05
877.0, 2.4395187139177455e-05
878.0, 7.076938277403916e-05
879.0, 9.281373620561017e-05
880.0, 2.2597012457857537e-05
881.0, 1.3764101711135415e-05
882.0, 3.9147868290487765e-05
883.0, 2.122079923748615e-05
884.0, 3.121898608347852e-05
885.0, 6.709767391845331e-05
886.0, 0.00010077606228015503
887.0, 0.00018060873460939
888.0, 0.0002685911547095558
889.0, 0.0002577691012551884
890.0, 0.0003689641898893411
891.0, 0.0004046255037597315
892.0, 0.0005122815663980996
893.0, 0.0006182200711493328
894.0, 0.0006178545720098597
895.0, 0.0006749659059945171
896.0, 0.0008997257456446687
897.0, 0.0007834358113873692
898.0, 0.0008053214436983627
899.0, 0.0008148682984455656
900.0, 0.0008391703571950128
901.0, 0.0007747662524851004
902.0, 0.0007104267063074792
903.0, 0.0007354810735605536
904.0, 0.0006847755389940062
905.0, 0.000776133200566585
906.0, 0.0006603605961067629
907.0, 0.0005187991438451183
908.0, 0.0004994882317669183
909.0, 0.0005241472547785721
910.0, 0.0005053677014848908
911.0, 0.00044191406555508497
912.0, 0.00042497285442250337
913.0, 0.00032355197766249083
914.0, 0.00040897966496880595
915.0, 0.00047614162319371996
916.0, 0.0005009814129144469
917.0, 0.00047726941053890235
918.0, 0.0004398389035758891
919.0, 0.00045091125774806076
920.0, 0.0004215073293243821
921.0, 0.00032261891119650263
922.0, 0.00039852585793753655
923.0, 0.0004415608948415777
924.0, 0.0004156599559911013
925.0, 0.00040561533870325675
926.0, 0.0004618547191842903
927.0, 0.0004880437136853553
928.0, 0.000341464764080016
929.0, 0.0002994428148911739
930.0, 0.0002940646247834941
931.0, 0.0002901205071444199
932.0, 0.0002931118326069384
933.0, 0.000258658496716269
934.0, 0.0002198076787102025
935.0, 0.0002987065991995936
936.0, 0.000440894830294132
937.0, 0.00038588576161087027
938.0, 0.0003636270079495469
939.0, 0.0003356452343482764
940.0, 0.0004204897392701499
941.0, 0.0004655604679310098
942.0, 0.00035792085736738023
943.0, 0.0003073154860636097
944.0, 0.0004667094108078427
945.0, 0.0005287200294594673
946.0, 0.0005820287031342482
947.0, 0.0006058750197260932
948.0, 0.0006408915123039227
949.0, 0.0007344581679664842
950.0, 0.0007911949516587803
951.0, 0.0008005676080859267
952.0, 0.0009917734733129176
953.0, 0.001087567596766651
954.0, 0.0012725800993994354
955.0, 0.0013756086183130444
956.0, 0.0016570696592338003
957.0, 0.001901186880394697
958.0, 0.0020398154182290707
959.0, 0.0022263172228183894
960.0, 0.0024723154299243293
961.0, 0.0030091196585214025
962.0, 0.0036576900751943793
963.0, 0.004174378078984494
964.0, 0.005235545358637889
965.0, 0.006443159696340676
966.0, 0.007141391350228148
967.0, 0.0074322699123741095
968.0, 0.00806745544856102
969.0, 0.009316397688752382
970.0, 0.011481580670948751
971.0, 0.014816151784872453
972.0, 0.019278968999960247
973.0, 0.026758973704162733
974.0, 0.04090560281284793
975.0, 0.06308555832312009
976.0, 0.08857502464822352
977.0, 0.1098010168610241
978.0, 0.12694094689208052
979.0, 0.14626166185802314
980.0, 0.16947670874100326
981.0, 0.19851600526716087
982.0, 0.23790138266850477
983.0, 0.2949398576420114
984.0, 0.379735604273388
985.0, 0.4979505245861529
986.0, 0.6472815602921737
987.0, 0.8338907167848598
988.0, 0.9874512554918926
989.0, 0.8667381086096682
990.0, 0.5613026108035896
991.0, 0.2981522423864878
992.0, 0.15739458674752735
993.0, 0.09261271374615458
994.0, 0.06087591756498284
995.0, 0.04264288886161552
996.0, 0.031740844256523064
997.0, 0.024985118187795308
998.0, 0.019927762281782557
999.0, 0.0164823238571854
1000.0, 0.013933811209838356
1001.0, 0.011633589456469601
1002.0, 0.009986500646330956
1003.0, 0.008857656309110203
1004.0, 0.007603529280094841
1005.0, 0.006571936589974516
1006.0, 0.005984898326083364
1007.0, 0.005298761434775309
1008.0, 0.004703143368946931
1009.0, 0.004283140002589486
1010.0, 0.0038742689992582193
1011.0, 0.0034623155023538314
1012.0, 0.0031163400994719697
1013.0, 0.0027969259156483744
1014.0, 0.0024463775812088575
1015.0, 0.0021492125374061068
1016.0, 0.001910035867918403
1017.0, 0.0017116226045068765
1018.0, 0.001598488322564648
1019.0, 0.0015086968928884395
1020.0, 0.0013114408226288497
1021.0, 0.0011084400602358578
1022.0, 0.0009832215288619406
1023.0, 0.0009381104503054228
1024.0, 0.000718954237543357
1025.0, 0.0005722133471561925
1026.0, 0.0005747641436632507
1027.0, 0.0005184009553691737
1028.0, 0.00035382362627325896
1029.0, 0.00028822202416917836
1030.0, 0.00033358465295361636
1031.0, 0.00020262996311241741
1032.0, 0.00014647558001284214
1033.0, 8.712774078925292e-05
1034.0, 7.074912858321411e-06
1035.0, 7.841560570500078e-05
1036.0, 7.051006954602202e-05
1037.0, 5.2762746552207526e-05
1038.0, 8.064513235396917e-05
1039.0, 2.0861512464107535e-05
1040.0, 3.461009807475e-05
1041.0, 0.00013848734284655306
1042.0, 0.0002323358020626631
1043.0, 0.00010422401195442249
1044.0, 0.00018628444767243186
1045.0, 0.00029715216753451276
1046.0, 0.00021574528775939182
1047.0, 0.0001286526241405906
1048.0, 0.00011095230892615811
1049.0, 4.421857927665173e-05
1050.0, 1.4873263382931692e-05
1051.0, 0.0001070195770222683
1052.0, 5.518938519847607e-05
1053.0, 0.00010358562081129501
1054.0, 2.0945294352017512e-05
1055.0, 0.0001403689057671621
1056.0, 0.00028130114088742084
1057.0, 0.00028231336956437066
1058.0, 0.00018340559719536435
1059.0, 0.00013035377942908417
1060.0, 4.633945118083931e-05
1061.0, 5.000824968409633e-05
1062.0, 6.000302440477742e-06
1063.0, 8.065819231055322e-05
1064.0, 0.00021968719884539028
1065.0, 0.000269857537919323
1066.0, 0.0003134932546259234
1067.0, 0.00043866169051969066
1068.0, 0.000554122111230943
1069.0, 0.0009029874365732589
1070.0, 0.001194874049593834
1071.0, 0.0014701183038504906
1072.0, 0.0017316897617102134
1073.0, 0.0022199140100019727
1074.0, 0.002753338582212146
1075.0, 0.003220887935324565
1076.0, 0.0038033124521828637
1077.0, 0.004377373712415429
1078.0, 0.005190633519218556
1079.0, 0.006113580577176254
1080.0, 0.007072325414903781
1081.0, 0.008080088028102955
1082.0, 0.008927900530658776
1083.0, 0.009520297209014405
1084.0, 0.009498617725960586
1085.0, 0.008656943007380567
1086.0, 0.007397574457654409
1087.0, 0.006167195689273811
1088.0, 0.0050299145125150616
1089.0, 0.004322555909357526
1090.0, 0.004151787570136322
1091.0, 0.004336875259978477
1092.0, 0.004985347126371905
1093.0, 0.005705947637327493
1094.0, 0.006553481862796678
1095.0, 0.00770545943513795
1096.0, 0.008905189435016982
1097.0, 0.010260987178075217
1098.0, 0.012037176412591043
1099.0, 0.01429259210927995
1100.0, 0.016676921885935423
1101.0, 0.019802976252350217
1102.0, 0.022857157336664543
1103.0, 0.02513166913936772
1104.0, 0.026040388359779964
1105.0, 0.025005333486006778
1106.0, 0.021925397181514924
1107.0, 0.017586042055229244
1108.0, 0.013094114655793961
1109.0, 0.009533705436589632
1110.0, 0.0069619475225556225
1111.0, 0.005309915004708744
1112.0, 0.004113788316794982
1113.0, 0.0031901463282229896
1114.0, 0.00248793805296202
1115.0, 0.0020047399535587256
1116.0, 0.0016895304205084393
1117.0, 0.0013506635305136018
1118.0, 0.0010542177423281131
1119.0, 0.0009300010686632437
1120.0, 0.0008210615644863449
1121.0, 0.0006767678103325035
1122.0, 0.0008010235132780846
1123.0, 0.0009877976615461001
1124.0, 0.0012190917208121381
1125.0, 0.001653193302072571
1126.0, 0.002232531752076303
1127.0, 0.002879648946821576
1128.0, 0.0036958197415438224
1129.0, 0.004564584428213013
1130.0, 0.005810401589284181
1131.0, 0.006821177027444446
1132.0, 0.008165964481747202
1133.0, 0.009977464662365584
1134.0, 0.012455190826668901
1135.0, 0.015123042051498375
1136.0, 0.01803210843474932
1137.0, 0.020867529366162266
1138.0, 0.021974234955522295
1139.0, 0.020594927303054254
1140.0, 0.01722607242735105
1141.0, 0.01350452938200345
1142.0, 0.010620510605390042
1143.0, 0.008405879113944949
1144.0, 0.006743613948304877
1145.0, 0.005613018201964268
1146.0, 0.004822362390213284
1147.0, 0.004119556398354405
1148.0, 0.003504810995141055
1149.0, 0.0030554218759453185
1150.0, 0.002749184610436435
1151.0, 0.0025697009315150724
1152.0, 0.0028366633688292407
1153.0, 0.00280561582210412
1154.0, 0.0032168123335984808
1155.0, 0.003590522839119923
1156.0, 0.003891980617310867
1157.0, 0.004410716804909599
1158.0, 0.00511547638542163
1159.0, 0.005971616611950544
1160.0, 0.007136858831186328
1161.0, 0.008403408271285205
1162.0, 0.009702726192029854
1163.0, 0.011455350776241602
1164.0, 0.012960657867410961
1165.0, 0.014292691953587195
1166.0, 0.015052301870329092
1167.0, 0.014441387231055867
1168.0, 0.012828382693557525
1169.0, 0.010561767131440363
1170.0, 0.008274547197465785
1171.0, 0.006789520144284324
1172.0, 0.005481870250178526
1173.0, 0.00416237646817173
1174.0, 0.0031626715589566567
1175.0, 0.002542740017931186
1176.0, 0.0019396183914389049
1177.0, 0.0016503600115286804
1178.0, 0.0013232765423933231
1179.0, 0.001052822543417712
1180.0, 0.0008526454667063687
1181.0, 0.0006028606372680978
1182.0, 0.00038923671277618605
1183.0, 0.0003244762365988945
1184.0, 0.00030745276135104254
1185.0, 0.00019799888284687076
1186.0, 0.00014411196441602817
1187.0, 5.65714904783751e-05
1188.0, 2.4567912120073133e-05
1189.0, 5.3294267293331784e-05
1190.0, 3.746067633282679e-05
1191.0, 0.0001197067396544478
1192.0, 0.00010544235455543793
1193.0, 0.00010370941144303904
1194.0, 0.00012150065080874267
1195.0, 2.106807496159375e-05
1196.0, 4.361130793153617e-05
1197.0, 0.0001290728030588611
1198.0, 0.00011807016942876023
1199.0, 4.595337723354765e-05
1200.0, 5.603965926206541e-06
1201.0, 6.044197477937072e-06
1202.0, 5.0125988253289854e-06
1203.0, 6.0936994671631966e-05
1204.0, 4.7191395790624114e-05
1205.0, 1.8421904881475003e-05
1206.0, 4.3202750926252946e-05
1207.0, 6.428389566326631e-05
1208.0, 0.00015988668089214186
1209.0, 0.00011538448447454103
1210.0, 0.00010765445100377714
1211.0, 0.00010818335331534098
1212.0, 0.00014176568895735058
1213.0, 0.0002775340691343833
1214.0, 0.0001622781953667271
1215.0, 0.00020450084126910073
1216.0, 0.0002924371949207046
1217.0, 0.00022147421356625134
1218.0, 0.00021130735448305938
1219.0, 0.00019676123303466795
1220.0, 3.300439966742761e-05
1221.0, 0.0001480428017393281
1222.0, 0.0001323387105062907
1223.0, 0.00015509120550641727
1224.0, 0.0002412185921755346
1225.0, 0.00014476043436324428
1226.0, 0.00019536294953713846
1227.0, 0.00015776697734723704
1228.0, 0.0001343941941747992
1229.0, 0.00014828827817687975
1230.0, 0.0001933489359511915
1231.0, 0.0002784818094198751
1232.0, 0.0002404977570556049
1233.0, 0.00016848133315037532
1234.0, 0.00033061660007126253
1235.0, 0.0003108624020481231
1236.0, 0.00032013770592677484
1237.0, 0.0003340634405570284
1238.0, 0.0003801232090616366
1239.0, 0.0003552859976878228
1240.0, 0.00042617095844077544
1241.0, 0.0004911453067598008
1242.0, 0.00046145258865924
1243.0, 0.0003929285012689736
1244.0, 0.00034952106521249625
1245.0, 0.0003640883072755488
1246.0, 0.0003697342436920024
1247.0, 0.0002967858728127452
1248.0, 0.0002126813659095079
1249.0, 0.00023415639886795758
1250.0, 0.0003405438354852347
1251.0, 0.00017723870464493458
1252.0, 0.00019409397702069465
1253.0, 0.00019721211018061316
1254.0, 0.0001600751436205654
1255.0, 9.880499604309324e-05
1256.0, 8.975986091827309e-05
1257.0, 0.0001183103851358787
1258.0, 7.955972924596562e-05
1259.0, 2.0496237239613074e-05
1260.0, 9.652484755920946e-06
1261.0, 0.0001496434383931431
1262.0, 0.0002467830978111784
1263.0, 0.00022817332846647383
1264.0, 0.00017044223457620935
1265.0, 0.00010038136783449138
1266.0, 0.00014399660761840025
1267.0, 0.00021541169360516968
1268.0, 0.00026728036003400603
1269.0, 0.00017929090904918827
1270.0, 0.00017365784281551009
1271.0, 0.00020489141265827955
1272.0, 0.0001431936604089712
1273.0, 0.00018707024224067488
1274.0, 0.00016274688254609034
1275.0, 9.489947445597183e-05
1276.0, 0.00016731590603086608
1277.0, 0.00016754540322768424
1278.0, 9.738778276416574e-05
1279.0, 0.00018433132710425835
1280.0, 0.00016643079869924521
1281.0, 6.90052568872998e-05
1282.0, 8.669366937106562e-05
1283.0, 0.0001851440590261726
1284.0, 0.00016622969070558013
1285.0, 0.0001441267290375654
1286.0, 0.00015738448676381867
1287.0, 0.00010751177639439401
1288.0, 0.00010070510749803752
1289.0, 9.544470770219905e-05
1290.0, 0.0002125844545099885
1291.0, 2.354848187219559e-05
1292.0, 6.148906548853904e-05
1293.0, 0.00010080731402639445
1294.0, 0.00012174673464430223
1295.0, 0.00020282687109166768
1296.0, 0.00010406359259201617
1297.0, 8.54791892466664e-05
1298.0, 6.178686707463934e-05
1299.0, 1.0126026578273757e-05
1300.0, 6.53495961601672e-06
1301.0, 3.190768185080923e-05
1302.0, 0.0001355592832411151
1303.0, 0.00011391285648393151
1304.0, 2.447793288679784e-05
1305, 0.0
1306, 0.0
1307, 0.0
1308, 0.0
1309, 0.0
1310, 0.0
1311, 0.0
1312, 0.0
1313, 0.0
1314, 0.0
1315, 0.0
1316, 0.0
1317, 0.0
1318, 0.0
1319, 0.0
1320, 0.0
1321, 0.0
1322, 0.0
1323, 0.0
1324, 0.0
1325, 0.0
1326, 0.0
1327, 0.0
1328, 0.0
1329, 0.0
1330, 0.0
1331, 0.0
1332, 0.0
1333, 0.0
1334, 0.0
1335, 0.0
1336, 0.0
1337, 0.0
1338, 0.0
1339, 0.0
1340, 0.0
1341, 0.0
1342, 0.0
1343, 0.0
1344, 0.0
1345, 0.0
1346, 0.0
1347, 0.0
1348, 0.0
1349, 0.0
1350, 0.0
1351, 0.0
1352, 0.0
1353, 0.0
1354, 0.0
1355, 0.0
1356, 0.0
1357, 0.0
1358, 0.0
1359, 0.0
1360, 0.0
1361, 0.0
1362, 0.0
1363, 0.0
1364, 0.0
1365, 0.0
1366, 0.0
1367, 0.0
1368, 0.0
1369, 0.0
1370, 0.0
1371, 0.0
1372, 0.0
1373, 0.0
1374, 0.0
1375, 0.0
1376, 0.0
1377, 0.0
1378, 0.0
1379, 0.0
1380, 0.0
1381, 0.0
1382, 0.0
1383, 0.0
1384, 0.0
1385, 0.0
1386, 0.0
1387, 0.0
1388, 0.0
1389, 0.0
1390, 0.0
1391, 0.0
1392, 0.0
1393, 0.0
1394, 0.0
1395, 0.0
1396, 0.0
1397, 0.0
1398, 0.0
1399, 0.0
1400, 0.0
1401, 0.0
1402, 0.0
1403, 0.0
1404, 0.0
1405, 0.0
1406, 0.0
1407, 0.0
1408, 0.0
1409, 0.0
1410, 0.0
1411, 0.0
1412, 0.0
1413, 0.0
1414, 0.0
1415, 0.0
1416, 0.0
1417, 0.0
1418, 0.0
1419, 0.0
1420, 0.0
1421, 0.0
1422, 0.0
1423, 0.0
1424, 0.0
1425, 0.0
1426, 0.0
1427, 0.0
1428, 0.0
1429, 0.0
1430, 0.0
1431, 0.0
1432, 0.0
1433, 0.0
1434, 0.0
1435, 0.0
1436, 0.0
1437, 0.0
1438, 0.0
1439, 0.0
1440, 0.0
1441, 0.0
1442, 0.0
1443, 0.0
1444, 0.0
1445, 0.0
1446, 0.0
1447, 0.0
1448, 0.0
1449, 0.0
1450, 0.0
1451, 0.0
1452, 0.0
1453, 0.0
1454, 0.0
1455, 0.0
1456, 0.0
1457, 0.0
1458, 0.0
1459, 0.0
1460, 0.0
1461, 0.0
1462, 0.0
1463, 0.0
1464, 0.0
1465, 0.0
1466, 0.0
1467, 0.0
1468, 0.0
1469, 0.0
1470, 0.0
1471, 0.0
1472, 0.0
1473, 0.0
1474, 0.0
1475, 0.0
1476, 0.0
1477, 0.0
1478, 0.0
1479, 0.0
1480, 0.0
1481, 0.0
1482, 0.0
1483, 0.0
1484, 0.0
1485, 0.0
1486, 0.0
1487, 0.0
1488, 0.0
1489, 0.0
1490, 0.0
1491, 0.0
1492, 0.0
1493, 0.0
1494, 0.0
1495, 0.0
1496, 0.0
1497, 0.0
1498, 0.0
1499, 0.0
1500, 0.0
1501, 0.0
1502, 0.0
1503, 0.0
1504, 0.0
1505, 0.0
1506, 0.0
1507, 0.0
1508, 0.0
1509, 0.0
1510, 0.0
1511, 0.0
1512, 0.0
1513, 0.0
1514, 0.0
1515, 0.0
1516, 0.0
1517, 0.0
1518, 0.0
1519, 0.0
1520, 0.0
1521, 0.0
1522, 0.0
1523, 0.0
1524, 0.0
1525, 0.0
1526, 0.0
1527, 0.0
1528, 0.0
1529, 0.0
1530, 0.0
1531, 0.0
1532, 0.0
1533, 0.0
1534, 0.0
1535, 0.0
1536, 0.0
1537, 0.0
1538, 0.0
1539, 0.0
1540, 0.0
1541, 0.0
1542, 0.0
1543, 0.0
1544, 0.0
1545, 0.0
1546, 0.0
1547, 0.0
1548, 0.0
1549, 0.0
1550, 0.0
1551, 0.0
1552, 0.0
1553, 0.0
1554, 0.0
1555, 0.0
1556, 0.0
1557, 0.0
1558, 0.0
1559, 0.0
1560, 0.0
1561, 0.0
1562, 0.0
1563, 0.0
1564, 0.0
1565, 0.0
1566, 0.0
1567, 0.0
1568, 0.0
1569, 0.0
1570, 0.0
1571, 0.0
1572, 0.0
1573, 0.0
1574, 0.0
1575, 0.0
1576, 0.0
1577, 0.0
1578, 0.0
1579, 0.0
1580, 0.0
1581, 0.0
1582, 0.0
1583, 0.0
1584, 0.0
1585, 0.0
1586, 0.0
1587, 0.0
1588, 0.0
1589, 0.0
1590, 0.0
1591, 0.0
1592, 0.0
1593, 0.0
1594, 0.0
1595, 0.0
1596, 0.0
1597, 0.0
1598, 0.0
1599, 0.0
