30.0, 0.0007350888566109908
31.0, 0.0006205272227623452
32.0, 0.0004689098734686427
33.0, 0.0011904900065518112
34.0, 0.0009785746419729467
35.0, 0.0006466802632993774
36.0, 0.001088348670009366
37.0, 0.0010853516127646114
38.0, 0.0011079657551534207
39.0, 0.0012183519507464168
40.0, 0.0012215840034671905
41.0, 0.0013311023792483346
42.0, 0.0014236860444596107
43.0, 0.001322785398582956
44.0, 0.0014503536777914993
45.0, 0.0015004874401102388
46.0, 0.0014227987665143983
47.0, 0.001453575704705961
48.0, 0.0014875966029344963
49.0, 0.0015162470686363293
50.0, 0.0015239960514322345
51.0, 0.0015133667717310915
52.0, 0.001545156789828481
53.0, 0.001627488688400441
54.0, 0.001601477351782773
55.0, 0.0016024714804561476
56.0, 0.0016212020703208513
57.0, 0.0016491351777579717
58.0, 0.0018307670012204234
59.0, 0.0019990182723499633
60.0, 0.0021041087026572713
61.0, 0.001969168132835854
62.0, 0.0020432831316288124
63.0, 0.002128434576677482
64.0, 0.001893018735774608
65.0, 0.0018145900960930268
66.0, 0.0016289682253835512
67.0, 0.0012778201001016109
68.0, 0.0009750630050315415
69.0, 0.0009134419759591726
70.0, 0.0008809309359183953
71.0, 0.0005445075247665727
72.0, 0.0006688209926499169
73.0, 0.0007275038854151146
74.0, 0.0006223653018251913
75.0, 0.0007087433725904453
76.0, 0.0006283564477491433
77.0, 0.0004524982796512393
78.0, 0.0002517406354395321
79.0, 9.10345723486875e-05
80.0, 7.712136600968093e-06
81.0, 6.698965601590515e-06
82.0, 2.1424010494929206e-05
83.0, 3.61561542100538e-05
84.0, 0.00012118610830275941
85.0, 0.00038969195816454343
86.0, 0.00036008744143201305
87.0, 0.00037230294046692653
88.0, 0.0004716749604542148
89.0, 0.0005709668029870615
90.0, 0.0004588049247054113
91.0, 0.00029896236609883636
92.0, 0.00024592022262743505
93.0, 0.0002540916855777191
94.0, 0.00035507617959076306
95.0, 0.00048721991364362755
96.0, 0.0002209718302084295
97.0, 0.00017282955147824455
98.0, 0.00031435403789615603
99.0, 0.00067253098551967
100.0, 0.0008884751404176531
101.0, 0.0010669335889627843
102.0, 0.0012468772598410785
103.0, 0.001571944971846038
104.0, 0.0017696137595476847
105.0, 0.0019500752006877651
106.0, 0.002174238344273314
107.0, 0.0026446705407689305
108.0, 0.00303576605386593
109.0, 0.003377765782993242
110.0, 0.003789240545197047
111.0, 0.0042142432782568025
112.0, 0.004744615831733165
113.0, 0.00543320247968973
114.0, 0.006727298411471485
115.0, 0.00792787863436587
116.0, 0.008512412619735383
117.0, 0.007175805199408638
118.0, 0.006461899185125966
119.0, 0.006354572254575377
120.0, 0.006823729255593153
121.0, 0.006794402712714459
122.0, 0.006787572499710251
123.0, 0.006717889095766554
124.0, 0.006450376536916234
125.0, 0.0070541388637553526
126.0, 0.007764045152939709
127.0, 0.00838521337837338
128.0, 0.008321468092469239
129.0, 0.008708027531738749
130.0, 0.008867230830677834
131.0, 0.008190908480151539
132.0, 0.007848981721799882
133.0, 0.00743538529936263
134.0, 0.0069339956983169235
135.0, 0.006375341905522268
136.0, 0.006343304458135258
137.0, 0.006208711270757945
138.0, 0.00566639302211428
139.0, 0.0060086857097113805
140.0, 0.0061955591550121375
141.0, 0.00635231150339302
142.0, 0.006746641184139354
143.0, 0.006684396317253069
144.0, 0.006864312316665072
145.0, 0.007409903837172841
146.0, 0.007429755531240907
147.0, 0.007912438958776103
148.0, 0.008569023226347549
149.0, 0.009117253744160314
150.0, 0.008969881161612394
151.0, 0.009320897086598789
152.0, 0.010121187194920736
153.0, 0.010465304305100547
154.0, 0.010142630636076313
155.0, 0.009606334879915423
156.0, 0.009080865665337083
157.0, 0.008270178938094007
158.0, 0.007637979291470553
159.0, 0.00713293958186279
160.0, 0.006641339556210956
161.0, 0.0062630775000943545
162.0, 0.005976477233912842
163.0, 0.005759840004879266
164.0, 0.005319218114458115
165.0, 0.005366351439101089
166.0, 0.005348857612720239
167.0, 0.004635088402816649
168.0, 0.004904696368304638
169.0, 0.004840489279250462
170.0, 0.0045346795444834885
171.0, 0.004999682140392009
172.0, 0.005202559543090145
173.0, 0.005134921090935816
174.0, 0.004763658990362218
175.0, 0.00471611627732225
176.0, 0.004664275954783383
177.0, 0.004630394447393518
178.0, 0.00466129735565298
179.0, 0.0042507538440947
180.0, 0.004169710400062133
181.0, 0.00444894550829348
182.0, 0.004033978275519467
183.0, 0.0040493227537434515
184.0, 0.004261754222609838
185.0, 0.004530812772681703
186.0, 0.004487486015752292
187.0, 0.00447021717349743
188.0, 0.004495220729775378
189.0, 0.004574681812044101
190.0, 0.00431663261412106
191.0, 0.0043856202329001955
192.0, 0.004908105887613681
193.0, 0.004643825652975937
194.0, 0.004543256016091225
195.0, 0.004387084731261154
196.0, 0.0039332780987898575
197.0, 0.004210783305424089
198.0, 0.004129889012412164
199.0, 0.003750842502305157
200.0, 0.003570214505492142
201.0, 0.003880111395619718
202.0, 0.004008014863599853
203.0, 0.0037218574696203407
204.0, 0.0037971008975369548
205.0, 0.003438890355840948
206.0, 0.0030934796770880676
207.0, 0.0033219657607089655
208.0, 0.0032525213653727715
209.0, 0.0033745589510746103
210.0, 0.003611019880078168
211.0, 0.003443276904174694
212.0, 0.003369648509915725
213.0, 0.003336017946638265
214.0, 0.0033119383962284155
215.0, 0.0029720450399529676
216.0, 0.00326622645997538
217.0, 0.0036442785736538526
218.0, 0.003406591531204067
219.0, 0.0030440932869872784
220.0, 0.003137124611617398
221.0, 0.003471111809457712
222.0, 0.0029409201145898962
223.0, 0.0030327577934247374
224.0, 0.0030938135967011424
225.0, 0.0028874112506125597
226.0, 0.003026759967324202
227.0, 0.0028091269270715245
228.0, 0.0026806153812163024
229.0, 0.003194095018614049
230.0, 0.0032162216424339073
231.0, 0.0029031051312229826
232.0, 0.0025837749144024423
233.0, 0.003355097994654582
234.0, 0.002929668507959939
235.0, 0.002721943067130958
236.0, 0.0031230931270303905
237.0, 0.0026651090021930276
238.0, 0.0028003340942749522
239.0, 0.003093896680227036
240.0, 0.003155457467001039
241.0, 0.002597697842372813
242.0, 0.002492873155605449
243.0, 0.0026802350860845557
244.0, 0.002617967496662068
245.0, 0.0027375922244435164
246.0, 0.0027726791146504576
247.0, 0.002650405152629784
248.0, 0.0023435838468320513
249.0, 0.002788822032100387
250.0, 0.0030868127756219946
251.0, 0.0026083718938134204
252.0, 0.002794706891175164
253.0, 0.0027435145794057194
254.0, 0.002601544713772501
255.0, 0.002640751921662725
256.0, 0.0028169081490471183
257.0, 0.002710344353117741
258.0, 0.002488224471272508
259.0, 0.0032698653066885724
260.0, 0.0028035162130634226
261.0, 0.0025667575445341858
262.0, 0.0031235805509541494
263.0, 0.002489137433661131
264.0, 0.0023678422135907907
265.0, 0.0025947280701555642
266.0, 0.0030487828483696353
267.0, 0.002559536558772081
268.0, 0.0026001402482226316
269.0, 0.0028873681110451696
270.0, 0.0024603517152330242
271.0, 0.002702987844718301
272.0, 0.0027330307666212257
273.0, 0.0023749330417895355
274.0, 0.0018785322123849948
275.0, 0.002206831058131668
276.0, 0.0024558060792392367
277.0, 0.0021218128023830257
278.0, 0.0022485689820992976
279.0, 0.0020036203655610465
280.0, 0.0017667326837429308
281.0, 0.002049641173993824
282.0, 0.002108351299557607
283.0, 0.0018103442853615143
284.0, 0.0014352659873118356
285.0, 0.0018560185617102947
286.0, 0.0018456727234087019
287.0, 0.0017227880250630001
288.0, 0.0015881888242924255
289.0, 0.0015934910773263927
290.0, 0.0015347195877984511
291.0, 0.0015253301571356388
292.0, 0.0016253901420113437
293.0, 0.0011109676319707425
294.0, 0.0012972876419974143
295.0, 0.0015760314575007106
296.0, 0.0011653600316935567
297.0, 0.0013180529704203616
298.0, 0.0015143931150777693
299.0, 0.001547082904642216
300.0, 0.000945312540770134
301.0, 0.0012516091788844755
302.0, 0.001340221834540053
303.0, 0.0011220283480829808
304.0, 0.0016656658692602282
305.0, 0.001601711963123739
306.0, 0.001562833356969642
307.0, 0.0018286530889166225
308.0, 0.0016781432930139091
309.0, 0.001492178723984708
310.0, 0.0014625041289065856
311.0, 0.0017985546081829543
312.0, 0.0014327511110818335
313.0, 0.0014470856212906434
314.0, 0.00167617488426255
315.0, 0.001734254250334933
316.0, 0.0012697009474957133
317.0, 0.001239555151373981
318.0, 0.0015204134698281095
319.0, 0.0010916801194946649
320.0, 0.001211691683445318
321.0, 0.0012181248054538667
322.0, 0.000988463781609593
323.0, 0.0013427096560619447
324.0, 0.0012231475178711118
325.0, 0.0010190762885015439
326.0, 0.0009625465902334925
327.0, 0.001229719058481407
328.0, 0.0011269443729513657
329.0, 0.0010889717285156213
330.0, 0.001617190372989893
331.0, 0.0014997976259002656
332.0, 0.001162603079417531
333.0, 0.0009232186560520605
334.0, 0.0013995582041799732
335.0, 0.0011069339492493866
336.0, 0.0011531738237848083
337.0, 0.0014481056288884323
338.0, 0.0010358704109636073
339.0, 0.0012929412236196687
340.0, 0.0013456064122331808
341.0, 0.001011765580360943
342.0, 0.0008957883996609546
343.0, 0.0011342304032696988
344.0, 0.0011349936111401493
345.0, 0.0006487581036663946
346.0, 0.001213067586296291
347.0, 0.0011031889416133062
348.0, 0.0008786259572674197
349.0, 0.0010243431128649145
350.0, 0.001221660132917798
351.0, 0.0011779556174514316
352.0, 0.0011227258064744118
353.0, 0.001408248568216199
354.0, 0.0007578374902970102
355.0, 0.000580017098853245
356.0, 0.0007557810544819217
357.0, 0.0007272060859075311
358.0, 0.0003954949616504151
359.0, 0.00021574794383437423
360.0, 0.00020211355906491778
361.0, 8.629671795437792e-05
362.0, 0.0005240296682204064
363.0, 0.0006144602780468477
364.0, 0.00020282837494020015
365.0, 0.0002268829651932914
366.0, 0.0005829354490923033
367.0, 0.000665332310051557
368.0, 0.00025880837657569
369.0, 0.0008078377333737992
370.0, 0.0005768280551345579
371.0, 0.00025572654846832426
372.0, 0.0003516685168293499
373.0, 0.0006561406037933338
374.0, 0.0004285107388356835
375.0, 0.0001974935231069438
376.0, 0.000574621533301349
377.0, 0.0002600588911421966
378.0, 0.0004204694918477001
379.0, 0.0006838829112514045
380.0, 0.00034089443124959854
381.0, 0.0005582483198475088
382.0, 0.0006201275322896239
383.0, 0.00048078106761157834
384.0, 0.00019227199687935415
385.0, 0.0005715993028391006
386.0, 0.0006575323207037101
387.0, 0.0004523454113079507
388.0, 0.0005652958711608447
389.0, 0.0006638012260999882
390.0, 0.0006243530233315288
391.0, 0.0005505681095623179
392.0, 0.001189784954464077
393.0, 0.0008200742202708791
394.0, 0.0006830595370876481
395.0, 0.001105002928926839
396.0, 0.0007973255345807438
397.0, 0.0007265386781142065
398.0, 0.0008766199791046161
399.0, 0.0011883902598824546
400.0, 0.0007400957614942269
401.0, 0.0006679512168866329
402.0, 0.0006233870386885058
403.0, 0.00038055730503888327
404.0, 0.0006347664493070529
405.0, 0.0007578782612896824
406.0, 0.0006777414826332826
407.0, 0.00031716964654886665
408.0, 0.0004268048354071933
409.0, 0.00027925818638135626
410.0, 0.0001541919094141183
411.0, 0.0004089730651190556
412.0, 0.0001743852554516799
413.0, 0.00021759214600529123
414.0, 0.00043197072224034647
415.0, 0.0006071767309570977
416.0, 0.00033298840490082976
417.0, 0.00034568178932584695
418.0, 0.0004322394245356902
419.0, 5.3936223405881935e-05
420.0, 0.0001524314285832225
421.0, 0.00031204671106054553
422.0, 0.0003887370319663504
423.0, 0.0001420648230999865
424.0, 0.000266982486146134
425.0, 0.00026334759185650536
426.0, 0.0002176301931287755
427.0, 0.0006421120993187728
428.0, 0.0007420621063451784
429.0, 0.0007594007543463445
430.0, 0.0007998851701935988
431.0, 0.0010736372719164643
432.0, 0.0011125122206158303
433.0, 0.001243368703870906
434.0, 0.0014714068483618582
435.0, 0.0014456919168389607
436.0, 0.0017928406965193615
437.0, 0.002309382873047675
438.0, 0.0028544409593635202
439.0, 0.0029875741048731095
440.0, 0.0041175759307732025
441.0, 0.004987182605622344
442.0, 0.005368836759341492
443.0, 0.0066848180488049995
444.0, 0.008689230853946968
445.0, 0.01064598079162142
446.0, 0.012660909444137839
447.0, 0.017807382292255654
448.0, 0.02230486257110367
449.0, 0.028178050154096766
450.0, 0.03617244293505196
451.0, 0.044343479971751476
452.0, 0.05327373223760098
453.0, 0.061717400835966794
454.0, 0.06808666372959098
455.0, 0.062567752354129
456.0, 0.055520128308440254
457.0, 0.04716755508139929
458.0, 0.037871858901110306
459.0, 0.0309877314303305
460.0, 0.02597722083978445
461.0, 0.022260193531488757
462.0, 0.019550054239755706
463.0, 0.017915171224840497
464.0, 0.015298814578095477
465.0, 0.012431261560751335
466.0, 0.009804959600545643
467.0, 0.00827518313268667
468.0, 0.006348109501571476
469.0, 0.004948890644454812
470.0, 0.004555926749361354
471.0, 0.0033449164150772164
472.0, 0.0026968941351564377
473.0, 0.0023475566164962145
474.0, 0.002109164392793803
475.0, 0.0015528673973278341
476.0, 0.0013104750404638575
477.0, 0.0011882993005904756
478.0, 0.0010614997538962757
479.0, 0.0008594562073154643
480.0, 0.0009016337785664461
481.0, 0.0009322359098964221
482.0, 0.0008405693113358965
483.0, 0.0013656165690235653
484.0, 0.001180731705834194
485.0, 0.0009693787097170868
486.0, 0.0010761219086661213
487.0, 0.0005196555053407874
488.0, 0.00044414955196497597
489.0, 0.0005866356089591754
490.0, 0.0007436554389531503
491.0, 0.0002578010520841446
492.0, 0.0004944220844561495
493.0, 0.0006427195341254655
494.0, 0.000335568476959708
495.0, 0.00045319454001983774
496.0, 0.0009170929807479217
497.0, 0.0010041909606905233
498.0, 0.0005042758907863108
499.0, 0.000941920323408582
500.0, 0.0006495852630118491
501.0, 0.0002580462074317828
502.0, 7.627925068198886e-05
503.0, 0.00022973998521136569
504.0, 0.00025933287531073863
505.0, 0.0003556534419424989
506.0, 0.0005542242941310876
507.0, 0.0005559658442345099
508.0, 0.0005446753804808173
509.0, 0.0005828186756733299
510.0, 0.0006570802555370076
511.0, 0.0005616674799256844
512.0, 0.0005951555094784183
513.0, 0.00042561939585242876
514.0, 0.00010797446398817407
515.0, 0.0003958879058060707
516.0, 0.0007785832286502656
517.0, 0.0008453021947026953
518.0, 0.0006903992586959177
519.0, 0.0011107454087147767
520.0, 0.0008402207697607896
521.0, 0.0007556891699283424
522.0, 0.000915167320754544
523.0, 0.0008731548152010953
524.0, 0.0007385163064743799
525.0, 0.0009271257874286373
526.0, 0.0011941378082986594
527.0, 0.0007065289402799317
528.0, 0.0009168885679379467
529.0, 0.0008802781398075559
530.0, 0.0006880183230208131
531.0, 0.000806462573934131
532.0, 0.0008759327956640939
533.0, 0.0008880699162413536
534.0, 0.0009072579998604644
535.0, 0.0010442719094086062
536.0, 0.0007125921502470975
537.0, 0.0007062189458302518
538.0, 0.0008127328689146973
539.0, 0.0006815519952241576
540.0, 0.0006198953476166361
541.0, 0.000688119741978354
542.0, 0.000624411173495056
543.0, 0.0001592731256361032
544.0, 0.00043878917497550113
545.0, 0.0004147286599767905
546.0, 0.0003535756542030745
547.0, 0.00048402600523698243
548.0, 0.000888597170604489
549.0, 0.0006254855642741097
550.0, 0.0004782608613092253
551.0, 0.0008368237501891441
552.0, 0.0004259033768641335
553.0, 0.0006317261403266083
554.0, 0.0009745029037526221
555.0, 0.001102967156567023
556.0, 0.00019268945117886555
557.0, 0.0005364742304171288
558.0, 0.0008232443069928649
559.0, 0.0007086477941485986
560.0, 0.0007201702967484487
561.0, 0.0011994079268675814
562.0, 0.0010094618694010777
563.0, 0.0003938169304313714
564.0, 0.0009962167022283164
565.0, 0.0010384926573216158
566.0, 0.0009692674460817703
567.0, 0.0008919579188714539
568.0, 0.000870795302172713
569.0, 0.0008490544112419861
570.0, 0.0010033447446165748
571.0, 0.0011333893109381032
572.0, 0.0009058329439124186
573.0, 0.0008839724020540584
574.0, 0.0009792864153579004
575.0, 0.000955305281347814
576.0, 0.0005835566037388325
577.0, 0.0013840069053158467
578.0, 0.0011277315404132871
579.0, 0.0008574572437209711
580.0, 0.0012969642881235101
581.0, 0.0013801102744545955
582.0, 0.0013027601358631207
583.0, 0.0014330563392259375
584.0, 0.0017845467809292739
585.0, 0.0011529208390077214
586.0, 0.0016378822501593511
587.0, 0.002033450673314507
588.0, 0.002059922356985585
589.0, 0.002239667193139701
590.0, 0.002704289706323061
591.0, 0.0027944993435291723
592.0, 0.002646609969155642
593.0, 0.0029451430093788617
594.0, 0.0029178213742982887
595.0, 0.0029868759506789626
596.0, 0.003284522870854379
597.0, 0.003942704859813697
598.0, 0.0034282462787758377
599.0, 0.003697754126996498
600.0, 0.0042643470689421505
601.0, 0.00453747379292
602.0, 0.0045049524419236335
603.0, 0.005193991730919459
604.0, 0.005513678784626893
605.0, 0.004982271548242435
606.0, 0.006057778527653242
607.0, 0.007103640317228187
608.0, 0.008327181796314961
609.0, 0.009909558008483713
610.0, 0.01229674887113903
611.0, 0.015439428749086317
612.0, 0.020213965652214005
613.0, 0.026921670808687508
614.0, 0.03579579930194614
615.0, 0.047744446543482685
616.0, 0.06083386337303401
617.0, 0.07207732121186974
618.0, 0.07716820973031102
619.0, 0.07388619146067749
620.0, 0.06523433176359471
621.0, 0.05442229851661401
622.0, 0.044615138281944966
623.0, 0.03784175429892855
624.0, 0.0318750270800699
625.0, 0.028236357352048838
626.0, 0.027286420893223244
627.0, 0.025421914327373275
628.0, 0.025220196354770887
629.0, 0.02548371424762378
630.0, 0.02547549497870941
631.0, 0.024024413825054835
632.0, 0.021940393823575165
633.0, 0.01863974582353811
634.0, 0.014751383241682098
635.0, 0.011642172256081409
636.0, 0.009730877846448705
637.0, 0.007706086969816629
638.0, 0.00622770338020333
639.0, 0.0059930299811767306
640.0, 0.004774385986536355
641.0, 0.004311356147306879
642.0, 0.0041930802062698815
643.0, 0.004129557831904114
644.0, 0.003904467733391208
645.0, 0.004765839364934311
646.0, 0.0049392374961020735
647.0, 0.0044093967251014
648.0, 0.005055316877642895
649.0, 0.004708438297469409
650.0, 0.004501291406878946
651.0, 0.004473342277686511
652.0, 0.004392724324832775
653.0, 0.003787504234359009
654.0, 0.003479548966518822
655.0, 0.0033888064551564753
656.0, 0.003363277061889002
657.0, 0.002703270547938375
658.0, 0.002949327336282237
659.0, 0.0028603571022562287
660.0, 0.0020272356788563492
661.0, 0.0015839356783838299
662.0, 0.0014581523133508992
663.0, 0.0013276608981139509
664.0, 0.0012121786640201316
665.0, 0.0013484281941260757
666.0, 0.000998427131346232
667.0, 0.000879544277743998
668.0, 0.001023445352713847
669.0, 0.00135577124083823
670.0, 0.0004405775100800376
671.0, 0.0007940959953880512
672.0, 0.0010429723156121814
673.0, 0.0005050049339930183
674.0, 0.0006773296215283477
675.0, 0.00033635431236226114
676.0, 0.00012052749621092883
677.0, 0.00027259859482345696
678.0, 0.0009195125686607137
679.0, 0.0004972885408340061
680.0, 0.00045423924637859005
681.0, 0.0006749860392960957
682.0, 0.0007554048908349427
683.0, 0.0003644617372886291
684.0, 0.0003815788668822945
685.0, 0.000368127617361817
686.0, 0.00010304058122373378
687.0, 0.0002914904781397574
688.0, 0.0004813391154841257
689.0, 0.0003886321620360839
690.0, 0.00015552190660936564
691.0, 0.0004730225294362595
692.0, 0.00033753261582487155
693.0, 0.0004521505588413884
694.0, 0.0005524057690848062
695.0, 0.00018269173509159747
696.0, 0.000331547815367485
697.0, 0.0005903954171572505
698.0, 0.0007050451080758754
699.0, 0.0005632962262083413
700.0, 0.0005352754019050938
701.0, 0.00034718478178387874
702.0, 0.00030115552581799716
703.0, 0.00041461442730047636
704.0, 0.0005059162047025284
705.0, 0.0002799403359899613
706.0, 0.00010209561538425747
707.0, 2.7865888804797087e-05
708.0, 8.562875112200861e-05
709.0, 0.00047923639291462766
710.0, 0.0004219836566068351
711.0, 0.00039048443923317427
712.0, 0.0005522627745997808
713.0, 0.0004724441963761746
714.0, 0.00029582606907476095
715.0, 0.0004108306894580378
716.0, 0.0005977875951491134
717.0, 0.00028505108534245015
718.0, 0.00024647459551050755
719.0, 0.00015940990378982028
720.0, 0.000148462431790709
721.0, 0.000290715285553314
722.0, 0.00018758226928573032
723.0, 0.00019780407888442814
724.0, 0.0001652038988759332
725.0, 7.330167176078035e-05
726.0, 4.893580483380626e-05
727.0, 4.113293483250969e-05
728.0, 0.00015798594495152163
729.0, 0.00035875105193130657
730.0, 0.000557102513614575
731.0, 0.00016079560535750944
732.0, 0.0001663225817582932
733.0, 0.00034238518558543017
734.0, 0.0004693180185369385
735.0, 0.00013637081338197332
736.0, 0.000742131207901478
737.0, 0.0007420947089534317
738.0, 0.00032503096456833067
739.0, 0.00038105867092478387
740.0, 0.0004233421849340268
741.0, 0.00047102825426940107
742.0, 0.000550948659442476
743.0, 0.0006405574033424702
744.0, 0.000431807537521512
745.0, 0.00021011277309673508
746.0, 0.00011798312831625798
747.0, 0.00018627465278542494
748.0, 0.0003865844477290405
749.0, 0.00020026365833057243
750.0, 0.0001027969508954697
751.0, 0.00010915721255011043
752.0, 0.0002128215530190046
753.0, 0.0005472966578808993
754.0, 0.00039210999337761023
755.0, 0.0004131900601220146
756.0, 0.0006027641367236628
757.0, 0.00024087874663175025
758.0, 0.00028307816331013205
759.0, 0.0005803974875676984
760.0, 0.000778438435078066
761.0, 0.0005540397128616101
762.0, 0.0006204365727032409
763.0, 0.0003161777024923165
764.0, 7.587238564133105e-05
765.0, 0.0001571136003796838
766.0, 0.0007807416598146081
767.0, 0.0003032949500863157
768.0, 0.00010743200460326025
769.0, 0.00020496662172888092
770.0, 0.00037554757808791727
771.0, 0.00015916966468522978
772.0, 0.0004425892498195146
773.0, 0.0005001573566007305
774.0, 0.00031857199313449855
775.0, 0.0010184234653004332
776.0, 0.0006314659014042786
777.0, 0.0002446851104058168
778.0, 0.00021779277462183647
779.0, 0.0007299705042038869
780.0, 0.0002374388651708216
781.0, 0.0005507801495083007
782.0, 0.0006567472160156081
783.0, 0.0002752441370234598
784.0, 5.8142918000065775e-05
785.0, 0.0006700726799107991
786.0, 0.0005564236186761294
787.0, 0.000376203101518833
788.0, 0.0010282038810325669
789.0, 0.0007373621903439363
790.0, 0.00029141502179601123
791.0, 0.0004366458097394424
792.0, 0.0009908752740861912
793.0, 0.0004279749467754791
794.0, 0.0005314357287245036
795.0, 0.0010133661049408847
796.0, 0.001118764262469423
797.0, 0.0002966786578051304
798.0, 0.0010551852606936604
799.0, 0.0007001337784467741
800.0, 0.00038293631312789217
801.0, 0.0004574141157052881
802.0, 0.0007184414893804535
803.0, 0.0002871390434607735
804.0, 0.0006232644316130205
805.0, 0.0007856850994810327
806.0, 7.992231190335537e-05
807.0, 0.0005254293567272052
808.0, 0.0005506496438673934
809.0, 0.00037138838217610663
810.0, 0.00026089719159203825
811.0, 0.0006328736342176227
812.0, 0.000538035398683527
813.0, 0.0005453236275940956
814.0, 0.0007404769166948324
815.0, 0.0010545975923898308
816.0, 0.0008759794691279803
817.0, 0.0007827277022500288
818.0, 0.0007296321361326555
819.0, 0.0007281918163131096
820.0, 0.0008007245497239098
821.0, 0.0006188564740487349
822.0, 0.0002870109690532502
823.0, 0.0004360513599272141
824.0, 0.0010437569698711362
825.0, 0.0008767537333591776
826.0, 0.0004624694693300946
827.0, 0.0005874756266573153
828.0, 0.0008402910971137856
829.0, 0.000712281230288581
830.0, 0.0008259118011201116
831.0, 0.001139190397163789
832.0, 0.0009369345466521279
833.0, 0.0005474567767714228
834.0, 0.0012710748943420733
835.0, 0.0014534043030047805
836.0, 0.000986285076636851
837.0, 0.0006633279676646738
838.0, 0.0009209933119824662
839.0, 0.0008680574197642604
840.0, 0.0015701712565304895
841.0, 0.0015063007870533894
842.0, 0.001013264107565712
843.0, 0.0010445333944083864
844.0, 0.0020041907859222096
845.0, 0.0015704620253658044
846.0, 0.0015779024912580442
847.0, 0.0022310275957798647
848.0, 0.0016096914829885824
849.0, 0.0013789322726325596
850.0, 0.0019478247444723394
851.0, 0.002305257372571022
852.0, 0.0017963791393334645
853.0, 0.0023549323882587144
854.0, 0.0026388093559022497
855.0, 0.002502134969968122
856.0, 0.002422289481436847
857.0, 0.003177588921365259
858.0, 0.002508765082830965
859.0, 0.0033547541039423787
860.0, 0.003913811802948486
861.0, 0.00366492018504741
862.0, 0.003908665194497163
863.0, 0.004183897429106312
864.0, 0.0038336165115684965
865.0, 0.0032944239394110766
866.0, 0.0030148394433404135
867.0, 0.0028803067322088465
868.0, 0.0020533072153392294
869.0, 0.002148021567967821
870.0, 0.0024235469760078604
871.0, 0.0012002733334784848
872.0, 0.0016492671707864235
873.0, 0.00191386571187539
874.0, 0.0017347000013207409
875.0, 0.0014819880407443576
876.0, 0.0024993823777437483
877.0, 0.001723904250972966
878.0, 0.0015692413809494442
879.0, 0.0016381057575069508
880.0, 0.0014744963238054905
881.0, 0.0011422686491055153
882.0, 0.0018767704364304164
883.0, 0.0017609767818393483
884.0, 0.0012491453028678821
885.0, 0.00140218421874818
886.0, 0.0018987669769323003
887.0, 0.0014801073591655
888.0, 0.0013317544083838854
889.0, 0.0016165516001917465
890.0, 0.0017498194108665338
891.0, 0.001590772744265723
892.0, 0.002103824029604403
893.0, 0.0021002456382824275
894.0, 0.0013813630047505878
895.0, 0.0018876584487141444
896.0, 0.0023430263048421327
897.0, 0.0021932057266486602
898.0, 0.00212918082646589
899.0, 0.0026012511853476684
900.0, 0.0018400837703478625
901.0, 0.0021962118974000323
902.0, 0.002822601907321855
903.0, 0.0027918314831937747
904.0, 0.0013284789748481025
905.0, 0.002336664881656929
906.0, 0.0019347932604449546
907.0, 0.00196214593286017
908.0, 0.002604898074915355
909.0, 0.00275756267727935
910.0, 0.0016781556997103632
911.0, 0.00200174864671755
912.0, 0.0023364790295127107
913.0, 0.002008063027928895
914.0, 0.0016194469464556713
915.0, 0.0019743807027137192
916.0, 0.0019435995212930225
917.0, 0.0018343262454996935
918.0, 0.0019500854167479758
919.0, 0.002065781525485054
920.0, 0.0016929703354148077
921.0, 0.0016798205013800525
922.0, 0.001661396940931507
923.0, 0.0011268912004870966
924.0, 0.0008469773963843631
925.0, 0.0015811208044554535
926.0, 0.0016432237115735992
927.0, 0.0014161066535356697
928.0, 0.0021604929639075484
929.0, 0.0015281900903135611
930.0, 0.0013657574776399538
931.0, 0.001718965525770163
932.0, 0.0021429003464553086
933.0, 0.0016788088961414878
934.0, 0.0020454556862748666
935.0, 0.002261538495848803
936.0, 0.0022505624832812833
937.0, 0.002197087026651124
938.0, 0.002725831759441369
939.0, 0.0016129301175274104
940.0, 0.0014727746048027975
941.0, 0.0020152868293592096
942.0, 0.0024456946699203176
943.0, 0.001006935900302946
944.0, 0.002036708211361348
945.0, 0.001998551834409176
946.0, 0.0015458442400527012
947.0, 0.0016884030099420192
948.0, 0.0022747148328432026
949.0, 0.001919921237875275
950.0, 0.002088981114569939
951.0, 0.0024597899971612824
952.0, 0.002367896824882659
953.0, 0.002053715798444151
954.0, 0.0029564674893639074
955.0, 0.00254689907571867
956.0, 0.0015781841630711092
957.0, 0.001959811795458027
958.0, 0.002979575224307465
959.0, 0.0029473824291718557
960.0, 0.003324217666821577
961.0, 0.003936892690626383
962.0, 0.0037269463791188124
963.0, 0.0038638417516217638
964.0, 0.004842069027621094
965.0, 0.00563351724108901
966.0, 0.0061757953564531625
967.0, 0.007174821845175345
968.0, 0.007142836609662954
969.0, 0.007181162601526639
970.0, 0.007687375729547035
971.0, 0.0083502994510479
972.0, 0.008036195419991727
973.0, 0.00960519018251928
974.0, 0.011128764214952494
975.0, 0.012187130549418093
976.0, 0.013119507839394773
977.0, 0.015365057147751238
978.0, 0.01766669749352338
979.0, 0.02167504859102337
980.0, 0.0282155728627527
981.0, 0.037549210469557795
982.0, 0.04925138726817117
983.0, 0.07311030911472795
984.0, 0.11557059044691537
985.0, 0.1982268654395597
986.0, 0.3514262329716209
987.0, 0.633203738964885
988.0, 0.9109409733507918
989.0, 0.9947403311410601
990.0, 0.8682018699757724
991.0, 0.5904525325567003
992.0, 0.3516243209352109
993.0, 0.21935996315399003
994.0, 0.1356701428890868
995.0, 0.08574628001675226
996.0, 0.05794954419672742
997.0, 0.041337822146067474
998.0, 0.03202098328845904
999.0, 0.026327730862755968
1000.0, 0.0224059080286228
1001.0, 0.019155046162748816
1002.0, 0.017311025497485363
1003.0, 0.017482893483045416
1004.0, 0.01555152685465641
1005.0, 0.013140659323166857
1006.0, 0.011704038065258738
1007.0, 0.01012477960395783
1008.0, 0.008442297949068417
1009.0, 0.007698807178157449
1010.0, 0.007130792656292244
1011.0, 0.006198070761303976
1012.0, 0.005676726066519298
1013.0, 0.006225805576736283
1014.0, 0.005369380331677825
1015.0, 0.00497783679395947
1016.0, 0.005943400180912486
1017.0, 0.005081264914495399
1018.0, 0.004862836731488909
1019.0, 0.005398929185200075
1020.0, 0.005381873884169474
1021.0, 0.004485918491580796
1022.0, 0.005213747855814705
1023.0, 0.005713948634325005
1024.0, 0.005616701138933517
1025.0, 0.00582937119008734
1026.0, 0.0063609791016996636
1027.0, 0.0049494752593574175
1028.0, 0.00577997052531304
1029.0, 0.006309874959588349
1030.0, 0.005914164166209871
1031.0, 0.004986930738049291
1032.0, 0.0055457910114000844
1033.0, 0.004151765237207082
1034.0, 0.0034688377557160702
1035.0, 0.00340745126927985
1036.0, 0.003378544935730324
1037.0, 0.0022507025810661377
1038.0, 0.00252194016532133
1039.0, 0.0025871052213409735
1040.0, 0.002284795765641391
1041.0, 0.001877743456267617
1042.0, 0.0020850467553056623
1043.0, 0.0017762195794899934
1044.0, 0.0014348566481096486
1045.0, 0.0016111988081313768
1046.0, 0.0018962569641670433
1047.0, 0.001037881368517506
1048.0, 0.0016553930192519108
1049.0, 0.0017892622178268208
1050.0, 0.0015190021061850145
1051.0, 0.0013912487447482937
1052.0, 0.0021379408670121167
1053.0, 0.001502129008881818
1054.0, 0.002052535566204704
1055.0, 0.003444729389030281
1056.0, 0.004823278280919113
1057.0, 0.005239915970589538
1058.0, 0.005744726880917507
1059.0, 0.004021523262872857
1060.0, 0.002673675891411918
1061.0, 0.0020941563481847703
1062.0, 0.0018090785562048643
1063.0, 0.001001381118067485
1064.0, 0.0009532015024761608
1065.0, 0.0009885032149303385
1066.0, 0.0009649540226037945
1067.0, 0.0009862698440109262
1068.0, 0.0016459042596511024
1069.0, 0.001395380290311025
1070.0, 0.001095336651064539
1071.0, 0.0012963912515526334
1072.0, 0.0019334130115689389
1073.0, 0.0015823330510130222
1074.0, 0.0024336330392290637
1075.0, 0.002992116973037639
1076.0, 0.0031782930482439986
1077.0, 0.0033837719259031426
1078.0, 0.004526335333206956
1079.0, 0.004761179863180048
1080.0, 0.00592076998140847
1081.0, 0.008012778078746572
1082.0, 0.010150097391139857
1083.0, 0.010811238001414546
1084.0, 0.01210095092311125
1085.0, 0.011833184810733461
1086.0, 0.0107137192409258
1087.0, 0.009345912249744202
1088.0, 0.008141782916499207
1089.0, 0.006129689686203321
1090.0, 0.004632686843285921
1091.0, 0.004111244059962237
1092.0, 0.003597944177045237
1093.0, 0.002382704933543172
1094.0, 0.002891026438898606
1095.0, 0.00227165327532398
1096.0, 0.0021491629059982175
1097.0, 0.0025139135624377053
1098.0, 0.002781185028107615
1099.0, 0.0016658862659370828
1100.0, 0.0030777027276901177
1101.0, 0.003568668757015641
1102.0, 0.0038519746028931956
1103.0, 0.004698500638100713
1104.0, 0.006560439052957276
1105.0, 0.005998613091532283
1106.0, 0.005867555287250221
1107.0, 0.005291379126211436
1108.0, 0.004161871592472359
1109.0, 0.002978598220740351
1110.0, 0.0031442464474865043
1111.0, 0.002459325523451806
1112.0, 0.0013903997122015435
1113.0, 0.0009662932080179157
1114.0, 0.0016607783779864034
1115.0, 0.0009839142807111182
1116.0, 0.0006533989580637011
1117.0, 0.0010537354642916358
1118.0, 0.0009722029630711079
1119.0, 0.0002717597702047351
1120.0, 0.001262278363817686
1121.0, 0.0010217693689760121
1122.0, 0.0007189067300340907
1123.0, 0.0011369248327000433
1124.0, 0.0016995428257232472
1125.0, 0.0008027843795966148
1126.0, 0.0001273262289104851
1127.0, 0.0005094149584419574
1128.0, 0.0007154670671239325
1129.0, 0.000608753010222773
1130.0, 0.00047446410887422964
1131.0, 0.000295653723962198
1132.0, 0.00035566222053935736
1133.0, 0.0007361547152323515
1134.0, 0.0007582141999641935
1135.0, 0.0004907205053704346
1136.0, 0.0018085069965794258
1137.0, 0.002050624730273506
1138.0, 0.0016607626329517336
1139.0, 0.0023764131656513793
1140.0, 0.0037481853347093898
1141.0, 0.0035842085949116887
1142.0, 0.004827444983027616
1143.0, 0.005582219665011263
1144.0, 0.006002638819745354
1145.0, 0.0060919088016768925
1146.0, 0.005884534303057775
1147.0, 0.005741483809617247
1148.0, 0.004385064055320929
1149.0, 0.004084257836036988
1150.0, 0.0037779306678078976
1151.0, 0.0027465037441981063
1152.0, 0.0016244871703617807
1153.0, 0.0019945538791522736
1154.0, 0.0013565337058099708
1155.0, 0.0011548036065948768
1156.0, 0.0014718781144475415
1157.0, 0.0014207809892959596
1158.0, 0.00025708680010795614
1159.0, 0.0006856085816097884
1160.0, 0.0005221551383999358
1161.0, 0.00032325108283278055
1162.0, 0.0007543684953394668
1163.0, 0.0009801800316535604
1164.0, 0.0002503659691564487
1165.0, 0.0004561763285867913
1166.0, 0.000680599525231586
1167.0, 0.0004758814284739212
1168.0, 0.00011812614531533211
1169.0, 0.0009550165072975106
1170.0, 0.00040985862958054
1171.0, 0.00019073791343861957
1172.0, 0.00047293393255679907
1173.0, 0.0008053201417024701
1174.0, 0.000549907123182112
1175.0, 0.0010819933562921697
1176.0, 0.000804106326883729
1177.0, 0.0003539037863628766
1178.0, 0.0004067460171644443
1179.0, 0.0012537121576063185
1180.0, 0.00034159998729026467
1181.0, 0.0003674218662938593
1182.0, 0.00056792169250892
1183.0, 0.000492905845935372
1184.0, 0.00015756755840514298
1185.0, 0.0008212922184548596
1186.0, 0.0003374671599453336
1187.0, 0.0003849880143471873
1188.0, 0.0007631515584125188
1189.0, 0.0008715775515454292
1190.0, 2.3512316585269252e-05
1191.0, 3.76403284086826e-05
1192.0, 0.00016133159382987402
1193.0, 0.0005001011592510921
1194.0, 0.0007427873271487171
1195.0, 0.0005624825023885453
1196.0, 0.00022357740241879447
1197.0, 0.00023851443111269456
1198.0, 0.0007611381649848745
1199.0, 0.0007251627415908503
1200.0, 0.00010064615875883052
1201.0, 0.0001388631520487877
1202.0, 0.0009087179098077088
1203.0, 0.0006113563795812722
1204.0, 0.0006317147093301105
1205.0, 0.0006641603176927444
1206.0, 0.00027460424039245845
1207.0, 0.0005933152567702347
1208.0, 0.0006661739513313122
1209.0, 0.0005204586546584082
1210.0, 0.00031532293421565225
1211.0, 0.0003307116930440034
1212.0, 0.0007860390912936236
1213.0, 0.00040747959540493334
1214.0, 0.0009448830152439869
1215.0, 0.001368945170649202
1216.0, 0.001025858926658001
1217.0, 0.0004078952488064146
1218.0, 0.002140547111461922
1219.0, 0.000857445158253284
1220.0, 0.0007270057489474401
1221.0, 0.001069071231595324
1222.0, 0.0009930673102738717
1223.0, 0.0001024555988701503
1224.0, 0.0007956123114577231
1225.0, 0.0006547916546644301
1226.0, 0.000279161988511298
1227.0, 0.0004842555080254862
1228.0, 0.0009947506212065246
1229.0, 0.00019072447274307797
1230.0, 0.0005347327617878444
1231.0, 0.001402826698462839
1232.0, 0.0010408550347342645
1233.0, 0.0006293540504119846
1234.0, 0.0013174849564817175
1235.0, 0.0007093184159930611
1236.0, 0.0008057740141931727
1237.0, 0.0017149147418845034
1238.0, 0.0021212183429532103
1239.0, 0.0018721869576745916
1240.0, 0.0017793739473400587
1241.0, 0.0021469634394250584
1242.0, 0.0014132036094371132
1243.0, 0.0016891776047499058
1244.0, 0.0018671688115229426
1245.0, 0.001304546749305125
1246.0, 0.0009953368032960112
1247.0, 0.002313655700624587
1248.0, 0.002076876600203375
1249.0, 0.0015691596311496775
1250.0, 0.0015856215403305602
1251.0, 0.002050554244750641
1252.0, 0.0011687414449749658
1253.0, 0.0016763111664104822
1254.0, 0.001737537526237098
1255.0, 0.0014659065767175653
1256.0, 0.0011662092641747254
1257.0, 0.0011317263717642361
1258.0, 0.001320842164926873
1259.0, 0.0009806941139808613
1260.0, 0.0015666633242291512
1261.0, 0.0015443136311520747
1262.0, 0.0008425998862358579
1263.0, 0.001319918921367035
1264.0, 0.0020170950120166433
1265.0, 0.001169383284456312
1266.0, 0.001615085877661206
1267.0, 0.0021374911161382818
1268.0, 0.0016954134853353357
1269.0, 0.0015786993694356113
1270.0, 0.0020066650250047504
1271.0, 0.0020246873657142335
1272.0, 0.001721136382114518
1273.0, 0.0018272883896363334
1274.0, 0.0025314977601096703
1275.0, 0.0017834914075120095
1276.0, 0.002392780586621954
1277.0, 0.002332726561043262
1278.0, 0.0016409760081445115
1279.0, 0.0014145222047226404
1280.0, 0.0024850471214134195
1281.0, 0.0018757416533998427
1282.0, 0.0013723995383991391
1283.0, 0.0018989258029000397
1284.0, 0.001848776411258244
1285.0, 0.00125074013393982
1286.0, 0.0015413185762788361
1287.0, 0.001286749934700806
1288.0, 0.0008019006132035788
1289.0, 0.0014700030786513084
1290.0, 0.0016381612227858143
1291.0, 0.000851986813549331
1292.0, 0.0007941148030099189
1293.0, 0.002394174570033418
1294.0, 0.001335052543689
1295.0, 0.001229896705883654
1296.0, 0.0019247898900582147
1297.0, 0.0021623291116736466
1298.0, 0.000872465197033579
1299.0, 0.0022966721760702144
1300.0, 0.0018435039994659057
1301.0, 0.0012747768465203543
1302.0, 0.0016601281760587855
1303.0, 0.002463331596901335
1304.0, 0.0007486628018103163
1305.0, 0.0013034202649699056
1306.0, 0.0019276736692824946
1307.0, 0.0012999607643964615
1308.0, 0.0010383965731219002
1309.0, 0.002331989131421366
1310.0, 0.002325888584374139
1311.0, 0.0016803228543564109
1312.0, 0.002350016894961012
1313.0, 0.002642999811828422
1314.0, 0.0024604082970652997
1315.0, 0.00241297588950189
1316.0, 0.0025442564960193267
1317.0, 0.0021790852163561074
1318.0, 0.002412957925929244
1319.0, 0.002924454368780247
1320.0, 0.0027958009574485863
1321.0, 0.0017432119389471246
1322.0, 0.0022675530290829846
1323.0, 0.001827878268946268
1324.0, 0.001847321647821447
1325.0, 0.0021634808480801826
1326.0, 0.002187615822995416
1327.0, 0.0015705402022813154
1328.0, 0.0013836842669983644
1329.0, 0.0018205255195236335
1330.0, 0.0010224119900389954
1331.0, 0.0009501751489458982
1332.0, 0.001586550282047498
1333.0, 0.0017142029533229295
1334.0, 0.0010711560586189038
1335.0, 0.000979422731608726
1336.0, 0.0005273088847427024
1337.0, 0.00015132919796179804
1338.0, 2.280031370480685e-05
1339.0, 8.114466878181985e-05
1340.0, 0.000308712289505663
1341.0, 0.00010503456120561004
1342.0, 0.0003751013264208768
1343.0, 0.00042313710689104145
1344.0, 0.0005113483478587493
1345.0, 0.0009972200600146578
1346.0, 0.0004777324886853695
1347.0, 0.00016370922076882385
1348.0, 0.0004984494976824103
1349.0, 0.0005082379675285968
1350.0, 0.0004348355928989149
1351.0, 0.0008056691393720062
1352.0, 0.0008183756585297372
1353.0, 0.00020224633095885768
1354.0, 0.0005450577211446662
1355.0, 0.0006242013411720424
1356.0, 0.0003131434423060468
1357.0, 0.00015925548270739523
1358.0, 0.0007248524073600182
1359.0, 0.00042617264723444475
1360.0, 0.00013571174551792187
1361.0, 0.000542874411957463
1362.0, 0.0008887562231756784
1363.0, 0.0004755515426389973
1364.0, 7.388366713071185e-05
1365.0, 0.0005806827329869753
1366.0, 0.0002900737173748809
1367.0, 0.00042309128767563554
1368.0, 0.0007074182914063329
1369.0, 0.0006033622272801131
1370.0, 0.0001658397221486282
1371.0, 0.0007528396462994587
1372.0, 0.000887249315551646
1373.0, 0.0006707379402564747
1374.0, 0.0008364924470442345
1375.0, 0.001132928224189354
1376.0, 0.0002172776797997887
1377.0, 0.0011409336296466974
1378.0, 0.0010397568433162556
1379.0, 0.00044356965610228903
1380.0, 0.0007955958992809934
1381.0, 0.0017316696962382636
1382.0, 0.001359780234627456
1383.0, 0.0010765873761935003
1384.0, 0.001644356874873332
1385.0, 0.0014481702697051594
1386.0, 0.0008744830923696756
1387.0, 0.0008033594688126513
1388.0, 0.001509799835527064
1389.0, 0.0004733816115309582
1390.0, 0.0009873958879914326
1391.0, 0.0012886477966277266
1392.0, 0.0007292486093283788
1393.0, 0.0005824044873941783
1394.0, 0.0016290725185091374
1395.0, 0.0009088859103086636
1396.0, 0.0005647252774835131
1397.0, 0.0008949428889621002
1398.0, 0.0006000202203158985
1399.0, 0.00018482580113169452
1400.0, 0.00041756776483799115
1401.0, 0.0010936547784198738
1402.0, 0.0003520954297586823
1403.0, 0.0008726285322641958
1404.0, 0.0005775011465800117
1405.0, 0.00021530523077219923
1406.0, 0.0005305371976756376
1407.0, 0.0012707871527102587
1408.0, 0.0014231193693786935
1409.0, 0.0003781240039161586
1410.0, 0.0003709966022401566
1411.0, 0.0005029839573300824
1412.0, 0.0005016857076582732
1413.0, 0.00073372298637644
1414.0, 0.0009657435658154392
1415.0, 0.0003531173399506101
1416.0, 0.000705852565431302
1417.0, 0.0010247717853084913
1418.0, 0.0008947449254707838
1419.0, 0.0005684418835117481
1420.0, 0.0007566917192080807
1421.0, 0.0003915249708892784
1422.0, 0.00032165460236282574
1423.0, 0.0009972363934374832
1424.0, 0.0010598978608673169
1425.0, 0.0004267001424603476
1426.0, 0.000747523994513055
1427.0, 0.0015183204379246912
1428.0, 0.0007535379073947332
1429.0, 0.0008258457001614003
1430.0, 0.0014199041077425539
1431.0, 0.0017840457756060687
1432.0, 0.0016777380124671083
1433.0, 0.00240703207119362
1434.0, 0.0019515791621325666
1435.0, 0.0019479523833667578
1436.0, 0.00262952973924362
1437.0, 0.0031340780224479075
1438.0, 0.003215374303789543
1439.0, 0.004030457730011857
1440.0, 0.004622671833675091
1441.0, 0.003431918052045592
1442.0, 0.004569287429167296
1443.0, 0.005816200039342132
1444.0, 0.005509037685637548
1445.0, 0.004483318202609095
1446.0, 0.006593246006032215
1447.0, 0.006113568775224173
1448.0, 0.005781789745749441
1449.0, 0.006718960418128914
1450.0, 0.0071828978959351955
1451.0, 0.006432584456284468
1452.0, 0.007372815422509314
1453.0, 0.007945650951939305
1454.0, 0.006841965026913237
1455.0, 0.00665871736074871
1456.0, 0.007100779145755304
1457.0, 0.007010672785767991
1458.0, 0.006088119533412638
1459.0, 0.007840517887825483
1460.0, 0.00729478885559732
1461.0, 0.006623965710052237
1462.0, 0.006735901636185118
1463.0, 0.006398140538055408
1464.0, 0.005295907692429931
1465.0, 0.005873127706413109
1466.0, 0.006244143435062587
1467.0, 0.004438813363580633
1468.0, 0.004278527740047974
1469.0, 0.004278566812766767
1470.0, 0.00355085734395808
1471.0, 0.0029029305401975154
1472.0, 0.0039756962378929865
1473.0, 0.0028536149884594375
1474.0, 0.002414603039363819
1475.0, 0.0030896001649419447
1476.0, 0.0030681860417785373
1477.0, 0.00209250671904684
1478.0, 0.0026883912672224937
1479.0, 0.0035203385797614125
1480.0, 0.002277840265028418
1481.0, 0.0025762326359247724
1482.0, 0.0029737569945814733
1483.0, 0.002536770814251219
1484.0, 0.0018766529424315364
1485.0, 0.0030042885898331384
1486.0, 0.0030791544234664682
1487.0, 0.002044502482557616
1488.0, 0.0025343494490386942
1489.0, 0.0024363978119525233
1490.0, 0.0013849195074235293
1491.0, 0.0014649446499687914
1492.0, 0.002267419258241925
1493.0, 0.001397955251351149
1494.0, 0.0011930327824375643
1495.0, 0.0007927149762723859
1496.0, 0.00037734671212976426
1497.0, 0.0004108095872831117
1498.0, 0.0008991515372867354
1499.0, 0.0013368098992849974
1500.0, 0.0003351566791936802
1501.0, 0.0007711472601260326
1502.0, 0.0006206740923863305
1503, 0.0
1504, 0.0
1505, 0.0
1506, 0.0
1507, 0.0
1508, 0.0
1509, 0.0
1510, 0.0
1511, 0.0
1512, 0.0
1513, 0.0
1514, 0.0
1515, 0.0
1516, 0.0
1517, 0.0
1518, 0.0
1519, 0.0
1520, 0.0
1521, 0.0
1522, 0.0
1523, 0.0
1524, 0.0
1525, 0.0
1526, 0.0
1527, 0.0
1528, 0.0
1529, 0.0
1530, 0.0
1531, 0.0
1532, 0.0
1533, 0.0
1534, 0.0
1535, 0.0
1536, 0.0
1537, 0.0
1538, 0.0
1539, 0.0
1540, 0.0
1541, 0.0
1542, 0.0
1543, 0.0
1544, 0.0
1545, 0.0
1546, 0.0
1547, 0.0
1548, 0.0
1549, 0.0
1550, 0.0
1551, 0.0
1552, 0.0
1553, 0.0
1554, 0.0
1555, 0.0
1556, 0.0
1557, 0.0
1558, 0.0
1559, 0.0
1560, 0.0
1561, 0.0
1562, 0.0
1563, 0.0
1564, 0.0
1565, 0.0
1566, 0.0
1567, 0.0
1568, 0.0
1569, 0.0
1570, 0.0
1571, 0.0
1572, 0.0
1573, 0.0
1574, 0.0
1575, 0.0
1576, 0.0
1577, 0.0
1578, 0.0
1579, 0.0
1580, 0.0
1581, 0.0
1582, 0.0
1583, 0.0
1584, 0.0
1585, 0.0
1586, 0.0
1587, 0.0
1588, 0.0
1589, 0.0
1590, 0.0
1591, 0.0
1592, 0.0
1593, 0.0
1594, 0.0
1595, 0.0
1596, 0.0
1597, 0.0
1598, 0.0
1599, 0.0
