30, 0.0
31, 0.0
32, 0.0
33, 0.0
34, 0.0
35, 0.0
36, 0.0
37, 0.0
38, 0.0
39, 0.0
40, 0.0
41, 0.0
42, 0.0
43, 0.0
44, 0.0
45, 0.0
46, 0.0
47, 0.0
48, 0.0
49, 0.0
50, 0.0
51, 0.0
52, 0.0
53, 0.0
54, 0.0
55, 0.0
56, 0.0
57, 0.0
58, 0.0
59, 0.0
60, 0.0
61, 0.0
62, 0.0
63, 0.0
64, 0.0
65, 0.0
66, 0.0
67, 0.0
68, 0.0
69, 0.0
70, 0.0
71, 0.0
72, 0.0
73, 0.0
74, 0.0
75, 0.0
76, 0.0
77, 0.0
78, 0.0
79, 0.0
80, 0.0
81, 0.0
82, 0.0
83, 0.0
84, 0.0
85, 0.0
86, 0.0
87, 0.0
88, 0.0
89, 0.0
90, 0.0
91, 0.0
92, 0.0
93, 0.0
94, 0.0
95, 0.0
96, 0.0
97, 0.0
98, 0.0
99, 0.0
100.0, 0.0012230663621712583
101.0, 0.0038482286995530487
102.0, 0.0024947459678939464
103.0, 0.0061419894301935965
104.0, 0.026782247418868265
105.0, 0.05717521400541215
106.0, 0.08050327048114236
107.0, 0.11955795240100384
108.0, 0.16512481186874303
109.0, 0.20032910215843652
110.0, 0.2394786433847936
111.0, 0.2957838137958659
112.0, 0.36319017826546834
113.0, 0.43411494702983233
114.0, 0.5050042700902162
115.0, 0.567079668476045
116.0, 0.6050577718186154
117.0, 0.615020118700316
118.0, 0.6055707130012821
119.0, 0.5772128306685333
120.0, 0.5381674382112807
121.0, 0.4967901683116347
122.0, 0.46334671468820837
123.0, 0.46001023727017964
124.0, 0.4620502484413795
125.0, 0.46515786397717973
126.0, 0.47619141991205294
127.0, 0.49538728384839875
128.0, 0.5383375501497375
129.0, 0.6018094233506902
130.0, 0.6738407029966911
131.0, 0.7443829603480308
132.0, 0.8207332059242757
133.0, 0.8957480869150304
134.0, 0.955916738209321
135.0, 0.9903723933501849
136.0, 0.9999241200728397
137.0, 0.9546830593339268
138.0, 0.8772367594962133
139.0, 0.814841404039043
140.0, 0.7043723674266177
141.0, 0.620667911877982
142.0, 0.557537083977944
143.0, 0.48910516814422844
144.0, 0.44822277400782196
145.0, 0.42834899542919563
146.0, 0.4057700037361248
147.0, 0.37355298234982587
148.0, 0.3525080282072733
149.0, 0.3480824955662464
150.0, 0.3461388260618357
151.0, 0.3462221236491783
152.0, 0.3583447038058073
153.0, 0.38133493172620003
154.0, 0.4157242088379757
155.0, 0.4686187870429679
156.0, 0.5443113326405157
157.0, 0.5934636984710083
158.0, 0.6481154713327032
159.0, 0.6841241970982523
160.0, 0.6768897471741273
161.0, 0.6300378498221428
162.0, 0.5673983526939267
163.0, 0.4992094340664778
164.0, 0.4333133765122784
165.0, 0.3765466508354592
166.0, 0.31235489012425716
167.0, 0.27983024081041075
168.0, 0.2568562971360474
169.0, 0.22026530958452561
170.0, 0.20947281742055432
171.0, 0.21776534842627135
172.0, 0.21810564812638003
173.0, 0.20735071810662245
174.0, 0.21128664350678894
175.0, 0.22936794415940992
176.0, 0.2412067424710708
177.0, 0.250824554660766
178.0, 0.27355194005712985
179.0, 0.30161362272509484
180.0, 0.3205121924792104
181.0, 0.332742059616055
182.0, 0.3428021568940091
183.0, 0.3473719038919397
184.0, 0.34697530016917005
185.0, 0.33850586531448124
186.0, 0.3173235930207916
187.0, 0.2822927541701077
188.0, 0.25412657994016136
189.0, 0.21604975361971185
190.0, 0.17338427447306512
191.0, 0.13979700586524188
192.0, 0.11091142487702375
193.0, 0.09565819507611455
194.0, 0.0854093561775388
195.0, 0.07482056692205455
196.0, 0.06887765200735768
197.0, 0.06113145054836811
198.0, 0.06088183154487941
199.0, 0.06057959875236718
200.0, 0.047751922808859634
201.0, 0.04551326893769143
202.0, 0.03869320111465828
203.0, 0.023770679562054385
204.0, 0.006332461064174113
205.0, 0.004276558801196001
206.0, 0.021352499634278925
207.0, 0.029528239964310442
208.0, 0.028262831280117185
209.0, 0.030433531269726522
210.0, 0.031382921424025
211.0, 0.035562566462358884
212.0, 0.035300513387913644
213.0, 0.023619429596508326
214.0, 0.006652488156180593
215.0, 0.0026126257168415656
216.0, 0.013814290263886394
217.0, 0.029308715959095927
218.0, 0.042112614670555465
219.0, 0.06059722883230613
220.0, 0.07017841202410773
221.0, 0.08321203477445333
222.0, 0.10874887686844226
223.0, 0.11479916952322074
224.0, 0.1378901870496392
225.0, 0.16983240450233336
226.0, 0.1972534494142729
227.0, 0.2184553302077343
228.0, 0.25824576914878017
229.0, 0.3009951056137724
230.0, 0.331670745981345
231.0, 0.3500798837438467
232.0, 0.3796284962453346
233.0, 0.3974150316756621
234.0, 0.4013412317637998
235.0, 0.41014982453859555
236.0, 0.44988046983148944
237.0, 0.46562760777545137
238.0, 0.4821297786668249
239.0, 0.5018605373186229
240.0, 0.5272810392955305
241.0, 0.5856155435963367
242.0, 0.6315284008424022
243.0, 0.6747330785508406
244.0, 0.7224168932027139
245.0, 0.77141963911671
246.0, 0.8092616758918155
247.0, 0.8333434192978844
248.0, 0.8373851369841276
249.0, 0.8199158160110747
250.0, 0.7927915295904221
251.0, 0.741983574992511
252.0, 0.6736129125053472
253.0, 0.6024165298796101
254.0, 0.5438349972415101
255.0, 0.4953155112176062
256.0, 0.44517284938265167
257.0, 0.4023065381873417
258.0, 0.3732660240937945
259.0, 0.35384013678830334
260.0, 0.3314970484063169
261.0, 0.3200699413346144
262.0, 0.31290070444457313
263.0, 0.3033606215297797
264.0, 0.32047008725641757
265.0, 0.3172499622330685
266.0, 0.312065558973026
267.0, 0.31224910338242545
268.0, 0.3006285168497846
269.0, 0.2871439292740039
270.0, 0.26930482542211187
271.0, 0.25359404833403626
272.0, 0.24007250727834015
273.0, 0.2089536283303372
274.0, 0.17686773498345953
275.0, 0.14143960521246673
276.0, 0.1074064772602161
277.0, 0.08417175305910275
278.0, 0.0688920827936123
279.0, 0.038715489694687875
280.0, 0.021468835283847347
281.0, 0.022923255127208036
282.0, 0.00944803826932607
283.0, 0.001479298468071574
284.0, 0.00686556830287856
285.0, 0.016281866535671503
286.0, 0.021744669107237345
287.0, 0.013752594614402303
288.0, 0.007465159295704718
289.0, 0.00177839013859159
290.0, 0.006928447841038049
291.0, 0.012829362135375805
292.0, 0.01653402672006295
293.0, 0.02758898012716778
294.0, 0.03973387727917518
295.0, 0.053183022470947916
296.0, 0.07809496164519272
297.0, 0.10229803247112454
298.0, 0.13294489024903866
299.0, 0.16205831129590767
300.0, 0.18380308429210088
301.0, 0.21145700954764984
302.0, 0.24729255563362218
303.0, 0.27676528206576323
304.0, 0.2950765233422229
305.0, 0.30802287583900456
306.0, 0.32299436930589537
307.0, 0.3202230036396113
308.0, 0.3072599224772705
309.0, 0.2990583883221724
310.0, 0.29949878218267506
311.0, 0.2814688407051347
312.0, 0.2653339052530203
313.0, 0.24506649570530223
314.0, 0.22328908275142842
315.0, 0.22841334886425957
316.0, 0.2258903979744818
317.0, 0.22973902072363508
318.0, 0.2289984374965774
319.0, 0.2192810204300331
320.0, 0.24226774091351452
321.0, 0.23292431893453755
322.0, 0.23092494638496644
323.0, 0.24338666243885085
324.0, 0.2480244765833584
325.0, 0.2505822011692682
326.0, 0.26550797606689747
327.0, 0.2649019916186611
328.0, 0.24665721951810654
329.0, 0.23582029044607716
330.0, 0.2262291793438367
331.0, 0.21132837277926914
332.0, 0.19978685029950413
333.0, 0.19096919631236414
334.0, 0.1672249312061604
335.0, 0.161954900401093
336.0, 0.15167144811489155
337.0, 0.12431513378444005
338.0, 0.09214483441733769
339.0, 0.08863445920070197
340.0, 0.0760728526864685
341.0, 0.06208613800566945
342.0, 0.049805646472147545
343.0, 0.03767970357644358
344.0, 0.030055071188051407
345.0, 0.014270480989772197
346.0, 0.0022448034670851415
347.0, 0.004482361111357193
348.0, 0.0026907844697035515
349.0, 0.00680983022852938
350.0, 0.007153500207020587
351.0, 0.006494761061518527
352.0, 0.005948156791907365
353.0, 0.003417393427888639
354.0, 0.00929187406717548
355.0, 0.00499819784849693
356.0, 0.00792628592939878
357.0, 0.004407846068584004
358.0, 0.0040751906745746976
359.0, 0.025187412774706337
360.0, 0.02246773443169741
361.0, 0.019291495255896445
362.0, 0.02692079618457634
363.0, 0.01950907607045544
364.0, 0.026699928571186287
365.0, 0.029404616797796247
366.0, 0.030987038477159015
367.0, 0.03586234063487812
368.0, 0.033180807565179
369.0, 0.029829290321576152
370.0, 0.03564572075087123
371.0, 0.040219449224719414
372.0, 0.04124387398226547
373.0, 0.069781126620452
374.0, 0.07124765976194525
375.0, 0.06502221214470431
376.0, 0.06302769439411901
377.0, 0.06577731040755258
378.0, 0.07511436569837583
379.0, 0.08742155239233004
380.0, 0.09168478168084869
381.0, 0.09172765273680714
382.0, 0.09402596060418364
383.0, 0.09052923004503372
384.0, 0.09709247382312323
385.0, 0.0912660288122867
386.0, 0.07617898244639472
387.0, 0.07218920256392727
388.0, 0.08130179829844467
389.0, 0.0872844157912989
390.0, 0.08815907354538645
391.0, 0.09300732522706197
392.0, 0.10232673901484293
393.0, 0.08991572998490192
394.0, 0.10744431397762623
395.0, 0.11411637952029807
396.0, 0.12002121026031462
397.0, 0.14965207893852844
398.0, 0.15429299859163578
399.0, 0.16561207507444867
400.0, 0.1823850102610745
401.0, 0.19414864543207816
402.0, 0.1985432798851148
403.0, 0.2177997181583442
404.0, 0.22105698736504648
405.0, 0.21645345804966995
406.0, 0.21712966544533666
407.0, 0.22394882146734105
408.0, 0.21346138160265007
409.0, 0.19567036969821047
410.0, 0.19132406515386793
411.0, 0.1918719636381208
412.0, 0.18104317230067477
413.0, 0.17630149656029323
414.0, 0.16999095184465132
415.0, 0.1757732158968845
416.0, 0.18727850897971993
417.0, 0.19118298908363748
418.0, 0.1980538190373581
419.0, 0.21853044526566873
420.0, 0.23445872159521516
421.0, 0.23993847948042032
422.0, 0.24246515606135893
423.0, 0.25833023774764546
424.0, 0.2642052129473105
425.0, 0.27640948282845695
426.0, 0.2898929814422978
427.0, 0.29811517986978303
428.0, 0.31437722228171555
429.0, 0.32186179600512843
430.0, 0.32188699703107354
431.0, 0.3274707258915659
432.0, 0.3373391803117152
433.0, 0.3282374980446954
434.0, 0.3152030340864497
435.0, 0.301868469920336
436.0, 0.2847887886265171
437.0, 0.2644222780331686
438.0, 0.24582931463396754
439.0, 0.21525464806070121
440.0, 0.201274021613895
441.0, 0.18515243082194008
442.0, 0.1623939097319097
443.0, 0.1527075849416332
444.0, 0.12228605308651272
445.0, 0.10072192410456696
446.0, 0.08440207038137544
447.0, 0.06970484147061065
448.0, 0.061168972432700405
449.0, 0.04780217065309435
450.0, 0.03499786489995595
451.0, 0.02529874164185101
452.0, 0.020174246385380956
453.0, 0.019380858475600893
454.0, 0.019253379029339854
455.0, 0.019082768813920698
456.0, 0.012090227109849486
457.0, 0.0041144532513669495
458.0, 0.004401575062569425
459.0, 0.008240294359212657
460.0, 0.0034775855799972447
461.0, 0.013892533965613543
462.0, 0.022416945189857682
463.0, 0.023724447454168143
464.0, 0.0010967866105470073
465.0, 0.007031323585264755
466.0, 0.022163478969915596
467.0, 0.01927773271368563
468.0, 0.0022311020865061902
469.0, 0.007114777795133963
470.0, 0.018582141934765515
471.0, 0.011131892523954665
472.0, 0.0018254801046730363
473.0, 0.0014237671817500341
474.0, 0.0026662086185938946
475.0, 0.0016252856341380131
476.0, 0.006784749197756176
477.0, 0.01481424026390089
478.0, 0.023508392016042094
479.0, 0.03028039544922109
480.0, 0.0406474299710897
481.0, 0.05458439445317748
482.0, 0.0683857789451087
483.0, 0.08490836413406347
484.0, 0.10646835589255527
485.0, 0.1291842802798883
486.0, 0.14761284716476547
487.0, 0.16998772107668497
488.0, 0.20021525881424165
489.0, 0.2288334725552068
490.0, 0.2411311698472067
491.0, 0.2649308803590326
492.0, 0.30028580084177847
493.0, 0.3349125673616875
494.0, 0.3627018981076189
495.0, 0.3849275676805829
496.0, 0.40422083955264854
497.0, 0.4486841620885377
498.0, 0.4826710446886379
499.0, 0.5124485155975994
500.0, 0.5509811773650645
501.0, 0.5818104667174681
502.0, 0.6242193487437377
503.0, 0.6543822299191967
504.0, 0.6846337181714782
505.0, 0.7182076516986357
506.0, 0.7445699586706133
507.0, 0.7786151514853993
508.0, 0.801976714418958
509.0, 0.8256270094521206
510.0, 0.8495806777529392
511.0, 0.8646013848258686
512.0, 0.8731447788328113
513.0, 0.8751840876798037
514.0, 0.8659666666770433
515.0, 0.8522057649152356
516.0, 0.841191125799911
517.0, 0.8331930905638646
518.0, 0.8071338855348551
519.0, 0.7928400795786488
520.0, 0.7872126529556775
521.0, 0.7821641540932088
522.0, 0.7765808324758542
523.0, 0.7719059761291619
524.0, 0.7370605444029568
525.0, 0.72002039409302
526.0, 0.7237067036306303
527.0, 0.7193089066141856
528.0, 0.6961143705578146
529.0, 0.6884673858567869
530.0, 0.6817110250205979
531.0, 0.6768266417990606
532.0, 0.6713244025247833
533.0, 0.660001864167826
534.0, 0.6587335858948108
535.0, 0.6541810280324731
536.0, 0.645474703061217
537.0, 0.6383963901802765
538.0, 0.634977071118688
539.0, 0.6317716448813603
540.0, 0.6251747135856266
541.0, 0.6148915920238487
542.0, 0.6095618885016987
543.0, 0.6124444322072692
544.0, 0.6147610480667004
545.0, 0.5976091134264908
546.0, 0.5805217789034685
547.0, 0.5850258295488812
548.0, 0.5893635880255383
549.0, 0.5779474740293502
550.0, 0.5735484311072057
551.0, 0.5615928227175888
552.0, 0.549336854487942
553.0, 0.5397598804367627
554.0, 0.5324288546812347
555.0, 0.5267921476506745
556.0, 0.5235119071717316
557.0, 0.5157138822543655
558.0, 0.5107232130004069
559.0, 0.5102138558806244
560.0, 0.5043383234193543
561.0, 0.48650219943314515
562.0, 0.5016835575813186
563.0, 0.49528853816059243
564.0, 0.48816230284850143
565.0, 0.4853597503265528
566.0, 0.47854028576632596
567.0, 0.47799888296771437
568.0, 0.47050334627572554
569.0, 0.45581703467983625
570.0, 0.4499760684747671
571.0, 0.4551380150581802
572.0, 0.4574499745980658
573.0, 0.45181753418634724
574.0, 0.446105333106035
575.0, 0.43221682885542084
576.0, 0.41134038607866136
577.0, 0.3919614248612622
578.0, 0.38089864011900615
579.0, 0.36803453514352746
580.0, 0.36336958857917007
581.0, 0.33608394042924367
582.0, 0.29409457505986214
583.0, 0.26346029385372416
584.0, 0.2372217387852601
585.0, 0.1984272145240854
586.0, 0.17297185717356295
587.0, 0.14632133035658265
588.0, 0.11214766248696004
589.0, 0.08309814422258448
590.0, 0.06120728584122741
591.0, 0.0332214926733371
592.0, 0.02356802597760111
593.0, 0.01359452827965176
594.0, 0.006284641703509215
595.0, 0.014667738022742861
596.0, 0.017641892878413865
597.0, 0.027397436451015816
598.0, 0.0318465086710253
599.0, 0.02677937797016948
600.0, 0.02090342698043725
601.0, 0.026439685149793207
602.0, 0.019438421244272575
603.0, 0.011309332302956164
604.0, 0.0022806589454717383
605.0, 0.009551051080485611
606.0, 0.02644046621772505
607.0, 0.05400724709586302
608.0, 0.062486625033630304
609.0, 0.06936509960797119
610.0, 0.1108131552052496
611.0, 0.1536119412995633
612.0, 0.15241152343160647
613.0, 0.1576995686720227
614.0, 0.17733730039970041
615.0, 0.19068165199474618
616.0, 0.20548224291693626
617.0, 0.22613876013354423
618.0, 0.24489503061712445
619.0, 0.2621551634060982
620.0, 0.2629655963392771
621.0, 0.27114921548163157
622.0, 0.2813412695738079
623.0, 0.28318765704009413
624.0, 0.27926632825552367
625.0, 0.28699413788394484
626.0, 0.28565724327317543
627.0, 0.27591784093871746
628.0, 0.2713121811697438
629.0, 0.27207891555226016
630.0, 0.2629714465457575
631.0, 0.25101497933609007
632.0, 0.23975778721154925
633.0, 0.22624985350763638
634.0, 0.21452420944452555
635.0, 0.20781251869982645
636.0, 0.20384503821990646
637.0, 0.18754766493213115
638.0, 0.1837258579006487
639.0, 0.1883324396888197
640.0, 0.1824651014217602
641.0, 0.16554073999363506
642.0, 0.16061123604043942
643.0, 0.1586060717565099
644.0, 0.15327004663121918
645.0, 0.157145483987518
646.0, 0.166219298741166
647.0, 0.17206863867187114
648.0, 0.1751617602312471
649.0, 0.1770987879133999
650.0, 0.19057194365141333
651.0, 0.197688817318769
652.0, 0.2096172574047698
653.0, 0.22886452444440172
654.0, 0.23360231247527893
655.0, 0.2505540710747133
656.0, 0.26197127695772143
657.0, 0.2759250918534961
658.0, 0.285512048495041
659.0, 0.294052732229803
660.0, 0.32114581724717217
661.0, 0.34380082203424667
662.0, 0.3651055737320152
663.0, 0.3817708519429256
664.0, 0.3944592050079326
665.0, 0.40344403441243076
666.0, 0.40392668823033845
667.0, 0.3868391856861843
668.0, 0.38000276174047193
669.0, 0.3586845697260688
670.0, 0.3198422136390464
671.0, 0.2786347638466939
672.0, 0.24703329340229888
673.0, 0.2184809773229361
674.0, 0.17826116537686174
675.0, 0.15888062352289964
676.0, 0.1319394869522603
677.0, 0.09339711251273985
678.0, 0.07024282536165487
679.0, 0.06316900533025183
680.0, 0.040582807354936426
681.0, 0.026588925850919397
682.0, 0.01860872442306171
683.0, 0.014166688904851326
684.0, 0.011664521946018865
685.0, 0.002450128341846421
686.0, 0.0011895554109217653
687.0, 0.008317452641897455
688.0, 0.00831030708219967
689.0, 0.004835888131166396
690.0, 0.009446250158415383
691.0, 0.016903501674922453
692.0, 0.012688162204718977
693.0, 0.010164501644313947
694.0, 0.002390929866226481
695.0, 0.004069419010498331
696.0, 0.002008000934832991
697.0, 0.007679193564825515
698.0, 0.011332532279373607
699.0, 0.017426630256016862
700.0, 0.020288181774760064
701.0, 0.02587408779149472
702.0, 0.031532511622036206
703.0, 0.031049129190471255
704.0, 0.040192225895601924
705.0, 0.051468774194951765
706.0, 0.06336798891405933
707.0, 0.06833862406419637
708.0, 0.07038972903026953
709.0, 0.07497823553180748
710.0, 0.07726076487493537
711.0, 0.09870364253452939
712.0, 0.10140399171798244
713.0, 0.1088388996329143
714.0, 0.11768715252298516
715.0, 0.11848703724369843
716.0, 0.12436102865556872
717.0, 0.13658889552468043
718.0, 0.13670910935089167
719.0, 0.1394007435025758
720.0, 0.14610451026315288
721.0, 0.15064652703409434
722.0, 0.1529631879167769
723.0, 0.16302904857008843
724.0, 0.17055082856266393
725.0, 0.17657603343996234
726.0, 0.16960808133999988
727.0, 0.16487172250266222
728.0, 0.1746260326514513
729.0, 0.1812232804152696
730.0, 0.1888492694413546
731.0, 0.18023264828533303
732.0, 0.1848810985755411
733.0, 0.18429262723503226
734.0, 0.17648808007514896
735.0, 0.1832101901250341
736.0, 0.1842830798201241
737.0, 0.17700681439045152
738.0, 0.16746386035456098
739.0, 0.17421271366278732
740.0, 0.1745666123459115
741.0, 0.16057859908432018
742.0, 0.1687663701618848
743.0, 0.15702304158203131
744.0, 0.1594602032366916
745.0, 0.1544061549160915
746.0, 0.14663588865757374
747.0, 0.1472264065141316
748.0, 0.15281923883874743
749.0, 0.15486250359129206
750.0, 0.15348513412694414
751.0, 0.15488268796419835
752.0, 0.14913408770137318
753.0, 0.13941035338998722
754.0, 0.13438002445717212
755.0, 0.1313371203812619
756.0, 0.12361893359392459
757.0, 0.13410016112174314
758.0, 0.13478597481735866
759.0, 0.1235097959405478
760.0, 0.11550107443121072
761.0, 0.11937564100504798
762.0, 0.12496500313788311
763.0, 0.12032507410920734
764.0, 0.11322638892230556
765.0, 0.10895041581573896
766.0, 0.10823086122130385
767.0, 0.10612245992637898
768.0, 0.09869722210683805
769.0, 0.09650838500948108
770.0, 0.09194406605055189
771.0, 0.10081502454096301
772.0, 0.10047548326759201
773.0, 0.09565938856763272
774.0, 0.0966221524491802
775.0, 0.09134181376184543
776.0, 0.08975612880499372
777.0, 0.08104154680330869
778.0, 0.075901113013453
779.0, 0.08023314132512017
780.0, 0.07862678869902294
781.0, 0.06905690513927078
782.0, 0.07575957602868809
783.0, 0.07915463871756319
784.0, 0.06995344122286298
785.0, 0.07036462864191055
786.0, 0.07106349530919893
787.0, 0.06562158654786612
788.0, 0.0633920506995559
789.0, 0.0669139079921966
790.0, 0.051836959686627174
791.0, 0.043940663500717944
792.0, 0.047374534514506905
793.0, 0.04578086337667786
794.0, 0.038389938532497205
795.0, 0.03820849656287259
796.0, 0.03889240730311254
797.0, 0.032947068588459555
798.0, 0.03177163051025991
799.0, 0.0392123409710658
800.0, 0.034772079472099
801.0, 0.023991094985026405
802.0, 0.02982713263121634
803.0, 0.021717827132568614
804.0, 0.0172900689138606
805.0, 0.01260131800243423
806.0, 0.017580594908035933
807.0, 0.019301684142828866
808.0, 0.016433887635192566
809.0, 0.019307006871419147
810.0, 0.007060785469696396
811.0, 0.011670388438991524
812.0, 0.010186274777844919
813.0, 0.0034095615130460178
814.0, 0.0022963756081971634
815.0, 0.002204958803347188
816.0, 0.007954173558001942
817.0, 0.0016695714150235322
818.0, 0.0006376621043561361
819.0, 0.004626106551654308
820.0, 0.0024392386311238804
821.0, 0.003116177430396975
822.0, 0.005058182721203307
823.0, 0.0037855869076390955
824.0, 0.0006430955760226738
825.0, 0.011121625600373396
826.0, 0.006747853454395476
827.0, 0.009022157876401198
828.0, 0.014799105246853874
829.0, 0.012674007889599413
830.0, 0.005405375779868548
831.0, 0.006538095805564047
832.0, 0.009473699285000636
833.0, 0.005196227912218257
834.0, 0.0005689830797755433
835.0, 0.0007619240928901159
836.0, 0.0015701169772081283
837.0, 0.006082570721622583
838.0, 0.0029771753276729034
839.0, 0.00521308727325054
840.0, 0.003617807981650837
841.0, 0.00599348607594378
842.0, 0.01084126162662623
843.0, 0.01610270459444016
844.0, 0.02091790007827608
845.0, 0.02100061333677493
846.0, 0.01862984611789414
847.0, 0.038831112495960884
848.0, 0.03655977256333703
849.0, 0.03007619696743804
850.0, 0.03240782110415141
851.0, 0.040962603403991424
852.0, 0.054205946936997734
853.0, 0.054543402573528986
854.0, 0.06898986851098726
855.0, 0.0701870885028121
856.0, 0.073713791556137
857.0, 0.08312515271031705
858.0, 0.09426408858960063
859.0, 0.10368960979516914
860.0, 0.10345467993716348
861.0, 0.10454849470889557
862.0, 0.11900532133563432
863.0, 0.12738299451830895
864.0, 0.1318813381440091
865.0, 0.13687318586647362
866.0, 0.13968402921590814
867.0, 0.14222941203637546
868.0, 0.15830992895949245
869.0, 0.16441363739897252
870.0, 0.16513400908203052
871.0, 0.17211623116256827
872.0, 0.17494094983394204
873.0, 0.18233050497050327
874.0, 0.20355755466144523
875.0, 0.1866401525893988
876.0, 0.18514879429185047
877.0, 0.19720003102722367
878.0, 0.20066096312849144
879.0, 0.19777393034116325
880.0, 0.19714950965099218
881.0, 0.2046694745950893
882.0, 0.21680687070449475
883.0, 0.20663955336736858
884.0, 0.21656611449711607
885.0, 0.216098382939081
886.0, 0.21606285074974982
887.0, 0.21929195737947169
888.0, 0.21940322414330682
889.0, 0.2226446137701119
890.0, 0.23528942797917046
891.0, 0.23434293379537505
892.0, 0.23899256301876137
893.0, 0.2402472847831167
894.0, 0.24560483240516365
895.0, 0.2550683130716481
896.0, 0.26513831048765923
897.0, 0.2779568523563252
898.0, 0.27256371842429017
899.0, 0.2852447645194796
900.0, 0.29192603211097096
901.0, 0.30241260605665576
902.0, 0.3146197320060975
903.0, 0.3304426747970702
904.0, 0.35126249221234174
905.0, 0.35959613764149256
906.0, 0.36705697935175596
907.0, 0.394582227235837
908.0, 0.4055089779489792
909.0, 0.43233521153415827
910.0, 0.45092490171361044
911.0, 0.4557926993703253
912.0, 0.47454959459348933
913.0, 0.4761916980722891
914.0, 0.4899854358103038
915.0, 0.5023297988259341
916.0, 0.51542281498862
917.0, 0.5269037303500653
918.0, 0.5305238014608734
919.0, 0.5301335146376226
920.0, 0.5333460509247279
921.0, 0.5316674519306808
922.0, 0.5393257678669252
923.0, 0.5337210719896398
924.0, 0.5306383319541166
925.0, 0.5322089625731589
926.0, 0.5286232850211983
927.0, 0.5145599128301912
928.0, 0.4974837652818161
929.0, 0.4906438544814053
930.0, 0.4793986712193218
931.0, 0.455332451310161
932.0, 0.44426629584902344
933.0, 0.428492188694997
934.0, 0.40081989389545997
935.0, 0.38042645216687154
936.0, 0.3724856035978681
937.0, 0.3397309982691916
938.0, 0.31991671799118204
939.0, 0.27962006627197583
940.0, 0.24522655310381347
941.0, 0.22515821555917512
942.0, 0.2076236605392947
943.0, 0.1869201771820398
944.0, 0.1660595607198061
945.0, 0.14177430781667943
946.0, 0.12545576255320953
947.0, 0.10186193111008048
948.0, 0.0861893970216775
949.0, 0.06838296266201987
950.0, 0.05801576940826808
951.0, 0.05319357095236463
952.0, 0.03670880536276044
953.0, 0.027570300171664112
954.0, 0.022073781936914838
955.0, 0.00983220704719656
956.0, 0.003730797756725801
957.0, 0.009650541723420811
958.0, 0.008702019379275604
959.0, 0.01118966279570936
960.0, 0.017444247369476796
961.0, 0.010766825525498498
962.0, 0.01492759933223983
963.0, 0.015685595935511363
964.0, 0.007483746176383487
965.0, 0.00914794894367339
966.0, 0.01094689042314713
967.0, 0.0055416974667827565
968.0, 0.012824209926985072
969.0, 0.0022723718324308474
970.0, 0.002669240762367112
971.0, 0.021483379390213036
972.0, 0.02026088062242956
973.0, 0.02550800389585232
974.0, 0.043154841729116544
975.0, 0.058299997025921334
976.0, 0.06655958560649106
977.0, 0.07376415372312622
978.0, 0.0799366301585403
979.0, 0.08789316501554019
980.0, 0.09136724207508365
981.0, 0.09995444493726431
982.0, 0.10658099684723399
983.0, 0.10996916312613002
984.0, 0.11862136553291809
985.0, 0.12612264554117564
986.0, 0.12069050490937816
987.0, 0.1306596430303435
988.0, 0.13643402363451937
989.0, 0.13800529312815896
990.0, 0.142358490929049
991.0, 0.14187993113715247
992.0, 0.14165945742890163
993.0, 0.1532879220753511
994.0, 0.1676060037311463
995.0, 0.1660481856953198
996.0, 0.1713673957622913
997.0, 0.16974616723213945
998.0, 0.16935490023349195
999.0, 0.1783884398890653
1000.0, 0.16996522811024142
1001.0, 0.16663846753423006
1002.0, 0.17933182949169457
1003.0, 0.17372536781757597
1004.0, 0.16229819450080288
1005.0, 0.16460046473794712
1006.0, 0.1542537194274787
1007.0, 0.15448269995899988
1008.0, 0.15388168870398825
1009.0, 0.15839904589335455
1010.0, 0.16014110702049314
1011.0, 0.15663907075742803
1012.0, 0.16813405203807594
1013.0, 0.1852859903617629
1014.0, 0.19995278362252678
1015.0, 0.22605619593160173
1016.0, 0.24011114704281353
1017.0, 0.2617253309956107
1018.0, 0.29190817791848417
1019.0, 0.3229855460595543
1020.0, 0.35715907754265486
1021.0, 0.3983719927103907
1022.0, 0.4402348755379749
1023.0, 0.48736179920837897
1024.0, 0.5238970300201121
1025.0, 0.5655638388650256
1026.0, 0.610887049928997
1027.0, 0.6646013017036647
1028.0, 0.7113030812243859
1029.0, 0.7400212080678826
1030.0, 0.7624430511678579
1031.0, 0.7754201120084857
1032.0, 0.8253430801216675
1033.0, 0.8208831185445787
1034.0, 0.8129291114512606
1035.0, 0.8046864007953953
1036.0, 0.8100576481035002
1037.0, 0.8052723838626128
1038.0, 0.7667633813940153
1039.0, 0.7206154790137623
1040.0, 0.6792873582712485
1041.0, 0.6389196952199275
1042.0, 0.5826365885534623
1043.0, 0.5215446002040356
1044.0, 0.4568605987858107
1045.0, 0.39388115465186235
1046.0, 0.3372064934856059
1047.0, 0.28305272994614195
1048.0, 0.2354152439300297
1049.0, 0.20374102885756082
1050.0, 0.16368198918712165
1051.0, 0.1343815390472922
1052.0, 0.10810276455548624
1053.0, 0.08155366032156201
1054.0, 0.06049606780850668
1055.0, 0.04506919781008502
1056.0, 0.03660238530670892
1057.0, 0.03124095093261206
1058.0, 0.021314885819930508
1059.0, 0.021588624988871166
1060.0, 0.011949062942104741
1061.0, 0.0015393814632889014
1062.0, 0.002587182460539562
1063.0, 0.0018637636220494784
1064.0, 0.0020771805359402133
1065.0, 0.004443944339778242
1066.0, 0.0031395103742617894
1067.0, 0.0034962773827715353
1068.0, 0.0062424327515580545
1069.0, 0.016653991995380854
1070.0, 0.01856564814744902
1071.0, 0.010793429662930447
1072.0, 0.017326983730168805
1073.0, 0.0228056512313375
1074.0, 0.02734109989872707
1075.0, 0.03485473298342615
1076.0, 0.04655495018969217
1077.0, 0.06285158359313972
1078.0, 0.07047602409925749
1079.0, 0.0816932896055287
1080.0, 0.08024046078466229
1081.0, 0.09841530200836698
1082.0, 0.10680260936454956
1083.0, 0.12125291223491227
1084.0, 0.1434144481643005
1085.0, 0.15301687066158132
1086.0, 0.15444192985043195
1087.0, 0.1736924794460668
1088.0, 0.18898876194795589
1089.0, 0.19138403044057734
1090.0, 0.19675914408733003
1091.0, 0.20065581074960898
1092.0, 0.23045250799776565
1093.0, 0.22922729430022662
1094.0, 0.20286785357944007
1095.0, 0.18866424849696858
1096.0, 0.1814669492503502
1097.0, 0.163731026947463
1098.0, 0.1504821032478705
1099.0, 0.141188529669518
1100.0, 0.14625264143761943
1101.0, 0.12339781885019589
1102.0, 0.09798496065239524
1103.0, 0.0885856762857647
1104.0, 0.07631388251192119
1105.0, 0.06684184815080808
1106.0, 0.06571637793919931
1107.0, 0.05298517426699738
1108.0, 0.04207091297122192
1109.0, 0.04636023600797193
1110.0, 0.04213837973770698
1111.0, 0.029505145222912567
1112.0, 0.027720340853051913
1113.0, 0.03909360775604284
1114.0, 0.029493335841933803
1115.0, 0.011680137692161445
1116.0, 0.007533145540019408
1117.0, 0.002277104970724028
1118.0, 0.004371752934342005
1119.0, 0.00928190358927035
1120.0, 0.0056064987751472655
1121.0, 0.00472080327135802
1122.0, 0.002086464097617288
1123.0, 0.006900704964083583
1124.0, 0.004882587629372905
1125.0, 0.0014269528298539965
1126.0, 0.0031130640677680785
1127.0, 0.0024408106153159144
1128.0, 0.003424617241204328
1129.0, 0.004079101670547361
1130.0, 0.01897875677212298
1131.0, 0.009671390396424626
1132.0, 0.015282774549958007
1133.0, 0.005956424767763138
1134.0, 0.005050615586750646
1135.0, 0.0006515757288615292
1136.0, 0.0030461440909453318
1137.0, 0.0018399722773414942
1138.0, 0.0007008124102089426
1139.0, 0.0016521815174392147
1140.0, 0.005493002200271161
1141.0, 0.0022936611776395695
1142.0, 0.0032232299351992893
1143.0, 0.00405671328214856
1144.0, 0.0035780351107585337
1145.0, 0.009226548209228773
1146.0, 0.0032870119934527847
1147.0, 0.002337970049049791
1148.0, 0.00995431048274328
1149.0, 0.013040963957394625
1150.0, 0.012804505540538687
1151.0, 0.009935362189971361
1152.0, 0.00843005704953655
1153.0, 0.01383483056590123
1154.0, 0.012629868916714982
1155.0, 0.024372131856546474
1156.0, 0.028116545308415345
1157.0, 0.023151233584648413
1158.0, 0.02412150939946612
1159.0, 0.02782909319095461
1160.0, 0.026239798500171854
1161.0, 0.022238598046025033
1162.0, 0.017379110689148002
1163.0, 0.026033975324356202
1164.0, 0.02834679530530715
1165.0, 0.022409602852216277
1166.0, 0.020910290544768114
1167.0, 0.022275493411580905
1168.0, 0.02641831337772294
1169.0, 0.029217977256687688
1170.0, 0.022588869446883184
1171.0, 0.02052544657739078
1172.0, 0.035371495600929524
1173.0, 0.03668073939566042
1174.0, 0.03476204248167037
1175.0, 0.04025077064382481
1176.0, 0.04519034837969747
1177.0, 0.04515543166371957
1178.0, 0.04162112460863982
1179.0, 0.042754741324306345
1180.0, 0.04254022642844051
1181.0, 0.03908712005111018
1182.0, 0.0394529578801795
1183.0, 0.0410943501544979
1184.0, 0.03692665127322305
1185.0, 0.03353859942657699
1186.0, 0.0413639403370873
1187.0, 0.045149805061840895
1188.0, 0.048569778137573155
1189.0, 0.04245572176505942
1190.0, 0.03618571318367886
1191.0, 0.035978758511692153
1192.0, 0.03890181480617148
1193.0, 0.03913286312964589
1194.0, 0.0364069090985816
1195.0, 0.036403371349004836
1196.0, 0.03488121120311451
1197.0, 0.02793078750057672
1198.0, 0.04070204548730998
1199.0, 0.029617035656835187
1200.0, 0.03272841027284214
1201.0, 0.026149074714268375
1202.0, 0.025384559476633272
1203.0, 0.038554464316298956
1204.0, 0.03827143017177608
1205.0, 0.03236582005506655
1206.0, 0.03285323610329919
1207.0, 0.0289363064269857
1208.0, 0.032657744110922086
1209.0, 0.035286104048124906
1210.0, 0.0324855990000204
1211.0, 0.021647985743781576
1212.0, 0.029841432713810956
1213.0, 0.03266737212675426
1214.0, 0.027554014327184382
1215.0, 0.024375737615447313
1216.0, 0.020535489309172088
1217.0, 0.0174291707291919
1218.0, 0.019684886884948453
1219.0, 0.025590843509022177
1220.0, 0.03154323394681481
1221.0, 0.03294641444435465
1222.0, 0.02308224982567603
1223.0, 0.02765678401128651
1224.0, 0.03087861945154376
1225.0, 0.02690896169476383
1226.0, 0.022519978939181413
1227.0, 0.020711349467911297
1228.0, 0.026747951024821467
1229.0, 0.023856675500511675
1230.0, 0.01805207966079658
1231.0, 0.018822870337116448
1232.0, 0.017774566030283576
1233.0, 0.018672581164059135
1234.0, 0.023004530517910626
1235.0, 0.01984911216933387
1236.0, 0.017120203500139243
1237.0, 0.018097024525918333
1238.0, 0.013791659043116406
1239.0, 0.009404084498118841
1240.0, 0.021982720345589186
1241.0, 0.027674625500925646
1242.0, 0.02134157003956376
1243.0, 0.01784956003410413
1244.0, 0.01731426476129619
1245.0, 0.014272616551687819
1246.0, 0.01498018277934546
1247.0, 0.019919011126150746
1248.0, 0.01608955482755337
1249.0, 0.020572263937076677
1250.0, 0.01881837480457269
1251.0, 0.01622623351205829
1252.0, 0.009669944912931161
1253.0, 0.019084762449469307
1254.0, 0.012399638756736608
1255.0, 0.01232062560376112
1256.0, 0.015985954703175882
1257.0, 0.010372537628908754
1258.0, 0.011171622088970391
1259.0, 0.01728153602276796
1260.0, 0.012839229120683871
1261.0, 0.01573548586495375
1262.0, 0.010274080632200507
1263.0, 0.007753453040545307
1264.0, 0.005231057684168842
1265.0, 0.008779416919982654
1266.0, 0.0054718892266990464
1267.0, 0.005366172518355017
1268.0, 0.008683042152361315
1269.0, 0.008989553856239691
1270.0, 0.007897706175891374
1271.0, 0.008583152241888192
1272.0, 0.00758659570017076
1273.0, 0.006778144486351231
1274.0, 0.014344341167261014
1275.0, 0.013299769924800866
1276.0, 0.002919765404118674
1277.0, 0.0039948760011278405
1278.0, 0.002516215826844919
1279.0, 0.005829482806014654
1280.0, 0.009499510828538884
1281.0, 0.010336887282273232
1282.0, 0.005048790041162649
1283.0, 0.009310087557058902
1284.0, 0.006928151021377685
1285.0, 0.00147291329151182
1286.0, 0.0016801952951912814
1287.0, 0.0006596514504682281
1288.0, 0.00231816712002485
1289.0, 0.0046199279515896415
1290.0, 0.006626754217581233
1291.0, 0.004282011811185353
1292.0, 0.004311529815350893
1293.0, 0.004531899575003758
1294.0, 0.00047180646841373354
1295.0, 0.0016979838803731278
1296.0, 0.004873584144847371
1297.0, 0.0011277186213140614
1298.0, 0.003153798802933932
1299.0, 0.006374458637412842
1300.0, 0.002367814658999828
1301.0, 0.0011825497487012269
1302, 0.0
1303, 0.0
1304, 0.0
1305, 0.0
1306, 0.0
1307, 0.0
1308, 0.0
1309, 0.0
1310, 0.0
1311, 0.0
1312, 0.0
1313, 0.0
1314, 0.0
1315, 0.0
1316, 0.0
1317, 0.0
1318, 0.0
1319, 0.0
1320, 0.0
1321, 0.0
1322, 0.0
1323, 0.0
1324, 0.0
1325, 0.0
1326, 0.0
1327, 0.0
1328, 0.0
1329, 0.0
1330, 0.0
1331, 0.0
1332, 0.0
1333, 0.0
1334, 0.0
1335, 0.0
1336, 0.0
1337, 0.0
1338, 0.0
1339, 0.0
1340, 0.0
1341, 0.0
1342, 0.0
1343, 0.0
1344, 0.0
1345, 0.0
1346, 0.0
1347, 0.0
1348, 0.0
1349, 0.0
1350, 0.0
1351, 0.0
1352, 0.0
1353, 0.0
1354, 0.0
1355, 0.0
1356, 0.0
1357, 0.0
1358, 0.0
1359, 0.0
1360, 0.0
1361, 0.0
1362, 0.0
1363, 0.0
1364, 0.0
1365, 0.0
1366, 0.0
1367, 0.0
1368, 0.0
1369, 0.0
1370, 0.0
1371, 0.0
1372, 0.0
1373, 0.0
1374, 0.0
1375, 0.0
1376, 0.0
1377, 0.0
1378, 0.0
1379, 0.0
1380, 0.0
1381, 0.0
1382, 0.0
1383, 0.0
1384, 0.0
1385, 0.0
1386, 0.0
1387, 0.0
1388, 0.0
1389, 0.0
1390, 0.0
1391, 0.0
1392, 0.0
1393, 0.0
1394, 0.0
1395, 0.0
1396, 0.0
1397, 0.0
1398, 0.0
1399, 0.0
1400, 0.0
1401, 0.0
1402, 0.0
1403, 0.0
1404, 0.0
1405, 0.0
1406, 0.0
1407, 0.0
1408, 0.0
1409, 0.0
1410, 0.0
1411, 0.0
1412, 0.0
1413, 0.0
1414, 0.0
1415, 0.0
1416, 0.0
1417, 0.0
1418, 0.0
1419, 0.0
1420, 0.0
1421, 0.0
1422, 0.0
1423, 0.0
1424, 0.0
1425, 0.0
1426, 0.0
1427, 0.0
1428, 0.0
1429, 0.0
1430, 0.0
1431, 0.0
1432, 0.0
1433, 0.0
1434, 0.0
1435, 0.0
1436, 0.0
1437, 0.0
1438, 0.0
1439, 0.0
1440, 0.0
1441, 0.0
1442, 0.0
1443, 0.0
1444, 0.0
1445, 0.0
1446, 0.0
1447, 0.0
1448, 0.0
1449, 0.0
1450, 0.0
1451, 0.0
1452, 0.0
1453, 0.0
1454, 0.0
1455, 0.0
1456, 0.0
1457, 0.0
1458, 0.0
1459, 0.0
1460, 0.0
1461, 0.0
1462, 0.0
1463, 0.0
1464, 0.0
1465, 0.0
1466, 0.0
1467, 0.0
1468, 0.0
1469, 0.0
1470, 0.0
1471, 0.0
1472, 0.0
1473, 0.0
1474, 0.0
1475, 0.0
1476, 0.0
1477, 0.0
1478, 0.0
1479, 0.0
1480, 0.0
1481, 0.0
1482, 0.0
1483, 0.0
1484, 0.0
1485, 0.0
1486, 0.0
1487, 0.0
1488, 0.0
1489, 0.0
1490, 0.0
1491, 0.0
1492, 0.0
1493, 0.0
1494, 0.0
1495, 0.0
1496, 0.0
1497, 0.0
1498, 0.0
1499, 0.0
1500, 0.0
1501, 0.0
1502, 0.0
1503, 0.0
1504, 0.0
1505, 0.0
1506, 0.0
1507, 0.0
1508, 0.0
1509, 0.0
1510, 0.0
1511, 0.0
1512, 0.0
1513, 0.0
1514, 0.0
1515, 0.0
1516, 0.0
1517, 0.0
1518, 0.0
1519, 0.0
1520, 0.0
1521, 0.0
1522, 0.0
1523, 0.0
1524, 0.0
1525, 0.0
1526, 0.0
1527, 0.0
1528, 0.0
1529, 0.0
1530, 0.0
1531, 0.0
1532, 0.0
1533, 0.0
1534, 0.0
1535, 0.0
1536, 0.0
1537, 0.0
1538, 0.0
1539, 0.0
1540, 0.0
1541, 0.0
1542, 0.0
1543, 0.0
1544, 0.0
1545, 0.0
1546, 0.0
1547, 0.0
1548, 0.0
1549, 0.0
1550, 0.0
1551, 0.0
1552, 0.0
1553, 0.0
1554, 0.0
1555, 0.0
1556, 0.0
1557, 0.0
1558, 0.0
1559, 0.0
1560, 0.0
1561, 0.0
1562, 0.0
1563, 0.0
1564, 0.0
1565, 0.0
1566, 0.0
1567, 0.0
1568, 0.0
1569, 0.0
1570, 0.0
1571, 0.0
1572, 0.0
1573, 0.0
1574, 0.0
1575, 0.0
1576, 0.0
1577, 0.0
1578, 0.0
1579, 0.0
1580, 0.0
1581, 0.0
1582, 0.0
1583, 0.0
1584, 0.0
1585, 0.0
1586, 0.0
1587, 0.0
1588, 0.0
1589, 0.0
1590, 0.0
1591, 0.0
1592, 0.0
1593, 0.0
1594, 0.0
1595, 0.0
1596, 0.0
1597, 0.0
1598, 0.0
1599, 0.0
