30, 0.0
31, 0.0
32, 0.0
33, 0.0
34, 0.0
35, 0.0
36, 0.0
37, 0.0
38, 0.0
39, 0.0
40, 0.0
41, 0.0
42, 0.0
43, 0.0
44, 0.0
45, 0.0
46, 0.0
47, 0.0
48, 0.0
49, 0.0
50, 0.0
51, 0.0
52, 0.0
53, 0.0
54, 0.0
55, 0.0
56, 0.0
57, 0.0
58, 0.0
59, 0.0
60, 0.0
61, 0.0
62, 0.0
63, 0.0
64, 0.0
65, 0.0
66, 0.0
67, 0.0
68, 0.0
69, 0.0
70, 0.0
71, 0.0
72, 0.0
73, 0.0
74, 0.0
75, 0.0
76, 0.0
77, 0.0
78, 0.0
79, 0.0
80, 0.0
81, 0.0
82, 0.0
83, 0.0
84, 0.0
85, 0.0
86, 0.0
87, 0.0
88, 0.0
89, 0.0
90, 0.0
91, 0.0
92, 0.0
93, 0.0
94, 0.0
95, 0.0
96.0, 0.00022166016706433702
97.0, 0.004484355687531808
98.0, 0.010782813027536309
99.0, 0.023470268880318758
100.0, 0.04348537638236865
101.0, 0.06889956809730646
102.0, 0.09181267928099603
103.0, 0.11654278298149376
104.0, 0.13221120539738487
105.0, 0.14189027984822802
106.0, 0.15106774436727147
107.0, 0.1641911819056415
108.0, 0.1802289930244242
109.0, 0.19020129146557524
110.0, 0.18883866033142527
111.0, 0.17862403851380915
112.0, 0.17010711594697175
113.0, 0.1707168686444102
114.0, 0.15805004193513417
115.0, 0.13932750207104172
116.0, 0.11906595827856728
117.0, 0.0998948593473933
118.0, 0.08177208445780992
119.0, 0.06572041500815322
120.0, 0.05219716194422019
121.0, 0.037936449397296367
122.0, 0.021548668406087886
123.0, 0.009143649289776479
124.0, 0.0043224046956097505
125.0, 0.0031434199141062193
126.0, 0.0033648015728720755
127.0, 0.003834063903525573
128.0, 0.004664345594772312
129.0, 0.005248608550701557
130.0, 0.003980595185443172
131.0, 0.0030936114968139034
132.0, 0.002517728356185231
133.0, 0.0015419205998962638
134.0, 0.003600207701644452
135.0, 0.001637657965518985
136.0, 0.005125271613920226
137.0, 0.010167317454124308
138.0, 0.012676219388786613
139.0, 0.015090872463308685
140.0, 0.01656951530430326
141.0, 0.016871491836444465
142.0, 0.015131386730479179
143.0, 0.012542657707587944
144.0, 0.0120931617699245
145.0, 0.01324857236882389
146.0, 0.011285324787923642
147.0, 0.010267759997804752
148.0, 0.011069417462111493
149.0, 0.012578170440427104
150.0, 0.01103613564914647
151.0, 0.00989060968329491
152.0, 0.010159122516320111
153.0, 0.008756889096590089
154.0, 0.005416002791223205
155.0, 0.0051241936546489114
156.0, 0.005863594978200173
157.0, 0.004198406268863181
158.0, 0.0037691907577409203
159.0, 0.004712572689315482
160.0, 0.005145226371462933
161.0, 0.005931944602125861
162.0, 0.006191327947582133
163.0, 0.008622034192849164
164.0, 0.0082108952374501
165.0, 0.004184298431666013
166.0, 0.009465597164315755
167.0, 0.006760971073266068
168.0, 0.005745239765936484
169.0, 0.0063212505120620035
170.0, 0.007131641674026413
171.0, 0.006876192020729935
172.0, 0.012875541363311961
173.0, 0.011547136913413443
174.0, 0.012063747111354415
175.0, 0.015507938844756628
176.0, 0.019376886269781138
177.0, 0.018368026583074678
178.0, 0.029620806782693933
179.0, 0.040222432039376824
180.0, 0.05330075197744523
181.0, 0.07254056676818142
182.0, 0.10205658630624258
183.0, 0.17152035004079172
184.0, 0.29403873870234476
185.0, 0.4538726522030973
186.0, 0.6110043131654711
187.0, 0.7093540719767103
188.0, 0.6662344989463175
189.0, 0.6344504295083377
190.0, 0.717732876035517
191.0, 0.8446071226288838
192.0, 0.9494344750837835
193.0, 0.9997033009275214
194.0, 0.9929601401893711
195.0, 0.9867770862098234
196.0, 0.9385529330660748
197.0, 0.8321520237154871
198.0, 0.673724038350635
199.0, 0.5016078635468653
200.0, 0.338459941773135
201.0, 0.21292788032869858
202.0, 0.1303946345649746
203.0, 0.08409737705902917
204.0, 0.05809950124796962
205.0, 0.04977025880048486
206.0, 0.03458959260572857
207.0, 0.026726453650617828
208.0, 0.022597857477882958
209.0, 0.017002828808779787
210.0, 0.017975916908901803
211.0, 0.015342758385443377
212.0, 0.011412698993484367
213.0, 0.011560167574662661
214.0, 0.015225093800250888
215.0, 0.016866908419139987
216.0, 0.016677297606846903
217.0, 0.01892139142681601
218.0, 0.020066965924601363
219.0, 0.018989491087107426
220.0, 0.017521515884806296
221.0, 0.022200193056696804
222.0, 0.026154501407086608
223.0, 0.028367236969814625
224.0, 0.025773276997992364
225.0, 0.023722436069253422
226.0, 0.029360265840515643
227.0, 0.026231205186921087
228.0, 0.031057113684181813
229.0, 0.03099872654315567
230.0, 0.030431130300916598
231.0, 0.029642596123625367
232.0, 0.01886257926318228
233.0, 0.01697601335258546
234.0, 0.013426331081394871
235.0, 0.01117011076143197
236.0, 0.009414280065530472
237.0, 0.006498717852968387
238.0, 0.003999335938212018
239.0, 0.005807117777635488
240.0, 0.00308522566708555
241.0, 0.003643935233067696
242.0, 0.007651497242343604
243.0, 0.007698222990279869
244.0, 0.011145689787688186
245.0, 0.007123277441210586
246.0, 0.005781844465427732
247.0, 0.007314296242663766
248.0, 0.00799418273812661
249.0, 0.002114993286107378
250.0, 0.002084810304132683
251.0, 0.0017551916264693787
252.0, 0.0019364329899008445
253.0, 0.0018536972725627997
254.0, 0.0005282151973191592
255.0, 4.3270223182413994e-05
256.0, 0.0006058493787990958
257.0, 0.0003447485247863976
258.0, 0.0007293688943194971
259.0, 0.002024133621129535
260.0, 0.0029035770029380934
261.0, 0.0034026596072277223
262.0, 0.004180719387276482
263.0, 0.002189194087259663
264.0, 0.002942438379766611
265.0, 0.006877184222993169
266.0, 0.0006068184915314929
267.0, 0.0009411660321153853
268.0, 0.003724641043085589
269.0, 0.003045252900080086
270.0, 0.000606508547882434
271.0, 0.0011324747947192542
272.0, 0.005233397195032463
273.0, 0.001497598348242906
274.0, 0.0009961758893915797
275.0, 0.0015173651466443402
276.0, 0.002749984308436977
277.0, 0.006058163036396276
278.0, 0.004115933923277329
279.0, 0.00600661346663193
280.0, 0.01358430391842039
281.0, 0.02437406580107239
282.0, 0.03351187612872495
283.0, 0.035247477399934384
284.0, 0.03852990388732603
285.0, 0.043533135531211596
286.0, 0.043275697311142135
287.0, 0.044929497787674126
288.0, 0.05336287591244172
289.0, 0.05596701817200775
290.0, 0.05197502886381172
291.0, 0.045057730430067305
292.0, 0.04241421236982524
293.0, 0.041909757644087935
294.0, 0.03697413830343895
295.0, 0.025775118729114165
296.0, 0.016671602509216447
297.0, 0.011693059253233464
298.0, 0.009660228501071977
299.0, 0.009035170077469958
300.0, 0.008420911340756653
301.0, 0.006648399899258523
302.0, 0.006638046322444993
303.0, 0.0055053328596392824
304.0, 0.004532815684946982
305.0, 0.004430970643323802
306.0, 0.004337517666967159
307.0, 0.004768861457297683
308.0, 0.0032565281612532988
309.0, 0.0015956781000231427
310.0, 0.0008564335236175158
311.0, 0.0010865288088639346
312.0, 0.0010116425237922879
313.0, 0.0008722378109962097
314.0, 0.0009853318006839316
315.0, 0.0016728312289001407
316.0, 0.0021015470959707032
317.0, 0.0016474705738258263
318.0, 0.0012463090818910125
319.0, 0.0024588612759206055
320.0, 0.0010409264429694937
321.0, 0.0006789970101294723
322.0, 0.0009669160876095264
323.0, 0.0007180777464213704
324.0, 0.003762707973077568
325.0, 0.004715393434450216
326.0, 0.007421494013848957
327.0, 0.011311121935921677
328.0, 0.013163303716472601
329.0, 0.01202863505070859
330.0, 0.02279577367672088
331.0, 0.01748440809903427
332.0, 0.018030015508133393
333.0, 0.018853756492156003
334.0, 0.018599911253618793
335.0, 0.02032546518725483
336.0, 0.019348034686726977
337.0, 0.012907867198729083
338.0, 0.010753742222337982
339.0, 0.011987936796062536
340.0, 0.013912221339626165
341.0, 0.01495331830464296
342.0, 0.0227105981930088
343.0, 0.019514908786687366
344.0, 0.021372404668305256
345.0, 0.02724245510713712
346.0, 0.03233165289351693
347.0, 0.03302952142948805
348.0, 0.040892932240821606
349.0, 0.05911883158411678
350.0, 0.06982444233634064
351.0, 0.08023233407360525
352.0, 0.0983436824816202
353.0, 0.12488918509696083
354.0, 0.14725966687821712
355.0, 0.16801629170247748
356.0, 0.18724690181241424
357.0, 0.20084113032822565
358.0, 0.20822703531911105
359.0, 0.21460687286438523
360.0, 0.2253675767572651
361.0, 0.2280294705348319
362.0, 0.2267341923052767
363.0, 0.21501266896119062
364.0, 0.19266624404715077
365.0, 0.17024213734808316
366.0, 0.1460216183756641
367.0, 0.11713571363019895
368.0, 0.09386154304609692
369.0, 0.07727180965551446
370.0, 0.06372977577695281
371.0, 0.047978438603414136
372.0, 0.03980585802854618
373.0, 0.03370911139939729
374.0, 0.030193282215842082
375.0, 0.027005866751332024
376.0, 0.024368915253741127
377.0, 0.025800651892051038
378.0, 0.02495053386367517
379.0, 0.025354543654338618
380.0, 0.022597465849793327
381.0, 0.02094177445469095
382.0, 0.021967920257684924
383.0, 0.021298867596602357
384.0, 0.014900727603353328
385.0, 0.012480453892472428
386.0, 0.013593785434906297
387.0, 0.011688622564430652
388.0, 0.0083416857750994
389.0, 0.012781821388329447
390.0, 0.008362617133753832
391.0, 0.010796691238675701
392.0, 0.007360419338059345
393.0, 0.0047379891925246635
394.0, 0.005671661999061422
395.0, 0.005611562910263593
396.0, 0.004718804929632071
397.0, 0.007218822087130532
398.0, 0.0033982897175719668
399.0, 0.0002896811784596615
400.0, 0.0015638003133831135
401.0, 0.005056962129176899
402.0, 0.007712240129967082
403.0, 0.0018110078053453806
404.0, 0.005497592310184249
405.0, 0.006669411366571223
406.0, 0.003555096060264019
407.0, 0.002663821472233982
408.0, 0.0005707949959042559
409.0, 0.0008664839781814582
410.0, 0.0005394941066065753
411.0, 0.002057694775520015
412.0, 0.0030937208435845662
413.0, 0.0011054151512035855
414.0, 0.0022654915049974238
415.0, 0.0072662066549589715
416.0, 0.00673705067934814
417.0, 0.006775137254242618
418.0, 0.005156621414670402
419.0, 0.0015413957904224685
420.0, 0.008631328523002295
421.0, 0.006092208881030917
422.0, 0.013135591483719771
423.0, 0.022631718773328653
424.0, 0.028551676725134433
425.0, 0.02990584023220939
426.0, 0.032744495339117594
427.0, 0.04001416423143116
428.0, 0.03998113145718337
429.0, 0.047019005990352684
430.0, 0.05144384432023002
431.0, 0.048380794553116904
432.0, 0.04646323396895938
433.0, 0.049856870627801746
434.0, 0.046539576123431826
435.0, 0.03943526928620488
436.0, 0.03181477142083564
437.0, 0.026887945328286558
438.0, 0.025173134894061353
439.0, 0.016956749321608552
440.0, 0.020731438936952194
441.0, 0.020805466295240216
442.0, 0.016084458708917056
443.0, 0.014101736632805215
444.0, 0.019415328854545298
445.0, 0.016013645622396103
446.0, 0.030565835996470215
447.0, 0.030490395986652836
448.0, 0.029666493980966956
449.0, 0.03043087436979974
450.0, 0.030903402894461827
451.0, 0.03196533038537124
452.0, 0.03230682297303282
453.0, 0.033386060331474184
454.0, 0.03200468817932698
455.0, 0.03066201024565534
456.0, 0.030989574537425714
457.0, 0.031326741974289016
458.0, 0.027864327603649833
459.0, 0.037250151457044044
460.0, 0.0370983811599872
461.0, 0.03951938799300063
462.0, 0.047710637944670974
463.0, 0.05325343687243408
464.0, 0.04632895051822378
465.0, 0.05242313439631684
466.0, 0.0592714611948751
467.0, 0.059924932057537406
468.0, 0.05998873194618863
469.0, 0.061938674301084004
470.0, 0.051949828373958125
471.0, 0.05035171639670576
472.0, 0.0409486481171429
473.0, 0.034226182072646646
474.0, 0.02784437269866498
475.0, 0.018796564332575198
476.0, 0.008805031839624883
477.0, 0.006456384989828934
478.0, 0.011905483565636475
479.0, 0.007104259844863585
480.0, 0.0026267190837683347
481.0, 0.004659942905304676
482.0, 0.010006113848518572
483.0, 0.006754791803826879
484.0, 0.004559964422595288
485.0, 0.002150353865455404
486.0, 0.004881760555865407
487.0, 0.010928571947774478
488.0, 0.014192458854267453
489.0, 0.009024988719215483
490.0, 0.009169578233760575
491.0, 0.004447743421138415
492.0, 0.006305885995018836
493.0, 0.008685752363151809
494.0, 0.009363100341362694
495.0, 0.010446922346193594
496.0, 0.00588562692364102
497.0, 0.012738237212697272
498.0, 0.007364434719477167
499.0, 0.005210781145126742
500.0, 0.007398086813267734
501.0, 0.00990483307729329
502.0, 0.013667939852563996
503.0, 0.009893846855163077
504.0, 0.01170134811689291
505.0, 0.010548852457207712
506.0, 0.010161217003099939
507.0, 0.012189030014111401
508.0, 0.012973411660163626
509.0, 0.006383552948058396
510.0, 0.007795012966771704
511.0, 0.015159704119965185
512.0, 0.017640526934356936
513.0, 0.01159431120482049
514.0, 0.004887396653470523
515.0, 0.01401542499944914
516.0, 0.007650318198767707
517.0, 0.007903439731670726
518.0, 0.01165778469241526
519.0, 0.011342463268588067
520.0, 0.00717557822926635
521.0, 0.005141537571387701
522.0, 0.0031919599998737787
523.0, 0.007566940521073179
524.0, 0.010517196852973403
525.0, 0.006629151245426624
526.0, 0.005099077733716228
527.0, 0.008347489572550737
528.0, 0.0021610729843626413
529.0, 0.005096459843587024
530.0, 0.002123094735305713
531.0, 0.0006620062455572863
532.0, 0.004723713698641656
533.0, 0.008877174203417763
534.0, 0.006166791917595554
535.0, 0.003266348811891814
536.0, 0.0006979722066060067
537.0, 0.005209729444641369
538.0, 0.003865251814702794
539.0, 0.002669034568485649
540.0, 0.00463010454444624
541.0, 0.0037858947146169374
542.0, 0.007046141119645901
543.0, 0.003363400450626119
544.0, 0.0008857943843414212
545.0, 0.0030802733754820874
546.0, 0.006988394063360879
547.0, 0.00883836599168671
548.0, 0.009528779720525224
549.0, 0.007653587041036323
550.0, 0.008021809120783614
551.0, 0.007950744701816366
552.0, 0.007205302007627025
553.0, 0.006384095530980432
554.0, 0.006019543000803307
555.0, 0.005658170781283632
556.0, 0.0025318370445520048
557.0, 0.00177291378982098
558.0, 0.00104290574261616
559.0, 0.0016557664179101886
560.0, 0.0024872089452517257
561.0, 0.0006289240370837225
562.0, 0.004536838248595159
563.0, 0.0035621012456883996
564.0, 0.003863328924105343
565.0, 0.002870855485163448
566.0, 0.0028853966358834138
567.0, 0.004805113342344613
568.0, 0.0038055212495857905
569.0, 0.0004202354878794568
570.0, 0.002468618135897347
571.0, 0.0070813739230428914
572.0, 0.009847217198697475
573.0, 0.00831616537108324
574.0, 0.0038567535045422336
575.0, 0.0018903498444539646
576.0, 0.0010643566139004834
577.0, 0.0018779910118919604
578.0, 0.0026069853074239726
579.0, 0.003601583687062915
580.0, 0.004676586213156406
581.0, 0.004625086037190928
582.0, 0.0019162967635523542
583.0, 0.004646919504736682
584.0, 0.007951801239729753
585.0, 0.004167402821204246
586.0, 0.0008165392474939273
587.0, 0.0016506059234855678
588.0, 0.0022355428314742476
589.0, 0.00038245429718038247
590.0, 0.0019870084322215703
591.0, 0.0011902511805659416
592.0, 0.0023136173536071484
593.0, 0.002928143231289256
594.0, 0.0018828499928529884
595.0, 0.0019531867444786033
596.0, 0.0020185326119970645
597.0, 0.004487651633394219
598.0, 0.007826031029278676
599.0, 0.009248062521445966
600.0, 0.008836999077930518
601.0, 0.009069653903086766
602.0, 0.011975276037987238
603.0, 0.009871731810619039
604.0, 0.01159744799053298
605.0, 0.010479840841210324
606.0, 0.008619183492099643
607.0, 0.006736294211123214
608.0, 0.0043923023647831315
609.0, 0.0014833961663584653
610.0, 0.0009775027540857163
611.0, 0.0036834046712173056
612.0, 0.0025008693883260334
613.0, 0.005091776076073434
614.0, 0.011457341038839877
615.0, 0.01436240858896596
616.0, 0.007058225511818793
617.0, 0.00858527316030359
618.0, 0.01556101999398692
619.0, 0.014613340778953482
620.0, 0.009418437258766652
621.0, 0.006845036326817275
622.0, 0.01064518663478993
623.0, 0.01706874260063926
624.0, 0.011133304968782582
625.0, 0.018514413622448864
626.0, 0.01886092119558776
627.0, 0.019720428820999284
628.0, 0.02075007327504078
629.0, 0.020451563468559017
630.0, 0.022638016714404158
631.0, 0.019041224341044546
632.0, 0.01659380968407007
633.0, 0.01830767799502164
634.0, 0.01546192583853317
635.0, 0.01380577528642929
636.0, 0.017099105899131283
637.0, 0.017334835072929412
638.0, 0.021789520718236415
639.0, 0.021686304157171828
640.0, 0.022155854045470973
641.0, 0.02209091632330074
642.0, 0.02055099160543638
643.0, 0.02152387637867178
644.0, 0.030421801774760764
645.0, 0.03192252171836877
646.0, 0.03198029752571802
647.0, 0.030705017056298328
648.0, 0.02889605138280321
649.0, 0.032056406288616425
650.0, 0.039101232682370264
651.0, 0.04222917531738194
652.0, 0.044575617883927825
653.0, 0.04030709533996695
654.0, 0.052874274731210064
655.0, 0.055969852749359825
656.0, 0.059670482808103456
657.0, 0.07051776933019331
658.0, 0.08105257429878698
659.0, 0.09016623199796633
660.0, 0.10149415550196571
661.0, 0.11340710860536952
662.0, 0.13432132050412668
663.0, 0.15962117289633626
664.0, 0.19099952212897484
665.0, 0.23170638704906782
666.0, 0.27237664749829715
667.0, 0.32498308430006656
668.0, 0.3886935801056908
669.0, 0.4588208808934792
670.0, 0.5283133012016703
671.0, 0.594567477891008
672.0, 0.6551881902974203
673.0, 0.7038825325077662
674.0, 0.7425920742466973
675.0, 0.7649753255865793
676.0, 0.7656008408257639
677.0, 0.7478018850278031
678.0, 0.710896359815107
679.0, 0.6525656012663289
680.0, 0.5765753061546479
681.0, 0.5070603590728312
682.0, 0.436189221667934
683.0, 0.3639987052685079
684.0, 0.3019715395076964
685.0, 0.2565061561557969
686.0, 0.22035009449552065
687.0, 0.1841089701667254
688.0, 0.16082291932457793
689.0, 0.13226770313105557
690.0, 0.11624314848969074
691.0, 0.09988087264026427
692.0, 0.08568659008527156
693.0, 0.07595371870958895
694.0, 0.06938007027019345
695.0, 0.06271617102404495
696.0, 0.054204742611215516
697.0, 0.04833814120806155
698.0, 0.04058408570639568
699.0, 0.03744114255643112
700.0, 0.03664659110533095
701.0, 0.03397360106046167
702.0, 0.029382121090081058
703.0, 0.02596528649428086
704.0, 0.026180251788499562
705.0, 0.02331407586103456
706.0, 0.02133544364067295
707.0, 0.018565758719165118
708.0, 0.01580207763706071
709.0, 0.0161437037353267
710.0, 0.01927754437809958
711.0, 0.011586121041167958
712.0, 0.00847691331890816
713.0, 0.014262525635211418
714.0, 0.011996777726854074
715.0, 0.005365547068489087
716.0, 0.003912456848303626
717.0, 0.007273375430565325
718.0, 0.00921260363332143
719.0, 0.01021429649281663
720.0, 0.010456946389266798
721.0, 0.0060346161362413225
722.0, 0.005751826245818961
723.0, 0.0116752329692834
724.0, 0.015029812968014509
725.0, 0.006422460132091266
726.0, 0.012594974127131904
727.0, 0.00572853302541582
728.0, 0.008891880952930952
729.0, 0.00956616911988316
730.0, 0.01006406711058285
731.0, 0.013042638336598897
732.0, 0.01251954917298541
733.0, 0.007819562619089409
734.0, 0.00730747014115443
735.0, 0.005617073029991087
736.0, 0.006445545780562561
737.0, 0.005545414381700741
738.0, 0.004077494849556774
739.0, 0.006007609935186224
740.0, 0.00968036673504595
741.0, 0.0027338162624261537
742.0, 0.0032262212195118393
743.0, 0.0032050310364200997
744.0, 0.00631230053188078
745.0, 0.01037488013613068
746.0, 0.009250643540952579
747.0, 0.004460660421544214
748.0, 0.014075981411363838
749.0, 0.005564490304146796
750.0, 0.010301053767159507
751.0, 0.007158260162454126
752.0, 0.002589215589855544
753.0, 0.002813746555861884
754.0, 0.004591562027226732
755.0, 0.0020036098583358472
756.0, 0.008197178795495676
757.0, 0.011245970121777499
758.0, 0.003323098858842
759.0, 0.00284110960688481
760.0, 0.003098675684067578
761.0, 0.0025239701462764184
762.0, 0.0027487976076563483
763.0, 0.0015274300544929143
764.0, 0.00040376020024025653
765.0, 0.005212065142664715
766.0, 0.0021565318868872535
767.0, 0.003301806945895499
768.0, 0.0030183538233289633
769.0, 0.003440536366058962
770.0, 0.007041564267928282
771.0, 0.003714608912561101
772.0, 0.0016374460291694649
773.0, 0.007350597023253554
774.0, 0.0060999399677198664
775.0, 0.0121902473735198
776.0, 0.011382794207064085
777.0, 0.007844038527114006
778.0, 0.013173872616379291
779.0, 0.011594861068032468
780.0, 0.018363882207155343
781.0, 0.01709734796698421
782.0, 0.02356850709357681
783.0, 0.027292708911585282
784.0, 0.025392950146655234
785.0, 0.022253466927356007
786.0, 0.02451617526436505
787.0, 0.033500738445700715
788.0, 0.026299791759497322
789.0, 0.03260370956007018
790.0, 0.023889317429525627
791.0, 0.023597464998161444
792.0, 0.023623737217949883
793.0, 0.01851928166690728
794.0, 0.01612856461831451
795.0, 0.017653529429133015
796.0, 0.011659945329756866
797.0, 0.009045767323014441
798.0, 0.00657681675168193
799.0, 0.009787281974975946
800.0, 0.013926800821987446
801.0, 0.014158120517505375
802.0, 0.011998939925371665
803.0, 0.012645178774054557
804.0, 0.009945981585183616
805.0, 0.014308909802377187
806.0, 0.008829995442784696
807.0, 0.005328467749337144
808.0, 0.0052449805916117654
809.0, 0.007377952000113836
810.0, 0.010420071547748393
811.0, 0.010689606427149874
812.0, 0.011245482038494728
813.0, 0.01385455756429451
814.0, 0.012548776776017387
815.0, 0.011693672587480478
816.0, 0.01290204123368804
817.0, 0.012404464518044172
818.0, 0.006968383317172363
819.0, 0.0009518717293519142
820.0, 0.0028639986642833206
821.0, 0.011646227869488983
822.0, 0.0070415057142079835
823.0, 0.006584893739961547
824.0, 0.011742793479776475
825.0, 0.012698227821051344
826.0, 0.008953388011295874
827.0, 0.013277429487705128
828.0, 0.012209216107096844
829.0, 0.007977013191893551
830.0, 0.012239665282897265
831.0, 0.010734228385853573
832.0, 0.008075607372613867
833.0, 0.007462582041750667
834.0, 0.008718681429661508
835.0, 0.010360823872979387
836.0, 0.009420067351625755
837.0, 0.008053032923216782
838.0, 0.007068574976218947
839.0, 0.007404601025978884
840.0, 0.004420534947572987
841.0, 0.004850995835641411
842.0, 0.007933180470374356
843.0, 0.006336347743806335
844.0, 0.005263061079101394
845.0, 0.017870041950938647
846.0, 0.013533124369474164
847.0, 0.013054385022880165
848.0, 0.014362539110597546
849.0, 0.012648816569622292
850.0, 0.008246356678594092
851.0, 0.006436321630458141
852.0, 0.01104191620217475
853.0, 0.015782539703648367
854.0, 0.010441847724579853
855.0, 0.006392469150829447
856.0, 0.01334599888267879
857.0, 0.011017949009883402
858.0, 0.006291639526022193
859.0, 0.007680133464525565
860.0, 0.008812266274777616
861.0, 0.0077943728180453935
862.0, 0.008052103957069229
863.0, 0.014472330058162487
864.0, 0.014430062799821682
865.0, 0.013946863174798277
866.0, 0.012268470007604462
867.0, 0.0093458596607757
868.0, 0.008165587454738747
869.0, 0.010418743787167313
870.0, 0.010117537057874295
871.0, 0.005106402830104509
872.0, 0.008075665406798393
873.0, 0.0062842300438358725
874.0, 0.00406261468037843
875.0, 0.005005406389827357
876.0, 0.010086349630850214
877.0, 0.014518055168162942
878.0, 0.007454188136651146
879.0, 0.006931405596649463
880.0, 0.011091003514565968
881.0, 0.008904997486721975
882.0, 0.010900896575810401
883.0, 0.00832501921712244
884.0, 0.005439016030740926
885.0, 0.006697207473402364
886.0, 0.0061103454650383296
887.0, 0.01072458659661236
888.0, 0.010273993613724285
889.0, 0.008505740171286818
890.0, 0.003564237841387006
891.0, 0.0024203623977640024
892.0, 0.007040436373964632
893.0, 0.009087645306313796
894.0, 0.006929518305374085
895.0, 0.012214891627862543
896.0, 0.00875382132292726
897.0, 0.012660740175712861
898.0, 0.004250672262352581
899.0, 0.0009284933701991767
900.0, 0.0016217136586764516
901.0, 0.0014004580051357476
902.0, 0.0026196606043241556
903.0, 0.006376045584674417
904.0, 0.002812975639056345
905.0, 0.002513435804823055
906.0, 0.0025468417113597625
907.0, 0.0007015137770341375
908.0, 0.00255181665581347
909.0, 0.007619810057552447
910.0, 0.010581731704881943
911.0, 0.007849524411614905
912.0, 0.004425244019126765
913.0, 0.00983147220294689
914.0, 0.004735262323637256
915.0, 0.0015521989168248269
916.0, 0.005475865542469425
917.0, 0.007964837283860798
918.0, 0.008710078698058463
919.0, 0.009377188697720959
920.0, 0.00905462425869593
921.0, 0.006662151948684461
922.0, 0.005455693901610926
923.0, 0.003228946954120012
924.0, 0.003866727201028363
925.0, 0.008190211938272724
926.0, 0.004210707037819061
927.0, 0.0038026599733518626
928.0, 0.0032488420817613855
929.0, 0.0036064881473694254
930.0, 0.010507710745896659
931.0, 0.011268330762422401
932.0, 0.008019523311305907
933.0, 0.006239944859680614
934.0, 0.0017265597839829
935.0, 0.009370692773554875
936.0, 0.010219784735716813
937.0, 0.006236682260494686
938.0, 0.0065084653834908985
939.0, 0.008000850633522724
940.0, 0.0018847202468325575
941.0, 0.006042220458005284
942.0, 0.014704345709605958
943.0, 0.014299667225806958
944.0, 0.009924187692488103
945.0, 0.007573706658671133
946.0, 0.006240889280055547
947.0, 0.003799425946543734
948.0, 0.001305256507620953
949.0, 0.0012001061723826716
950.0, 0.0018469835873591999
951.0, 0.003744157286843833
952.0, 0.008150997447812615
953.0, 0.007251808694248405
954.0, 0.0036112962291617685
955.0, 0.004040234571112272
956.0, 0.005659890079325153
957.0, 0.004407763858555956
958.0, 0.0037538407579201954
959.0, 0.005440044377160481
960.0, 0.0027539671448808044
961.0, 0.00630948880507572
962.0, 0.010556757578536701
963.0, 0.004444555933218184
964.0, 0.004864786122688566
965.0, 0.010941471326754269
966.0, 0.012861057164623619
967.0, 0.00815918575747807
968.0, 0.0024721397173296765
969.0, 0.005358443942820317
970.0, 0.0005801804085829513
971.0, 0.006680134061602167
972.0, 0.008298536622984269
973.0, 0.007078607146605259
974.0, 0.004673814850588742
975.0, 0.004737531175682688
976.0, 0.005550575387876365
977.0, 0.0017958490216822545
978.0, 0.004099589290157056
979.0, 0.012907004174858506
980.0, 0.006074964962767191
981.0, 0.00970782935812812
982.0, 0.007925024636921926
983.0, 0.007044953740300671
984.0, 0.0072403657420055815
985.0, 0.009900320946077817
986.0, 0.015296769476456744
987.0, 0.013208491841059001
988.0, 0.005585257893786902
989.0, 0.009146421258237192
990.0, 0.002145249515346237
991.0, 0.0013171665178965558
992.0, 0.010365807665851361
993.0, 0.007483309798395628
994.0, 0.004646909793045636
995.0, 0.009567789555088541
996.0, 0.00795357594214669
997.0, 0.00844959927753361
998.0, 0.00868849211376216
999.0, 0.012923232059196706
1000.0, 0.017128635112626592
1001.0, 0.02028924983004148
1002.0, 0.022017092409894204
1003.0, 0.022678843632782837
1004.0, 0.021749549587301242
1005.0, 0.020478446897397196
1006.0, 0.02113459381627806
1007.0, 0.021404650561821514
1008.0, 0.0235614464499013
1009.0, 0.02387628670605159
1010.0, 0.025375864356264818
1011.0, 0.028463436780819668
1012.0, 0.03665372482923703
1013.0, 0.04093537326174095
1014.0, 0.04482148348859165
1015.0, 0.049181854492518
1016.0, 0.04789515140437246
1017.0, 0.060978385837901425
1018.0, 0.05483043339747918
1019.0, 0.04875724678112363
1020.0, 0.04973439637910877
1021.0, 0.04606880712553506
1022.0, 0.0387732377889026
1023.0, 0.030092946817702065
1024.0, 0.02846496318626817
1025.0, 0.030617607855911486
1026.0, 0.023823909538130943
1027.0, 0.021019888888396916
1028.0, 0.017186036659383255
1029.0, 0.011845719902415407
1030.0, 0.01688215370287162
1031.0, 0.014967711059195392
1032.0, 0.017752010890234853
1033.0, 0.018450361433995886
1034.0, 0.01904900851225606
1035.0, 0.020184635071239295
1036.0, 0.01760745824725803
1037.0, 0.022154142501421784
1038.0, 0.01549533199962082
1039.0, 0.029812687160224845
1040.0, 0.03470660746982904
1041.0, 0.03194050965177946
1042.0, 0.031717680547164936
1043.0, 0.04577195265891675
1044.0, 0.06064173231837335
1045.0, 0.06974845797380543
1046.0, 0.0842943287796266
1047.0, 0.105551080375037
1048.0, 0.12591601115477385
1049.0, 0.1306592498342264
1050.0, 0.1359198180042666
1051.0, 0.14239512091249193
1052.0, 0.14313178546098196
1053.0, 0.12474420783148922
1054.0, 0.10509746308431721
1055.0, 0.090296160154403
1056.0, 0.07248943860884734
1057.0, 0.05597769925120759
1058.0, 0.047789189881991316
1059.0, 0.04840198406292766
1060.0, 0.03348836553577825
1061.0, 0.03335287024228414
1062.0, 0.027840077514845303
1063.0, 0.024068246590748327
1064.0, 0.02410693030830048
1065.0, 0.023391037827198063
1066.0, 0.019510326862257083
1067.0, 0.01714072429056586
1068.0, 0.02040369122025116
1069.0, 0.01864691449168767
1070.0, 0.013715542095319675
1071.0, 0.01837374030216299
1072.0, 0.01224789545644818
1073.0, 0.0150743719215049
1074.0, 0.01632000824535553
1075.0, 0.014336424992468821
1076.0, 0.013013334822957882
1077.0, 0.015409865663949774
1078.0, 0.01712867288159236
1079.0, 0.007265001019790647
1080.0, 0.004717983367979939
1081.0, 0.007981082437759619
1082.0, 0.013508795472247195
1083.0, 0.017299690378382984
1084.0, 0.024317185830191455
1085.0, 0.01786858464946271
1086.0, 0.01281325301931664
1087.0, 0.009976766636823111
1088.0, 0.005884159619556704
1089.0, 0.011225308815548767
1090.0, 0.014573748701923621
1091.0, 0.017214509467683735
1092.0, 0.013635501597766612
1093.0, 0.00847627249145802
1094.0, 0.008829108493155777
1095.0, 0.009934790914940032
1096.0, 0.007547841174326208
1097.0, 0.006650471688478238
1098.0, 0.0046766318364907114
1099.0, 0.0007530580535607214
1100.0, 0.001432067952616661
1101.0, 0.001819182642326075
1102.0, 0.007346180389426998
1103.0, 0.013221860788667382
1104.0, 0.004844032110205817
1105.0, 0.013594328696294669
1106.0, 0.006177714357536689
1107.0, 0.008268934941403589
1108.0, 0.012581143520054728
1109.0, 0.007413818247571414
1110.0, 0.0005435708127076425
1111.0, 0.004838122331350439
1112.0, 0.015232622190505706
1113.0, 0.0037798622733080534
1114.0, 0.0020405315159663503
1115.0, 0.01083480588739132
1116.0, 0.008339383027196882
1117.0, 0.01121256225758393
1118.0, 0.005696332149016029
1119.0, 0.0032665908270950515
1120.0, 0.005409701745344863
1121.0, 0.010449384131916598
1122.0, 0.01573118063659798
1123.0, 0.011690347177400043
1124.0, 0.011983671998452508
1125.0, 0.012582726205369864
1126.0, 0.008543368027356802
1127.0, 0.009342624901463861
1128.0, 0.007614586011942517
1129.0, 0.00798377391608866
1130.0, 0.008886383240952762
1131.0, 0.009811563461480174
1132.0, 0.009975934154325518
1133.0, 0.00796315889187342
1134.0, 0.00590516502525856
1135.0, 0.007917081450646386
1136.0, 0.006849979939612718
1137.0, 0.009125059318147267
1138.0, 0.01594838330815123
1139.0, 0.005778697985143884
1140.0, 0.005478055896806402
1141.0, 0.005902681802534539
1142.0, 0.003802508211888626
1143.0, 0.009208590464439904
1144.0, 0.014820475959421577
1145.0, 0.009570881155068153
1146.0, 0.00481797138782371
1147.0, 0.00867807916141114
1148.0, 0.013150876104262762
1149.0, 0.0026166628470803404
1150.0, 0.012991874789481436
1151.0, 0.016255281679577037
1152.0, 0.010679200663016072
1153.0, 0.009404615644140543
1154.0, 0.009655202276734009
1155.0, 0.011704642257693246
1156.0, 0.013971312673620043
1157.0, 0.01525731769761369
1158.0, 0.015821607628282868
1159.0, 0.007761892897859233
1160.0, 0.018776271462580835
1161.0, 0.007133445375547024
1162.0, 0.005193967906574476
1163.0, 0.006708426676628425
1164.0, 0.0048089193823100665
1165.0, 0.006339401476138886
1166.0, 0.00786367135942319
1167.0, 0.014209661672972263
1168.0, 0.016748722110246344
1169.0, 0.008336153460776742
1170.0, 0.004423248743480266
1171.0, 0.009559721987495839
1172.0, 0.003671382937899133
1173.0, 0.008299331465042087
1174.0, 0.005927001543901458
1175.0, 0.0034545580250441273
1176.0, 0.008451011982868848
1177.0, 0.005907698960491359
1178.0, 0.00508955030945119
1179.0, 0.006407764283583142
1180.0, 0.011598904791623243
1181.0, 0.019798300978540597
1182.0, 0.021614232740369603
1183.0, 0.01317752655036723
1184.0, 0.0036345780052097886
1185.0, 0.010380102678375287
1186.0, 0.0017986761099450443
1187.0, 0.006755056437375199
1188.0, 0.008623943151622192
1189.0, 0.011206209267540878
1190.0, 0.015699419973643
1191.0, 0.012995566037592771
1192.0, 0.013220964892367354
1193.0, 0.01223390483472039
1194.0, 0.0043763520606989815
1195.0, 0.005017700984709916
1196.0, 0.012999632980998235
1197.0, 0.00980361972532949
1198.0, 0.0034115210117716963
1199.0, 0.01589412413143978
1200.0, 0.01061823030546826
1201.0, 0.01027887422124956
1202.0, 0.005093316483046827
1203.0, 0.0031526502974960043
1204.0, 0.002556522406595278
1205.0, 0.003453949385604172
1206.0, 0.007403793787041769
1207.0, 0.01268217293285542
1208.0, 0.014271678507009436
1209.0, 0.007514805633278929
1210.0, 0.002545842510501081
1211.0, 0.011467802481610778
1212.0, 0.0016042967291509383
1213.0, 0.0015986744464065118
1214.0, 0.0009110926897432463
1215.0, 0.0048316659342813525
1216.0, 0.00706847405076106
1217.0, 0.003502653343804825
1218.0, 0.004100902215914593
1219.0, 0.011139589264672812
1220.0, 0.012363647324575814
1221.0, 0.005330175370622339
1222.0, 0.005536435696461252
1223.0, 0.0099274222625646
1224.0, 0.0019653777925353385
1225.0, 0.014045035209112731
1226.0, 0.0042814429117033394
1227.0, 0.008929201499583775
1228.0, 0.013368244753414997
1229.0, 0.011825827427470039
1230.0, 0.009636755097581058
1231.0, 0.009704392320835252
1232.0, 0.007709948568806387
1233.0, 0.00476193197067382
1234.0, 0.0039397253115899845
1235.0, 0.0028140488346470455
1236.0, 0.006682257970680942
1237.0, 0.014402721407660656
1238.0, 0.0022911312223064377
1239.0, 0.004736135200539495
1240.0, 0.005546365850875307
1241.0, 0.005374521645599575
1242.0, 0.0031850557926678346
1243.0, 0.0017028173495328318
1244.0, 0.0013503485044357721
1245.0, 0.001970868608388725
1246.0, 0.002411144120354476
1247.0, 0.003220587994172467
1248.0, 0.005122674739210324
1249.0, 0.00489755125374416
1250.0, 0.0030691124545165383
1251.0, 0.010833780313647453
1252.0, 0.009737237850629944
1253.0, 0.017718992986374082
1254.0, 0.01342294038167285
1255.0, 0.01031032956392056
1256.0, 0.008054847087133395
1257.0, 0.008272593681288198
1258.0, 0.011181994028980428
1259.0, 0.008081055021308186
1260.0, 0.008192567807585512
1261.0, 0.011042915117511487
1262.0, 0.0076707584952151395
1263.0, 0.00714815150995863
1264.0, 0.00993517721409569
1265.0, 0.010036755086571885
1266.0, 0.013709980266920687
1267.0, 0.00280473873279017
1268.0, 0.000659769945733084
1269.0, 0.008215368749699447
1270.0, 0.01827124698094276
1271.0, 0.015153872809746284
1272.0, 0.013110084987728294
1273.0, 0.01112712629360159
1274.0, 0.011068361683029725
1275.0, 0.013766262066722561
1276.0, 0.01642990111760703
1277.0, 0.015232963261598892
1278.0, 0.0074459858482065645
1279.0, 0.003118315179028934
1280.0, 0.004817848544393599
1281.0, 0.00222902947228115
1282.0, 0.00806701273405329
1283.0, 0.007472277454217261
1284.0, 0.01011338548367279
1285.0, 0.017417011229343863
1286.0, 0.018471887834032256
1287.0, 0.01087509919651267
1288.0, 0.01563219333056233
1289.0, 0.017735788970914403
1290.0, 0.015010703424588923
1291.0, 0.0205779947770141
1292.0, 0.023942451738576894
1293.0, 0.017981747080931913
1294.0, 0.020582604291112014
1295.0, 0.022050308824176416
1296.0, 0.020742487409918332
1297.0, 0.01676885322266457
1298.0, 0.024254927946838686
1299.0, 0.019132198468723726
1300.0, 0.022574538237936235
1301.0, 0.022811227065877654
1302.0, 0.020897080520001676
1303.0, 0.021716594487990175
1304.0, 0.019429206802725207
1305.0, 0.01995972570136801
1306.0, 0.02333720595337304
1307.0, 0.023130654605389593
1308.0, 0.02401239112209846
1309.0, 0.0243259919562048
1310.0, 0.017867160525977473
1311.0, 0.017779821236460342
1312.0, 0.013691592758203343
1313.0, 0.023751340942860612
1314.0, 0.0154301852275198
1315.0, 0.010956069082571532
1316.0, 0.016994392619614912
1317.0, 0.006432305266698085
1318.0, 0.010750189772838353
1319.0, 0.015548687882839621
1320.0, 0.015460988258944234
1321.0, 0.009850253291869398
1322.0, 0.009708397108350877
1323.0, 0.017717473088564552
1324.0, 0.019236271449812523
1325.0, 0.021515218893346198
1326.0, 0.022618623764123755
1327.0, 0.011572597602930772
1328.0, 0.011285445122848908
1329.0, 0.003736166131636087
1330.0, 0.01426640922378581
1331.0, 0.011905158926595466
1332.0, 0.0036375970800627488
1333.0, 0.013983704219825458
1334.0, 0.008559153407316644
1335.0, 0.01517992850921782
1336.0, 0.014585276405904603
1337.0, 0.004735117997526118
1338.0, 0.006061899362769732
1339.0, 0.015086921563803677
1340.0, 0.018504894228057962
1341.0, 0.016306314461483756
1342.0, 0.010060984772906786
1343.0, 0.013688242035249123
1344.0, 0.01133791671931458
1345.0, 0.013704742779128165
1346.0, 0.008257538690355115
1347.0, 0.007266716481404879
1348.0, 0.020541687450775895
1349.0, 0.02202193101316866
1350.0, 0.014132389057205687
1351.0, 0.01592834729647932
1352.0, 0.013751380695044715
1353.0, 0.012906200382730292
1354.0, 0.01526111495156179
1355.0, 0.014926920241878843
1356.0, 0.013463379652004878
1357.0, 0.011279448926812997
1358.0, 0.009566548809738062
1359.0, 0.012439702091000517
1360.0, 0.003669830740060048
1361.0, 0.0053382602265270845
1362.0, 0.016154435652346717
1363.0, 0.020397995852847878
1364.0, 0.018563195359733598
1365.0, 0.022099048581299716
1366.0, 0.01696543814635112
1367.0, 0.019683795225657854
1368.0, 0.01833290005168116
1369.0, 0.018200842895425454
1370.0, 0.013610228616422134
1371.0, 0.016529125144887236
1372.0, 0.012151238583876737
1373.0, 0.010885550734518544
1374.0, 0.01261651580582426
1375.0, 0.009836937500932577
1376.0, 0.013506708726089618
1377.0, 0.010418708373904973
1378.0, 0.009127713031219635
1379.0, 0.01508927495752757
1380.0, 0.008167201537150686
1381.0, 0.0007377377798473749
1382.0, 0.0030974250259653132
1383.0, 0.005420513442687548
1384.0, 0.002182334294182314
1385.0, 0.007035220704927099
1386.0, 0.0031118605039321384
1387.0, 0.002392051906533643
1388.0, 0.0037542953132207084
1389.0, 0.007742609389996339
1390.0, 0.009614312806034336
1391.0, 0.008776007485543903
1392.0, 0.005876658552428257
1393.0, 0.002441116195265153
1394.0, 0.0013449259125154272
1395.0, 0.0016667285402278793
1396.0, 0.0034761201581838146
1397.0, 0.007375885094263271
1398.0, 0.0027860497604814414
1399.0, 0.005932825612566194
1400.0, 0.0027004837228220297
1401.0, 0.005646775663353711
1402.0, 0.008851828614137146
1403.0, 0.005317911440762641
1404.0, 0.013537165725591037
1405.0, 0.008688744919221423
1406.0, 0.002004039752830313
1407.0, 0.0002989950370187289
1408.0, 0.010372711934500643
1409.0, 0.006322266113081622
1410.0, 0.0009013972752910768
1411.0, 0.010839353546630626
1412.0, 0.013210747095118186
1413.0, 0.006389539551153117
1414.0, 0.01030103689250493
1415.0, 0.011245632018164817
1416.0, 0.005545874211602374
1417.0, 0.013430072380780258
1418.0, 0.0066991761061393285
1419.0, 0.007270932995933803
1420.0, 0.0022878346804886835
1421.0, 0.006069390737771954
1422.0, 0.00134689110932322
1423.0, 0.0028024970792809543
1424.0, 0.008195559009850636
1425.0, 0.014790033324029395
1426.0, 0.008850970785621231
1427.0, 0.013402211476295101
1428.0, 0.01316896643711584
1429.0, 0.017104877842818243
1430.0, 0.013210895247595188
1431.0, 0.01189786136904335
1432.0, 0.02343417370112205
1433.0, 0.028747764501972462
1434.0, 0.026979547631848153
1435.0, 0.03145740489194963
1436.0, 0.034608898796350034
1437.0, 0.033820147309159714
1438.0, 0.03719261510223883
1439.0, 0.04095401959573662
1440.0, 0.037972121582377075
1441.0, 0.03727626569938384
1442.0, 0.04319990351969466
1443.0, 0.03098262884757203
1444.0, 0.04049457342667188
1445.0, 0.0345729795486642
1446.0, 0.028942324421298467
1447.0, 0.042752625144946516
1448.0, 0.03255861467621414
1449.0, 0.04117002350276623
1450.0, 0.037600286135866794
1451.0, 0.028668941135115165
1452.0, 0.029621008892542103
1453.0, 0.03372461982699737
1454.0, 0.03753640688230863
1455.0, 0.03695236074780917
1456.0, 0.030863062199489706
1457.0, 0.03229400968564578
1458.0, 0.033668103980054084
1459.0, 0.025714552899704028
1460.0, 0.025964422055114768
1461.0, 0.023755512807229054
1462.0, 0.024141714836047826
1463.0, 0.03245607186062822
1464.0, 0.02602364644259573
1465.0, 0.02040992319979902
1466.0, 0.021145935027839124
1467.0, 0.009477126840289143
1468.0, 0.014361644586005858
1469.0, 0.005665144380977427
1470.0, 0.018678264625610792
1471.0, 0.01616097350534646
1472.0, 0.022479088536060354
1473.0, 0.012466465727075
1474.0, 0.019986232782009734
1475.0, 0.01768502333892177
1476.0, 0.008944523596867038
1477.0, 0.010206003363049485
1478.0, 0.011499676972187421
1479.0, 0.011403741525506543
1480.0, 0.015263134182606115
1481.0, 0.01152037605553372
1482.0, 0.00519174891601505
1483.0, 0.00610185063730418
1484.0, 0.00515370446956925
1485.0, 0.009259205901215496
1486.0, 0.013583550035379834
1487.0, 0.005717033165875626
1488.0, 0.013308361358050576
1489.0, 0.015438450559688458
1490.0, 0.008858275946333951
1491.0, 0.003832775627570739
1492.0, 0.005806117008856244
1493.0, 0.015463745030298277
1494.0, 0.0026360705615597812
1495.0, 0.00863008561421553
1496.0, 0.008025532629570415
1497.0, 0.0027385169142211995
1498.0, 0.012764349349950063
1499.0, 0.010084351144785168
1500.0, 0.0071683101604714935
1501.0, 0.004174138450247665
1502.0, 0.003225104998203469
1503.0, 0.009546477436824043
1504.0, 0.008019671880335805
1505.0, 0.01108330119974589
1506.0, 0.012991270655071004
1507.0, 0.00966575379658683
1508.0, 0.008301008043971174
1509.0, 0.0075943107284466745
1510.0, 0.008114233998575094
1511.0, 0.008753432381317454
1512.0, 0.007902210691666875
1513.0, 0.01046350954401916
1514.0, 0.0075308051306722835
1515.0, 0.0022362775514343206
1516.0, 0.0075915334617386926
1517.0, 0.006005216305280859
1518.0, 0.016453540240995112
1519.0, 0.021900733289783925
1520.0, 0.007915953848964437
1521.0, 0.009118497547166154
1522.0, 0.007478232486104793
1523.0, 0.0001736582251427323
1524.0, 0.0028262146187531282
1525.0, 0.011352540760522422
1526.0, 0.007371569690275729
1527.0, 0.005823599870286785
1528.0, 0.013395780630762398
1529.0, 0.009174577620624918
1530.0, 0.007471309133202071
1531.0, 0.008799251742600853
1532.0, 0.011478801518642178
1533.0, 0.01238564929917916
1534.0, 0.009326314087001452
1535.0, 0.011002218189616208
1536.0, 0.008651830357530664
1537.0, 0.009403356629495591
1538.0, 0.007298657508991707
1539.0, 0.00546218137378678
1540.0, 0.010874132337718657
1541.0, 0.008670027061728883
1542.0, 0.007854516218031897
1543.0, 0.011142144728425825
1544.0, 0.002694522909600525
1545.0, 0.005317352297616185
1546.0, 0.015971264220310727
1547.0, 0.012379842998714054
1548.0, 0.001675015090382262
1549.0, 0.004181545253724436
1550.0, 0.011016969578266814
1551.0, 0.017508406169478356
1552.0, 0.012419794500236824
1553.0, 0.007079367225964984
1554.0, 0.024218750536741177
1555.0, 0.009115246442498953
1556.0, 0.019035135455658513
1557.0, 0.015542184562101323
1558.0, 0.004156254572736242
1559.0, 0.0030570062842249866
1560.0, 0.010082796348108082
1561.0, 0.002048083600951886
1562.0, 0.00815833572521023
1563.0, 0.0031756042394490277
1564.0, 0.007111289476239458
1565.0, 0.00547954748567294
1566.0, 0.0063581223140708795
1567.0, 0.006803055018881844
1568.0, 0.0030198802640267956
1569.0, 0.00048471868372756846
1570.0, 0.0009770368338996257
1571.0, 0.0006074354800156804
1572, 0.0
1573, 0.0
1574, 0.0
1575, 0.0
1576, 0.0
1577, 0.0
1578, 0.0
1579, 0.0
1580, 0.0
1581, 0.0
1582, 0.0
1583, 0.0
1584, 0.0
1585, 0.0
1586, 0.0
1587, 0.0
1588, 0.0
1589, 0.0
1590, 0.0
1591, 0.0
1592, 0.0
1593, 0.0
1594, 0.0
1595, 0.0
1596, 0.0
1597, 0.0
1598, 0.0
1599, 0.0
