30, 0.0
31, 0.0
32, 0.0
33, 0.0
34, 0.0
35, 0.0
36, 0.0
37, 0.0
38, 0.0
39, 0.0
40, 0.0
41, 0.0
42, 0.0
43, 0.0
44, 0.0
45, 0.0
46, 0.0
47, 0.0
48, 0.0
49, 0.0
50, 0.0
51, 0.0
52, 0.0
53, 0.0
54, 0.0
55, 0.0
56, 0.0
57, 0.0
58, 0.0
59, 0.0
60, 0.0
61, 0.0
62, 0.0
63, 0.0
64, 0.0
65, 0.0
66, 0.0
67, 0.0
68, 0.0
69, 0.0
70, 0.0
71, 0.0
72, 0.0
73, 0.0
74, 0.0
75, 0.0
76, 0.0
77, 0.0
78, 0.0
79, 0.0
80, 0.0
81, 0.0
82, 0.0
83, 0.0
84, 0.0
85, 0.0
86, 0.0
87, 0.0
88, 0.0
89, 0.0
90, 0.0
91, 0.0
92, 0.0
93, 0.0
94.0, 0.0018193796728934806
95.0, 0.005248268940573144
96.0, 0.008847253451075364
97.0, 0.018729386235099326
98.0, 0.020775680333980768
99.0, 0.022923943329269524
100.0, 0.027683026212442632
101.0, 0.035034497461141303
102.0, 0.043861718398668335
103.0, 0.05029758385759108
104.0, 0.05420543286334748
105.0, 0.05809210109621531
106.0, 0.06478040525180628
107.0, 0.07665986198544275
108.0, 0.08762279227680742
109.0, 0.09211311766209955
110.0, 0.08859621773262402
111.0, 0.08058202137619795
112.0, 0.07643531581373583
113.0, 0.07813854150214529
114.0, 0.07485975900598997
115.0, 0.06913987391461941
116.0, 0.061621442817189766
117.0, 0.051832203862536765
118.0, 0.0381538613285054
119.0, 0.03406915152011863
120.0, 0.02711436701948304
121.0, 0.018364411405561207
122.0, 0.011095130223415302
123.0, 0.005912216628674783
124.0, 0.0034075464852809595
125.0, 0.0031391152632632736
126.0, 0.0024333551885489958
127.0, 0.0008250378898970046
128.0, 0.0006236405348400398
129.0, 0.00016084092099710658
130.0, 0.0002752779888061338
131.0, 0.00032298903894300055
132.0, 0.0003918809343302185
133.0, 0.0008255812371785838
134.0, 0.001056724948772284
135.0, 0.0010996113446705745
136.0, 0.00168756305949071
137.0, 0.002082170184504714
138.0, 0.0015911413226513361
139.0, 0.00036921167705483216
140.0, 0.0009903733332032904
141.0, 0.0005562718210631321
142.0, 0.00020903590560856174
143.0, 0.0002643566203655378
144.0, 7.778537064337393e-05
145.0, 0.0008799755158101398
146.0, 0.0005098632466504038
147.0, 0.0004967941095499794
148.0, 0.000556758042361926
149.0, 0.00012743255858248243
150.0, 0.0006897295858577499
151.0, 0.00029197134629739395
152.0, 0.00022899645375646727
153.0, 0.000907114012836815
154.0, 0.0020078005898046232
155.0, 0.002317729467557006
156.0, 0.0008015325905641466
157.0, 0.0015174321479641685
158.0, 0.0016076641881815328
159.0, 0.0013177908278971815
160.0, 0.0023754483276817668
161.0, 0.002054842925120157
162.0, 0.002446933309491975
163.0, 0.00339440047811858
164.0, 0.0043039956221283815
165.0, 0.004877926722650572
166.0, 0.005748453992722888
167.0, 0.004560428193766937
168.0, 0.0048201437243411815
169.0, 0.005314817165086798
170.0, 0.006283913941868052
171.0, 0.00895579761459882
172.0, 0.009135498921436985
173.0, 0.010677792514694577
174.0, 0.011055279380083083
175.0, 0.012136959343408726
176.0, 0.015310509675365468
177.0, 0.016443731213082912
178.0, 0.021728586871945607
179.0, 0.029146621402174416
180.0, 0.04207095781682406
181.0, 0.06116327904488344
182.0, 0.08593894356134368
183.0, 0.15392848929311906
184.0, 0.2681092709760073
185.0, 0.41401260360363606
186.0, 0.5513064003196922
187.0, 0.6280288742242236
188.0, 0.581940313863792
189.0, 0.5677468416305381
190.0, 0.6531588903986119
191.0, 0.7722450700337099
192.0, 0.8701654124018225
193.0, 0.9265238986099915
194.0, 0.9667480533982913
195.0, 0.99145923173506
196.0, 0.9715251953216651
197.0, 0.8835887603686492
198.0, 0.7203211860206367
199.0, 0.5102119116870913
200.0, 0.33189331130115174
201.0, 0.19970294985911194
202.0, 0.11685426758213965
203.0, 0.07389647644579803
204.0, 0.050719004077990903
205.0, 0.03595903288492233
206.0, 0.028024533389326176
207.0, 0.021775803841286002
208.0, 0.017216998807293188
209.0, 0.014948253844517815
210.0, 0.012452200838611075
211.0, 0.011003098565377312
212.0, 0.010332271068383496
213.0, 0.008699789519062813
214.0, 0.006851231039042881
215.0, 0.007251962779444421
216.0, 0.0066660296543001275
217.0, 0.0053136720335859675
218.0, 0.005435219073335405
219.0, 0.006461640575588959
220.0, 0.00705179851124661
221.0, 0.005991471634057426
222.0, 0.008074719249853058
223.0, 0.006490139731690116
224.0, 0.005164959085606128
225.0, 0.005708373667089064
226.0, 0.007443812533135879
227.0, 0.0077831401524905384
228.0, 0.007633513478158276
229.0, 0.008099356818476502
230.0, 0.008128675449609993
231.0, 0.0077104713127132615
232.0, 0.008810807682076736
233.0, 0.006432492529639318
234.0, 0.003833749218979339
235.0, 0.0027692430111524993
236.0, 0.003140675628728689
237.0, 0.0034861753296995326
238.0, 0.0007372999474967437
239.0, 0.0015365321954711165
240.0, 0.0013686255491632056
241.0, 0.001594261146037808
242.0, 0.001968073333398559
243.0, 0.0006480076475311326
244.0, 0.0005963767048910178
245.0, 0.0008422509727244191
246.0, 0.001122403652736065
247.0, 0.0011447685408673388
248.0, 0.0008428021132797982
249.0, 0.0005961574829414049
250.0, 0.001226650912550183
251.0, 0.001878112971882508
252.0, 0.001963942943993339
253.0, 0.002256795066479188
254.0, 0.0034855989821799146
255.0, 0.0029353471642925397
256.0, 0.0013915709989730848
257.0, 0.0016635057101321558
258.0, 0.002239153012500853
259.0, 0.0022204323799894527
260.0, 0.001982313122424811
261.0, 0.001957892526331962
262.0, 0.0025964306015150264
263.0, 0.0013768399085795032
264.0, 0.0003275752323274461
265.0, 0.0008998946326390807
266.0, 0.0009557054189113884
267.0, 0.0009218835376686162
268.0, 0.001132240445322386
269.0, 0.00115425798460999
270.0, 0.0012063378242540856
271.0, 0.0015241178294467255
272.0, 0.0011170067241000298
273.0, 0.0028533714782154407
274.0, 0.0017235799214668239
275.0, 0.0018771683395615035
276.0, 0.003735250764658197
277.0, 0.004430865083748116
278.0, 0.007911891380472293
279.0, 0.00969292271342622
280.0, 0.014428761427737734
281.0, 0.019984074883741983
282.0, 0.023840109204728066
283.0, 0.02528303179152902
284.0, 0.02525866728773209
285.0, 0.026007878889706397
286.0, 0.028355338797614982
287.0, 0.03118700401224411
288.0, 0.03298891943112776
289.0, 0.033093557081611255
290.0, 0.032383763164280696
291.0, 0.030933062842493836
292.0, 0.028596463359076466
293.0, 0.025169983600490223
294.0, 0.02098224619639651
295.0, 0.018491093651758366
296.0, 0.011529808559016154
297.0, 0.007556546352316344
298.0, 0.005129876101556176
299.0, 0.0038585053642290245
300.0, 0.004472869428598529
301.0, 0.004019574616985104
302.0, 0.002697478402608428
303.0, 0.0029792915040309023
304.0, 0.0026474963114565793
305.0, 0.0017377730485942894
306.0, 0.00338793797516163
307.0, 0.001528451837053176
308.0, 0.0014302007594869006
309.0, 0.0012293696844378511
310.0, 0.0012064506380478632
311.0, 0.00148665439866617
312.0, 0.0010021865312288178
313.0, 0.0016440421965512738
314.0, 0.0007490018064763928
315.0, 0.0010055772744694093
316.0, 0.0013194486698934356
317.0, 0.00047836643775303833
318.0, 0.0006104522239344255
319.0, 0.0004589718607661236
320.0, 0.00031456365800742954
321.0, 0.0005401957495277207
322.0, 0.001304379236409807
323.0, 0.0022877216736608016
324.0, 0.0020590902070221208
325.0, 0.002914018044616821
326.0, 0.003328734595082875
327.0, 0.003957193943719772
328.0, 0.004353126727843376
329.0, 0.0040583822413447065
330.0, 0.00605861981024477
331.0, 0.005791005657407139
332.0, 0.005290603953500687
333.0, 0.005705563666133868
334.0, 0.006739714956529753
335.0, 0.0074472826429874284
336.0, 0.00965305423133003
337.0, 0.008984781840192474
338.0, 0.009685161147804867
339.0, 0.0105051469675551
340.0, 0.010899829614833954
341.0, 0.011706740900432593
342.0, 0.01333897860018118
343.0, 0.015386059264381587
344.0, 0.01766555918734502
345.0, 0.019906126639451502
346.0, 0.02249330706453223
347.0, 0.026399457175029985
348.0, 0.031641018418870216
349.0, 0.03512077247248702
350.0, 0.043972739421167154
351.0, 0.0538753340659926
352.0, 0.06363280099807414
353.0, 0.07782059903670224
354.0, 0.0906693347347024
355.0, 0.1008274544618595
356.0, 0.10807057762239079
357.0, 0.11471635149583892
358.0, 0.12142185892426702
359.0, 0.12618172084517476
360.0, 0.13113395549788254
361.0, 0.131066855671452
362.0, 0.1290817206018478
363.0, 0.12327123650791631
364.0, 0.11247444047832598
365.0, 0.09855631766690516
366.0, 0.08804116447064975
367.0, 0.07342684788001715
368.0, 0.06218140906508924
369.0, 0.0512134647364443
370.0, 0.03991681715438863
371.0, 0.03361220982800958
372.0, 0.024421239782156424
373.0, 0.022749106212433617
374.0, 0.019785054229664225
375.0, 0.016274888491263982
376.0, 0.01414131167315665
377.0, 0.013446475871803535
378.0, 0.012892929742732897
379.0, 0.013324153881543028
380.0, 0.012944820241147358
381.0, 0.01130652133937392
382.0, 0.009324466788363954
383.0, 0.008766947517685291
384.0, 0.007870874065573515
385.0, 0.005422864101415195
386.0, 0.004598467813435289
387.0, 0.0032859826642338648
388.0, 0.0023247171650576863
389.0, 0.005669365499811383
390.0, 0.004860836761496042
391.0, 0.005762574614114779
392.0, 0.004055867358167393
393.0, 0.0016874049068486365
394.0, 0.001353481733219348
395.0, 0.003822991844336035
396.0, 0.0014493668641830633
397.0, 0.0029815403837622004
398.0, 0.0015173511059228234
399.0, 0.0001229500872259914
400.0, 0.0004988245334081414
401.0, 0.0014468369767602627
402.0, 0.0008308375046288251
403.0, 0.0027007402089335446
404.0, 0.001302069709765933
405.0, 8.611001770268653e-05
406.0, 0.001992562866600966
407.0, 0.005948335979761377
408.0, 0.0007910850604451406
409.0, 0.0022630401480563007
410.0, 0.001805539449647751
411.0, 0.0008320511135721839
412.0, 0.0007062299106839377
413.0, 0.0014323430568867219
414.0, 0.000670009791508069
415.0, 0.0001283730041489531
416.0, 0.001721116587067845
417.0, 0.0025044169449293164
418.0, 0.0022928996907849363
419.0, 0.0023645864976120385
420.0, 0.0036888128726529053
421.0, 0.004394653205858469
422.0, 0.006106152596286476
423.0, 0.007443559797727057
424.0, 0.009659328604828333
425.0, 0.013084123947165275
426.0, 0.015095618193711123
427.0, 0.01601704027855418
428.0, 0.015576506836443087
429.0, 0.01660654071349449
430.0, 0.017623408284991045
431.0, 0.01709689947927837
432.0, 0.015278855841831142
433.0, 0.014854478941333422
434.0, 0.01528347014584787
435.0, 0.012805557520449548
436.0, 0.010127591639390645
437.0, 0.008822321831517824
438.0, 0.008199136936234037
439.0, 0.0071502518820878765
440.0, 0.006531582786162322
441.0, 0.006046522420126699
442.0, 0.0059108962924123085
443.0, 0.005684617434948658
444.0, 0.005157200829573568
445.0, 0.005930853949931503
446.0, 0.005646081741123544
447.0, 0.006504179689681071
448.0, 0.006705628116618751
449.0, 0.006611728039817264
450.0, 0.006736613752795677
451.0, 0.006196235093049019
452.0, 0.007102417539704861
453.0, 0.007578935096375506
454.0, 0.007853435976099431
455.0, 0.007822713143906824
456.0, 0.008109662016149228
457.0, 0.009802710086177346
458.0, 0.01092610314045482
459.0, 0.012980696381339226
460.0, 0.01495696459903727
461.0, 0.017367206351309724
462.0, 0.019577934599050335
463.0, 0.020683190087531382
464.0, 0.022358596500609573
465.0, 0.023032798634158785
466.0, 0.0256512350474932
467.0, 0.028472687196460778
468.0, 0.02871239345903527
469.0, 0.025748843940834234
470.0, 0.023574941141904646
471.0, 0.023785312748880728
472.0, 0.018189862651361365
473.0, 0.013678426363361057
474.0, 0.009569521235914109
475.0, 0.006189162677739452
476.0, 0.006390320298319485
477.0, 0.0060159468134884245
478.0, 0.004083540321866782
479.0, 0.0023571110394325287
480.0, 0.0022714362509337546
481.0, 0.0027226080228573905
482.0, 0.0020246909674964822
483.0, 0.0019333834416536925
484.0, 0.002852273263399286
485.0, 0.0021820080529170245
486.0, 0.0018320745978206675
487.0, 0.0023151955527273434
488.0, 0.002945805683387061
489.0, 0.002391554052240332
490.0, 0.0007226616245920347
491.0, 0.0028479309220294565
492.0, 0.0029617052363346925
493.0, 0.003358156120229895
494.0, 0.0032555651648362633
495.0, 0.00043326120043121145
496.0, 0.002264941707913983
497.0, 0.0036080498361005676
498.0, 0.0015945149986638818
499.0, 0.0022202722560213427
500.0, 0.002648359776641965
501.0, 0.0007542298027213741
502.0, 0.0028481685324829214
503.0, 0.0027550586630481944
504.0, 0.004703578035880991
505.0, 0.0034676348000723355
506.0, 0.0019036919675086345
507.0, 0.0017790615895039413
508.0, 0.0022286222845940592
509.0, 0.0034422077139504787
510.0, 0.003363490211822468
511.0, 0.002878100493566866
512.0, 0.004104488148748915
513.0, 0.004653501850219654
514.0, 0.002771265014819374
515.0, 0.0017460939781087387
516.0, 0.0032638023412286865
517.0, 0.0016313816584746892
518.0, 0.0010737870642025377
519.0, 0.001064360592641577
520.0, 0.0008001167280149426
521.0, 0.00033949592850612294
522.0, 0.00030530258065473374
523.0, 0.0021510288426920252
524.0, 0.0023910991886774515
525.0, 0.002364946768814597
526.0, 0.0021852126465855947
527.0, 0.002270582943242693
528.0, 0.00400748559786186
529.0, 0.004728619387858278
530.0, 0.0024000454885876456
531.0, 0.0007474797206452857
532.0, 0.0013734729833190518
533.0, 0.0025529998118445237
534.0, 0.0019541277636085565
535.0, 0.0016137978179939705
536.0, 0.003205199820821594
537.0, 0.003085549156544918
538.0, 0.0032896225549384145
539.0, 0.002889079545229385
540.0, 0.0019483246932332737
541.0, 0.00221219145929698
542.0, 0.0018183274607569263
543.0, 0.002027060377571699
544.0, 0.0019231331493171078
545.0, 0.0016614263916369092
546.0, 0.0009873073462389685
547.0, 0.0005730499001591456
548.0, 0.0025576516119982864
549.0, 0.0007308802168387921
550.0, 0.0011580277793596407
551.0, 0.0028769939596874107
552.0, 0.0023510672050362654
553.0, 0.0010265140706599326
554.0, 0.002257465844591503
555.0, 0.002015964443141804
556.0, 0.000747713010237518
557.0, 0.000662086302781763
558.0, 0.0027026936312254716
559.0, 0.0035122521445028906
560.0, 0.001944730364454613
561.0, 0.000693303763966008
562.0, 0.0004674640831290443
563.0, 0.0010041729120737202
564.0, 0.0026529080776720644
565.0, 0.002124394339271613
566.0, 0.0015241141009257886
567.0, 0.0028070443909126233
568.0, 0.0035231366758020645
569.0, 0.0037668578830357545
570.0, 0.0017225197206113506
571.0, 0.0020449310290933916
572.0, 0.0034062010975046877
573.0, 0.0028930010703670573
574.0, 0.00011099492076238371
575.0, 0.0002699259087396458
576.0, 0.0006663275859635552
577.0, 0.00036475448320523154
578.0, 0.00038320502199711503
579.0, 0.0012712222894107205
580.0, 0.0025467154181704533
581.0, 0.0028795123301011
582.0, 0.0009110182568844577
583.0, 0.0029672490208896727
584.0, 0.0012223802186225791
585.0, 0.0018141413225330198
586.0, 0.0022671437265051847
587.0, 0.0017571825918193703
588.0, 0.002499706010465393
589.0, 0.0016727215661015544
590.0, 0.0038677993106903067
591.0, 0.0032160285755835102
592.0, 0.0022959914534770925
593.0, 0.002807973319033032
594.0, 0.003889133405092527
595.0, 0.003428832846746279
596.0, 0.0049146650303334635
597.0, 0.0022684232543611115
598.0, 0.0008194718575424267
599.0, 0.0012892988283630161
600.0, 0.0021612249137919304
601.0, 0.002441542369973561
602.0, 0.0030598159013761096
603.0, 0.004819955625222345
604.0, 0.004136425452799948
605.0, 0.004583421346155878
606.0, 0.003404860269968171
607.0, 0.0036130210032019228
608.0, 0.005724982373391619
609.0, 0.004062409418712727
610.0, 0.005876239559028095
611.0, 0.00403045089420495
612.0, 0.004219807812772043
613.0, 0.00564214939950451
614.0, 0.005144063484702671
615.0, 0.003223079966517978
616.0, 0.005360594683796431
617.0, 0.003648972706451979
618.0, 0.005566107168454975
619.0, 0.0070937606319137056
620.0, 0.006291790687789564
621.0, 0.00498583941659942
622.0, 0.005387502584592316
623.0, 0.006981686830299031
624.0, 0.007916086782565859
625.0, 0.00822327834249057
626.0, 0.0075220012127448594
627.0, 0.008535952625086178
628.0, 0.009627292715126913
629.0, 0.009694984679091419
630.0, 0.011174823816741572
631.0, 0.008758271002837752
632.0, 0.011217158474867745
633.0, 0.00860368170755088
634.0, 0.007905359503751572
635.0, 0.00927770523515014
636.0, 0.010323462322762144
637.0, 0.011051973103279347
638.0, 0.00981647919391358
639.0, 0.012065236938409312
640.0, 0.01174850604151042
641.0, 0.011273503405095699
642.0, 0.012047042803721495
643.0, 0.013598935870089455
644.0, 0.01469123524907367
645.0, 0.017109239438111275
646.0, 0.015536854002088823
647.0, 0.01710528210614557
648.0, 0.01950958068039472
649.0, 0.02046296041580256
650.0, 0.021056865302752966
651.0, 0.024026158102568616
652.0, 0.024886452259835656
653.0, 0.029114015379287407
654.0, 0.03411393328194592
655.0, 0.037899968049915404
656.0, 0.03993091828481726
657.0, 0.042124063281535506
658.0, 0.046661136567729494
659.0, 0.05116530806974337
660.0, 0.058455849098279104
661.0, 0.06894620474230648
662.0, 0.07977970148979907
663.0, 0.09451088935632343
664.0, 0.11482262589793091
665.0, 0.13799445345636005
666.0, 0.1596369039875121
667.0, 0.19902916959341346
668.0, 0.23341577632453941
669.0, 0.26899451895530174
670.0, 0.3084147997015819
671.0, 0.3469751647427404
672.0, 0.3793213248267966
673.0, 0.4065478201530262
674.0, 0.4298038423745815
675.0, 0.44514553063695206
676.0, 0.44546294408160586
677.0, 0.43710814544424254
678.0, 0.4170161466149943
679.0, 0.3836221420861316
680.0, 0.3435013443647374
681.0, 0.30018609228057963
682.0, 0.25384326832795684
683.0, 0.21061445134099116
684.0, 0.1746534822369692
685.0, 0.1459961171884041
686.0, 0.12356324302842586
687.0, 0.10624566758841232
688.0, 0.09191952039352987
689.0, 0.0756283907603351
690.0, 0.06599163938373404
691.0, 0.05690166240474449
692.0, 0.04773892290294656
693.0, 0.04051510349284188
694.0, 0.035549696838102815
695.0, 0.02961431501722503
696.0, 0.02896760930320632
697.0, 0.024485387247276644
698.0, 0.023618242244757292
699.0, 0.021668170199225355
700.0, 0.019111498888419173
701.0, 0.01765946584895791
702.0, 0.016669632332205017
703.0, 0.01474016020242197
704.0, 0.013946266248371553
705.0, 0.012685085792475593
706.0, 0.012026206535481613
707.0, 0.011188885754337108
708.0, 0.010149607471926059
709.0, 0.009312647170586313
710.0, 0.008034629046704066
711.0, 0.0080674351106039
712.0, 0.007878448078109
713.0, 0.008142773228363992
714.0, 0.007410917409201936
715.0, 0.006697504722900084
716.0, 0.006718068314043277
717.0, 0.006001837324798512
718.0, 0.0032699120228459784
719.0, 0.005108960507436811
720.0, 0.0045533479428773406
721.0, 0.003367880390075003
722.0, 0.0037998638946035316
723.0, 0.003606963906130483
724.0, 0.0009683399718961659
725.0, 0.0014635839812015966
726.0, 0.0022989743872792604
727.0, 0.0030985977566552296
728.0, 0.0019265220747585814
729.0, 0.0010613182509677198
730.0, 0.0009602406414937151
731.0, 0.0023368274402211318
732.0, 0.005874353890194546
733.0, 0.007135362879515658
734.0, 0.00460989312838779
735.0, 0.0025720122680364414
736.0, 0.0034411027773529365
737.0, 0.004484270592299796
738.0, 0.0037064515394508355
739.0, 0.0016733887996604514
740.0, 0.0005366326913262273
741.0, 0.00024566006697147126
742.0, 0.0015640083454698216
743.0, 0.0031215689375117977
744.0, 0.0034439558406743876
745.0, 0.00450936558078523
746.0, 0.005163777076101872
747.0, 0.0028801392747921134
748.0, 0.0011583475266852598
749.0, 0.0007054532596030416
750.0, 0.0013700654090636384
751.0, 0.001181900691501937
752.0, 0.002857736662048642
753.0, 0.0040848235977579824
754.0, 0.003566916550874718
755.0, 0.003421670494654933
756.0, 0.0022593473903697284
757.0, 0.0026317046360027864
758.0, 0.0029721915402382217
759.0, 0.002270157231773545
760.0, 0.0011129857493634746
761.0, 0.001241095939303239
762.0, 0.0020951042250197415
763.0, 0.0009296281068328313
764.0, 0.003039055571170528
765.0, 0.0012400884740424386
766.0, 0.0007774678177007234
767.0, 0.0019009320052401875
768.0, 0.00206631930335216
769.0, 0.001485618849138211
770.0, 0.0016866801468049526
771.0, 0.0019146823795794506
772.0, 0.0013050552160535898
773.0, 0.0017035316901565223
774.0, 0.002376982391825594
775.0, 0.003221893031913301
776.0, 0.00347049422935697
777.0, 0.003322986629151803
778.0, 0.00360017934465422
779.0, 0.004339783094887499
780.0, 0.0053820607172152726
781.0, 0.005307067299181717
782.0, 0.005284828874902372
783.0, 0.005187483921507037
784.0, 0.005473289664532078
785.0, 0.005892702246131696
786.0, 0.005610829645809649
787.0, 0.00474310363642917
788.0, 0.006449038641785289
789.0, 0.0037503343437892632
790.0, 0.003126088086155954
791.0, 0.004540508697562243
792.0, 0.005695902101833063
793.0, 0.00516171223780495
794.0, 0.003928642611970717
795.0, 0.004276474086675627
796.0, 0.0023835438459241893
797.0, 0.0014660949692547644
798.0, 0.0023471574838076605
799.0, 0.0035753778943003593
800.0, 0.0023606868706314253
801.0, 0.0010160605016828147
802.0, 0.0026281583636353347
803.0, 0.0021889241342363587
804.0, 0.0018035717101214193
805.0, 0.002607495086614415
806.0, 0.0012806610728944917
807.0, 0.0019042791953332743
808.0, 0.003112770162854781
809.0, 0.002597159662683409
810.0, 0.0015753457287892144
811.0, 0.004008979612886489
812.0, 0.0012830373412418513
813.0, 0.0013082701111462008
814.0, 0.003533734532674641
815.0, 0.003609746622575295
816.0, 0.0025687338272424873
817.0, 0.0014572688004171484
818.0, 0.0012812958187913483
819.0, 0.0035770360704698327
820.0, 0.0007174767953714552
821.0, 0.0023312501088010367
822.0, 0.0014331726502868158
823.0, 0.003577536754432019
824.0, 0.003015813246611128
825.0, 0.0009860418896263433
826.0, 0.0015104166605906626
827.0, 0.002606014412456625
828.0, 0.0023478722497621216
829.0, 0.0026120882792793625
830.0, 0.002655524773700881
831.0, 0.0030120763999958128
832.0, 0.0023584900954501382
833.0, 0.0012084240998778716
834.0, 0.0006946167991389756
835.0, 0.0010610384764503157
836.0, 0.0019676453489656533
837.0, 0.00048257218482758
838.0, 0.0031153110243879517
839.0, 0.0032730052192594702
840.0, 0.0031418569003263956
841.0, 0.003200317705813708
842.0, 0.002723795558649541
843.0, 0.0015128830908167495
844.0, 0.00053915901444324
845.0, 0.001141056985515897
846.0, 0.0023521504170131795
847.0, 0.003077855559269727
848.0, 0.00302984670419156
849.0, 0.00509934943465508
850.0, 0.006146526129755771
851.0, 0.004265784387449859
852.0, 0.004569089919947292
853.0, 0.002893773941993809
854.0, 0.005450708228529919
855.0, 0.0033414062413717476
856.0, 0.005141353951266518
857.0, 0.004954192534220554
858.0, 0.005178259498846913
859.0, 0.00553298020437013
860.0, 0.002546864061281033
861.0, 0.004897723900564534
862.0, 0.007102493114311318
863.0, 0.006381385747035968
864.0, 0.005554723291780428
865.0, 0.005423234790386543
866.0, 0.004688875373242023
867.0, 0.003735242771617774
868.0, 0.0035686364751898484
869.0, 0.0033149758712810156
870.0, 0.0018870988652847462
871.0, 0.0039960334276801035
872.0, 0.003079116932781484
873.0, 0.002419116319451925
874.0, 0.002157828483522926
875.0, 0.001824905167924747
876.0, 0.0015990127805678772
877.0, 0.0020519353986888176
878.0, 0.002745194113794795
879.0, 0.0010989772569186826
880.0, 0.004756682567603856
881.0, 0.0043450827642323026
882.0, 0.005326091630540638
883.0, 0.004710900173408911
884.0, 0.0036367233125403444
885.0, 0.0031538804652682523
886.0, 0.001100354840578325
887.0, 0.0017537622411172727
888.0, 0.00030075330319922816
889.0, 0.0016541713602401809
890.0, 0.004199558861157878
891.0, 0.004632930686057714
892.0, 0.003109232985061584
893.0, 0.0012649546075531861
894.0, 0.0009965097344616512
895.0, 0.003503832575667832
896.0, 0.006388302979567094
897.0, 0.0023827097752288882
898.0, 0.004817094684836279
899.0, 0.0018432335682142913
900.0, 0.0020561243563247717
901.0, 0.0035629719691855247
902.0, 0.0031739235847485637
903.0, 0.0019117000238923036
904.0, 0.0008329749305405322
905.0, 0.0018235702117660505
906.0, 0.0025748756910657783
907.0, 0.0006872672226092104
908.0, 0.0030503563712341937
909.0, 0.0046653753836839815
910.0, 0.0035102678330098014
911.0, 0.001459943078605353
912.0, 0.0012461823159585794
913.0, 0.0031830641643976333
914.0, 6.163752098889007e-05
915.0, 0.003076879261519021
916.0, 0.003224813664551087
917.0, 0.003344274450906258
918.0, 0.0021643928732258317
919.0, 0.0023777450884334863
920.0, 0.0028394910245231088
921.0, 0.0008759015247421765
922.0, 0.0020975799464144755
923.0, 0.0017968384909667176
924.0, 0.0029817389054945164
925.0, 0.005543047932991118
926.0, 0.005259763521826655
927.0, 0.004390734541478835
928.0, 0.004547986215186835
929.0, 0.0039165175655619415
930.0, 0.0022212533290183094
931.0, 0.004618264992093209
932.0, 0.004232517433757343
933.0, 0.0026774783285050115
934.0, 0.003775453967473111
935.0, 0.003096046931852457
936.0, 0.0027131441062712524
937.0, 0.0022752434582154206
938.0, 0.0018740124952686618
939.0, 0.002415396555881271
940.0, 0.0027695020095269093
941.0, 0.0023251273476582505
942.0, 0.0032341378460533712
943.0, 0.0018983969109804687
944.0, 0.0013984863743581506
945.0, 0.0016333820211308677
946.0, 0.001608185707455759
947.0, 0.0026225756952202943
948.0, 0.004230973344123926
949.0, 0.0027465806349830624
950.0, 0.0025463135277163465
951.0, 0.0009589446986636216
952.0, 0.0040926203535842955
953.0, 0.0029644554990416773
954.0, 0.003906293235114366
955.0, 0.0026234765257477414
956.0, 0.0006501118434472372
957.0, 0.0012369519372527255
958.0, 0.001927224817293954
959.0, 0.0017919710687836292
960.0, 0.002451936463847636
961.0, 0.004108088868850822
962.0, 0.002460411293383356
963.0, 0.0021678804693153037
964.0, 0.0024864974010118915
965.0, 0.0015143169527669427
966.0, 0.00026724394902270755
967.0, 0.0006836297472938188
968.0, 0.0013014972159771639
969.0, 0.001539572500911962
970.0, 0.0016979994165065289
971.0, 0.0003801551008901751
972.0, 0.0019198238308873435
973.0, 0.0019551728211626524
974.0, 0.0011291445440245746
975.0, 0.0005417952158919186
976.0, 0.00018915972946893114
977.0, 0.0011531645323681833
978.0, 0.005027820366482284
979.0, 0.0011399149432900916
980.0, 0.0026069809604822853
981.0, 0.0037113082452679544
982.0, 0.002414174682243689
983.0, 0.0032231113643488643
984.0, 0.004920878989650495
985.0, 0.005304008454407537
986.0, 0.004624737629230129
987.0, 0.003284838627261897
988.0, 0.0025258448807621435
989.0, 0.0029647491629325607
990.0, 0.0029623508962034442
991.0, 0.003303369815696365
992.0, 0.003444110852178918
993.0, 0.002601649869046925
994.0, 0.002207174224831326
995.0, 0.003637446799858764
996.0, 0.004619995068058729
997.0, 0.0015613949573663965
998.0, 0.00454402008080128
999.0, 0.006011493577729882
1000.0, 0.0030372354275283934
1001.0, 0.006471461346271343
1002.0, 0.0071411364293345325
1003.0, 0.007107524073479453
1004.0, 0.00819302759228759
1005.0, 0.009476693197379038
1006.0, 0.01025411515965014
1007.0, 0.008458659028504307
1008.0, 0.008908884295656677
1009.0, 0.01060189182778106
1010.0, 0.0089573669353074
1011.0, 0.01406396171118711
1012.0, 0.013972667889034413
1013.0, 0.01561073739084627
1014.0, 0.01951365604280522
1015.0, 0.020173656676408684
1016.0, 0.020418635892802822
1017.0, 0.024089844375633728
1018.0, 0.023790604146011658
1019.0, 0.022204133103009557
1020.0, 0.02196176607068467
1021.0, 0.02017382575464169
1022.0, 0.017675114919848637
1023.0, 0.015568610411015324
1024.0, 0.012941672307114384
1025.0, 0.01139844900638835
1026.0, 0.012442091092986829
1027.0, 0.00840522576505282
1028.0, 0.009427494902674322
1029.0, 0.007819179937541356
1030.0, 0.010504722136417299
1031.0, 0.009050161895572376
1032.0, 0.00789703437224629
1033.0, 0.008390150093930078
1034.0, 0.00884213722372245
1035.0, 0.009521404627687123
1036.0, 0.012252928523571075
1037.0, 0.014834196794886487
1038.0, 0.014499486323381348
1039.0, 0.01949717342884456
1040.0, 0.021683529593925478
1041.0, 0.02625470188943506
1042.0, 0.030401219492618665
1043.0, 0.04013787469174564
1044.0, 0.05226844560687538
1045.0, 0.06537974273773464
1046.0, 0.08277431124580652
1047.0, 0.10140017925673431
1048.0, 0.1207838924470003
1049.0, 0.12380222344356218
1050.0, 0.1371569552720629
1051.0, 0.14183919448147989
1052.0, 0.13753105544560482
1053.0, 0.1260877666008138
1054.0, 0.10680289726467397
1055.0, 0.08661394169344032
1056.0, 0.0719256863949014
1057.0, 0.057775284590414054
1058.0, 0.04116411390110375
1059.0, 0.03678888178380543
1060.0, 0.026376107294316997
1061.0, 0.022285120122863933
1062.0, 0.01921765258697779
1063.0, 0.016063028452256572
1064.0, 0.013496404805930274
1065.0, 0.011908376956192164
1066.0, 0.011535782200222212
1067.0, 0.01162673631667169
1068.0, 0.010421264488423598
1069.0, 0.009914595254294323
1070.0, 0.009070255910934162
1071.0, 0.007347086624808783
1072.0, 0.006728196290088278
1073.0, 0.006183532130278479
1074.0, 0.006618879951444468
1075.0, 0.006423705137325973
1076.0, 0.006021686313924992
1077.0, 0.006527114720391614
1078.0, 0.006911595645157121
1079.0, 0.006347907951698566
1080.0, 0.006368129601579877
1081.0, 0.007598210109919307
1082.0, 0.007170018977475487
1083.0, 0.007374112274071237
1084.0, 0.006847011526465265
1085.0, 0.006187787888957053
1086.0, 0.00581235638708939
1087.0, 0.005454712828929184
1088.0, 0.004887536806524657
1089.0, 0.004336491444911454
1090.0, 0.0038706081824580124
1091.0, 0.0027386898888449654
1092.0, 0.002161299703221432
1093.0, 0.003164166265599607
1094.0, 0.004057192469862059
1095.0, 0.004983211026313479
1096.0, 0.005615081024685647
1097.0, 0.006198574026575926
1098.0, 0.004626831647032738
1099.0, 0.0013824435714778526
1100.0, 0.0005037443041209678
1101.0, 0.00141967035424005
1102.0, 0.00595852463287372
1103.0, 0.003964121851867866
1104.0, 0.003657421227419029
1105.0, 0.002604548722960609
1106.0, 0.0026106049562163967
1107.0, 0.0027740147417571943
1108.0, 0.0028411445652489725
1109.0, 0.0035480418334543394
1110.0, 0.003766896839536934
1111.0, 0.002924280966667767
1112.0, 0.004387391134594168
1113.0, 0.004192052373585334
1114.0, 0.0001696982785679077
1115.0, 0.005513362529986336
1116.0, 0.0037797692068677084
1117.0, 0.0014671379999125745
1118.0, 0.0022230266431489828
1119.0, 0.005508071917826518
1120.0, 0.007907757107900188
1121.0, 0.0060259742216575065
1122.0, 0.003339485232345886
1123.0, 0.00654404993433802
1124.0, 0.00687084764597834
1125.0, 0.0047370863285247375
1126.0, 0.009308985794237418
1127.0, 0.0028276060691397897
1128.0, 0.0022078440167026033
1129.0, 0.006656849525134321
1130.0, 0.007022136103091356
1131.0, 0.0038547804368126454
1132.0, 0.0034783668674759315
1133.0, 0.004272937345618201
1134.0, 0.002135814570862915
1135.0, 0.004051299854674586
1136.0, 0.0030826622492858757
1137.0, 0.0007258948186627311
1138.0, 0.0005798229548591371
1139.0, 0.001630275649555523
1140.0, 0.0018653866859557615
1141.0, 0.002740073229231072
1142.0, 0.0042329158981580465
1143.0, 0.004000212810053555
1144.0, 0.0027583668100770067
1145.0, 0.0032369234277233316
1146.0, 0.004835834061125682
1147.0, 0.004777843760997249
1148.0, 0.0033908675920806524
1149.0, 0.0026925407533437513
1150.0, 0.0047553071597223814
1151.0, 0.0034021227025247186
1152.0, 0.0022149371818424137
1153.0, 0.004474797735471674
1154.0, 0.005086553132260675
1155.0, 0.002784352804895441
1156.0, 0.001119519983518614
1157.0, 0.0023952107148766948
1158.0, 0.0036840321787240194
1159.0, 0.0007000014809041956
1160.0, 0.0024141980912121067
1161.0, 0.004281105961370955
1162.0, 0.0008701936280527645
1163.0, 0.0031631759441306737
1164.0, 0.002421809184344269
1165.0, 0.0026911434389029613
1166.0, 0.003943872141201639
1167.0, 0.005837972517485773
1168.0, 0.005665290341398294
1169.0, 0.0029668886550045233
1170.0, 0.003226878709181044
1171.0, 0.006591959385905265
1172.0, 0.0014971311028626878
1173.0, 0.003340331454363036
1174.0, 0.0004015028184150488
1175.0, 0.003445861804855296
1176.0, 0.0018862789750335634
1177.0, 0.0032650542992878483
1178.0, 0.0026628793388528207
1179.0, 0.0027454302588728343
1180.0, 0.003233661565422476
1181.0, 0.0022954508743306835
1182.0, 0.0015945210917596188
1183.0, 0.001038856346079454
1184.0, 0.0008791196828920345
1185.0, 0.0019519768862263174
1186.0, 0.0037881849504983293
1187.0, 0.004016165117718206
1188.0, 0.0036774449509450052
1189.0, 0.001731613858043993
1190.0, 0.0005253973185622872
1191.0, 0.0017099558482940348
1192.0, 0.0034981899553164354
1193.0, 0.003887194791597467
1194.0, 0.00264544841575282
1195.0, 0.0009368033220450731
1196.0, 0.0009536864676063927
1197.0, 0.0029453311530615537
1198.0, 0.0006205495902724193
1199.0, 0.0017220014599693561
1200.0, 0.000348435718072605
1201.0, 0.00152325236169896
1202.0, 0.001495110465814215
1203.0, 0.001090489121299693
1204.0, 0.0011038679973829786
1205.0, 0.0011679845066705579
1206.0, 0.0007828084060908179
1207.0, 0.0006707444810001956
1208.0, 0.0012529351753169495
1209.0, 0.0008573571251948799
1210.0, 0.0006829618745843347
1211.0, 0.0011547353874731823
1212.0, 0.0007678202008019441
1213.0, 0.0007658548591111675
1214.0, 0.0014851974907622468
1215.0, 0.0011902646924682899
1216.0, 0.002454076919474124
1217.0, 0.004021689369414855
1218.0, 0.004759567619129906
1219.0, 0.004017944339877912
1220.0, 0.002027934274320568
1221.0, 0.0007107075589352735
1222.0, 0.0016772793585628724
1223.0, 0.003461551486437903
1224.0, 0.0008370296712466427
1225.0, 0.004351726976419059
1226.0, 0.0031660719726303516
1227.0, 0.0037751035507556365
1228.0, 0.0020324347206073937
1229.0, 0.0037657833030527044
1230.0, 0.0020944034584886536
1231.0, 0.0012173786083195324
1232.0, 0.003817490619946082
1233.0, 0.004751053038719867
1234.0, 0.0028627390976921573
1235.0, 0.002694071310188441
1236.0, 0.0021489682419755214
1237.0, 0.0017179698485541572
1238.0, 0.006096179519734467
1239.0, 0.007848988066693959
1240.0, 0.004126607142941477
1241.0, 0.0043435081181429705
1242.0, 0.002781980421359721
1243.0, 0.0014483582524261716
1244.0, 0.0014111724508631515
1245.0, 0.0011372340677872816
1246.0, 0.0019615571299609978
1247.0, 0.00450331044308068
1248.0, 0.004750381501170552
1249.0, 0.0025251176102314165
1250.0, 0.0053388407306659055
1251.0, 0.0058346518260434695
1252.0, 0.002648738355758407
1253.0, 0.007877550180613464
1254.0, 0.0017482066452513502
1255.0, 0.0032036733648051056
1256.0, 0.004459974559702285
1257.0, 0.005135147662692253
1258.0, 0.005689067246551572
1259.0, 0.004831918633081124
1260.0, 0.004658718769073271
1261.0, 0.005542689129381828
1262.0, 0.005420547967064292
1263.0, 0.005784512433545317
1264.0, 0.0066876753073123255
1265.0, 0.001707930021378924
1266.0, 0.00171713732187118
1267.0, 0.004531164330330389
1268.0, 0.002432118900048453
1269.0, 0.0017973140252465847
1270.0, 0.0034018596559604935
1271.0, 0.001394589782664313
1272.0, 0.003830566802493262
1273.0, 0.0048939772235432576
1274.0, 0.003679669015347429
1275.0, 0.00298128209790108
1276.0, 0.003780195338909123
1277.0, 0.00573286014575951
1278.0, 0.0058917250763554935
1279.0, 0.0036424646882398095
1280.0, 0.005467172012005033
1281.0, 0.0021960987366582167
1282.0, 0.0005190268816917141
1283.0, 0.004420398928327131
1284.0, 0.004027811319023182
1285.0, 0.0021472083543545334
1286.0, 0.003470010762170481
1287.0, 0.004099462777680351
1288.0, 0.00664698399676497
1289.0, 0.006822741568493483
1290.0, 0.0050701055960288635
1291.0, 0.005697256014259059
1292.0, 0.006407673072209779
1293.0, 0.005823693398598004
1294.0, 0.007011869203157599
1295.0, 0.003912632715515261
1296.0, 0.004365503627602683
1297.0, 0.008524315799822196
1298.0, 0.004383965849834853
1299.0, 0.006661115658661152
1300.0, 0.003542504293465658
1301.0, 0.003344830536050054
1302.0, 0.005194137008725113
1303.0, 0.008045174219712863
1304.0, 0.007322372783254645
1305.0, 0.0055061684439813435
1306.0, 0.004567765392948458
1307.0, 0.005223426671818505
1308.0, 0.007361671762645121
1309.0, 0.005286648119107942
1310.0, 0.006290495867057368
1311.0, 0.003008836326990982
1312.0, 0.004073269222285632
1313.0, 0.01044925345141714
1314.0, 0.007604151957833774
1315.0, 0.007544239535128906
1316.0, 0.005961500292735808
1317.0, 0.005604211508714462
1318.0, 0.005430961485532223
1319.0, 0.00468363998150876
1320.0, 0.005107921797529417
1321.0, 0.006663020581909145
1322.0, 0.006108239442784547
1323.0, 0.004009647866183182
1324.0, 0.0032132793643249408
1325.0, 0.0031457820619012642
1326.0, 0.007387895365507219
1327.0, 0.00789075612483118
1328.0, 0.006745751829729092
1329.0, 0.0024044183406906725
1330.0, 0.008899725520446808
1331.0, 0.007090875477895093
1332.0, 0.005868402596387902
1333.0, 0.005445595691061488
1334.0, 0.004575705557726167
1335.0, 0.0056691257113459445
1336.0, 0.005610836852989983
1337.0, 0.005298113743860082
1338.0, 0.0034465751858588868
1339.0, 0.0029305767837969916
1340.0, 0.004877609607504044
1341.0, 0.00417458565198284
1342.0, 0.0062313661105095385
1343.0, 0.004280166352283749
1344.0, 0.0013984238282798312
1345.0, 0.0024553847865402367
1346.0, 0.00186630272270502
1347.0, 0.0031896702853237402
1348.0, 0.0013614506877561196
1349.0, 0.0042728348729990095
1350.0, 0.0060969139028883524
1351.0, 0.003748333226800859
1352.0, 0.004244360161671552
1353.0, 0.005629345472780848
1354.0, 0.003206355128849324
1355.0, 0.003683872761749859
1356.0, 0.004198360831634014
1357.0, 0.001387568884972341
1358.0, 0.0031161479023455833
1359.0, 0.004276939170714545
1360.0, 0.003259822210069119
1361.0, 0.002189442493599368
1362.0, 0.00269014525877874
1363.0, 0.003487497355479302
1364.0, 0.0035212356011258966
1365.0, 0.004670989807694355
1366.0, 0.005164935857241531
1367.0, 0.0069569379562193934
1368.0, 0.008190813462927413
1369.0, 0.006379716781279013
1370.0, 0.008603007799210416
1371.0, 0.006616126613464075
1372.0, 0.0048660246209803245
1373.0, 0.005267584640094261
1374.0, 0.005184346794932765
1375.0, 0.0059003661310996465
1376.0, 0.00618545121259738
1377.0, 0.0056122522086455365
1378.0, 0.007437305045282792
1379.0, 0.007746889155466046
1380.0, 0.004374680611365821
1381.0, 0.004542354213753942
1382.0, 0.0017423276479842636
1383.0, 0.001035087957732639
1384.0, 0.003954785785097905
1385.0, 0.0019763442531450584
1386.0, 0.0017781392275199941
1387.0, 0.0034174752036854766
1388.0, 0.0020826505444713657
1389.0, 0.0026878705320463603
1390.0, 0.0022741959905713234
1391.0, 0.0022506042100992395
1392.0, 0.004087850322943064
1393.0, 0.004516858711994384
1394.0, 0.0032177415048597396
1395.0, 0.004449647094358934
1396.0, 0.006477150520337039
1397.0, 0.003042457132833646
1398.0, 0.004167297090619846
1399.0, 0.0025398607202088306
1400.0, 0.00041161156345148175
1401.0, 0.0033041165687151897
1402.0, 0.000887890380693785
1403.0, 0.0015427055102778223
1404.0, 0.0010178125908214214
1405.0, 0.00017467272932982658
1406.0, 0.004195036690384948
1407.0, 0.0030258736908502226
1408.0, 0.004694410403699596
1409.0, 0.0029526551112392207
1410.0, 0.003533863669371657
1411.0, 0.0040794850075288385
1412.0, 0.0017828876031044643
1413.0, 0.0015261425589875154
1414.0, 0.0019324349895727083
1415.0, 0.00015534544007112286
1416.0, 0.0018328070610948266
1417.0, 0.004853531369530842
1418.0, 0.0004141308872909515
1419.0, 0.00043132898162825863
1420.0, 0.0017438012905431279
1421.0, 0.0028816785812126036
1422.0, 0.003237590099782061
1423.0, 0.00017800634327651125
1424.0, 0.0038869267949973546
1425.0, 0.002414665347817114
1426.0, 0.003837463520446748
1427.0, 0.0034176501382827307
1428.0, 0.0018929837597910686
1429.0, 0.0007753422717428028
1430.0, 0.001547776880927432
1431.0, 0.004184431112874426
1432.0, 0.0032254082327080606
1433.0, 0.004282784289025214
1434.0, 0.006597704493417279
1435.0, 0.005581497306476833
1436.0, 0.004322856974058727
1437.0, 0.0016982921458889265
1438.0, 0.0014107027992763654
1439.0, 0.00422680054593516
1440.0, 0.008031265251970033
1441.0, 0.007111764151205482
1442.0, 0.0068521121788061
1443.0, 0.004974572735695407
1444.0, 0.0024593672295195584
1445.0, 0.00734505716625657
1446.0, 0.0065867440590234244
1447.0, 0.006812612510857711
1448.0, 0.0036086011325936144
1449.0, 0.004410221290830326
1450.0, 0.007313346906909121
1451.0, 0.00582321857863489
1452.0, 0.00622730093322015
1453.0, 0.00816663568872016
1454.0, 0.007766350706752152
1455.0, 0.005629679424552982
1456.0, 0.005496847654547593
1457.0, 0.007263417362915731
1458.0, 0.008848200863795399
1459.0, 0.009098438112406166
1460.0, 0.006557999822458528
1461.0, 0.006111162059651103
1462.0, 0.009221856168441869
1463.0, 0.0036731460403065
1464.0, 0.0073228383243878785
1465.0, 0.005581049286579289
1466.0, 0.00938609034184349
1467.0, 0.00731403992708157
1468.0, 0.00928422044989186
1469.0, 0.005025101557186547
1470.0, 0.0017589955822644924
1471.0, 0.004913600400921811
1472.0, 0.002171160555152719
1473.0, 0.0028514183575200514
1474.0, 0.002734228038070419
1475.0, 0.003278500902058484
1476.0, 0.00552648514614456
1477.0, 0.008284290554044862
1478.0, 0.007146610686344808
1479.0, 0.0047963072287161524
1480.0, 0.005733588007025515
1481.0, 0.005260726053440762
1482.0, 0.003902365049855349
1483.0, 0.004243781502109918
1484.0, 0.0037803884514155603
1485.0, 0.004929619911530326
1486.0, 0.00508511606036435
1487.0, 0.005623954231381057
1488.0, 0.0024365170327951702
1489.0, 0.0034873686439973223
1490.0, 0.003940564525656505
1491.0, 0.002237110165980354
1492.0, 0.007535633950588639
1493.0, 0.00015431697864699996
1494.0, 0.0012154740950087405
1495.0, 0.002632005131662167
1496.0, 0.0029415108228494457
1497.0, 0.0031413697780731044
1498.0, 0.0030370852740720534
1499.0, 0.004089291906499545
1500.0, 0.0017714219405428207
1501.0, 0.0018967189842674466
1502.0, 0.003184938889483739
1503.0, 0.001586450568642269
1504.0, 0.003207599676777717
1505.0, 0.006505376442992288
1506.0, 0.006646229235698184
1507.0, 0.004454176011107244
1508.0, 0.003002445348825397
1509.0, 0.002500609365532166
1510.0, 0.0018857888337809883
1511.0, 0.0022392642828295574
1512.0, 0.0032081584319520267
1513.0, 0.003661475787343966
1514.0, 0.004301322344147986
1515.0, 0.00204760422657594
1516.0, 0.004177700497200834
1517.0, 0.004937867332557733
1518.0, 0.00518263934963682
1519.0, 0.006301133032598714
1520.0, 0.006557455408795565
1521.0, 0.005907107159861784
1522.0, 0.0073242757487206045
1523.0, 0.004347103117469729
1524.0, 0.0036652477074753465
1525.0, 0.0037660851012942167
1526.0, 0.0024058945804531656
1527.0, 0.0035022673583298214
1528.0, 0.004325878770247692
1529.0, 0.004579709202364972
1530.0, 0.004662236909241955
1531.0, 0.004434189842985524
1532.0, 0.004441445236294696
1533.0, 0.002998820727638522
1534.0, 0.004417268035762984
1535.0, 0.005192156842354481
1536.0, 0.00440437207589663
1537.0, 0.0025446884572068802
1538.0, 0.00471125283842663
1539.0, 0.004867369632128665
1540.0, 0.002622335745937204
1541.0, 0.00573707085262044
1542.0, 0.00836853567025542
1543.0, 0.006454567927710817
1544.0, 0.0024543326960014284
1545.0, 0.002905785659938478
1546.0, 0.003960550142374042
1547.0, 0.003378050931204921
1548.0, 0.0047509654406772345
1549.0, 0.003767613046031397
1550.0, 0.005838355340242847
1551.0, 0.007295070558783614
1552.0, 0.002995939045414209
1553.0, 0.004817464408106563
1554.0, 0.005342572969734639
1555.0, 0.003767526598169109
1556.0, 0.006638148557670502
1557.0, 0.00581688458482602
1558.0, 0.0030920099838583305
1559.0, 0.0056333699395169825
1560.0, 0.004279518665217516
1561.0, 0.0038513862955713517
1562.0, 0.0033906109666268593
1563.0, 0.00088643077677377
1564.0, 0.0020596660329081644
1565.0, 0.005073248015620333
1566.0, 0.007048221600754652
1567.0, 0.0046351988497432585
1568.0, 0.0022174798089732023
1569.0, 0.003403178103573579
1570.0, 0.002675151981289268
1571.0, 0.0006678104741422258
1572, 0.0
1573, 0.0
1574, 0.0
1575, 0.0
1576, 0.0
1577, 0.0
1578, 0.0
1579, 0.0
1580, 0.0
1581, 0.0
1582, 0.0
1583, 0.0
1584, 0.0
1585, 0.0
1586, 0.0
1587, 0.0
1588, 0.0
1589, 0.0
1590, 0.0
1591, 0.0
1592, 0.0
1593, 0.0
1594, 0.0
1595, 0.0
1596, 0.0
1597, 0.0
1598, 0.0
1599, 0.0
