30, 0.0
31, 0.0
32, 0.0
33, 0.0
34, 0.0
35, 0.0
36, 0.0
37, 0.0
38, 0.0
39, 0.0
40, 0.0
41, 0.0
42, 0.0
43, 0.0
44, 0.0
45, 0.0
46, 0.0
47, 0.0
48, 0.0
49, 0.0
50, 0.0
51, 0.0
52, 0.0
53, 0.0
54, 0.0
55, 0.0
56, 0.0
57, 0.0
58, 0.0
59, 0.0
60, 0.0
61, 0.0
62, 0.0
63, 0.0
64, 0.0
65, 0.0
66, 0.0
67, 0.0
68, 0.0
69, 0.0
70, 0.0
71, 0.0
72, 0.0
73, 0.0
74, 0.0
75, 0.0
76, 0.0
77, 0.0
78, 0.0
79, 0.0
80, 0.0
81, 0.0
82, 0.0
83, 0.0
84, 0.0
85, 0.0
86, 0.0
87, 0.0
88, 0.0
89, 0.0
90, 0.0
91, 0.0
92, 0.0
93, 0.0
94, 0.0
95, 0.0
96, 0.0
97, 0.0
98, 0.0
99, 0.0
100, 0.0
101, 0.0
102, 0.0
103, 0.0
104, 0.0
105, 0.0
106, 0.0
107, 0.0
108, 0.0
109, 0.0
110, 0.0
111, 0.0
112, 0.0
113, 0.0
114, 0.0
115, 0.0
116, 0.0
117, 0.0
118, 0.0
119, 0.0
120, 0.0
121, 0.0
122, 0.0
123, 0.0
124, 0.0
125, 0.0
126, 0.0
127, 0.0
128, 0.0
129, 0.0
130, 0.0
131, 0.0
132, 0.0
133, 0.0
134, 0.0
135, 0.0
136, 0.0
137, 0.0
138, 0.0
139, 0.0
140, 0.0
141, 0.0
142, 0.0
143, 0.0
144, 0.0
145, 0.0
146.0, 6.588085454268447e-05
147.0, 0.0005309578042924871
148.0, 0.0031641924864931744
149.0, 0.006111021239555681
150.0, 0.01206320369299713
151.0, 0.023062022278150372
152.0, 0.014481519658369354
153.0, 0.009434404587061728
154.0, 0.00726638356998504
155.0, 0.005982726867504775
156.0, 0.014424122750155737
157.0, 0.015523103741080034
158.0, 0.005893782695068166
159.0, 0.010595325990237362
160.0, 0.014818337873207
161.0, 0.014425742971211849
162.0, 0.0035457600823059305
163.0, 0.014591856325586091
164.0, 0.01472040039553354
165.0, 0.0058837454513898674
166.0, 0.012091038704355368
167.0, 0.02252455942911104
168.0, 0.0332760370627129
169.0, 0.04240411644039667
170.0, 0.029489013273327078
171.0, 0.029819610466060655
172.0, 0.03213586260591108
173.0, 0.014925053651827992
174.0, 0.0297460489403272
175.0, 0.0393165334095027
176.0, 0.03494931798254379
177.0, 0.008280488436462974
178.0, 0.013879399579261969
179.0, 0.02517988120867145
180.0, 0.022454616208660478
181.0, 0.0418458232276231
182.0, 0.04847057233721355
183.0, 0.0495056124040993
184.0, 0.06911611925645286
185.0, 0.07788262612813977
186.0, 0.09631367009852186
187.0, 0.13223529797042094
188.0, 0.19907305745239373
189.0, 0.3022414649718261
190.0, 0.4337428276108991
191.0, 0.5913952316059037
192.0, 0.8246662940335279
193.0, 0.9598048906818537
194.0, 0.9950985847216832
195.0, 0.9660961274535381
196.0, 0.9152761097650134
197.0, 0.8288603754402071
198.0, 0.699266066036407
199.0, 0.5448424302619116
200.0, 0.4062909211089806
201.0, 0.28295191222744537
202.0, 0.17743896797073727
203.0, 0.13658361242046965
204.0, 0.10801950478957999
205.0, 0.08433915381992188
206.0, 0.05990705025524362
207.0, 0.04313512348097738
208.0, 0.03198583870512209
209.0, 0.02676581183126053
210.0, 0.04998530211015256
211.0, 0.04155705481078688
212.0, 0.028951546610513655
213.0, 0.049174036463081716
214.0, 0.0492954524985514
215.0, 0.04915009926170244
216.0, 0.05083652849050115
217.0, 0.05329214748290745
218.0, 0.039066580335967487
219.0, 0.036080486620761076
220.0, 0.055038789630926406
221.0, 0.03346635291655799
222.0, 0.040713384009947555
223.0, 0.05241257089618063
224.0, 0.03799708918917108
225.0, 0.05211513427120485
226.0, 0.05256967506627231
227.0, 0.04372214311848156
228.0, 0.057919850942744634
229.0, 0.06287280182006542
230.0, 0.05525095934868533
231.0, 0.035845404003901585
232.0, 0.05540467387905682
233.0, 0.04399294201370863
234.0, 0.02901352859970366
235.0, 0.03876392036083763
236.0, 0.03595800289788741
237.0, 0.03838141458257342
238.0, 0.04215033851529094
239.0, 0.03224829121931752
240.0, 0.03268226884157422
241.0, 0.03978463433922105
242.0, 0.049018993542403425
243.0, 0.023039189119773658
244.0, 0.04626048163450934
245.0, 0.063570054682379
246.0, 0.03223928618700984
247.0, 0.047147207869996065
248.0, 0.05402450692855482
249.0, 0.05618450439598803
250.0, 0.062448504310598646
251.0, 0.038419667451066036
252.0, 0.02810364696074124
253.0, 0.0336001783595251
254.0, 0.021979172052459958
255.0, 0.026084486590075374
256.0, 0.03507783215417698
257.0, 0.04417329144999513
258.0, 0.05677286567963629
259.0, 0.04927223693879561
260.0, 0.03246284289176011
261.0, 0.018189361084114397
262.0, 0.04040741630770754
263.0, 0.056589261985171176
264.0, 0.06340902073055195
265.0, 0.06081461636993379
266.0, 0.06404046108285
267.0, 0.0620366040146052
268.0, 0.05348699741511985
269.0, 0.05540585624062783
270.0, 0.05254753333778425
271.0, 0.0429295983960081
272.0, 0.024521953415418414
273.0, 0.03981435022771544
274.0, 0.04108668929877707
275.0, 0.038858952213003256
276.0, 0.049815080096126875
277.0, 0.051071900043704176
278.0, 0.04885644399699675
279.0, 0.04549590089390503
280.0, 0.04661147884172459
281.0, 0.05862347382760554
282.0, 0.058064330891988744
283.0, 0.042233417890285244
284.0, 0.06852738709203317
285.0, 0.07034546880302807
286.0, 0.07778161310722438
287.0, 0.11309922471212241
288.0, 0.11456851280019799
289.0, 0.1061308665112717
290.0, 0.10635998381601416
291.0, 0.14619505424858734
292.0, 0.11619568709218675
293.0, 0.10352125232107098
294.0, 0.10434260362919828
295.0, 0.07045374541591846
296.0, 0.08583324684700348
297.0, 0.09172708616245001
298.0, 0.07459423014032485
299.0, 0.07132069927250308
300.0, 0.06540801196767242
301.0, 0.057536260267091355
302.0, 0.04831426304229806
303.0, 0.06668686943984783
304.0, 0.07566306754469916
305.0, 0.07097427473624043
306.0, 0.04521105374149863
307.0, 0.062250920847737035
308.0, 0.06493600367647467
309.0, 0.056140857334357835
310.0, 0.05342090742862538
311.0, 0.0459853735874544
312.0, 0.040012460307021144
313.0, 0.03808755735199233
314.0, 0.0471073209540591
315.0, 0.05334582171742568
316.0, 0.06067311650280544
317.0, 0.06920878281547715
318.0, 0.05483691526728491
319.0, 0.04933001392700518
320.0, 0.04730070092353094
321.0, 0.04468982428482239
322.0, 0.03230836880130604
323.0, 0.043606039688712316
324.0, 0.0607013952905094
325.0, 0.055423872093641205
326.0, 0.0798697109851196
327.0, 0.08046231159912308
328.0, 0.06617370113630196
329.0, 0.07714254395028333
330.0, 0.08358942544569323
331.0, 0.07862225975940125
332.0, 0.06661359670808219
333.0, 0.08128263812239554
334.0, 0.09245930907164066
335.0, 0.09083513939839968
336.0, 0.0748731998430112
337.0, 0.08596498670247768
338.0, 0.08486394782342724
339.0, 0.07974814163927753
340.0, 0.07638366883855904
341.0, 0.07031693086024463
342.0, 0.07010084417868108
343.0, 0.0717379243867379
344.0, 0.07009464282247949
345.0, 0.07141862476960865
346.0, 0.0731623267364189
347.0, 0.07448738141562171
348.0, 0.0738885492694218
349.0, 0.07647281523387
350.0, 0.08133006842911245
351.0, 0.08851324872438147
352.0, 0.09892851151445554
353.0, 0.10926904331462466
354.0, 0.1254920047556521
355.0, 0.148375103424753
356.0, 0.17047539572946002
357.0, 0.19809838580293046
358.0, 0.23748309959351802
359.0, 0.2910397555672937
360.0, 0.33944253523874646
361.0, 0.3577790174639655
362.0, 0.35942269193204895
363.0, 0.3534711244641878
364.0, 0.3438797808753704
365.0, 0.3265927640570251
366.0, 0.29671558223729494
367.0, 0.24719100917992537
368.0, 0.21149762401689612
369.0, 0.17164848488759762
370.0, 0.1335987113492278
371.0, 0.11041368619566702
372.0, 0.11343253179146759
373.0, 0.10225570580657899
374.0, 0.08152004735966113
375.0, 0.07756020948006735
376.0, 0.08356000007227873
377.0, 0.07796248891429902
378.0, 0.06372290867074794
379.0, 0.07325905861823499
380.0, 0.07325121124294036
381.0, 0.07348521274958358
382.0, 0.07626264449605198
383.0, 0.0758142566233008
384.0, 0.0871759281938094
385.0, 0.0916304223125738
386.0, 0.08116820859328147
387.0, 0.06935356566904559
388.0, 0.06574697923785094
389.0, 0.059194316553280814
390.0, 0.042738085605326624
391.0, 0.038674834571356696
392.0, 0.04834017366954164
393.0, 0.05861829071481577
394.0, 0.05729506902282212
395.0, 0.05327774029070445
396.0, 0.047477065400448014
397.0, 0.042965591278985374
398.0, 0.04384210872755454
399.0, 0.03251479420537127
400.0, 0.031519565299503005
401.0, 0.0373790881899176
402.0, 0.042465504975133204
403.0, 0.03753816125542576
404.0, 0.04313973919783177
405.0, 0.056520900977051244
406.0, 0.06709079033087367
407.0, 0.05916962901826716
408.0, 0.04190936740174694
409.0, 0.02246894131378464
410.0, 0.018464102659078864
411.0, 0.01773649812355266
412.0, 0.02211314604355498
413.0, 0.029445658965493584
414.0, 0.029411808820559108
415.0, 0.026880217246938194
416.0, 0.025114486571064066
417.0, 0.025644187536416674
418.0, 0.03171226131093661
419.0, 0.03343871143596836
420.0, 0.034033455986413025
421.0, 0.0329391488187489
422.0, 0.018022025255887253
423.0, 0.015713092642065656
424.0, 0.015294537443928101
425.0, 0.015322219729685352
426.0, 0.04883413455429742
427.0, 0.04229183822195791
428.0, 0.04209955202184408
429.0, 0.07101611132484621
430.0, 0.08535973799409338
431.0, 0.09059110085869743
432.0, 0.09432692556544572
433.0, 0.10061203710719704
434.0, 0.08936106519106062
435.0, 0.09990729552482863
436.0, 0.10753393177359928
437.0, 0.09305323189106326
438.0, 0.057121924021760875
439.0, 0.07360019106007985
440.0, 0.09034737687007766
441.0, 0.060954953462101696
442.0, 0.06985371944395367
443.0, 0.06716991323311977
444.0, 0.06197141804687576
445.0, 0.06355229342126577
446.0, 0.04938817354510201
447.0, 0.05024531809210194
448.0, 0.055594159519954
449.0, 0.052920553359720346
450.0, 0.07140548435546733
451.0, 0.0769436914517317
452.0, 0.07956368542700044
453.0, 0.09307487311910126
454.0, 0.09119852233333724
455.0, 0.07931110617238998
456.0, 0.06872160006318553
457.0, 0.07491332163949949
458.0, 0.060961825547979846
459.0, 0.04840972823864433
460.0, 0.04038409555470645
461.0, 0.04016415497966348
462.0, 0.03299531364877708
463.0, 0.039475227540521914
464.0, 0.053453235350905653
465.0, 0.06375458675964409
466.0, 0.09871529070115373
467.0, 0.1046244839200259
468.0, 0.09997163922700178
469.0, 0.1202942079950683
470.0, 0.09470424065996433
471.0, 0.08596991967295653
472.0, 0.07700266493414074
473.0, 0.031722784449826215
474.0, 0.05610685271358694
475.0, 0.05546239303875117
476.0, 0.04713751075399976
477.0, 0.07177582735235627
478.0, 0.07750831581196073
479.0, 0.05979333832454214
480.0, 0.04154523898575631
481.0, 0.061612851675347566
482.0, 0.03171194505573223
483.0, 0.01015988932437247
484.0, 0.019257889057458125
485.0, 0.08984406379505692
486.0, 0.05239204601689497
487.0, 0.03943954127040831
488.0, 0.04817662783195139
489.0, 0.06091371208937808
490.0, 0.04665504745353441
491.0, 0.05293872049113564
492.0, 0.06886459389105984
493.0, 0.074246313956085
494.0, 0.035733400592473215
495.0, 0.028916238856892176
496.0, 0.03828899252659468
497.0, 0.037234909111507834
498.0, 0.05656907737116086
499.0, 0.045253249478884414
500.0, 0.034053840699505074
501.0, 0.06525456237470748
502.0, 0.05072752357187321
503.0, 0.045621405084760196
504.0, 0.05426720366671193
505.0, 0.07996761453923075
506.0, 0.07657626240843551
507.0, 0.06913531253259428
508.0, 0.061320523763022744
509.0, 0.05658989226470853
510.0, 0.043566321966262936
511.0, 0.04544733427726091
512.0, 0.04820202310763816
513.0, 0.03899934529175561
514.0, 0.03705409105652354
515.0, 0.04020699013350858
516.0, 0.04263427367964734
517.0, 0.03920381224345178
518.0, 0.0206426547778277
519.0, 0.025659815834487454
520.0, 0.04388767676370508
521.0, 0.06375661948500695
522.0, 0.015338753876148942
523.0, 0.013875814386700415
524.0, 0.030793645486339026
525.0, 0.04672420387193273
526.0, 0.03370741944796783
527.0, 0.03321926916605915
528.0, 0.025585743036982654
529.0, 0.00689933447878866
530.0, 0.022951141240980348
531.0, 0.023580983061425524
532.0, 0.029452380494136742
533.0, 0.041021381020756226
534.0, 0.012447627970222287
535.0, 0.024520415659440967
536.0, 0.03280979656942595
537.0, 0.029444097205778393
538.0, 0.04327331142880857
539.0, 0.020090634237478505
540.0, 0.01116292260414944
541.0, 0.019698561806020497
542.0, 0.013156563251213848
543.0, 0.03858900067148356
544.0, 0.04058982804197694
545.0, 0.02219373176776661
546.0, 0.017823971530198685
547.0, 0.03859962461620235
548.0, 0.04763735332797206
549.0, 0.040611549394914084
550.0, 0.01831311077893004
551.0, 0.008764180553008257
552.0, 0.00716276654579143
553.0, 0.016656879692701427
554.0, 0.04257999805801306
555.0, 0.044335534378414816
556.0, 0.04321828447785247
557.0, 0.044366533498723555
558.0, 0.05248783228855296
559.0, 0.01654003530387185
560.0, 0.013306598902790723
561.0, 0.021291072820140665
562.0, 0.021775737345484616
563.0, 0.01344136032361107
564.0, 0.021146485621693103
565.0, 0.031704972106214674
566.0, 0.03679223934958865
567.0, 0.03581093184572893
568.0, 0.04050833892165744
569.0, 0.03913857374015464
570.0, 0.028938344562215192
571.0, 0.025149034960715043
572.0, 0.014815077343930156
573.0, 0.015863891839186416
574.0, 0.030315977920810037
575.0, 0.04420211762540824
576.0, 0.020748192508713393
577.0, 0.0297715367450498
578.0, 0.05484276112508451
579.0, 0.016646234220187524
580.0, 0.02961283888511786
581.0, 0.026445448284003897
582.0, 0.01324638437141308
583.0, 0.015051948374015632
584.0, 0.03104885021134522
585.0, 0.03065362557862529
586.0, 0.020952639753489936
587.0, 0.012536131536625417
588.0, 0.020862786168406536
589.0, 0.012457962328566899
590.0, 0.002716454264321179
591.0, 0.003989863490948488
592.0, 0.008595901242992964
593.0, 0.024220177296661885
594.0, 0.03504419492990129
595.0, 0.032740284851267745
596.0, 0.019643315154979114
597.0, 0.022828032716761083
598.0, 0.02576082118094896
599.0, 0.02632132390463293
600.0, 0.039325868008267734
601.0, 0.018166210134738323
602.0, 0.005119501067813645
603.0, 0.005598952246636927
604.0, 0.011146655733313898
605.0, 0.008940026037563407
606.0, 0.021905881767823383
607.0, 0.03243280102020164
608.0, 0.009974984303277628
609.0, 0.021080291563900417
610.0, 0.026389879051645505
611.0, 0.02402642111995818
612.0, 0.014127516569090576
613.0, 0.013021426406432009
614.0, 0.02482261186655299
615.0, 0.02583856021066771
616.0, 0.005995240255240387
617.0, 0.0014756263981910863
618.0, 0.03066223930994699
619.0, 0.038479622248200576
620.0, 0.017776045919946942
621.0, 0.021447910884773366
622.0, 0.01174846717562426
623.0, 0.009168870121237982
624.0, 0.014735809331652519
625.0, 0.021211493683644212
626.0, 0.009220595339847194
627.0, 0.008818967278905793
628.0, 0.0151047882698299
629.0, 0.01783462175428089
630.0, 0.01593950543290176
631.0, 0.021670380762265164
632.0, 0.022131225828158373
633.0, 0.010011817549772819
634.0, 0.02583961067677411
635.0, 0.03173320976475143
636.0, 0.03529706580221286
637.0, 0.040554391897967064
638.0, 0.04983478489104619
639.0, 0.049750362196886166
640.0, 0.03893540863676819
641.0, 0.027634075806667678
642.0, 0.04347990124435197
643.0, 0.03629872170207085
644.0, 0.036432939804239076
645.0, 0.03848244501282277
646.0, 0.029952666505781537
647.0, 0.04180925904146455
648.0, 0.05198869286425892
649.0, 0.047597583073655525
650.0, 0.024682163735109106
651.0, 0.05930178282644789
652.0, 0.03593383145466381
653.0, 0.0367120737927178
654.0, 0.07492701107088649
655.0, 0.04198995913539621
656.0, 0.04955294312354249
657.0, 0.05998411523243683
658.0, 0.06739552788273162
659.0, 0.07762401937126549
660.0, 0.06965019884466624
661.0, 0.07686394507018984
662.0, 0.08776613051537391
663.0, 0.08601774665296039
664.0, 0.11881220904908182
665.0, 0.15098210397602038
666.0, 0.18249954160716014
667.0, 0.21530884838234796
668.0, 0.2640747680071645
669.0, 0.28650538324565505
670.0, 0.3482890964333507
671.0, 0.4453341070199205
672.0, 0.49695577361990373
673.0, 0.6182164721224059
674.0, 0.7013930972851148
675.0, 0.7523704460841574
676.0, 0.803991360354441
677.0, 0.8463872838291754
678.0, 0.838684989581577
679.0, 0.7857755070835333
680.0, 0.69681641016509
681.0, 0.604483407486713
682.0, 0.5218139499108312
683.0, 0.4440324190065807
684.0, 0.37188145399434175
685.0, 0.3153011361535417
686.0, 0.25283349068199734
687.0, 0.2166998991653726
688.0, 0.1961490595973645
689.0, 0.16315163666827392
690.0, 0.138299024829795
691.0, 0.13574396923351018
692.0, 0.12722971566246677
693.0, 0.09211817567228839
694.0, 0.07786378622436861
695.0, 0.08042244507589687
696.0, 0.09327105502327214
697.0, 0.10016632704416667
698.0, 0.05099385436177317
699.0, 0.0589613146053915
700.0, 0.05206368137349123
701.0, 0.03939714081553963
702.0, 0.05530772697682039
703.0, 0.059778677344342786
704.0, 0.04816129647489082
705.0, 0.03168448889672597
706.0, 0.020175654593445027
707.0, 0.018154853983936674
708.0, 0.04220432762403466
709.0, 0.04768571207850348
710.0, 0.03765940085685619
711.0, 0.0724772066755521
712.0, 0.025110564805181257
713.0, 0.02526061246259351
714.0, 0.056737988344654856
715.0, 0.07301144826687692
716.0, 0.016923473582657812
717.0, 0.04307043167316712
718.0, 0.05569713884907893
719.0, 0.01579615355884588
720.0, 0.07141989191104942
721.0, 0.03418219737548756
722.0, 0.028899306758441004
723.0, 0.05763592442944802
724.0, 0.04800632161959379
725.0, 0.02221615433426841
726.0, 0.028495878418649603
727.0, 0.042013338135830636
728.0, 0.034783528069948916
729.0, 0.020075835056804048
730.0, 0.051791228479798855
731.0, 0.05976165105662025
732.0, 0.03661503707401064
733.0, 0.0717254922850851
734.0, 0.03397650912980566
735.0, 0.013611983695995731
736.0, 0.024734679952587487
737.0, 0.06536257793166556
738.0, 0.029129539108944634
739.0, 0.01506761019872004
740.0, 0.016419566782651305
741.0, 0.02619449146026927
742.0, 0.032854192937256894
743.0, 0.03265935510460423
744.0, 0.039705429094146115
745.0, 0.048116252625751636
746.0, 0.038386671277219696
747.0, 0.04228264070158882
748.0, 0.0505765600395242
749.0, 0.05019022142830739
750.0, 0.03495177094562106
751.0, 0.05084268646961975
752.0, 0.05245062194350334
753.0, 0.04507031950033464
754.0, 0.03488814997835446
755.0, 0.03368663519735217
756.0, 0.06839020252684212
757.0, 0.06890963610798409
758.0, 0.05327510897993145
759.0, 0.046617998203366415
760.0, 0.010625368609825329
761.0, 0.02767677015913218
762.0, 0.05690026054600474
763.0, 0.07044316513981984
764.0, 0.035948842785699736
765.0, 0.06576001934060681
766.0, 0.060536978516402676
767.0, 0.03407667467870473
768.0, 0.022681228753168192
769.0, 0.072821828688735
770.0, 0.04658860197908665
771.0, 0.013043817935918156
772.0, 0.013465107299515354
773.0, 0.06922046931018856
774.0, 0.02846298548628315
775.0, 0.027475793520221045
776.0, 0.04820301296664702
777.0, 0.03686326986245229
778.0, 0.044693177309888844
779.0, 0.03747628566648334
780.0, 0.02349975692699965
781.0, 0.01754979495097784
782.0, 0.06167169891470132
783.0, 0.04856556011760756
784.0, 0.05143046517112395
785.0, 0.06510465371950235
786.0, 0.06478004148857575
787.0, 0.05873221335134713
788.0, 0.05967199799296619
789.0, 0.06529172968766306
790.0, 0.07105444213989853
791.0, 0.0640453047495489
792.0, 0.07379289126788585
793.0, 0.06999069744467679
794.0, 0.05444742851193593
795.0, 0.03841561737848401
796.0, 0.07815258969656302
797.0, 0.05840623116678201
798.0, 0.032396504831008345
799.0, 0.02746177109866083
800.0, 0.04143532971939273
801.0, 0.03410874468275402
802.0, 0.05328334884825626
803.0, 0.06092620454317482
804.0, 0.009289076893758649
805.0, 0.028040193166981954
806.0, 0.03151500602346396
807.0, 0.019681749488915302
808.0, 0.00968752779840442
809.0, 0.05431979336931629
810.0, 0.026283827904242926
811.0, 0.013533978011288287
812.0, 0.026511578949690633
813.0, 0.05799516511759356
814.0, 0.017197759973904426
815.0, 0.02339010252274786
816.0, 0.05479225404664975
817.0, 0.08331269240513711
818.0, 0.06061374317094517
819.0, 0.02821498772896792
820.0, 0.03998518740594568
821.0, 0.0540733554759436
822.0, 0.03852634083311038
823.0, 0.040099967266119474
824.0, 0.04173427248565539
825.0, 0.03860135316786022
826.0, 0.03228493917661203
827.0, 0.02804179327280226
828.0, 0.05144330119308268
829.0, 0.044408380826468224
830.0, 0.03434069733229045
831.0, 0.03339741478702147
832.0, 0.013639156410449165
833.0, 0.03177139577297439
834.0, 0.0547823344833164
835.0, 0.05417203565033485
836.0, 0.007167803775301285
837.0, 0.036479648181532806
838.0, 0.03316790800997182
839.0, 0.03586526243465652
840.0, 0.04414440148484863
841.0, 0.009158683991259114
842.0, 0.01621318532839587
843.0, 0.04016827671322718
844.0, 0.06270879846364504
845.0, 0.06559592550867138
846.0, 0.02096882695137448
847.0, 0.03186509338167339
848.0, 0.033345720284132976
849.0, 0.02280714694611113
850.0, 0.026190093326480736
851.0, 0.06029878153192675
852.0, 0.0381492055084366
853.0, 0.029314032105751273
854.0, 0.05513984428792753
855.0, 0.0412104664603244
856.0, 0.01949508782454706
857.0, 0.02809124576200467
858.0, 0.04676386333931659
859.0, 0.04917009322250017
860.0, 0.05159233738670904
861.0, 0.029354850680967888
862.0, 0.021767621361899428
863.0, 0.03966596195744538
864.0, 0.07764693127415234
865.0, 0.03547244209068254
866.0, 0.036187816672309185
867.0, 0.05308968034578868
868.0, 0.06424627955897672
869.0, 0.060864467506281474
870.0, 0.07172205252170946
871.0, 0.048383980193396514
872.0, 0.03538867310185354
873.0, 0.07942844522142456
874.0, 0.052915746495811565
875.0, 0.06637558026019626
876.0, 0.06751364945390659
877.0, 0.04623117797793834
878.0, 0.017763367965966736
879.0, 0.08134276855047466
880.0, 0.06239271396319307
881.0, 0.038010169756796594
882.0, 0.04906967071046053
883.0, 0.060136381134014705
884.0, 0.06961602928543138
885.0, 0.05145089104579209
886.0, 0.038099161231652676
887.0, 0.05625635117607892
888.0, 0.01998945333010418
889.0, 0.03763910548132534
890.0, 0.053137811048578384
891.0, 0.05331725920957532
892.0, 0.043151371572364906
893.0, 0.03579420841750688
894.0, 0.016237403500618707
895.0, 0.020978382765245062
896.0, 0.04949207862344002
897.0, 0.048905008925780646
898.0, 0.01930105375507994
899.0, 0.03117041370316296
900.0, 0.05235261073109975
901.0, 0.050009729914391045
902.0, 0.011716647250126156
903.0, 0.05050173974041415
904.0, 0.05131161850935851
905.0, 0.03547904940025393
906.0, 0.051478387759312356
907.0, 0.04215493939835974
908.0, 0.044408709459601736
909.0, 0.05113277393195736
910.0, 0.05459515348724109
911.0, 0.04525417771961645
912.0, 0.07071963503929894
913.0, 0.0647797106006087
914.0, 0.0651569877607651
915.0, 0.07608274228654159
916.0, 0.04832118973954089
917.0, 0.013654528191773813
918.0, 0.04033064227322757
919.0, 0.0673846625496461
920.0, 0.05514729137790256
921.0, 0.07290517663433457
922.0, 0.05416262337805443
923.0, 0.05214354565389254
924.0, 0.054582899227409325
925.0, 0.041426493657405514
926.0, 0.05335569303257945
927.0, 0.044076696446605654
928.0, 0.040142163929707965
929.0, 0.048530440601031816
930.0, 0.06633510595079505
931.0, 0.05121202906969299
932.0, 0.06194233599757466
933.0, 0.07044211952647281
934.0, 0.06343627698835763
935.0, 0.039459931010532384
936.0, 0.03062392558511232
937.0, 0.02839761467908553
938.0, 0.043558925530603754
939.0, 0.06821917657770281
940.0, 0.05586705371135875
941.0, 0.07416152853042418
942.0, 0.060561104209714854
943.0, 0.03955857517150645
944.0, 0.038159179581499454
945.0, 0.06756667863943974
946.0, 0.06697065352887091
947.0, 0.06357999723298065
948.0, 0.06617503710074672
949.0, 0.07567172875185484
950.0, 0.06341990788794699
951.0, 0.06902688493744699
952.0, 0.05833486546721018
953.0, 0.043220589417129585
954.0, 0.048408620988660854
955.0, 0.03986233942695823
956.0, 0.0482888780404968
957.0, 0.052046034791335606
958.0, 0.05099533124549814
959.0, 0.05622481157541623
960.0, 0.02739736283494118
961.0, 0.05509119553371983
962.0, 0.04709095190288967
963.0, 0.019733684115906536
964.0, 0.0921990974031484
965.0, 0.02640290692722445
966.0, 0.021759597230141453
967.0, 0.05249066859329759
968.0, 0.07680372341255498
969.0, 0.028318061310023884
970.0, 0.05384905758230546
971.0, 0.0435423624809954
972.0, 0.027625073137106722
973.0, 0.02507895032900255
974.0, 0.019565818662001782
975.0, 0.011992407190089273
976.0, 0.018184656587914093
977.0, 0.03760370585600298
978.0, 0.05451846153292834
979.0, 0.010856697180646174
980.0, 0.0325870513377494
981.0, 0.05223380409147958
982.0, 0.05123009056241986
983.0, 0.03638777924283078
984.0, 0.08764548769215327
985.0, 0.04034604243718498
986.0, 0.023590759620367177
987.0, 0.04029411981390611
988.0, 0.06038789097140352
989.0, 0.009956926358271924
990.0, 0.032771278826589284
991.0, 0.059475079352756186
992.0, 0.06181287836365059
993.0, 0.035073915759143454
994.0, 0.06261112711563388
995.0, 0.030558966854851002
996.0, 0.0396046054465494
997.0, 0.05989018418447748
998.0, 0.03540931555415952
999.0, 0.027754208201073008
1000.0, 0.07254052427946762
1001.0, 0.06301771399811687
1002.0, 0.03544411769175707
1003.0, 0.06084450317912491
1004.0, 0.035484506906933985
1005.0, 0.051307085158898265
1006.0, 0.05516477500640186
1007.0, 0.04623681686802918
1008.0, 0.04373837432813859
1009.0, 0.055811520045956124
1010.0, 0.039805957472921
1011.0, 0.03094948456007754
1012.0, 0.04319724991900563
1013.0, 0.0767517160248356
1014.0, 0.07804034885242991
1015.0, 0.07932982186862783
1016.0, 0.07895856614605731
1017.0, 0.08225125773705802
1018.0, 0.09527325105714604
1019.0, 0.09363548790713551
1020.0, 0.0856046647870502
1021.0, 0.07334728638354397
1022.0, 0.07410696998990532
1023.0, 0.10450300877792253
1024.0, 0.09010923359414405
1025.0, 0.0789219172718534
1026.0, 0.060633803088392585
1027.0, 0.05210634559683339
1028.0, 0.07368235798828127
1029.0, 0.05240670435795528
1030.0, 0.04971669453599781
1031.0, 0.051025138692110464
1032.0, 0.049244271793004966
1033.0, 0.03956466276119143
1034.0, 0.011947197549321166
1035.0, 0.03705110443308564
1036.0, 0.04204585058524453
1037.0, 0.04113954263229477
1038.0, 0.06775155515745919
1039.0, 0.05261052876443635
1040.0, 0.06852575980498972
1041.0, 0.07772951947994479
1042.0, 0.08615948353921969
1043.0, 0.10459495861684209
1044.0, 0.08569190922034327
1045.0, 0.08784769365432929
1046.0, 0.10985225573925293
1047.0, 0.12500854325095093
1048.0, 0.11734637940319959
1049.0, 0.16145263706109722
1050.0, 0.16783115554787334
1051.0, 0.2064566852177424
1052.0, 0.23325608973159906
1053.0, 0.20582705696251347
1054.0, 0.17915659596067937
1055.0, 0.1780153447217433
1056.0, 0.1632233466510873
1057.0, 0.1428876795612592
1058.0, 0.12821853938842892
1059.0, 0.11735797572697473
1060.0, 0.09962130353779332
1061.0, 0.08561326978727116
1062.0, 0.07836676753460063
1063.0, 0.07448118517024838
1064.0, 0.058566232699907905
1065.0, 0.05604060433881225
1066.0, 0.03640108898861595
1067.0, 0.03065489789076045
1068.0, 0.04584813021217746
1069.0, 0.045573362157344866
1070.0, 0.04140949153681731
1071.0, 0.06259329353428565
1072.0, 0.06336341225445163
1073.0, 0.0343812303428274
1074.0, 0.009031824041548085
1075.0, 0.06306473574640024
1076.0, 0.03924613009304983
1077.0, 0.030043753340501786
1078.0, 0.04774223121448661
1079.0, 0.04420850858856962
1080.0, 0.008073708221593203
1081.0, 0.03769237655250155
1082.0, 0.03163576953959845
1083.0, 0.012390405107645015
1084.0, 0.046738948822440396
1085.0, 0.03476869323309016
1086.0, 0.026116937844020107
1087.0, 0.05557859841587809
1088.0, 0.07690906758623535
1089.0, 0.040849873719586996
1090.0, 0.009207971472863303
1091.0, 0.01581800482712774
1092.0, 0.03401410577155914
1093.0, 0.0517388508447956
1094.0, 0.05672243545421445
1095.0, 0.02796791910776768
1096.0, 0.012011179722539594
1097.0, 0.0120635464129469
1098.0, 0.010433719557750165
1099.0, 0.002395968055400432
1100.0, 0.008012220625105239
1101.0, 0.008967124972270958
1102.0, 0.014114231433306413
1103.0, 0.01155908578148593
1104.0, 0.006010736156626423
1105.0, 0.01680050497620169
1106.0, 0.002892802181333704
1107, 0.0
1108, 0.0
1109, 0.0
1110, 0.0
1111, 0.0
1112, 0.0
1113, 0.0
1114, 0.0
1115, 0.0
1116, 0.0
1117, 0.0
1118, 0.0
1119, 0.0
1120, 0.0
1121, 0.0
1122, 0.0
1123, 0.0
1124, 0.0
1125, 0.0
1126, 0.0
1127, 0.0
1128, 0.0
1129, 0.0
1130, 0.0
1131, 0.0
1132, 0.0
1133, 0.0
1134, 0.0
1135, 0.0
1136, 0.0
1137, 0.0
1138, 0.0
1139, 0.0
1140, 0.0
1141, 0.0
1142, 0.0
1143, 0.0
1144, 0.0
1145, 0.0
1146, 0.0
1147, 0.0
1148, 0.0
1149, 0.0
1150, 0.0
1151, 0.0
1152, 0.0
1153, 0.0
1154, 0.0
1155, 0.0
1156, 0.0
1157, 0.0
1158, 0.0
1159, 0.0
1160, 0.0
1161, 0.0
1162, 0.0
1163, 0.0
1164, 0.0
1165, 0.0
1166, 0.0
1167, 0.0
1168, 0.0
1169, 0.0
1170, 0.0
1171, 0.0
1172, 0.0
1173, 0.0
1174, 0.0
1175, 0.0
1176, 0.0
1177, 0.0
1178, 0.0
1179, 0.0
1180, 0.0
1181, 0.0
1182, 0.0
1183, 0.0
1184, 0.0
1185, 0.0
1186, 0.0
1187, 0.0
1188, 0.0
1189, 0.0
1190, 0.0
1191, 0.0
1192, 0.0
1193, 0.0
1194, 0.0
1195, 0.0
1196, 0.0
1197, 0.0
1198, 0.0
1199, 0.0
1200, 0.0
1201, 0.0
1202, 0.0
1203, 0.0
1204, 0.0
1205, 0.0
1206, 0.0
1207, 0.0
1208, 0.0
1209, 0.0
1210, 0.0
1211, 0.0
1212, 0.0
1213, 0.0
1214, 0.0
1215, 0.0
1216, 0.0
1217, 0.0
1218, 0.0
1219, 0.0
1220, 0.0
1221, 0.0
1222, 0.0
1223, 0.0
1224, 0.0
1225, 0.0
1226, 0.0
1227, 0.0
1228, 0.0
1229, 0.0
1230, 0.0
1231, 0.0
1232, 0.0
1233, 0.0
1234, 0.0
1235, 0.0
1236, 0.0
1237, 0.0
1238, 0.0
1239, 0.0
1240, 0.0
1241, 0.0
1242, 0.0
1243, 0.0
1244, 0.0
1245, 0.0
1246, 0.0
1247, 0.0
1248, 0.0
1249, 0.0
1250, 0.0
1251, 0.0
1252, 0.0
1253, 0.0
1254, 0.0
1255, 0.0
1256, 0.0
1257, 0.0
1258, 0.0
1259, 0.0
1260, 0.0
1261, 0.0
1262, 0.0
1263, 0.0
1264, 0.0
1265, 0.0
1266, 0.0
1267, 0.0
1268, 0.0
1269, 0.0
1270, 0.0
1271, 0.0
1272, 0.0
1273, 0.0
1274, 0.0
1275, 0.0
1276, 0.0
1277, 0.0
1278, 0.0
1279, 0.0
1280, 0.0
1281, 0.0
1282, 0.0
1283, 0.0
1284, 0.0
1285, 0.0
1286, 0.0
1287, 0.0
1288, 0.0
1289, 0.0
1290, 0.0
1291, 0.0
1292, 0.0
1293, 0.0
1294, 0.0
1295, 0.0
1296, 0.0
1297, 0.0
1298, 0.0
1299, 0.0
1300, 0.0
1301, 0.0
1302, 0.0
1303, 0.0
1304, 0.0
1305, 0.0
1306, 0.0
1307, 0.0
1308, 0.0
1309, 0.0
1310, 0.0
1311, 0.0
1312, 0.0
1313, 0.0
1314, 0.0
1315, 0.0
1316, 0.0
1317, 0.0
1318, 0.0
1319, 0.0
1320, 0.0
1321, 0.0
1322, 0.0
1323, 0.0
1324, 0.0
1325, 0.0
1326, 0.0
1327, 0.0
1328, 0.0
1329, 0.0
1330, 0.0
1331, 0.0
1332, 0.0
1333, 0.0
1334, 0.0
1335, 0.0
1336, 0.0
1337, 0.0
1338, 0.0
1339, 0.0
1340, 0.0
1341, 0.0
1342, 0.0
1343, 0.0
1344, 0.0
1345, 0.0
1346, 0.0
1347, 0.0
1348, 0.0
1349, 0.0
1350, 0.0
1351, 0.0
1352, 0.0
1353, 0.0
1354, 0.0
1355, 0.0
1356, 0.0
1357, 0.0
1358, 0.0
1359, 0.0
1360, 0.0
1361, 0.0
1362, 0.0
1363, 0.0
1364, 0.0
1365, 0.0
1366, 0.0
1367, 0.0
1368, 0.0
1369, 0.0
1370, 0.0
1371, 0.0
1372, 0.0
1373, 0.0
1374, 0.0
1375, 0.0
1376, 0.0
1377, 0.0
1378, 0.0
1379, 0.0
1380, 0.0
1381, 0.0
1382, 0.0
1383, 0.0
1384, 0.0
1385, 0.0
1386, 0.0
1387, 0.0
1388, 0.0
1389, 0.0
1390, 0.0
1391, 0.0
1392, 0.0
1393, 0.0
1394, 0.0
1395, 0.0
1396, 0.0
1397, 0.0
1398, 0.0
1399, 0.0
1400, 0.0
1401, 0.0
1402, 0.0
1403, 0.0
1404, 0.0
1405, 0.0
1406, 0.0
1407, 0.0
1408, 0.0
1409, 0.0
1410, 0.0
1411, 0.0
1412, 0.0
1413, 0.0
1414, 0.0
1415, 0.0
1416, 0.0
1417, 0.0
1418, 0.0
1419, 0.0
1420, 0.0
1421, 0.0
1422, 0.0
1423, 0.0
1424, 0.0
1425, 0.0
1426, 0.0
1427, 0.0
1428, 0.0
1429, 0.0
1430, 0.0
1431, 0.0
1432, 0.0
1433, 0.0
1434, 0.0
1435, 0.0
1436, 0.0
1437, 0.0
1438, 0.0
1439, 0.0
1440, 0.0
1441, 0.0
1442, 0.0
1443, 0.0
1444, 0.0
1445, 0.0
1446, 0.0
1447, 0.0
1448, 0.0
1449, 0.0
1450, 0.0
1451, 0.0
1452, 0.0
1453, 0.0
1454, 0.0
1455, 0.0
1456, 0.0
1457, 0.0
1458, 0.0
1459, 0.0
1460, 0.0
1461, 0.0
1462, 0.0
1463, 0.0
1464, 0.0
1465, 0.0
1466, 0.0
1467, 0.0
1468, 0.0
1469, 0.0
1470, 0.0
1471, 0.0
1472, 0.0
1473, 0.0
1474, 0.0
1475, 0.0
1476, 0.0
1477, 0.0
1478, 0.0
1479, 0.0
1480, 0.0
1481, 0.0
1482, 0.0
1483, 0.0
1484, 0.0
1485, 0.0
1486, 0.0
1487, 0.0
1488, 0.0
1489, 0.0
1490, 0.0
1491, 0.0
1492, 0.0
1493, 0.0
1494, 0.0
1495, 0.0
1496, 0.0
1497, 0.0
1498, 0.0
1499, 0.0
1500, 0.0
1501, 0.0
1502, 0.0
1503, 0.0
1504, 0.0
1505, 0.0
1506, 0.0
1507, 0.0
1508, 0.0
1509, 0.0
1510, 0.0
1511, 0.0
1512, 0.0
1513, 0.0
1514, 0.0
1515, 0.0
1516, 0.0
1517, 0.0
1518, 0.0
1519, 0.0
1520, 0.0
1521, 0.0
1522, 0.0
1523, 0.0
1524, 0.0
1525, 0.0
1526, 0.0
1527, 0.0
1528, 0.0
1529, 0.0
1530, 0.0
1531, 0.0
1532, 0.0
1533, 0.0
1534, 0.0
1535, 0.0
1536, 0.0
1537, 0.0
1538, 0.0
1539, 0.0
1540, 0.0
1541, 0.0
1542, 0.0
1543, 0.0
1544, 0.0
1545, 0.0
1546, 0.0
1547, 0.0
1548, 0.0
1549, 0.0
1550, 0.0
1551, 0.0
1552, 0.0
1553, 0.0
1554, 0.0
1555, 0.0
1556, 0.0
1557, 0.0
1558, 0.0
1559, 0.0
1560, 0.0
1561, 0.0
1562, 0.0
1563, 0.0
1564, 0.0
1565, 0.0
1566, 0.0
1567, 0.0
1568, 0.0
1569, 0.0
1570, 0.0
1571, 0.0
1572, 0.0
1573, 0.0
1574, 0.0
1575, 0.0
1576, 0.0
1577, 0.0
1578, 0.0
1579, 0.0
1580, 0.0
1581, 0.0
1582, 0.0
1583, 0.0
1584, 0.0
1585, 0.0
1586, 0.0
1587, 0.0
1588, 0.0
1589, 0.0
1590, 0.0
1591, 0.0
1592, 0.0
1593, 0.0
1594, 0.0
1595, 0.0
1596, 0.0
1597, 0.0
1598, 0.0
1599, 0.0
