30, 0.0
31, 0.0
32, 0.0
33, 0.0
34, 0.0
35, 0.0
36, 0.0
37, 0.0
38, 0.0
39, 0.0
40, 0.0
41, 0.0
42, 0.0
43, 0.0
44, 0.0
45, 0.0
46, 0.0
47, 0.0
48, 0.0
49, 0.0
50, 0.0
51, 0.0
52, 0.0
53, 0.0
54, 0.0
55, 0.0
56, 0.0
57, 0.0
58, 0.0
59, 0.0
60, 0.0
61, 0.0
62, 0.0
63, 0.0
64, 0.0
65, 0.0
66, 0.0
67, 0.0
68, 0.0
69, 0.0
70, 0.0
71, 0.0
72, 0.0
73, 0.0
74, 0.0
75, 0.0
76, 0.0
77, 0.0
78, 0.0
79, 0.0
80, 0.0
81, 0.0
82, 0.0
83, 0.0
84, 0.0
85, 0.0
86, 0.0
87, 0.0
88, 0.0
89, 0.0
90, 0.0
91, 0.0
92, 0.0
93, 0.0
94.0, 4.574927213420334e-05
95.0, 0.002405849301259583
96.0, 0.002375403700563944
97.0, 0.004353985124140264
98.0, 0.006292657690545265
99.0, 0.0022962097144014963
100.0, 0.00031575017323705876
101.0, 0.0002939589126630421
102.0, 0.00197550702168095
103.0, 0.0032979215242935705
104.0, 0.006513978161999204
105.0, 0.011928001690657703
106.0, 0.0179999248753972
107.0, 0.02445413391035673
108.0, 0.033076410403665414
109.0, 0.040336926599015874
110.0, 0.043727720873952644
111.0, 0.0447646366784693
112.0, 0.04668583334379106
113.0, 0.05217635652268629
114.0, 0.05990813148529317
115.0, 0.06303763133489443
116.0, 0.06871054243197358
117.0, 0.0727203433919758
118.0, 0.07279712286708917
119.0, 0.07160051284053177
120.0, 0.07403040474973752
121.0, 0.07669031508944292
122.0, 0.07886422382435186
123.0, 0.0835737274756071
124.0, 0.0862076089341104
125.0, 0.08703533067596876
126.0, 0.08570325175250962
127.0, 0.08291622814773036
128.0, 0.08233604570047247
129.0, 0.08091245096572793
130.0, 0.07936680842459964
131.0, 0.07856874230486059
132.0, 0.07271078467402388
133.0, 0.0664933717929143
134.0, 0.06106048528511232
135.0, 0.05642975364542839
136.0, 0.051984960145936586
137.0, 0.04832399604489758
138.0, 0.044609643197848534
139.0, 0.040944488099912316
140.0, 0.038491332471999797
141.0, 0.03514719295768488
142.0, 0.029420779206987865
143.0, 0.024058371473335362
144.0, 0.021914579148790796
145.0, 0.016107240785407737
146.0, 0.011819194699786465
147.0, 0.009382349376540415
148.0, 0.007234712605435804
149.0, 0.00504813645057094
150.0, 0.0024799438621094625
151.0, 0.0007746435622222746
152.0, 0.0029683680374977205
153.0, 0.003141121170378067
154.0, 0.0035102325142472948
155.0, 0.0025294876505895895
156.0, 0.000715643035216312
157.0, 0.002150709576333093
158.0, 0.0007018573794988019
159.0, 0.00019339575853608948
160.0, 0.0018459209096648394
161.0, 0.002571882937596682
162.0, 0.004084970455231151
163.0, 0.005826681036794762
164.0, 0.007573745711389531
165.0, 0.009588910593662434
166.0, 0.012432220602730339
167.0, 0.013467641097900114
168.0, 0.015112499046069096
169.0, 0.01817995536420271
170.0, 0.02082499847752833
171.0, 0.02404197542921266
172.0, 0.028063821808184522
173.0, 0.031247656347730014
174.0, 0.032762901220331514
175.0, 0.03519676686367682
176.0, 0.03996762273300687
177.0, 0.044086501048131076
178.0, 0.04704234389979704
179.0, 0.052355943361924874
180.0, 0.05648552833715354
181.0, 0.060192153586823054
182.0, 0.06391067103434796
183.0, 0.06727052268703965
184.0, 0.07125117985257985
185.0, 0.07508555653010242
186.0, 0.07879874932187073
187.0, 0.0827402378760524
188.0, 0.0867402890498704
189.0, 0.09113256706442793
190.0, 0.09530127144979005
191.0, 0.09858693225990217
192.0, 0.1009479586657675
193.0, 0.10624578785480182
194.0, 0.10982502367419746
195.0, 0.11183723903171475
196.0, 0.11562546285592097
197.0, 0.11900768537809066
198.0, 0.12138621690620073
199.0, 0.12327728727844048
200.0, 0.12539429865005067
201.0, 0.12911803569719432
202.0, 0.13020129895078714
203.0, 0.13119579838215376
204.0, 0.1329610699367223
205.0, 0.1333929631294718
206.0, 0.13432791813509562
207.0, 0.13494989098680793
208.0, 0.1344654712334332
209.0, 0.13283845967344224
210.0, 0.13140031570132063
211.0, 0.12994837340055626
212.0, 0.12846847083163546
213.0, 0.12684473268948646
214.0, 0.12468015993672506
215.0, 0.12132025187213688
216.0, 0.11882827390425853
217.0, 0.11687185432852498
218.0, 0.1146921692138601
219.0, 0.1127547345493771
220.0, 0.10961976073621707
221.0, 0.10626241216067894
222.0, 0.10285454622318405
223.0, 0.09849243344571988
224.0, 0.09572076215903366
225.0, 0.09181880041582997
226.0, 0.08779854186171923
227.0, 0.08554212375352743
228.0, 0.08218843824315639
229.0, 0.07899412124227964
230.0, 0.0766830167320247
231.0, 0.07449296383560014
232.0, 0.07048377426653735
233.0, 0.06654340231743017
234.0, 0.06365149418161055
235.0, 0.061545368128237146
236.0, 0.05913125708429501
237.0, 0.05518378423201964
238.0, 0.05152669622859745
239.0, 0.05026188985798936
240.0, 0.05006237301273991
241.0, 0.04622378728750791
242.0, 0.04366330527256127
243.0, 0.04162623341888268
244.0, 0.039317571855694275
245.0, 0.036630635870462745
246.0, 0.035311536083292606
247.0, 0.0346153056993994
248.0, 0.032570818890419566
249.0, 0.029086180071671578
250.0, 0.026415321707311323
251.0, 0.02430803768141569
252.0, 0.02237273585580585
253.0, 0.020627566409628904
254.0, 0.019043628228408726
255.0, 0.017328005637606995
256.0, 0.015383659309207764
257.0, 0.013140370364748537
258.0, 0.01162908021172835
259.0, 0.01165926862566889
260.0, 0.01195156197409878
261.0, 0.009425913200792875
262.0, 0.008253838599939603
263.0, 0.008996368005665752
264.0, 0.006713197008324255
265.0, 0.004843375960377894
266.0, 0.0037980479818820463
267.0, 0.0030590993669069888
268.0, 0.002227038855259977
269.0, 0.002297598885663353
270.0, 0.0016584975958733243
271.0, 0.0006073734633880571
272.0, 0.00020252904123968304
273.0, 0.0003269416038832742
274.0, 0.000689656406264022
275.0, 0.0009677118146981568
276.0, 0.0012225160149415602
277.0, 0.0014649790548140274
278.0, 0.0012538757560316455
279.0, 0.000686027346312482
280.0, 0.0012146463650241997
281.0, 0.0018121997304913707
282.0, 0.0012966476753120651
283.0, 0.001604839576627982
284.0, 0.0012204460086733713
285.0, 0.001372362266024768
286.0, 0.0020246207037990893
287.0, 0.0019248701046999392
288.0, 0.001370569300965766
289.0, 0.0018280469474863219
290.0, 0.001876219578591528
291.0, 0.0011953320821241958
292.0, 0.0019012761260663413
293.0, 0.0014246505725843954
294.0, 0.0004956455148021288
295.0, 6.204146962344885e-05
296.0, 5.996888839263307e-05
297.0, 0.00017107965778673375
298.0, 0.00022760745396278843
299.0, 0.0007492252051581019
300.0, 0.001206500357354812
301.0, 0.0016488754892464302
302.0, 0.0019466606498674654
303.0, 0.00339063450701186
304.0, 0.004699025815426704
305.0, 0.005209905713992956
306.0, 0.005920969051517869
307.0, 0.0071169612201814544
308.0, 0.008385817748016436
309.0, 0.009581235520139222
310.0, 0.010825738132928385
311.0, 0.012422555914086206
312.0, 0.014842540650617995
313.0, 0.01636346496730379
314.0, 0.0183926027227027
315.0, 0.02211158274441494
316.0, 0.024983885671648897
317.0, 0.028643510799709972
318.0, 0.031253685184386065
319.0, 0.03397965176363885
320.0, 0.039065098031985254
321.0, 0.044441045730687564
322.0, 0.0478532781120886
323.0, 0.051945044430872785
324.0, 0.05771640622713004
325.0, 0.06348824924480763
326.0, 0.06721239695028193
327.0, 0.07059524752041403
328.0, 0.07543671688919391
329.0, 0.08096588693912207
330.0, 0.08441462676403862
331.0, 0.087238673784916
332.0, 0.09141416542277352
333.0, 0.0978928728940232
334.0, 0.10517434022274211
335.0, 0.11044840934344353
336.0, 0.11544605847036245
337.0, 0.12283350521476494
338.0, 0.13120308569094594
339.0, 0.13922998283203858
340.0, 0.14778499802376455
341.0, 0.15696593699124767
342.0, 0.16764460118903135
343.0, 0.17734131492433075
344.0, 0.1847422910728435
345.0, 0.19341537516138804
346.0, 0.20312794935067635
347.0, 0.21352304998172636
348.0, 0.22407406531673482
349.0, 0.23412193832290823
350.0, 0.24206786292600752
351.0, 0.25222142630942695
352.0, 0.2630128108235886
353.0, 0.2731085228921018
354.0, 0.28230350667454107
355.0, 0.29146574630327193
356.0, 0.3005827087483878
357.0, 0.30918829997292246
358.0, 0.3169180310351114
359.0, 0.3234490322334466
360.0, 0.3282199853239587
361.0, 0.33207872338870237
362.0, 0.3363808535635212
363.0, 0.3396335737780647
364.0, 0.3400781561187791
365.0, 0.338927207100466
366.0, 0.33775379577142073
367.0, 0.33429121105114834
368.0, 0.3299299036714332
369.0, 0.32606330482762336
370.0, 0.31818200172935385
371.0, 0.30871321747418046
372.0, 0.2999853154427008
373.0, 0.290592117932352
374.0, 0.2786042624519008
375.0, 0.26788889230530255
376.0, 0.25662357976720285
377.0, 0.24370650052463988
378.0, 0.23101226956395632
379.0, 0.22100792068506797
380.0, 0.20849197602839886
381.0, 0.19714119306549416
382.0, 0.1860340249210104
383.0, 0.17506449613361483
384.0, 0.1651093641166309
385.0, 0.15507753432960247
386.0, 0.1450020739637383
387.0, 0.1361869324002
388.0, 0.12827800768795555
389.0, 0.12030107926970313
390.0, 0.11278547883112772
391.0, 0.10563477000405821
392.0, 0.09875147781584602
393.0, 0.0920650048423744
394.0, 0.08552783451673965
395.0, 0.07939309775571855
396.0, 0.0750935032333393
397.0, 0.0706160356700118
398.0, 0.06533239628103112
399.0, 0.05994365235179662
400.0, 0.05493804858777756
401.0, 0.05047369517175371
402.0, 0.045714917826864404
403.0, 0.041302960123302875
404.0, 0.03747921790171103
405.0, 0.033241641042099826
406.0, 0.02883112459355274
407.0, 0.02531180947876839
408.0, 0.022162403500150942
409.0, 0.018640906984144334
410.0, 0.014661210520657067
411.0, 0.011392960590983093
412.0, 0.008688446952441878
413.0, 0.006346080915730434
414.0, 0.004164946150519656
415.0, 0.001940746268904793
416.0, 0.0005470146430856836
417.0, 0.0009281894540688001
418.0, 0.001559618537260657
419.0, 0.00282904382851881
420.0, 0.0028777669519657032
421.0, 0.0016679905175757369
422.0, 0.0008930728613730938
423.0, 0.0002279506739802753
424.0, 0.0011896708924505933
425.0, 0.0034470544487543216
426.0, 0.0063902440093854965
427.0, 0.010434428016054818
428.0, 0.014480952598469123
429.0, 0.018959565337588222
430.0, 0.02439960339229844
431.0, 0.030144166528128784
432.0, 0.03619921688716132
433.0, 0.04257248893228291
434.0, 0.04771238733996013
435.0, 0.05151242204282989
436.0, 0.055838181048535634
437.0, 0.05805376103854955
438.0, 0.06026383533184101
439.0, 0.06152100578175852
440.0, 0.06137907941201974
441.0, 0.06127388067609918
442.0, 0.061736077562103295
443.0, 0.06322634961968725
444.0, 0.06370685824114405
445.0, 0.06357069853094244
446.0, 0.06398109579304444
447.0, 0.06408586425376019
448.0, 0.060584273469265953
449.0, 0.05894299148750566
450.0, 0.05750728422438415
451.0, 0.05454357257322551
452.0, 0.05157255993417183
453.0, 0.047370599932314406
454.0, 0.04341063193326892
455.0, 0.03953559846729064
456.0, 0.0356674594477089
457.0, 0.03198335093460595
458.0, 0.02801043007633469
459.0, 0.025776804172853707
460.0, 0.023035546078266095
461.0, 0.020107416654140464
462.0, 0.01781818229955459
463.0, 0.015412317458175631
464.0, 0.01444396726992668
465.0, 0.012805326622412063
466.0, 0.010691104736257437
467.0, 0.009035482811344734
468.0, 0.008178870545378976
469.0, 0.007276687383957926
470.0, 0.006722170307175441
471.0, 0.0060916431348443136
472.0, 0.005298453251642729
473.0, 0.004619241125810283
474.0, 0.004137389212907625
475.0, 0.0032255414376554815
476.0, 0.00300474985956497
477.0, 0.0028505004378160466
478.0, 0.0025089118464140274
479.0, 0.0027527583846454523
480.0, 0.0013599928786845843
481.0, 0.0009132058555068117
482.0, 0.0006567273113822058
483.0, 8.805772310364875e-05
484.0, 0.0006359530814298126
485.0, 0.00020932764466688849
486.0, 0.00023199109967151217
487.0, 0.0006686021092235165
488.0, 0.0008218915663087362
489.0, 0.0010312421237575022
490.0, 0.0013180496602527684
491.0, 0.0013425966652599235
492.0, 0.0013999221897233953
493.0, 0.0012773485937742825
494.0, 0.001354873172922517
495.0, 0.0017921384615062804
496.0, 0.0015855219969659361
497.0, 0.0010877252048660257
498.0, 0.001383140477165736
499.0, 0.0013121886215098591
500.0, 0.0007454910758002176
501.0, 0.0008947687587871493
502.0, 0.00014734712366266419
503.0, 4.9275044263322735e-05
504.0, 0.00013825686590171886
505.0, 0.000556713889850132
506.0, 0.0006799140807482985
507.0, 0.0008128199900973482
508.0, 0.0015135048120131578
509.0, 0.0019210951706588482
510.0, 0.002169192227563932
511.0, 0.002399886390650001
512.0, 0.0024549188422499533
513.0, 0.0024959102123017665
514.0, 0.0032368550892728936
515.0, 0.0034226823504758313
516.0, 0.003947933000641804
517.0, 0.004843983389283428
518.0, 0.0046750729214424785
519.0, 0.005223682431590653
520.0, 0.005806687164597292
521.0, 0.0060949256967670834
522.0, 0.006568609423018762
523.0, 0.007098674551824524
524.0, 0.006690415448636665
525.0, 0.006803115077856319
526.0, 0.007776788849233453
527.0, 0.008099339419206951
528.0, 0.008021214405452618
529.0, 0.00825407781194198
530.0, 0.007833498422046122
531.0, 0.008535758591394287
532.0, 0.009353027938361
533.0, 0.009647429926370516
534.0, 0.009662728743672154
535.0, 0.009872103023258656
536.0, 0.010215415349730887
537.0, 0.010332468948898972
538.0, 0.01104993527249482
539.0, 0.011505118022360152
540.0, 0.011530523413788707
541.0, 0.012206788949820576
542.0, 0.012660712067191809
543.0, 0.012369594263988764
544.0, 0.012748136635872213
545.0, 0.01338637348087173
546.0, 0.013245818319496071
547.0, 0.012381706192416901
548.0, 0.012914265223944506
549.0, 0.013254248169731052
550.0, 0.013302916919473681
551.0, 0.013153647676999882
552.0, 0.013029076652002307
553.0, 0.013501837185671087
554.0, 0.012832171972691903
555.0, 0.012488184331327102
556.0, 0.012461289856703426
557.0, 0.012579390327031066
558.0, 0.012766529593317496
559.0, 0.012544975931359044
560.0, 0.012325088477037633
561.0, 0.01225750979904806
562.0, 0.012170356121527493
563.0, 0.012270237093931137
564.0, 0.012564360314343671
565.0, 0.012032178466391517
566.0, 0.011949086956643776
567.0, 0.011830484885700284
568.0, 0.011605911673494347
569.0, 0.011445679822345622
570.0, 0.01147811136973876
571.0, 0.011754518449603681
572.0, 0.011976031005460169
573.0, 0.011866386061989346
574.0, 0.011714403162189213
575.0, 0.011770915962672284
576.0, 0.012004361425512452
577.0, 0.012214848455829368
578.0, 0.012289822566954184
579.0, 0.012943510539276908
580.0, 0.01318602606062742
581.0, 0.013604079204047818
582.0, 0.01507686155908931
583.0, 0.01563473941349016
584.0, 0.01636331073676331
585.0, 0.01721289450926237
586.0, 0.017859526029376904
587.0, 0.018886128614184206
588.0, 0.020571787829863606
589.0, 0.021599497623213112
590.0, 0.02297488877252124
591.0, 0.024095840876321307
592.0, 0.02588387961363917
593.0, 0.027847706178518
594.0, 0.029329634775001646
595.0, 0.03196963049605209
596.0, 0.034110148105605684
597.0, 0.03686316520134381
598.0, 0.039188463917590295
599.0, 0.04098876840950885
600.0, 0.04270199407353707
601.0, 0.04399492534387535
602.0, 0.045166823588762305
603.0, 0.04523365950484161
604.0, 0.04490415203464816
605.0, 0.043615864341793396
606.0, 0.041265922294447796
607.0, 0.039322533642284524
608.0, 0.036881518651666015
609.0, 0.03445115571285544
610.0, 0.03194637650417945
611.0, 0.029162564101829453
612.0, 0.02650363733788652
613.0, 0.024575445093745367
614.0, 0.022806134690666176
615.0, 0.0211909246600077
616.0, 0.01987207323232867
617.0, 0.01965666324631058
618.0, 0.019429759557956755
619.0, 0.017963952766954856
620.0, 0.01797864529233181
621.0, 0.017480904833509902
622.0, 0.01639309195241504
623.0, 0.015413696673968337
624.0, 0.014595048860905131
625.0, 0.013652085686930866
626.0, 0.012576534248799039
627.0, 0.011240903349877299
628.0, 0.008895739271609407
629.0, 0.007486211153087812
630.0, 0.006337948151844279
631.0, 0.004971433468441946
632.0, 0.0047009463541942765
633.0, 0.004224617387260499
634.0, 0.00266455594169415
635.0, 0.0015572050178815488
636.0, 0.001238101411367873
637.0, 0.001033306776548097
638.0, 0.0005695349083176419
639.0, 0.0003883131867351483
640.0, 9.7539493031104e-05
641.0, 0.00023622452535170378
642.0, 0.0003225574802415955
643.0, 0.0005170717296150768
644.0, 0.0009622220196523082
645.0, 0.0011086272835397475
646.0, 0.0013206783193351866
647.0, 0.0011180147064682837
648.0, 0.001222515239940162
649.0, 0.0018616990499334722
650.0, 0.002144376074408313
651.0, 0.001343196674853339
652.0, 0.0010514398994418764
653.0, 0.0002875964241135438
654.0, 0.0002819707010364448
655.0, 0.000296361738888934
656.0, 0.00012222871620603832
657.0, 0.00011929479215678316
658.0, 0.0003511549920965115
659.0, 0.001331132081708329
660.0, 0.0023163361298538425
661.0, 0.0032630023411993983
662.0, 0.003597476963713776
663.0, 0.003785721678329762
664.0, 0.004915988130876786
665.0, 0.0051522613458584565
666.0, 0.006261519281187084
667.0, 0.0071768234049128295
668.0, 0.007939229132373719
669.0, 0.008637035514479188
670.0, 0.009501369378437399
671.0, 0.011012680407928088
672.0, 0.011806011668419778
673.0, 0.013561663000377212
674.0, 0.014799083022664446
675.0, 0.015589694783262857
676.0, 0.016198138393962776
677.0, 0.016777182477219738
678.0, 0.018145141194789827
679.0, 0.01978154430184126
680.0, 0.020908800497171608
681.0, 0.021353250077797727
682.0, 0.022429598411353835
683.0, 0.024047619823293103
684.0, 0.02522184739354875
685.0, 0.02692804211486093
686.0, 0.02697240529499126
687.0, 0.028112148428517166
688.0, 0.029513775825089017
689.0, 0.030368710031790376
690.0, 0.030635137794235445
691.0, 0.030763549278751415
692.0, 0.03134456063782439
693.0, 0.03141683581345823
694.0, 0.0324464318553152
695.0, 0.033239013455601235
696.0, 0.033009915368597396
697.0, 0.032787255762141414
698.0, 0.03363335737096454
699.0, 0.0333280959768563
700.0, 0.03343949184999157
701.0, 0.033669317971396384
702.0, 0.032845815200352936
703.0, 0.03287632755597205
704.0, 0.03351311947750896
705.0, 0.032143759822749314
706.0, 0.03205219104448538
707.0, 0.03143478780682522
708.0, 0.03230898981584919
709.0, 0.031586633728129455
710.0, 0.029741806323626434
711.0, 0.02970163051345313
712.0, 0.030307991669353825
713.0, 0.029987408662916396
714.0, 0.027996633837816056
715.0, 0.028122381826475584
716.0, 0.027537987478230844
717.0, 0.025766179889757712
718.0, 0.024396251241469023
719.0, 0.02290664621084696
720.0, 0.023229995503147836
721.0, 0.022218422873226926
722.0, 0.020369915231723358
723.0, 0.01835253977416004
724.0, 0.016972521215608515
725.0, 0.015650721892574274
726.0, 0.012888377642392831
727.0, 0.012561686144087224
728.0, 0.012001351861446257
729.0, 0.010815192639482071
730.0, 0.009259423966188987
731.0, 0.007831200186755113
732.0, 0.006798803587273023
733.0, 0.00596915475566956
734.0, 0.005230524110785429
735.0, 0.003882102516727897
736.0, 0.0027595842210018356
737.0, 0.00242938091574164
738.0, 0.0023557087974085357
739.0, 0.00161578516537192
740.0, 0.000227517368141366
741.0, 0.00030845710793834673
742.0, 0.000332799908444331
743.0, 0.0002271397137440122
744.0, 0.0007207704278387139
745.0, 0.00165630605255596
746.0, 0.0021019441269030225
747.0, 0.0016498353089599463
748.0, 0.0007764291458263716
749.0, 0.0013112057223118507
750.0, 0.00038740794672521687
751.0, 0.0001661463410841638
752.0, 7.098342451483963e-05
753.0, 0.0004939973057882126
754.0, 0.0014674622958160302
755.0, 0.002610422671602793
756.0, 0.003612401233314551
757.0, 0.005440124392070892
758.0, 0.006601092234660533
759.0, 0.007740194871600965
760.0, 0.009574199799660304
761.0, 0.012078781949280585
762.0, 0.014474459167930078
763.0, 0.016205756483131235
764.0, 0.01968994606340018
765.0, 0.02306616918921391
766.0, 0.027742702513670017
767.0, 0.03248935098299064
768.0, 0.037178144699502855
769.0, 0.04323602897450915
770.0, 0.05062653711754631
771.0, 0.058887592409983716
772.0, 0.06709901301563535
773.0, 0.07871703940529924
774.0, 0.09041523969657234
775.0, 0.10276064406003114
776.0, 0.11917503254983658
777.0, 0.13881185102811847
778.0, 0.15706053932954162
779.0, 0.18087237028200462
780.0, 0.2052005519808457
781.0, 0.23379970836573066
782.0, 0.26485244424461996
783.0, 0.3001200320207241
784.0, 0.34051190308710017
785.0, 0.3824742981415221
786.0, 0.4275388186872191
787.0, 0.4750777463623222
788.0, 0.5271468606831212
789.0, 0.5777067007390267
790.0, 0.6301616885754934
791.0, 0.6852138354748318
792.0, 0.7382304744032142
793.0, 0.7898654708122209
794.0, 0.8385363207205981
795.0, 0.8827540724499517
796.0, 0.921094440053737
797.0, 0.9513833255241612
798.0, 0.9753717790151116
799.0, 0.9927882352211554
800.0, 0.9995499001654856
801.0, 0.99677126784081
802.0, 0.9848307711774359
803.0, 0.9678852559283686
804.0, 0.9417689946410825
805.0, 0.9100242952046332
806.0, 0.8750041894703938
807.0, 0.8343641316717036
808.0, 0.7869252216415168
809.0, 0.7398366402215091
810.0, 0.6926226112133694
811.0, 0.6461840664848126
812.0, 0.6011534363127751
813.0, 0.5571355773511674
814.0, 0.515583939798659
815.0, 0.47833953321142947
816.0, 0.4447693557787098
817.0, 0.41351794167387457
818.0, 0.3875342058350242
819.0, 0.36259419112277014
820.0, 0.3401936530821285
821.0, 0.32138374921050844
822.0, 0.302964455591976
823.0, 0.2841834899283219
824.0, 0.2671198729056262
825.0, 0.25141618084182676
826.0, 0.2354571043871889
827.0, 0.2205079486728609
828.0, 0.20561442514484365
829.0, 0.19040814237537868
830.0, 0.17559271631256737
831.0, 0.16128949701767534
832.0, 0.1473060017523621
833.0, 0.1341965023719303
834.0, 0.12289990254658628
835.0, 0.11145386305600688
836.0, 0.10036626777084827
837.0, 0.09068417589147526
838.0, 0.08009936131335164
839.0, 0.06971205938049285
840.0, 0.06141976579219941
841.0, 0.05318380576340503
842.0, 0.044815794566440824
843.0, 0.039211454863034956
844.0, 0.03404127342683938
845.0, 0.029227731692987566
846.0, 0.024693510416997855
847.0, 0.02093273463668654
848.0, 0.017659694325193008
849.0, 0.014221929010522699
850.0, 0.011249833400446413
851.0, 0.00858248427057753
852.0, 0.007046467869245051
853.0, 0.005340673042210357
854.0, 0.0031546707778344982
855.0, 0.002145328255343448
856.0, 0.002040621241416817
857.0, 0.0011344558798909235
858.0, 0.00014588780300176272
859.0, 0.0002395957736032629
860.0, 0.0013535922914989459
861.0, 0.00042621520396985974
862.0, 5.3966556330892125e-05
863.0, 0.0004966222522722676
864.0, 0.0009331433968872802
865.0, 0.0009578047546731341
866.0, 0.0007349632577197879
867.0, 0.0006176229332437921
868.0, 0.00021614429460365818
869.0, 0.00034174374092945227
870.0, 0.0005808203268630922
871.0, 0.0011179516449148527
872.0, 0.0010716737152566254
873.0, 0.0005990548311114051
874.0, 0.0005637321220932845
875.0, 0.0005614844504104092
876.0, 0.0007027440730213145
877.0, 0.0006338913981466269
878.0, 0.0008290597004502516
879.0, 0.0009619426168013726
880.0, 0.0006756475559407454
881.0, 0.00014512045070015907
882.0, 0.00015506058897395345
883.0, 0.0006593712010623309
884.0, 0.0006416024079565978
885.0, 0.00019512631382507267
886.0, 0.00016511914124292098
887.0, 0.0002709018544429325
888.0, 0.0006339463011572354
889.0, 0.0006430817247617465
890.0, 0.000860809444921395
891.0, 0.0010267454667488194
892.0, 0.000999403878242107
893.0, 0.0014353445538165992
894.0, 0.0015301325440910637
895.0, 0.0015280120198029657
896.0, 0.0016882485121397452
897.0, 0.0019701821177927343
898.0, 0.0016794393170225187
899.0, 0.0019433628367207193
900.0, 0.0025886767424298895
901.0, 0.002426902727300231
902.0, 0.0019168674213154379
903.0, 0.0026289311926702952
904.0, 0.0021230884501494446
905.0, 0.002405584768463257
906.0, 0.0024379269282371013
907.0, 0.0023904776668887814
908.0, 0.002361564667488093
909.0, 0.0025374924328546876
910.0, 0.002786779878900284
911.0, 0.0029093467931213474
912.0, 0.003402222158824637
913.0, 0.0039376271291937295
914.0, 0.003757273640006411
915.0, 0.004195113117527823
916.0, 0.004108161073900399
917.0, 0.004298715765621165
918.0, 0.004325671323031488
919.0, 0.004414989334707131
920.0, 0.0051224696717656415
921.0, 0.004788362853703663
922.0, 0.005117668173495674
923.0, 0.005751444173284162
924.0, 0.005520468809384259
925.0, 0.005802159215676727
926.0, 0.006175245156699182
927.0, 0.0067017736501603095
928.0, 0.007255336285003042
929.0, 0.007526074402340022
930.0, 0.00752427858355713
931.0, 0.007310979853753634
932.0, 0.00787094522579913
933.0, 0.009035008940483872
934.0, 0.009763184622045135
935.0, 0.010178411227593373
936.0, 0.01046439410456512
937.0, 0.010976237685481146
938.0, 0.012206010886203926
939.0, 0.013516239240365872
940.0, 0.01444885726735463
941.0, 0.016629097053327366
942.0, 0.017532151910968467
943.0, 0.019447919865851947
944.0, 0.022138637738589744
945.0, 0.02510574502098901
946.0, 0.028046231831326294
947.0, 0.030936803580334665
948.0, 0.03466961880252778
949.0, 0.03936002490036075
950.0, 0.04433599948105975
951.0, 0.05043822968766484
952.0, 0.0575446119569096
953.0, 0.06584086435030478
954.0, 0.07399663422914264
955.0, 0.08379840174798822
956.0, 0.09478468603738853
957.0, 0.10657328777245817
958.0, 0.12011876359641648
959.0, 0.1354638627661344
960.0, 0.1508723317509768
961.0, 0.16661042762153835
962.0, 0.18305558410603806
963.0, 0.1993253580619249
964.0, 0.2155499091728903
965.0, 0.23184840164678863
966.0, 0.24710790543182248
967.0, 0.2595227495073626
968.0, 0.2705188066512131
969.0, 0.2803080538556888
970.0, 0.2871071547161905
971.0, 0.29123009836568775
972.0, 0.291563664162701
973.0, 0.28921467929522704
974.0, 0.2812882493536852
975.0, 0.27200430464290337
976.0, 0.25745598650486673
977.0, 0.2390007906722174
978.0, 0.21890886344003427
979.0, 0.19661926567057772
980.0, 0.17302220838547364
981.0, 0.14944961607967452
982.0, 0.12618858570245883
983.0, 0.10718315367590611
984.0, 0.09083700270626578
985.0, 0.0743362605506753
986.0, 0.06203919800919193
987.0, 0.052332146715188155
988.0, 0.044270591219884275
989.0, 0.03781081371978799
990.0, 0.0327209571238113
991.0, 0.028466997566305715
992.0, 0.024541703966477806
993.0, 0.02176070816905314
994.0, 0.018298314049351054
995.0, 0.016452672490626298
996.0, 0.014548225742430101
997.0, 0.013321383981961313
998.0, 0.011821067038292521
999.0, 0.010353444162889592
1000.0, 0.00914363139104619
1001.0, 0.00831127643217542
1002.0, 0.007416595132996363
1003.0, 0.006054694987583191
1004.0, 0.0057425437196403
1005.0, 0.0048602440576626105
1006.0, 0.003941099434091894
1007.0, 0.0038083605052621787
1008.0, 0.0033826668283161976
1009.0, 0.00294274524970267
1010.0, 0.002387414818340443
1011.0, 0.0025641429936948536
1012.0, 0.0028453229278559648
1013.0, 0.001825077722983568
1014.0, 0.0009171821688754526
1015.0, 0.0009616122957367401
1016.0, 0.00042670608991767395
1017.0, 0.0002217388799516871
1018.0, 0.00015053395769186066
1019.0, 0.0001392717203666348
1020.0, 0.0006133312111533466
1021.0, 0.000288605320308021
1022.0, 7.622237035161726e-06
1023.0, 5.111451698058225e-06
1024.0, 0.0002910284830757406
1025.0, 0.0006196985139278675
1026.0, 0.0006471422672435314
1027.0, 0.00027191870454723805
1028.0, 9.299045957068937e-05
1029.0, 0.00030817936944237644
1030.0, 0.00022139630148572994
1031.0, 0.0002752539406401182
1032.0, 0.00025417159254619655
1033.0, 0.00020480059424539
1034.0, 4.3360226731098656e-05
1035.0, 0.00023070652698986213
1036.0, 0.00040841683786464565
1037.0, 6.767247616802652e-05
1038.0, 0.0005901168011582371
1039.0, 0.0007041677862029742
1040.0, 0.00019698102167608296
1041.0, 0.00034988081853784645
1042.0, 0.00022285701253366234
1043.0, 0.00010117589387642539
1044.0, 0.0001436822629487075
1045.0, 0.00031569777841777575
1046.0, 0.0003911037124120101
1047.0, 0.0003855631778353107
1048.0, 0.00035842025162280774
1049.0, 0.00041129937990340274
1050.0, 0.000551420496218163
1051.0, 8.765688611164944e-05
1052.0, 6.930631224368692e-05
1053.0, 0.0005778849518369515
1054.0, 0.00030189090412055693
1055.0, 0.0001531630244475549
1056.0, 0.0006213810692162476
1057.0, 0.00021306655790447604
1058.0, 0.0001985578043703248
1059.0, 5.16866812168186e-05
1060.0, 0.00041566043892920547
1061.0, 0.0005094602748175697
1062.0, 3.441875603828075e-05
1063.0, 8.081468398786535e-05
1064.0, 0.000663610636144513
1065.0, 0.00018742082183170292
1066.0, 0.00047745511249462305
1067.0, 0.0002600116874645885
1068.0, 0.0008103636305325107
1069.0, 0.0011408812672673713
1070.0, 0.001269538558782404
1071.0, 0.0012277964130404798
1072.0, 0.0008906741655742002
1073.0, 0.0010000576859615711
1074.0, 0.00139756456953559
1075.0, 0.0014433043706595318
1076.0, 0.0018077596456430717
1077.0, 0.0022312961530688504
1078.0, 0.002441100354160755
1079.0, 0.0018877912417153563
1080.0, 0.0025995675784096614
1081.0, 0.0027119493087954276
1082.0, 0.0027183648344467903
1083.0, 0.002391935557248013
1084.0, 0.002173861038161172
1085.0, 0.0024509717828493974
1086.0, 0.003104294097357597
1087.0, 0.0033378076920248063
1088.0, 0.0028224542097591214
1089.0, 0.002534162305771637
1090.0, 0.0028877003542203236
1091.0, 0.003478808136801534
1092.0, 0.0034586084013275625
1093.0, 0.003147266921798901
1094.0, 0.003282801961703169
1095.0, 0.0031060266576305507
1096.0, 0.003559451066475941
1097.0, 0.0033643495103554753
1098.0, 0.0038116596021610595
1099.0, 0.004274894822801394
1100.0, 0.0035538057494582994
1101.0, 0.0034162154018906364
1102.0, 0.004107353423811893
1103.0, 0.003821672711359152
1104.0, 0.0038695097446484316
1105.0, 0.004186153404295697
1106.0, 0.003739529418529228
1107.0, 0.003968825321753162
1108.0, 0.003888718012593574
1109.0, 0.004079059559320894
1110.0, 0.004101509102800319
1111.0, 0.0043121747423135685
1112.0, 0.004299006067796832
1113.0, 0.0037169148370706662
1114.0, 0.0036149523034883545
1115.0, 0.003931497384571432
1116.0, 0.004059543982495705
1117.0, 0.004070197730413535
1118.0, 0.00365305655758541
1119.0, 0.003581401641652723
1120.0, 0.004260335978090557
1121.0, 0.003982669976902776
1122.0, 0.00397823322076886
1123.0, 0.004509394660621177
1124.0, 0.004459260782278752
1125.0, 0.004465559889786249
1126.0, 0.0040972836553836755
1127.0, 0.004196229126953709
1128.0, 0.0038448489864349993
1129.0, 0.0037049102363429292
1130.0, 0.004503958034778468
1131.0, 0.004886639066586228
1132.0, 0.004629879946104001
1133.0, 0.004464496646795685
1134.0, 0.004027585763027026
1135.0, 0.0047263837970353394
1136.0, 0.0047649900201713865
1137.0, 0.004864600104247669
1138.0, 0.004775501512326584
1139.0, 0.00515130412668484
1140.0, 0.004815105286883608
1141.0, 0.0045426495733081485
1142.0, 0.005054836607539664
1143.0, 0.004680159555277176
1144.0, 0.004182648190950968
1145.0, 0.004486919060859502
1146.0, 0.004831177713111684
1147.0, 0.004477031054111387
1148.0, 0.004195424927915611
1149.0, 0.00433111478832517
1150.0, 0.004186486593686133
1151.0, 0.004468772527967552
1152.0, 0.0038061421932147795
1153.0, 0.004069535247207369
1154.0, 0.003916762517403287
1155.0, 0.0037737111827028822
1156.0, 0.0038497409377975045
1157.0, 0.003506522161966475
1158.0, 0.0035032034761795414
1159.0, 0.002913177259751392
1160.0, 0.0030957118280875964
1161.0, 0.00295321783488825
1162.0, 0.0027530429229052603
1163.0, 0.0029020032686250035
1164.0, 0.00262277610887888
1165.0, 0.002399945093756547
1166.0, 0.002238263677133161
1167.0, 0.0016164438814161497
1168.0, 0.00179591603341415
1169.0, 0.001708816367582645
1170.0, 0.0017713271818607127
1171.0, 0.001542468052304139
1172.0, 0.0018515918068128605
1173.0, 0.0014320435059816037
1174.0, 0.001319325168326215
1175.0, 0.001281798731758605
1176.0, 0.0008383774425520777
1177.0, 0.0005595603545068048
1178.0, 0.00021842686760742115
1179.0, 4.2200852863113956e-05
1180.0, 0.00019691221246917036
1181.0, 7.910380755336248e-05
1182.0, 0.0005884850149759028
1183.0, 0.0014593364541563851
1184.0, 0.0005676017967455175
1185.0, 0.00029845947794207366
1186.0, 9.462119328519139e-05
1187.0, 0.00031837226042837985
1188.0, 0.0002853679499131424
1189.0, 0.00043109912680236624
1190.0, 0.0005301343083021915
1191.0, 0.00010585737085088325
1192.0, 0.00011182843214192672
1193.0, 0.0003186281068473232
1194.0, 0.00010360732171680256
1195.0, 6.643686069812877e-05
1196.0, 0.00021632604533753662
1197.0, 0.00093727209236705
1198.0, 0.0007641480932647578
1199.0, 0.000601713495168264
1200.0, 0.0004986809770305106
1201.0, 0.0005166459788261874
1202.0, 0.000875085684774894
1203.0, 0.0007029366163515921
1204.0, 0.0011292126262288401
1205.0, 0.0010271217506122626
1206.0, 0.0010070356831677935
1207.0, 0.0010069280334313393
1208.0, 0.0007543686874394493
1209.0, 0.0006820091846385084
1210.0, 0.001114685972153281
1211.0, 0.0012014741416981804
1212.0, 0.001160030182362151
1213.0, 0.0007744407864895757
1214.0, 0.0008885425023135331
1215.0, 0.001174755105385877
1216.0, 0.0011899802750528479
1217.0, 0.0013028350914129165
1218.0, 0.0009853913084151799
1219.0, 0.0007123790086976752
1220.0, 0.0009440843871935642
1221.0, 0.0011670935713532435
1222.0, 0.0011933345138472593
1223.0, 0.0010285549899520649
1224.0, 0.0009329207108843467
1225.0, 0.001047732142084271
1226.0, 0.0010748537715836192
1227.0, 0.0012761008177526892
1228.0, 0.0020703016712801466
1229.0, 0.0018580602633350527
1230.0, 0.0018567656314410444
1231.0, 0.0023208141542502385
1232.0, 0.001896248493477712
1233.0, 0.0019447727004493563
1234.0, 0.002505518578796237
1235.0, 0.0027020773864317974
1236.0, 0.002631995051489641
1237.0, 0.002345460784276667
1238.0, 0.002296917913531943
1239.0, 0.002102460106643472
1240.0, 0.001898841308865982
1241.0, 0.0018745620402932641
1242.0, 0.0021418126174644328
1243.0, 0.002296015539616231
1244.0, 0.002374160449587423
1245.0, 0.002578811291275238
1246.0, 0.002364661511525351
1247.0, 0.0019356273801661597
1248.0, 0.001946407746881405
1249.0, 0.002001724800240807
1250.0, 0.0023445404362190227
1251.0, 0.002489846433967331
1252.0, 0.0022683048574802037
1253.0, 0.0019577708586246113
1254.0, 0.001990099389592781
1255.0, 0.002051938770828127
1256.0, 0.0015538605213078975
1257.0, 0.0014717223931422498
1258.0, 0.001370526859726935
1259.0, 0.0008443060045285434
1260.0, 0.0012386221398223768
1261.0, 0.001309873739289335
1262.0, 0.001082336572044601
1263.0, 0.0009539888655736528
1264.0, 0.0013551280014153047
1265.0, 0.0009181483807668444
1266.0, 0.0004953241748268204
1267.0, 0.0009462224371112648
1268.0, 0.001034198418894148
1269.0, 0.0007083140402718677
1270.0, 0.0008505603902986208
1271.0, 0.0007599967283563045
1272.0, 0.0004818083500943632
1273.0, 0.0002232298573958364
1274.0, 0.001118325365366285
1275.0, 0.0028221555539526717
1276.0, 0.0010728290583359164
1277.0, 0.0006797615657913627
1278.0, 0.0011072872848230425
1279.0, 2.1527816159493232e-05
1280.0, 0.00010108583665182438
1281.0, 0.0002524485037679875
1282.0, 0.000179696569739965
1283.0, 4.4048743403146885e-05
1284.0, 0.00012760865861211244
1285, 0.0
1286, 0.0
1287, 0.0
1288, 0.0
1289, 0.0
1290, 0.0
1291, 0.0
1292, 0.0
1293, 0.0
1294, 0.0
1295, 0.0
1296, 0.0
1297, 0.0
1298, 0.0
1299, 0.0
1300, 0.0
1301, 0.0
1302, 0.0
1303, 0.0
1304, 0.0
1305, 0.0
1306, 0.0
1307, 0.0
1308, 0.0
1309, 0.0
1310, 0.0
1311, 0.0
1312, 0.0
1313, 0.0
1314, 0.0
1315, 0.0
1316, 0.0
1317, 0.0
1318, 0.0
1319, 0.0
1320, 0.0
1321, 0.0
1322, 0.0
1323, 0.0
1324, 0.0
1325, 0.0
1326, 0.0
1327, 0.0
1328, 0.0
1329, 0.0
1330, 0.0
1331, 0.0
1332, 0.0
1333, 0.0
1334, 0.0
1335, 0.0
1336, 0.0
1337, 0.0
1338, 0.0
1339, 0.0
1340, 0.0
1341, 0.0
1342, 0.0
1343, 0.0
1344, 0.0
1345, 0.0
1346, 0.0
1347, 0.0
1348, 0.0
1349, 0.0
1350, 0.0
1351, 0.0
1352, 0.0
1353, 0.0
1354, 0.0
1355, 0.0
1356, 0.0
1357, 0.0
1358, 0.0
1359, 0.0
1360, 0.0
1361, 0.0
1362, 0.0
1363, 0.0
1364, 0.0
1365, 0.0
1366, 0.0
1367, 0.0
1368, 0.0
1369, 0.0
1370, 0.0
1371, 0.0
1372, 0.0
1373, 0.0
1374, 0.0
1375, 0.0
1376, 0.0
1377, 0.0
1378, 0.0
1379, 0.0
1380, 0.0
1381, 0.0
1382, 0.0
1383, 0.0
1384, 0.0
1385, 0.0
1386, 0.0
1387, 0.0
1388, 0.0
1389, 0.0
1390, 0.0
1391, 0.0
1392, 0.0
1393, 0.0
1394, 0.0
1395, 0.0
1396, 0.0
1397, 0.0
1398, 0.0
1399, 0.0
1400, 0.0
1401, 0.0
1402, 0.0
1403, 0.0
1404, 0.0
1405, 0.0
1406, 0.0
1407, 0.0
1408, 0.0
1409, 0.0
1410, 0.0
1411, 0.0
1412, 0.0
1413, 0.0
1414, 0.0
1415, 0.0
1416, 0.0
1417, 0.0
1418, 0.0
1419, 0.0
1420, 0.0
1421, 0.0
1422, 0.0
1423, 0.0
1424, 0.0
1425, 0.0
1426, 0.0
1427, 0.0
1428, 0.0
1429, 0.0
1430, 0.0
1431, 0.0
1432, 0.0
1433, 0.0
1434, 0.0
1435, 0.0
1436, 0.0
1437, 0.0
1438, 0.0
1439, 0.0
1440, 0.0
1441, 0.0
1442, 0.0
1443, 0.0
1444, 0.0
1445, 0.0
1446, 0.0
1447, 0.0
1448, 0.0
1449, 0.0
1450, 0.0
1451, 0.0
1452, 0.0
1453, 0.0
1454, 0.0
1455, 0.0
1456, 0.0
1457, 0.0
1458, 0.0
1459, 0.0
1460, 0.0
1461, 0.0
1462, 0.0
1463, 0.0
1464, 0.0
1465, 0.0
1466, 0.0
1467, 0.0
1468, 0.0
1469, 0.0
1470, 0.0
1471, 0.0
1472, 0.0
1473, 0.0
1474, 0.0
1475, 0.0
1476, 0.0
1477, 0.0
1478, 0.0
1479, 0.0
1480, 0.0
1481, 0.0
1482, 0.0
1483, 0.0
1484, 0.0
1485, 0.0
1486, 0.0
1487, 0.0
1488, 0.0
1489, 0.0
1490, 0.0
1491, 0.0
1492, 0.0
1493, 0.0
1494, 0.0
1495, 0.0
1496, 0.0
1497, 0.0
1498, 0.0
1499, 0.0
1500, 0.0
1501, 0.0
1502, 0.0
1503, 0.0
1504, 0.0
1505, 0.0
1506, 0.0
1507, 0.0
1508, 0.0
1509, 0.0
1510, 0.0
1511, 0.0
1512, 0.0
1513, 0.0
1514, 0.0
1515, 0.0
1516, 0.0
1517, 0.0
1518, 0.0
1519, 0.0
1520, 0.0
1521, 0.0
1522, 0.0
1523, 0.0
1524, 0.0
1525, 0.0
1526, 0.0
1527, 0.0
1528, 0.0
1529, 0.0
1530, 0.0
1531, 0.0
1532, 0.0
1533, 0.0
1534, 0.0
1535, 0.0
1536, 0.0
1537, 0.0
1538, 0.0
1539, 0.0
1540, 0.0
1541, 0.0
1542, 0.0
1543, 0.0
1544, 0.0
1545, 0.0
1546, 0.0
1547, 0.0
1548, 0.0
1549, 0.0
1550, 0.0
1551, 0.0
1552, 0.0
1553, 0.0
1554, 0.0
1555, 0.0
1556, 0.0
1557, 0.0
1558, 0.0
1559, 0.0
1560, 0.0
1561, 0.0
1562, 0.0
1563, 0.0
1564, 0.0
1565, 0.0
1566, 0.0
1567, 0.0
1568, 0.0
1569, 0.0
1570, 0.0
1571, 0.0
1572, 0.0
1573, 0.0
1574, 0.0
1575, 0.0
1576, 0.0
1577, 0.0
1578, 0.0
1579, 0.0
1580, 0.0
1581, 0.0
1582, 0.0
1583, 0.0
1584, 0.0
1585, 0.0
1586, 0.0
1587, 0.0
1588, 0.0
1589, 0.0
1590, 0.0
1591, 0.0
1592, 0.0
1593, 0.0
1594, 0.0
1595, 0.0
1596, 0.0
1597, 0.0
1598, 0.0
1599, 0.0
