30, 0.0
31, 0.0
32, 0.0
33, 0.0
34, 0.0
35, 0.0
36, 0.0
37, 0.0
38, 0.0
39, 0.0
40, 0.0
41, 0.0
42, 0.0
43, 0.0
44, 0.0
45, 0.0
46, 0.0
47, 0.0
48, 0.0
49, 0.0
50, 0.0
51, 0.0
52, 0.0
53, 0.0
54, 0.0
55, 0.0
56, 0.0
57, 0.0
58, 0.0
59, 0.0
60, 0.0
61, 0.0
62, 0.0
63, 0.0
64, 0.0
65, 0.0
66, 0.0
67, 0.0
68, 0.0
69, 0.0
70, 0.0
71, 0.0
72, 0.0
73, 0.0
74, 0.0
75, 0.0
76, 0.0
77, 0.0
78, 0.0
79, 0.0
80, 0.0
81, 0.0
82, 0.0
83, 0.0
84, 0.0
85, 0.0
86, 0.0
87, 0.0
88, 0.0
89, 0.0
90, 0.0
91, 0.0
92, 0.0
93, 0.0
94, 0.0
95, 0.0
96, 0.0
97, 0.0
98, 0.0
99, 0.0
100, 0.0
101.0, 3.29287222568565e-05
102.0, 0.0006377625137121319
103.0, 0.0031094726461542302
104.0, 0.006941602880589562
105.0, 0.013353923060455212
106.0, 0.02064224398573627
107.0, 0.02680420333881381
108.0, 0.030162066837538283
109.0, 0.026357412417851736
110.0, 0.018287456229265107
111.0, 0.009688201550496435
112.0, 0.003291834424615399
113.0, 0.00033221163061610535
114.0, 0.0004557930657760202
115.0, 0.002238124949990699
116.0, 0.007439750764130114
117.0, 0.015201630075103965
118.0, 0.02607745899565906
119.0, 0.04053876394984109
120.0, 0.05909224770538941
121.0, 0.08168084297294384
122.0, 0.10557780427743517
123.0, 0.127208030751945
124.0, 0.14510081357979063
125.0, 0.16222183643024227
126.0, 0.18035844793010214
127.0, 0.200710556933288
128.0, 0.22285132675025585
129.0, 0.2454166869569109
130.0, 0.269189844337335
131.0, 0.29582963111449134
132.0, 0.32677522357121236
133.0, 0.3603592173988318
134.0, 0.4016999430821291
135.0, 0.4500232312380428
136.0, 0.5075142757759603
137.0, 0.5778677276696745
138.0, 0.6684228767686589
139.0, 0.7791027670414313
140.0, 0.8935516482417964
141.0, 0.9818709645761706
142.0, 0.9942227499989067
143.0, 0.9315307011664274
144.0, 0.8333913254802952
145.0, 0.7281245147484792
146.0, 0.6168224574588532
147.0, 0.5000582287937204
148.0, 0.3913159373720959
149.0, 0.29821383317625444
150.0, 0.22459474764580578
151.0, 0.17065684276203627
152.0, 0.13031116322227082
153.0, 0.09948497528746869
154.0, 0.07560599408918886
155.0, 0.05680616335191447
156.0, 0.04145308624387115
157.0, 0.02928174845347472
158.0, 0.019867751174029398
159.0, 0.012537197816989405
160.0, 0.006801772771433236
161.0, 0.0024460248893214934
162.0, 0.0008867245996161939
163.0, 0.0035854762968616275
164.0, 0.005697296610885495
165.0, 0.007089980700465984
166.0, 0.007686750259942642
167.0, 0.007499740621791306
168.0, 0.006814842349336238
169.0, 0.005914915320191313
170.0, 0.004773023089955303
171.0, 0.0034161948383996297
172.0, 0.0020702603603628454
173.0, 0.0005592924083363872
174.0, 0.0018307328711673068
175.0, 0.004987044474194586
176.0, 0.008193298606244018
177.0, 0.01218865603992397
178.0, 0.016256119176591775
179.0, 0.020543493457700814
180.0, 0.025626199080136
181.0, 0.03204803497832663
182.0, 0.038964275797360816
183.0, 0.0464341104593865
184.0, 0.054561959237947155
185.0, 0.06314606020648587
186.0, 0.0712758885615705
187.0, 0.07775874132070693
188.0, 0.0811101323171789
189.0, 0.07983728147908578
190.0, 0.07357048748926649
191.0, 0.06535369794946456
192.0, 0.0575429263372359
193.0, 0.05181452676851424
194.0, 0.049146884330932776
195.0, 0.04620819714490894
196.0, 0.04313104739087534
197.0, 0.040214583167640906
198.0, 0.03701848050579709
199.0, 0.0374880373078831
200.0, 0.03931016409488968
201.0, 0.04214167037211308
202.0, 0.04689881846328597
203.0, 0.05349851780210954
204.0, 0.061436887409240165
205.0, 0.07092842943202421
206.0, 0.08236605871846933
207.0, 0.09605134605883263
208.0, 0.1105084405627008
209.0, 0.12662427633235707
210.0, 0.14638843333571952
211.0, 0.17093822701614425
212.0, 0.19898406948195646
213.0, 0.2305920177659581
214.0, 0.2646105162690625
215.0, 0.2963964875532876
216.0, 0.3180179313707614
217.0, 0.32069192527376944
218.0, 0.30561729092558026
219.0, 0.2784152246706818
220.0, 0.24641419398237477
221.0, 0.2176479563121817
222.0, 0.19343043111789737
223.0, 0.17402585423601732
224.0, 0.15865451896652047
225.0, 0.14519491850579797
226.0, 0.1336206330685858
227.0, 0.12133684887928535
228.0, 0.10769499207926217
229.0, 0.0938322742937124
230.0, 0.07955273620496967
231.0, 0.06627318516843876
232.0, 0.05419729278525041
233.0, 0.04340986264533165
234.0, 0.03486122753433452
235.0, 0.026855898839198852
236.0, 0.02051513063850364
237.0, 0.01600971394016005
238.0, 0.012680553558719
239.0, 0.009432542027363969
240.0, 0.006975340981539149
241.0, 0.0053045617486038
242.0, 0.004500606508580937
243.0, 0.0054626318055782525
244.0, 0.006018271576206524
245.0, 0.007277889997108641
246.0, 0.009171573198593653
247.0, 0.010840492026122216
248.0, 0.013295935826328004
249.0, 0.016491179742188295
250.0, 0.019930252292314238
251.0, 0.02370018795570335
252.0, 0.028496317113571264
253.0, 0.033490756320154816
254.0, 0.039318669330228255
255.0, 0.0467443090226903
256.0, 0.0554824563944656
257.0, 0.0640696203206497
258.0, 0.07179497750801243
259.0, 0.07803687408934767
260.0, 0.08320201963982644
261.0, 0.08812676522609214
262.0, 0.09238590957064909
263.0, 0.09835221630860201
264.0, 0.10529828203913096
265.0, 0.11275145783742802
266.0, 0.12223885072207513
267.0, 0.13278380683833998
268.0, 0.14361617316211203
269.0, 0.15562606230508239
270.0, 0.17003784910680278
271.0, 0.1834755401914551
272.0, 0.20060078883272603
273.0, 0.21991342274727876
274.0, 0.24030900018490714
275.0, 0.263156440723134
276.0, 0.28900122354919866
277.0, 0.3156820357845203
278.0, 0.3451189771650949
279.0, 0.37912068187575576
280.0, 0.4155789888856092
281.0, 0.45210940794370247
282.0, 0.48670610775534956
283.0, 0.5151552413669322
284.0, 0.5322011008538469
285.0, 0.5359814649797316
286.0, 0.5319313703806366
287.0, 0.5257706237833552
288.0, 0.5216794855160712
289.0, 0.521966395978956
290.0, 0.525705771724359
291.0, 0.5314485547003264
292.0, 0.5358093212015486
293.0, 0.5367365875934311
294.0, 0.5352443906828863
295.0, 0.5288975182295911
296.0, 0.519370007790438
297.0, 0.5054640539011448
298.0, 0.48579711454809654
299.0, 0.46248896425813496
300.0, 0.43441542635668645
301.0, 0.4047291809350506
302.0, 0.37552698918488164
303.0, 0.3470355679614086
304.0, 0.32028541245154957
305.0, 0.29240824219917116
306.0, 0.2661215748248026
307.0, 0.2426593265342007
308.0, 0.22007849021810774
309.0, 0.1987410336368225
310.0, 0.17973892850635237
311.0, 0.16172616550611224
312.0, 0.14423825289778783
313.0, 0.12942752314378345
314.0, 0.11614943927305645
315.0, 0.10418194712326352
316.0, 0.09361414583088386
317.0, 0.08403579386818853
318.0, 0.07448857516948934
319.0, 0.06650896263370892
320.0, 0.059260689720650614
321.0, 0.05258924742600546
322.0, 0.046837100016128216
323.0, 0.04156876262169841
324.0, 0.03647411117731106
325.0, 0.03242378415831546
326.0, 0.02913683720901512
327.0, 0.025513811697908305
328.0, 0.022153836098287118
329.0, 0.018888234445956845
330.0, 0.015727803413998633
331.0, 0.012918696599818768
332.0, 0.010687719219557888
333.0, 0.008407776814468948
334.0, 0.006672448460245876
335.0, 0.005250783323394033
336.0, 0.003953051050268633
337.0, 0.002984000502137705
338.0, 0.002176390258619169
339.0, 0.0010728352382230633
340.0, 0.00016443175434419023
341.0, 0.0002556568066002205
342.0, 0.0007581426193526108
343.0, 0.0008900254553683675
344.0, 0.000915972150919636
345.0, 0.0011224669712474652
346.0, 0.0014734926657526241
347.0, 0.0015717429428113885
348.0, 0.0014916618681608787
349.0, 0.0015087194472180995
350.0, 0.0016802893637724986
351.0, 0.0017782241438544127
352.0, 0.0011450122792656889
353.0, 0.0016365182833916155
354.0, 0.0016814353552742542
355.0, 0.001408137421582033
356.0, 0.0015823432411228207
357.0, 0.0011984206228729574
358.0, 0.001232639651347373
359.0, 0.0013858450660204106
360.0, 0.0013747293585828217
361.0, 0.001309452640091792
362.0, 0.001406821620247856
363.0, 0.0012564263981216424
364.0, 0.0013125009959931645
365.0, 0.001491674033312299
366.0, 0.0014968677628023944
367.0, 0.001427034944428283
368.0, 0.0011448838372857988
369.0, 0.0009379555824471652
370.0, 0.0009399664033640379
371.0, 0.0010345029826021048
372.0, 0.0009238669225764992
373.0, 0.0011772177073556787
374.0, 0.0012005529139498335
375.0, 0.0010580832871817916
376.0, 0.00103533610730797
377.0, 0.0005921011071531671
378.0, 0.0004882158499501203
379.0, 0.0003956760365867817
380.0, 0.00029760857524500445
381.0, 0.00031573246330909946
382.0, 4.8993555650520885e-05
383.0, 0.00010448286806802533
384.0, 0.00018518316930807017
385.0, 0.00022822417774423344
386.0, 0.00013710384498422134
387.0, 0.0001929678389203804
388.0, 0.00047380897688584965
389.0, 0.0005778882889528887
390.0, 0.0004991193625276218
391.0, 0.00046627870278362013
392.0, 0.0005768805594157339
393.0, 0.0008638839576986583
394.0, 0.0010616502076371765
395.0, 0.0012180463432944835
396.0, 0.0015184337336034443
397.0, 0.0020380416470507897
398.0, 0.002123149787363111
399.0, 0.0022859000205965444
400.0, 0.0027012090698039647
401.0, 0.003200590271332703
402.0, 0.00356012006152843
403.0, 0.004173578603950612
404.0, 0.004683212538112634
405.0, 0.005292474770640533
406.0, 0.006011846047222689
407.0, 0.006486139821000469
408.0, 0.007092619229822888
409.0, 0.00784489163370523
410.0, 0.008960364205496943
411.0, 0.010143723250609072
412.0, 0.011131232629731026
413.0, 0.012830162675658457
414.0, 0.01435581646853337
415.0, 0.016273687004622055
416.0, 0.01857537645212097
417.0, 0.020720795089126935
418.0, 0.022381632212215914
419.0, 0.024534809031017492
420.0, 0.0272391524708823
421.0, 0.03052893737172416
422.0, 0.034310519664252054
423.0, 0.03798821626018916
424.0, 0.04194558207601068
425.0, 0.04600166073563488
426.0, 0.05090364483175142
427.0, 0.0567803151829962
428.0, 0.06213938272680385
429.0, 0.06717134002904672
430.0, 0.07307891273667756
431.0, 0.07924179924160499
432.0, 0.08536064122756293
433.0, 0.09195378474847361
434.0, 0.09845270823826974
435.0, 0.10471483130519453
436.0, 0.11090829994448499
437.0, 0.11698217811507226
438.0, 0.12271233420065036
439.0, 0.1280759962885888
440.0, 0.1331304391412409
441.0, 0.1366972386739649
442.0, 0.13888240380091088
443.0, 0.1396644071903907
444.0, 0.13760295147298954
445.0, 0.1330234114509656
446.0, 0.12612143839113327
447.0, 0.1177217910139062
448.0, 0.10862553459971305
449.0, 0.09935102128227966
450.0, 0.08949156085352701
451.0, 0.07900455573267036
452.0, 0.07019169508988718
453.0, 0.06264881811909645
454.0, 0.054748788038422966
455.0, 0.04824442554390393
456.0, 0.04237057417277628
457.0, 0.037379591489744214
458.0, 0.03349994859169926
459.0, 0.030560266642451938
460.0, 0.027503557339171734
461.0, 0.025194473468351585
462.0, 0.02316171086682044
463.0, 0.022006274759997273
464.0, 0.021504893257882428
465.0, 0.020410971437299242
466.0, 0.0202123896009929
467.0, 0.02019242658367229
468.0, 0.021241249500153325
469.0, 0.022849415210591428
470.0, 0.02407140788536869
471.0, 0.02620570763748979
472.0, 0.028855486133070228
473.0, 0.03176989174312618
474.0, 0.03509966895359132
475.0, 0.03901478391779879
476.0, 0.04334321256700757
477.0, 0.047971217402267376
478.0, 0.053642488333370326
479.0, 0.060155786167721374
480.0, 0.06753982369715361
481.0, 0.07611031421428167
482.0, 0.08543581513962362
483.0, 0.09611849270512965
484.0, 0.10728353288340534
485.0, 0.11910330572168062
486.0, 0.13144560241625577
487.0, 0.14307444151243012
488.0, 0.1541553487760166
489.0, 0.16503565819697397
490.0, 0.1750629812003516
491.0, 0.18394612871671065
492.0, 0.19274689661598168
493.0, 0.20340999621913336
494.0, 0.21477636730385638
495.0, 0.22751474087216336
496.0, 0.24047777327414346
497.0, 0.2515921296938961
498.0, 0.2601510915338534
499.0, 0.267893257021571
500.0, 0.27311509659502203
501.0, 0.2735154934146791
502.0, 0.27013400650952607
503.0, 0.264193932763708
504.0, 0.2542831424887406
505.0, 0.2399640159037963
506.0, 0.2237527596491106
507.0, 0.20635367842432145
508.0, 0.1892152044303342
509.0, 0.17400214535909725
510.0, 0.1582319545890463
511.0, 0.1438298138155787
512.0, 0.13126596091782716
513.0, 0.1197579670304988
514.0, 0.10921055541874493
515.0, 0.10024068743359288
516.0, 0.0919913955658852
517.0, 0.08381302301286682
518.0, 0.07639614357154728
519.0, 0.06997337944595326
520.0, 0.06448806631518882
521.0, 0.06022553549846791
522.0, 0.055533838795044206
523.0, 0.051255856098158345
524.0, 0.04742597371757741
525.0, 0.04393091181135656
526.0, 0.040956805907207135
527.0, 0.03854605123904518
528.0, 0.03550998045896184
529.0, 0.031929741509398014
530.0, 0.02865355835131627
531.0, 0.025619469404508884
532.0, 0.02199845093372494
533.0, 0.019060425156875182
534.0, 0.016833922246321624
535.0, 0.014571752606811803
536.0, 0.012056072608133916
537.0, 0.009613959968465875
538.0, 0.007809034022483152
539.0, 0.006338519492971079
540.0, 0.004858798534439914
541.0, 0.0031599060631996682
542.0, 0.0016707031614907385
543.0, 0.0008195824160872565
544.0, 0.00017794399562657783
545.0, 0.0010614015344204617
546.0, 0.001618211100200722
547.0, 0.0018305965115741607
548.0, 0.0020282773074286123
549.0, 0.002321259752879196
550.0, 0.0021363255186001703
551.0, 0.002532380710651662
552.0, 0.002301979963862867
553.0, 0.0020990555001753697
554.0, 0.002333118162564777
555.0, 0.0021372908195823716
556.0, 0.001653424977586042
557.0, 0.0013911309653888704
558.0, 0.001054769009695828
559.0, 0.0002895279898972186
560.0, 0.0006478438375747766
561.0, 0.0012218133442860677
562.0, 0.00182747191367524
563.0, 0.002973189358815183
564.0, 0.003984339349873348
565.0, 0.004961093030593189
566.0, 0.006087141535398791
567.0, 0.0070699200660263445
568.0, 0.00871741805811892
569.0, 0.010280535832869073
570.0, 0.011971723972633271
571.0, 0.01356879112685225
572.0, 0.015387721144984564
573.0, 0.018302042710251622
574.0, 0.020853848007452564
575.0, 0.02359176047269741
576.0, 0.026588997374051133
577.0, 0.02990886838911702
578.0, 0.03359474419959922
579.0, 0.037574869240932146
580.0, 0.041175444298166594
581.0, 0.04628455219414901
582.0, 0.05093483962347778
583.0, 0.05527454714297218
584.0, 0.06033316667766375
585.0, 0.06603651497782385
586.0, 0.07233256777326168
587.0, 0.0771604918108887
588.0, 0.08258333389710541
589.0, 0.08823892947383886
590.0, 0.09344683323840787
591.0, 0.09889398279615029
592.0, 0.10368024537016485
593.0, 0.10796465171001358
594.0, 0.11086345576866816
595.0, 0.11212296939172195
596.0, 0.11162981927541209
597.0, 0.109190491283562
598.0, 0.10517538798983561
599.0, 0.09971095938324427
600.0, 0.09314239649458561
601.0, 0.08612282668880679
602.0, 0.07893712835109243
603.0, 0.07159701576060087
604.0, 0.06470366349486056
605.0, 0.05823150446415762
606.0, 0.0519045891150227
607.0, 0.04640633468422163
608.0, 0.04165140334089385
609.0, 0.03696366582419951
610.0, 0.03316105682043784
611.0, 0.029805254972547136
612.0, 0.026440242257607563
613.0, 0.023369077354772096
614.0, 0.02054258751529451
615.0, 0.01778476943629585
616.0, 0.01532815922627764
617.0, 0.013415509540336932
618.0, 0.011802378610592329
619.0, 0.010158548098641012
620.0, 0.008543406915877377
621.0, 0.007189895795788677
622.0, 0.006176401253216936
623.0, 0.0050795432862676005
624.0, 0.004195227486040544
625.0, 0.003355809866631113
626.0, 0.0026391262581332334
627.0, 0.0020586546588777935
628.0, 0.0015596609858629156
629.0, 0.0013166360694046998
630.0, 0.0011140222549115497
631.0, 0.0007129320665980573
632.0, 0.00033023538863220423
633.0, 6.889013311025215e-05
634.0, 4.427787975184925e-05
635.0, 6.124252469553507e-05
636.0, 0.00014216079479677674
637.0, 0.0003332974253953182
638.0, 0.0002917740649830378
639.0, 0.00031542071125212134
640.0, 0.000369107046466724
641.0, 0.0001315868639459724
642.0, 4.893917152667411e-05
643.0, 0.00010861603962799399
644.0, 2.409950423207441e-05
645.0, 2.5242472443299563e-05
646.0, 8.042380151752611e-05
647.0, 9.678101784570473e-05
648.0, 0.0004903634001557642
649.0, 0.0007039463860212755
650.0, 0.0007940984578957488
651.0, 0.001104815034276221
652.0, 0.001220387514225097
653.0, 0.001150045097689639
654.0, 0.0015664978489134819
655.0, 0.0021135856813237074
656.0, 0.0022598357447064046
657.0, 0.002423930443778564
658.0, 0.002824651753895829
659.0, 0.0034160878714187023
660.0, 0.004019821937491038
661.0, 0.004443035279899707
662.0, 0.0051360136596404074
663.0, 0.005449349985030069
664.0, 0.006119552867218811
665.0, 0.006840609426063789
666.0, 0.007360683491033792
667.0, 0.008288055307167535
668.0, 0.009388212621543544
669.0, 0.010520010780811542
670.0, 0.01165272824837972
671.0, 0.012785924754085142
672.0, 0.013825439504065775
673.0, 0.014817436622693697
674.0, 0.01598303785261776
675.0, 0.017201078779823215
676.0, 0.018631480086313566
677.0, 0.019964447109511143
678.0, 0.02105417506171377
679.0, 0.021874865729750382
680.0, 0.022390706368719714
681.0, 0.022653176684803128
682.0, 0.02289197825470625
683.0, 0.022950328508798783
684.0, 0.022259888533402522
685.0, 0.02109990180844707
686.0, 0.019958212863597842
687.0, 0.01887195119447603
688.0, 0.017722739354300143
689.0, 0.016132074961900635
690.0, 0.014684078065490476
691.0, 0.013620910340808036
692.0, 0.01259724224821727
693.0, 0.011384378186755235
694.0, 0.01032859011584588
695.0, 0.009387186164570205
696.0, 0.008625618128838275
697.0, 0.007940802876178427
698.0, 0.00722253073318373
699.0, 0.006693122155553622
700.0, 0.006407527027398642
701.0, 0.005999290095965547
702.0, 0.005472730117404349
703.0, 0.005138924289780243
704.0, 0.004992170884560095
705.0, 0.004695848135753501
706.0, 0.004435845849600291
707.0, 0.004387648636361419
708.0, 0.00417514554942416
709.0, 0.003908356804326693
710.0, 0.0038600028486555425
711.0, 0.0036445261708416095
712.0, 0.003444958693153346
713.0, 0.0034192642870873834
714.0, 0.003333811674611294
715.0, 0.002977501854265597
716.0, 0.0029114504010730935
717.0, 0.0028315796613968118
718.0, 0.002643364802397201
719.0, 0.002480782317148127
720.0, 0.0023159358364050232
721.0, 0.002129702217675753
722.0, 0.002052675280678442
723.0, 0.0018695795131112205
724.0, 0.001811352358390441
725.0, 0.001712135080964669
726.0, 0.0013881126083925945
727.0, 0.0012178586088670929
728.0, 0.0012934308197794504
729.0, 0.0011566847923216406
730.0, 0.0011839581844059258
731.0, 0.001365472415606056
732.0, 0.0012502061779271366
733.0, 0.0010160580381725762
734.0, 0.0008701093683145626
735.0, 0.000848132842304298
736.0, 0.0009271639731307611
737.0, 0.0007813261884176393
738.0, 0.0005347748167771461
739.0, 0.0005687328602268071
740.0, 0.0005900331660711412
741.0, 0.0005166617544804793
742.0, 0.0004766234948562646
743.0, 0.00045615926887837864
744.0, 0.0003507760827703824
745.0, 0.0004195263660829161
746.0, 0.000490761742394751
747.0, 0.0004479939066345743
748.0, 0.00030422983485802455
749.0, 0.0002040161505310096
750.0, 0.00021984027104064252
751.0, 0.00020624305214834827
752.0, 0.000107015917799965
753.0, 0.0001968533655323331
754.0, 0.0002164913815031439
755.0, 9.56484301284598e-05
756.0, 2.168692365177851e-05
757.0, 3.6188476296326896e-05
758.0, 2.074247286950318e-05
759.0, 2.1432592798345148e-05
760.0, 2.3053843848976746e-06
761.0, 2.177093783490129e-05
762.0, 2.314746239798452e-05
763.0, 2.706760550396714e-05
764.0, 4.830801350046254e-05
765.0, 3.959877712044837e-05
766.0, 0.00011596256453877003
767.0, 8.343444407417538e-05
768.0, 0.0001056966970314638
769.0, 0.00013184898837947045
770.0, 0.00014826885756913955
771.0, 9.948219521178963e-05
772.0, 3.2371272182828805e-05
773.0, 1.0518758056334545e-05
774.0, 4.713932477591099e-05
775.0, 2.0786518909680206e-05
776.0, 7.045614229466813e-05
777.0, 0.00012888873851806324
778.0, 6.273590005906416e-05
779.0, 2.520417575533071e-05
780.0, 4.263394840157463e-05
781.0, 0.00012125744897066325
782.0, 2.993618705970275e-05
783.0, 2.5550401241418906e-05
784.0, 0.00013389939954524014
785.0, 0.00014384863929017917
786.0, 3.4272999148554054e-05
787.0, 6.432327338619247e-05
788.0, 5.331020502538732e-05
789.0, 0.0002702461600162366
790.0, 0.00014305203406702206
791.0, 0.00011523812439441953
792.0, 0.0002954196635802815
793.0, 0.00033490780269230115
794.0, 0.00022169172824239227
795.0, 0.00021267935895754307
796.0, 0.00020624990525531384
797.0, 0.00010343723804179559
798.0, 3.8930764807289346e-05
799.0, 0.00017862706190123175
800.0, 0.0001477704817154973
801.0, 0.00013030725952960015
802.0, 0.00015133322997888885
803.0, 2.4894082995009976e-05
804.0, 0.00013654033425969324
805.0, 6.93134651941679e-05
806.0, 0.00020327625011433857
807.0, 0.00017590432412303495
808.0, 0.00013458006264495035
809.0, 0.00013022021854976144
810.0, 0.00015778396133335514
811.0, 0.0003187280483013297
812.0, 0.00042002819777493686
813.0, 0.00040967094359876515
814.0, 0.000410046191151117
815.0, 0.0002776592808041018
816.0, 0.00012112720817776873
817.0, 0.00020268302302188268
818.0, 0.000466509708315714
819.0, 0.0005996176695003404
820.0, 0.0005147773799195055
821.0, 0.0005014798479577401
822.0, 0.0004440853492790634
823.0, 0.0003550273881642726
824.0, 0.00041739052611373115
825.0, 0.00048643807368545065
826.0, 0.0004546674661275491
827.0, 0.0003781496697566805
828.0, 0.0003127207628148227
829.0, 0.0004762970625272669
830.0, 0.00046917370391959056
831.0, 0.0003102772248850486
832.0, 0.0004359992004304846
833.0, 0.000513956972099905
834.0, 0.0002674112256282967
835.0, 4.959238225088315e-05
836.0, 0.00018851708955804186
837.0, 0.0003697636666194269
838.0, 0.00023768365569680375
839.0, 0.0003029103317784163
840.0, 0.0003977936778535324
841.0, 0.0003569661619192604
842.0, 0.00029182368211575654
843.0, 0.0003391108211055564
844.0, 0.0004358522467349729
845.0, 0.0004389098579920271
846.0, 0.00033142494150726785
847.0, 0.0003540477801760354
848.0, 0.00032291258348489876
849.0, 0.0002590279303686645
850.0, 0.00019097597795886118
851.0, 0.000219676756496372
852.0, 0.0003446936921832422
853.0, 0.000267356438980073
854.0, 0.00016839309107676744
855.0, 0.00024014235970758917
856.0, 0.00023604100889582072
857.0, 0.0002245977355360728
858.0, 0.00011145881957694058
859.0, 9.639620741326401e-06
860.0, 8.518235414491798e-05
861.0, 0.00013211678815055957
862.0, 0.0002128681755643455
863.0, 7.674482870785518e-05
864.0, 0.0003072214486787682
865.0, 0.00024104585360922926
866.0, 0.00016143606282367884
867.0, 0.0001571794015761844
868.0, 6.939911928378148e-05
869.0, 5.5031796009524695e-05
870.0, 0.00018619225722766317
871.0, 0.00016929844610134254
872.0, 0.00022604105310191166
873.0, 0.00024382592314575488
874.0, 0.00029523949921023986
875.0, 0.00025138841008899934
876.0, 9.135396269011631e-05
877.0, 5.056801680159838e-06
878.0, 4.515525486863091e-05
879.0, 8.231059672749656e-05
880.0, 8.891864889003133e-05
881.0, 1.4944763849931552e-05
882.0, 1.332981104274924e-05
883.0, 9.5084549109304e-05
884.0, 8.858305320203829e-05
885.0, 0.00012740243966295262
886.0, 0.00016615785498210996
887.0, 6.787368072593139e-05
888.0, 8.911979668459049e-06
889.0, 4.608664493534877e-06
890.0, 1.3513958743909157e-05
891.0, 0.00012376598325574822
892.0, 0.00012864476007827806
893.0, 3.459188864016115e-05
894.0, 2.151367675488901e-05
895.0, 1.8353326877495478e-05
896.0, 4.669792327491797e-05
897.0, 1.3037077757681525e-05
898.0, 3.202608805087831e-05
899.0, 7.557891690478173e-05
900.0, 3.209567508620272e-05
901.0, 5.644446859580737e-05
902.0, 0.00011674784727932363
903.0, 0.00010680084272188932
904.0, 4.1612484327501425e-05
905.0, 8.413863822181253e-06
906.0, 2.9975000891611973e-05
907.0, 5.0678280176636955e-05
908.0, 0.00021611506590793014
909.0, 0.00022372861710939735
910.0, 0.00010867845911306625
911.0, 5.907436310999642e-05
912.0, 0.00010708554452811404
913.0, 0.00016979116978122513
914.0, 0.00021307750761975568
915.0, 0.0002527930258341687
916.0, 0.00018222526966412843
917.0, 5.8476868151479484e-05
918.0, 0.0002715792236817428
919.0, 0.00024907387946698453
920.0, 0.00011718202889623509
921.0, 0.0001857472056604814
922.0, 0.00025537327148841696
923.0, 0.00012323387585384606
924.0, 0.0002019084062425735
925.0, 0.0001652582538601294
926.0, 0.00014514791136517084
927.0, 0.00018850116422036044
928.0, 8.366506847138837e-05
929.0, 8.093620927380836e-05
930.0, 0.00012615056969934223
931.0, 0.00017584507981179492
932.0, 0.0002373758047844373
933.0, 0.00030843707142200595
934.0, 0.0004111242402265955
935.0, 0.00029307558075691474
936.0, 0.0002470851552395639
937.0, 0.00045818983200817255
938.0, 0.0004111859746728671
939.0, 0.00023114826186746465
940.0, 0.00014388944172870176
941.0, 0.00012608577125343632
942.0, 0.00013373130517186995
943.0, 0.00017935505853949117
944.0, 0.00022612525481187227
945.0, 0.000143012966901386
946.0, 7.512418589652146e-05
947.0, 0.00010206588917174773
948.0, 5.3491377816187204e-05
949.0, 0.0001922779777548291
950.0, 0.00018370049469489631
951.0, 3.948955740523384e-05
952.0, 9.064903336341565e-05
953.0, 0.00018694316845040647
954.0, 0.00016433847348931626
955.0, 0.0002343368176472055
956.0, 9.055204794120027e-05
957.0, 0.00013188565006849035
958.0, 0.0002474865448843145
959.0, 9.336415516368513e-05
960.0, 0.00015907542090380728
961.0, 0.0003238653012419599
962.0, 0.00015965312793385098
963.0, 0.00015377583723475343
964.0, 0.0001962264434566598
965.0, 0.00016807249909757258
966.0, 0.00019901570347895793
967.0, 0.00020626271377771431
968.0, 0.0002853572038374809
969.0, 0.00016708705323916336
970.0, 6.486381760883772e-05
971.0, 0.00012006603183105483
972.0, 0.00012355572071824495
973.0, 1.4815071021456385e-05
974.0, 3.0719595244415215e-05
975.0, 0.00017469540113529078
976.0, 8.373262754334004e-05
977.0, 7.299450006369047e-05
978.0, 9.213157324748923e-05
979.0, 5.059064988872817e-05
980.0, 0.00010510375314464668
981.0, 0.00024052713800645995
982.0, 0.00028977322466769206
983.0, 0.0003379715209106713
984.0, 0.0001906359559777496
985.0, 0.00016869741380287715
986.0, 3.0371439182423845e-05
987.0, 5.246753814411575e-05
988.0, 0.00011908581869019812
989.0, 3.678311202890665e-05
990.0, 5.08200625917956e-05
991.0, 3.217136515672736e-05
992.0, 2.5813593847991803e-05
993.0, 1.772263085857308e-05
994.0, 0.00015149976699434814
995.0, 0.00022349916546288723
996.0, 0.00012971014722056005
997.0, 0.00028970336665464007
998.0, 0.00016063403642464089
999.0, 0.000250433813853856
1000.0, 0.00019012563332884474
1001.0, 0.00019229924015787852
1002.0, 0.0002105415333672522
1003.0, 0.00018351579933331108
1004.0, 0.00020014257386159585
1005.0, 0.00021061918535261097
1006.0, 0.00018354170138823496
1007.0, 0.0002953197279558334
1008.0, 0.00023086577395803258
1009.0, 0.000208680256678416
1010.0, 0.0003101096993077284
1011.0, 0.0001416805795053364
1012.0, 0.0001510260987651787
1013.0, 0.0003154181665871882
1014.0, 0.00033949240959917375
1015.0, 0.0002617947517296765
1016.0, 0.0002946972339947123
1017.0, 0.0003319405561809308
1018.0, 0.00027843732263025956
1019.0, 0.00027513197070752734
1020.0, 0.00023187033988328887
1021.0, 0.00025856939687144223
1022.0, 0.00021967082639766676
1023.0, 0.0001905493814291834
1024.0, 0.0002139317969846734
1025.0, 0.0002909663247130181
1026.0, 0.00025543353464449334
1027.0, 0.00019295993476625508
1028.0, 0.00016544908814224266
1029.0, 0.0001775938167859118
1030.0, 0.0003080791034165306
1031.0, 0.00016461486298990766
1032.0, 0.0003445707516806315
1033.0, 0.00035138899823263203
1034.0, 6.649794913692162e-05
1035.0, 0.00021051049974880822
1036.0, 0.0004102512634081265
1037.0, 0.0002881554239248644
1038.0, 0.00013294417573077433
1039.0, 0.00012828477003387856
1040.0, 0.00019895393628992418
1041.0, 0.0001412461342499209
1042.0, 0.00024388591762497844
1043.0, 0.00019175509067295948
1044.0, 0.0002798510319632356
1045.0, 0.00019601729227688492
1046.0, 3.092054518971149e-05
1047.0, 0.00010966005841647739
1048.0, 0.0002651004078244395
1049.0, 0.000192965590725539
1050.0, 4.5411505352011014e-05
1051.0, 0.00013648825368298687
1052.0, 0.00019841734817256656
1053.0, 3.057005430505162e-05
1054.0, 0.00024291254064377185
1055.0, 0.00022863224894489694
1056.0, 0.00016452721592993556
1057.0, 8.325950316796173e-05
1058.0, 0.00021627334716777422
1059.0, 0.00018933628645439034
1060.0, 0.00016472886340136912
1061.0, 0.00011687334307608602
1062.0, 4.492243938532954e-05
1063.0, 2.2728393084453154e-05
1064.0, 9.778321867174327e-06
1065.0, 0.00011509549906462515
1066.0, 0.00015084682837977965
1067.0, 0.00022099039706519275
1068.0, 0.00010675399692378689
1069.0, 6.235256282577949e-05
1070.0, 0.0001853782451121038
1071.0, 8.298967864613847e-05
1072.0, 0.0001541348909204844
1073.0, 0.0001867562224337308
1074.0, 6.777048096829978e-05
1075.0, 6.0561941553497555e-05
1076.0, 0.00014321188738402137
1077.0, 0.0001005001179695274
1078.0, 3.217130614007535e-05
1079.0, 0.00012279800415830735
1080.0, 0.00018519021426772578
1081.0, 0.00015354517840935152
1082.0, 0.00023434362774372484
1083.0, 0.00046272423879042414
1084.0, 0.000340532137692804
1085.0, 0.0003021146975409586
1086.0, 0.0002707860671509857
1087.0, 0.00018350858325148173
1088.0, 0.00022843693265764203
1089.0, 0.0003522004864921396
1090.0, 0.0003923881168720045
1091.0, 0.00029320266914547064
1092.0, 0.00012685945764244903
1093.0, 0.00016105658752007548
1094.0, 0.0004607965535051074
1095.0, 0.0003828390087451508
1096.0, 0.00023860507196062024
1097.0, 0.0003466090034721819
1098.0, 0.000439097507833165
1099.0, 0.0003223980508079014
1100.0, 0.00021787945182846736
1101.0, 0.00019805367299364278
1102.0, 0.0002263850664882284
1103.0, 0.00019456399281656168
1104.0, 0.0001897501852703797
1105.0, 0.0002811310955255948
1106.0, 0.0002641112079454675
1107.0, 0.0001577836795341252
1108.0, 0.00012140380324755624
1109.0, 0.0003349527014202717
1110.0, 0.00044005076897231366
1111.0, 0.00032163931350781777
1112.0, 0.0003024916717055462
1113.0, 0.00017595806914778015
1114.0, 0.00011523478551317417
1115.0, 0.0001793828520575851
1116.0, 0.00020864722179831245
1117.0, 0.0002729596835696264
1118.0, 0.000251474936292956
1119.0, 0.00011163608526211768
1120.0, 9.42970550161575e-05
1121.0, 8.601661205082926e-05
1122.0, 0.00017660134530938295
1123.0, 8.261965056250167e-05
1124.0, 0.00014199462152129116
1125.0, 3.2311527993715436e-05
1126.0, 0.00014064225048398247
1127.0, 0.00023884294335798734
1128.0, 5.1036622270904364e-05
1129.0, 0.00014342385259911305
1130.0, 0.00026702124232983853
1131.0, 0.00019395074355522835
1132.0, 7.444972711785459e-05
1133.0, 9.490860438680687e-05
1134.0, 0.00011123300690457194
1135.0, 7.647359457541707e-05
1136.0, 6.0746087275923756e-05
1137.0, 8.137878106877389e-05
1138.0, 0.00021799359684653504
1139.0, 0.00011758186890263625
1140.0, 7.368839721092549e-05
1141.0, 7.306137361651836e-05
1142.0, 4.460574879698671e-05
1143.0, 0.00017541628053534099
1144.0, 0.00019026167463876228
1145.0, 0.00017000497351188912
1146.0, 0.00012140962234041423
1147.0, 9.55314667546477e-05
1148.0, 0.00019217519201392206
1149.0, 0.000165858952209435
1150.0, 0.00011927231816212048
1151.0, 0.0001414455271569459
1152.0, 0.0001073701452131863
1153.0, 8.650736664188046e-05
1154.0, 0.0001916322692062617
1155.0, 0.00020663157991724607
1156.0, 5.209649842125972e-05
1157.0, 4.583608029746796e-05
1158.0, 0.00012633453624802052
1159.0, 0.00010929588431074941
1160.0, 0.00013091820916861987
1161.0, 1.74568232358065e-05
1162.0, 6.70152511065469e-05
1163.0, 7.19618448872678e-05
1164.0, 0.0002088611670337245
1165.0, 9.856939251456039e-05
1166.0, 6.317933549859777e-05
1167.0, 0.00016364768938695873
1168.0, 0.0001575886957985811
1169.0, 0.00019288701987336861
1170.0, 0.0002108618538042925
1171.0, 5.557716944215575e-06
1172.0, 0.00017228986552012302
1173.0, 0.00023911134554394342
1174.0, 0.00025175818820008674
1175.0, 0.0002191911321448862
1176.0, 0.0002143972540941471
1177.0, 0.00023505222243570007
1178.0, 0.0002771482613177062
1179.0, 0.00013467801376195062
1180.0, 0.0002568926404301662
1181.0, 0.00029733388995712004
1182.0, 0.00011193059695918747
1183.0, 0.00019157047280025325
1184.0, 0.0003192498082406301
1185.0, 0.0002758447102230922
1186.0, 0.00035137634472882717
1187.0, 0.0003822627993423244
1188.0, 0.0003017769210431586
1189.0, 0.0003935422711385702
1190.0, 0.0004757899599179845
1191.0, 0.0003936303136618709
1192.0, 0.00017885808014401767
1193.0, 0.000142018436048413
1194.0, 0.00036613648241369187
1195.0, 0.00029856173350499386
1196.0, 0.00026234420332085675
1197.0, 0.0002330862612500528
1198.0, 0.00026381354848460133
1199.0, 0.0004281509974259333
1200.0, 0.000296305867260817
1201.0, 0.0002602305654205529
1202.0, 0.0003425109954949787
1203.0, 0.00032828037052075527
1204.0, 0.0002731331477620125
1205.0, 0.00017177702319680097
1206.0, 0.00022314805232412957
1207.0, 0.0002541961118605411
1208.0, 0.00024204289259154415
1209.0, 0.00012055443253728364
1210.0, 0.00022817384918235947
1211.0, 0.0003066458461017683
1212.0, 0.00033699967629426944
1213.0, 0.00016385801522134612
1214.0, 0.00012858388770792912
1215.0, 0.00026355760147539134
1216.0, 0.00015862491665237334
1217.0, 0.00012013643969464669
1218.0, 0.00022503733377680023
1219.0, 0.0003102451884349894
1220.0, 0.00026598887423365556
1221.0, 0.0001854967815767136
1222.0, 0.0001831236020390812
1223.0, 0.00020435734328294578
1224.0, 0.00016250147481761492
1225.0, 0.0002188262707082635
1226.0, 0.00040710274015319373
1227.0, 0.0003778236394706417
1228.0, 0.0001708470427291099
1229.0, 6.681513984282095e-05
1230.0, 0.00010188988285064475
1231.0, 0.0002287693579635629
1232.0, 0.00010573716673964155
1233.0, 0.00015374860176123637
1234.0, 0.00018143867173578087
1235.0, 0.00014633904252030186
1236.0, 8.271194646669174e-05
1237.0, 0.00013713695631874337
1238.0, 7.107862991102749e-05
1239.0, 3.4417697868522294e-05
1240.0, 0.0001931332673139174
1241.0, 0.00010659464213301506
1242.0, 5.582372955000885e-05
1243.0, 7.9287123071177e-05
1244.0, 0.00015493794617895705
1245.0, 0.0002543031351687933
1246.0, 0.00023719020508037504
1247.0, 0.00015887868213018783
1248.0, 0.00017120829710082588
1249.0, 0.00025098178967131825
1250.0, 0.000200525175182991
1251.0, 0.00011712122502788407
1252.0, 0.00017204403735803092
1253.0, 6.285099329542699e-05
1254.0, 0.00015409667598415686
1255.0, 0.00019480016335110344
1256.0, 5.971586650995272e-05
1257.0, 0.00012256255489121793
1258.0, 0.00013575336782349322
1259.0, 0.00022639192881577507
1260.0, 0.00019745331783500928
1261.0, 0.0001548070384197424
1262.0, 9.26542534459744e-05
1263.0, 0.0002468654688572189
1264.0, 0.00019414566404839465
1265.0, 0.0002616542686373716
1266.0, 0.0003374499064774856
1267.0, 0.0003398168121195557
1268.0, 0.0002318216845295723
1269.0, 9.152791087514977e-05
1270.0, 7.942210989782362e-05
1271.0, 0.00011032277003343731
1272.0, 0.00010482032057663153
1273.0, 5.58502825516065e-05
1274.0, 6.95662507547795e-05
1275.0, 0.000261508314219136
1276.0, 0.00026893274732713886
1277.0, 0.00017612018424351271
1278.0, 4.001814112987765e-05
1279.0, 0.00011148661308567469
1280.0, 7.900285055370434e-06
1281.0, 0.00010766343189091335
1282.0, 0.0001291631563617083
1283.0, 0.0001740466314281879
1284.0, 0.00010315227598902091
1285.0, 3.308127707568645e-06
1286, 0.0
1287, 0.0
1288, 0.0
1289, 0.0
1290, 0.0
1291, 0.0
1292, 0.0
1293, 0.0
1294, 0.0
1295, 0.0
1296, 0.0
1297, 0.0
1298, 0.0
1299, 0.0
1300, 0.0
1301, 0.0
1302, 0.0
1303, 0.0
1304, 0.0
1305, 0.0
1306, 0.0
1307, 0.0
1308, 0.0
1309, 0.0
1310, 0.0
1311, 0.0
1312, 0.0
1313, 0.0
1314, 0.0
1315, 0.0
1316, 0.0
1317, 0.0
1318, 0.0
1319, 0.0
1320, 0.0
1321, 0.0
1322, 0.0
1323, 0.0
1324, 0.0
1325, 0.0
1326, 0.0
1327, 0.0
1328, 0.0
1329, 0.0
1330, 0.0
1331, 0.0
1332, 0.0
1333, 0.0
1334, 0.0
1335, 0.0
1336, 0.0
1337, 0.0
1338, 0.0
1339, 0.0
1340, 0.0
1341, 0.0
1342, 0.0
1343, 0.0
1344, 0.0
1345, 0.0
1346, 0.0
1347, 0.0
1348, 0.0
1349, 0.0
1350, 0.0
1351, 0.0
1352, 0.0
1353, 0.0
1354, 0.0
1355, 0.0
1356, 0.0
1357, 0.0
1358, 0.0
1359, 0.0
1360, 0.0
1361, 0.0
1362, 0.0
1363, 0.0
1364, 0.0
1365, 0.0
1366, 0.0
1367, 0.0
1368, 0.0
1369, 0.0
1370, 0.0
1371, 0.0
1372, 0.0
1373, 0.0
1374, 0.0
1375, 0.0
1376, 0.0
1377, 0.0
1378, 0.0
1379, 0.0
1380, 0.0
1381, 0.0
1382, 0.0
1383, 0.0
1384, 0.0
1385, 0.0
1386, 0.0
1387, 0.0
1388, 0.0
1389, 0.0
1390, 0.0
1391, 0.0
1392, 0.0
1393, 0.0
1394, 0.0
1395, 0.0
1396, 0.0
1397, 0.0
1398, 0.0
1399, 0.0
1400, 0.0
1401, 0.0
1402, 0.0
1403, 0.0
1404, 0.0
1405, 0.0
1406, 0.0
1407, 0.0
1408, 0.0
1409, 0.0
1410, 0.0
1411, 0.0
1412, 0.0
1413, 0.0
1414, 0.0
1415, 0.0
1416, 0.0
1417, 0.0
1418, 0.0
1419, 0.0
1420, 0.0
1421, 0.0
1422, 0.0
1423, 0.0
1424, 0.0
1425, 0.0
1426, 0.0
1427, 0.0
1428, 0.0
1429, 0.0
1430, 0.0
1431, 0.0
1432, 0.0
1433, 0.0
1434, 0.0
1435, 0.0
1436, 0.0
1437, 0.0
1438, 0.0
1439, 0.0
1440, 0.0
1441, 0.0
1442, 0.0
1443, 0.0
1444, 0.0
1445, 0.0
1446, 0.0
1447, 0.0
1448, 0.0
1449, 0.0
1450, 0.0
1451, 0.0
1452, 0.0
1453, 0.0
1454, 0.0
1455, 0.0
1456, 0.0
1457, 0.0
1458, 0.0
1459, 0.0
1460, 0.0
1461, 0.0
1462, 0.0
1463, 0.0
1464, 0.0
1465, 0.0
1466, 0.0
1467, 0.0
1468, 0.0
1469, 0.0
1470, 0.0
1471, 0.0
1472, 0.0
1473, 0.0
1474, 0.0
1475, 0.0
1476, 0.0
1477, 0.0
1478, 0.0
1479, 0.0
1480, 0.0
1481, 0.0
1482, 0.0
1483, 0.0
1484, 0.0
1485, 0.0
1486, 0.0
1487, 0.0
1488, 0.0
1489, 0.0
1490, 0.0
1491, 0.0
1492, 0.0
1493, 0.0
1494, 0.0
1495, 0.0
1496, 0.0
1497, 0.0
1498, 0.0
1499, 0.0
1500, 0.0
1501, 0.0
1502, 0.0
1503, 0.0
1504, 0.0
1505, 0.0
1506, 0.0
1507, 0.0
1508, 0.0
1509, 0.0
1510, 0.0
1511, 0.0
1512, 0.0
1513, 0.0
1514, 0.0
1515, 0.0
1516, 0.0
1517, 0.0
1518, 0.0
1519, 0.0
1520, 0.0
1521, 0.0
1522, 0.0
1523, 0.0
1524, 0.0
1525, 0.0
1526, 0.0
1527, 0.0
1528, 0.0
1529, 0.0
1530, 0.0
1531, 0.0
1532, 0.0
1533, 0.0
1534, 0.0
1535, 0.0
1536, 0.0
1537, 0.0
1538, 0.0
1539, 0.0
1540, 0.0
1541, 0.0
1542, 0.0
1543, 0.0
1544, 0.0
1545, 0.0
1546, 0.0
1547, 0.0
1548, 0.0
1549, 0.0
1550, 0.0
1551, 0.0
1552, 0.0
1553, 0.0
1554, 0.0
1555, 0.0
1556, 0.0
1557, 0.0
1558, 0.0
1559, 0.0
1560, 0.0
1561, 0.0
1562, 0.0
1563, 0.0
1564, 0.0
1565, 0.0
1566, 0.0
1567, 0.0
1568, 0.0
1569, 0.0
1570, 0.0
1571, 0.0
1572, 0.0
1573, 0.0
1574, 0.0
1575, 0.0
1576, 0.0
1577, 0.0
1578, 0.0
1579, 0.0
1580, 0.0
1581, 0.0
1582, 0.0
1583, 0.0
1584, 0.0
1585, 0.0
1586, 0.0
1587, 0.0
1588, 0.0
1589, 0.0
1590, 0.0
1591, 0.0
1592, 0.0
1593, 0.0
1594, 0.0
1595, 0.0
1596, 0.0
1597, 0.0
1598, 0.0
1599, 0.0
