30, 0.0
31, 0.0
32, 0.0
33, 0.0
34, 0.0
35, 0.0
36, 0.0
37, 0.0
38, 0.0
39, 0.0
40, 0.0
41, 0.0
42, 0.0
43, 0.0
44, 0.0
45, 0.0
46, 0.0
47, 0.0
48, 0.0
49, 0.0
50, 0.0
51, 0.0
52, 0.0
53, 0.0
54, 0.0
55, 0.0
56, 0.0
57, 0.0
58, 0.0
59, 0.0
60, 0.0
61, 0.0
62, 0.0
63, 0.0
64, 0.0
65, 0.0
66, 0.0
67, 0.0
68, 0.0
69, 0.0
70, 0.0
71, 0.0
72, 0.0
73, 0.0
74, 0.0
75, 0.0
76, 0.0
77, 0.0
78, 0.0
79, 0.0
80, 0.0
81, 0.0
82, 0.0
83, 0.0
84, 0.0
85, 0.0
86, 0.0
87, 0.0
88, 0.0
89, 0.0
90, 0.0
91, 0.0
92, 0.0
93, 0.0
94, 0.0
95, 0.0
96, 0.0
97, 0.0
98, 0.0
99, 0.0
100, 0.0
101, 0.0
102, 0.0
103, 0.0
104, 0.0
105, 0.0
106, 0.0
107, 0.0
108, 0.0
109, 0.0
110, 0.0
111, 0.0
112, 0.0
113, 0.0
114, 0.0
115, 0.0
116, 0.0
117, 0.0
118, 0.0
119, 0.0
120, 0.0
121, 0.0
122, 0.0
123, 0.0
124, 0.0
125, 0.0
126, 0.0
127, 0.0
128, 0.0
129, 0.0
130, 0.0
131, 0.0
132, 0.0
133, 0.0
134, 0.0
135, 0.0
136, 0.0
137, 0.0
138, 0.0
139, 0.0
140, 0.0
141, 0.0
142, 0.0
143, 0.0
144, 0.0
145, 0.0
146, 0.0
147, 0.0
148, 0.0
149, 0.0
150, 0.0
151.0, 0.00023617473068953982
152.0, 0.003560814331976253
153.0, 0.0036184655191021974
154.0, 0.0006383775485254714
155.0, 0.001132334551773329
156.0, 0.0034258615294371713
157.0, 0.005770188279004565
158.0, 0.012352890804003895
159.0, 0.022787221274285247
160.0, 0.036466820112067866
161.0, 0.059023949254055304
162.0, 0.08943150025388105
163.0, 0.11737576217568771
164.0, 0.1274006925846249
165.0, 0.12936878910543295
166.0, 0.13329515062321817
167.0, 0.14428841496370617
168.0, 0.15066659905792779
169.0, 0.16043878123244507
170.0, 0.16590243245218467
171.0, 0.15535842531004604
172.0, 0.13638606188246946
173.0, 0.11339635684128532
174.0, 0.09854700768486716
175.0, 0.09852185033254851
176.0, 0.10711133357172925
177.0, 0.11809774042566565
178.0, 0.13223005413388617
179.0, 0.14840349791059665
180.0, 0.15996618588829173
181.0, 0.14072160873924255
182.0, 0.10821083258616279
183.0, 0.07607007233056834
184.0, 0.04799074792185232
185.0, 0.026415433442263412
186.0, 0.014006921838443768
187.0, 0.008351358224938878
188.0, 0.005240892813649584
189.0, 0.0003644970711752911
190.0, 0.0052390926503190025
191.0, 0.009223784603916629
192.0, 0.007128298757508795
193.0, 0.0053858829920058904
194.0, 0.005658952977214693
195.0, 0.0035284044585642354
196.0, 0.00037002482852806565
197.0, 0.0006045199649659535
198.0, 0.0016198494821536014
199.0, 0.003347588753253127
200.0, 0.009262427272794416
201.0, 0.0117893123534994
202.0, 0.015432337772474906
203.0, 0.024257757361623885
204.0, 0.03365494712762052
205.0, 0.04066352051070125
206.0, 0.046660889960214925
207.0, 0.06544073499017664
208.0, 0.08034220906198572
209.0, 0.09074901383968755
210.0, 0.10502876759522838
211.0, 0.12314260884917984
212.0, 0.14336678939022948
213.0, 0.16830518156328192
214.0, 0.19794660119079502
215.0, 0.22834983710143422
216.0, 0.2530220858712216
217.0, 0.2822313580105012
218.0, 0.3025026539891711
219.0, 0.29348950049602085
220.0, 0.2789474308472796
221.0, 0.2514017139230592
222.0, 0.21902638652449352
223.0, 0.1898214414754895
224.0, 0.16217959415484595
225.0, 0.13666242686431068
226.0, 0.12631571767867567
227.0, 0.1277017348752302
228.0, 0.12573762951533068
229.0, 0.12504513281587468
230.0, 0.12491420986734021
231.0, 0.12336200410396267
232.0, 0.12227896466294547
233.0, 0.12082889855189152
234.0, 0.12162183644940985
235.0, 0.12339584326724631
236.0, 0.12477954687471568
237.0, 0.12245860009072251
238.0, 0.11817524792311287
239.0, 0.1194362894084061
240.0, 0.12218527054708002
241.0, 0.11681055052138922
242.0, 0.09305054163629638
243.0, 0.07834272857740078
244.0, 0.07231630421263667
245.0, 0.06976828381895522
246.0, 0.06638825640158016
247.0, 0.06259685565990171
248.0, 0.05840133862445011
249.0, 0.05523127528057627
250.0, 0.05524177707062326
251.0, 0.060568780208774514
252.0, 0.06606339790590694
253.0, 0.07138756617988604
254.0, 0.07811530515235365
255.0, 0.081088956722107
256.0, 0.09182046826309635
257.0, 0.09524488994096386
258.0, 0.10330011010128254
259.0, 0.10897316128787411
260.0, 0.1212543692482866
261.0, 0.12173892884075868
262.0, 0.11560199844967474
263.0, 0.10902225578877779
264.0, 0.10143282133151142
265.0, 0.08630042426132148
266.0, 0.07256309544145513
267.0, 0.06198409931973424
268.0, 0.0523533134160991
269.0, 0.0421945272222557
270.0, 0.033122691579740904
271.0, 0.02901243418695663
272.0, 0.026196224064810397
273.0, 0.017475865305347574
274.0, 0.01206707281079087
275.0, 0.004478071230009089
276.0, 0.0016969522917203365
277.0, 0.0033144199313045156
278.0, 0.004490194004338967
279.0, 0.004157407717290747
280.0, 0.0011924293065547474
281.0, 0.0006720963900442729
282.0, 0.004906440049818973
283.0, 0.007001204714514222
284.0, 0.007159659277297994
285.0, 0.005203308194258024
286.0, 0.001404794435115407
287.0, 0.00411649628442635
288.0, 0.0032773142841586358
289.0, 0.003037525272053303
290.0, 0.002323830843442229
291.0, 0.005788018827020268
292.0, 0.016104474383993313
293.0, 0.02947259807761102
294.0, 0.04132986729457721
295.0, 0.05051655904465087
296.0, 0.058935526626732994
297.0, 0.07516929460212507
298.0, 0.0877255276088521
299.0, 0.10028910751472848
300.0, 0.11548706150970632
301.0, 0.1271282907530614
302.0, 0.1384907693871763
303.0, 0.13973227246416794
304.0, 0.13544351478285502
305.0, 0.13347517154198751
306.0, 0.12379896654068923
307.0, 0.11256338359038988
308.0, 0.10472815594834696
309.0, 0.09628995257447101
310.0, 0.08027550918906493
311.0, 0.06975029055850242
312.0, 0.06237242190145884
313.0, 0.05745395815606697
314.0, 0.054612946451567425
315.0, 0.05190942104828793
316.0, 0.04349701638724746
317.0, 0.03893730230784227
318.0, 0.042029800381585096
319.0, 0.04905720431038895
320.0, 0.05096564648846769
321.0, 0.05425847845963101
322.0, 0.06134578233484341
323.0, 0.06956911151529932
324.0, 0.07450485096766779
325.0, 0.08156149540995707
326.0, 0.08901912665739778
327.0, 0.09694658545373905
328.0, 0.10161795905947094
329.0, 0.09258518657696833
330.0, 0.09244143753447727
331.0, 0.09127868477288055
332.0, 0.08903786537621372
333.0, 0.08844804869877981
334.0, 0.08174327143755745
335.0, 0.07056263441087751
336.0, 0.06258274517034099
337.0, 0.05694289094923085
338.0, 0.047893239353874566
339.0, 0.04181744781230355
340.0, 0.035579052959435906
341.0, 0.027292546139834204
342.0, 0.01944939247632993
343.0, 0.010847454637825946
344.0, 0.0065433520103005
345.0, 0.0029539937861833574
346.0, 0.004801831023656144
347.0, 0.0015661264682771817
348.0, 0.0018132768924765505
349.0, 0.0034177965186210895
350.0, 0.0012142955695719681
351.0, 0.0029403170103923766
352.0, 0.007359835765087654
353.0, 0.003425948048915032
354.0, 0.0003518244795182104
355.0, 0.0007739170060546744
356.0, 0.0024704866612957283
357.0, 0.0012934999651664208
358.0, 0.001894700931321951
359.0, 0.0006657793835579469
360.0, 0.0031885263213633033
361.0, 0.00967085307385225
362.0, 0.01938064940199431
363.0, 0.017931704914589983
364.0, 0.022575287552193048
365.0, 0.03228934992332689
366.0, 0.03982076162775994
367.0, 0.03788772810220526
368.0, 0.04194657757488462
369.0, 0.055431988468223975
370.0, 0.06629935847531943
371.0, 0.0688387263630203
372.0, 0.07555915527689047
373.0, 0.07976073062946096
374.0, 0.08298148936367467
375.0, 0.08536341999019487
376.0, 0.0845577838242712
377.0, 0.07739780247123924
378.0, 0.0813691514467738
379.0, 0.07273557816074791
380.0, 0.0571288278945832
381.0, 0.048555879196764865
382.0, 0.033803220859710825
383.0, 0.024041936232078072
384.0, 0.019173201530212475
385.0, 0.013041331531817643
386.0, 0.004551685350950736
387.0, 0.006668163334553839
388.0, 0.0018840877823340443
389.0, 0.00022256158857912416
390.0, 0.0005342625206719285
391.0, 0.0018400499262712633
392.0, 0.008737790183586995
393.0, 0.016212802910420543
394.0, 0.02118147418793497
395.0, 0.0256666952759601
396.0, 0.031016187338274485
397.0, 0.04847499909691471
398.0, 0.050573983138515875
399.0, 0.058069608154127664
400.0, 0.07649103899040081
401.0, 0.08669503652999457
402.0, 0.10309417281174033
403.0, 0.11693264959955821
404.0, 0.13112882860949013
405.0, 0.14660676605010625
406.0, 0.15734588181996279
407.0, 0.16744462953106704
408.0, 0.172146808536454
409.0, 0.1741338575270909
410.0, 0.17572230829387656
411.0, 0.17572850085573372
412.0, 0.17240354503970998
413.0, 0.16579056655439636
414.0, 0.15402230417549334
415.0, 0.14080825799636285
416.0, 0.1327009104087978
417.0, 0.12482461068779643
418.0, 0.10919916467710336
419.0, 0.09244590975419963
420.0, 0.08054730460073684
421.0, 0.07327025681219944
422.0, 0.06435283795863472
423.0, 0.05200413475803457
424.0, 0.04439648906704962
425.0, 0.042609158528711145
426.0, 0.036777781163077256
427.0, 0.032969496284833276
428.0, 0.03256076431646157
429.0, 0.03338904821165447
430.0, 0.03273459115770813
431.0, 0.03184658844882012
432.0, 0.030351308036381745
433.0, 0.03321711391421333
434.0, 0.03551434839105284
435.0, 0.03613575081801358
436.0, 0.0400083553925114
437.0, 0.05140703202418043
438.0, 0.061902697729841694
439.0, 0.06698591425556803
440.0, 0.06960649155799001
441.0, 0.07487073486234543
442.0, 0.07883532331751437
443.0, 0.08329699743189034
444.0, 0.08860827579448023
445.0, 0.09168736390733827
446.0, 0.09534916461120889
447.0, 0.0987482003578795
448.0, 0.09837393467945872
449.0, 0.09903923764769798
450.0, 0.10031703254095409
451.0, 0.09938048721425566
452.0, 0.10120712103955003
453.0, 0.10451779835076871
454.0, 0.10176430759363037
455.0, 0.09608095696093205
456.0, 0.09515063729630624
457.0, 0.09341627426143544
458.0, 0.0855419024166378
459.0, 0.07984259508035843
460.0, 0.07842420703978877
461.0, 0.08109676245358448
462.0, 0.0797477510233816
463.0, 0.0843337982925428
464.0, 0.08499967340571662
465.0, 0.086054712014121
466.0, 0.09277416018784489
467.0, 0.09258466136508016
468.0, 0.0954213140411182
469.0, 0.0903341172189676
470.0, 0.08360157446181057
471.0, 0.08160686232377275
472.0, 0.07669058835152319
473.0, 0.06398871431669027
474.0, 0.05006586205945004
475.0, 0.038437377135189486
476.0, 0.02787653503269353
477.0, 0.01443960351467944
478.0, 0.0032294673383073402
479.0, 0.008830708142363131
480.0, 0.0031061461027395683
481.0, 0.0025420223611020082
482.0, 0.008973907699782936
483.0, 0.003994431814048782
484.0, 0.001801999776269565
485.0, 0.00011346108513277136
486.0, 0.003564833580367522
487.0, 0.008969761184030638
488.0, 0.0019334262123465902
489.0, 0.019703002556387864
490.0, 0.032586060099944934
491.0, 0.04322746332433935
492.0, 0.05864439974739062
493.0, 0.07742048118006362
494.0, 0.09328186429884654
495.0, 0.110806970647933
496.0, 0.12478045187088146
497.0, 0.1340679061585874
498.0, 0.14601337109856816
499.0, 0.15211625412143134
500.0, 0.15471999194250247
501.0, 0.15456807211215615
502.0, 0.1481633460748742
503.0, 0.1323694883385494
504.0, 0.12967005885853658
505.0, 0.1145337960422548
506.0, 0.09917672742460526
507.0, 0.08327126737644676
508.0, 0.062060950106434726
509.0, 0.05489073712740307
510.0, 0.04749552103594478
511.0, 0.03940724820230623
512.0, 0.02999534792581916
513.0, 0.02013129267138187
514.0, 0.01278585988750965
515.0, 0.010451189548961388
516.0, 0.005053789418971212
517.0, 0.0020596475249943813
518.0, 0.001237120245128212
519.0, 0.002274179547834024
520.0, 0.003594549392791355
521.0, 0.004263298627202076
522.0, 0.0035670629919464804
523.0, 0.0023070362964007704
524.0, 0.003303450422957808
525.0, 0.003449028155418057
526.0, 0.0034754489122697393
527.0, 0.00018554074126944856
528.0, 0.0022709536489049606
529.0, 0.0038995129694114113
530.0, 0.007996570559913332
531.0, 0.009713798830827711
532.0, 0.013010725996606097
533.0, 0.021410057532176147
534.0, 0.022633021516148683
535.0, 0.025341809054529815
536.0, 0.03682146289380481
537.0, 0.04145632304710083
538.0, 0.048833236640746194
539.0, 0.05741439893891388
540.0, 0.06272424470640621
541.0, 0.07062122743992108
542.0, 0.07387637208469994
543.0, 0.08201908855573684
544.0, 0.08613244725316165
545.0, 0.08799310808833649
546.0, 0.0991492588858463
547.0, 0.10679123745932886
548.0, 0.11590719116336344
549.0, 0.12193034341729254
550.0, 0.13162476886244678
551.0, 0.15085117022285507
552.0, 0.1695101282846231
553.0, 0.19560882591937134
554.0, 0.21958540729150575
555.0, 0.24536803783056998
556.0, 0.27908961444541136
557.0, 0.3193948053704167
558.0, 0.3547181323877369
559.0, 0.39687125316760397
560.0, 0.4465237393954798
561.0, 0.49828684441291915
562.0, 0.5453790374704385
563.0, 0.5821384742714416
564.0, 0.6010807420381757
565.0, 0.6173172214223683
566.0, 0.6174025500015222
567.0, 0.5946793316505653
568.0, 0.560945582582468
569.0, 0.524255060499285
570.0, 0.48609229255872355
571.0, 0.447574490824207
572.0, 0.4122198515283669
573.0, 0.38225905780745173
574.0, 0.35624667537958293
575.0, 0.3436443475593994
576.0, 0.3210455961293541
577.0, 0.30479750331937117
578.0, 0.3048300675762838
579.0, 0.310963706040781
580.0, 0.3042572997015183
581.0, 0.3169124283788195
582.0, 0.33883306090850585
583.0, 0.35161758130426657
584.0, 0.35278238298786113
585.0, 0.36059245383577565
586.0, 0.38694618577282475
587.0, 0.40422845818237385
588.0, 0.411297741445814
589.0, 0.40568682631549163
590.0, 0.3909688239397944
591.0, 0.3896907343232791
592.0, 0.3578607782672525
593.0, 0.330577731128808
594.0, 0.2987027579038279
595.0, 0.26066026428595873
596.0, 0.2350910337600462
597.0, 0.20855484564066373
598.0, 0.18968998489714287
599.0, 0.17669120587731899
600.0, 0.1656228628450476
601.0, 0.1530954229623762
602.0, 0.13930158464325545
603.0, 0.13931141963872853
604.0, 0.13076747693997876
605.0, 0.12252865881931255
606.0, 0.11728783661672051
607.0, 0.11020244845020631
608.0, 0.10305667024630442
609.0, 0.09093261933560282
610.0, 0.08798385523321604
611.0, 0.08169948797117962
612.0, 0.07156586747361561
613.0, 0.06711696949517482
614.0, 0.05439944771502576
615.0, 0.045495023249756614
616.0, 0.037964639173445024
617.0, 0.030468836095166218
618.0, 0.024858477759548827
619.0, 0.020696867764693583
620.0, 0.008685141406711217
621.0, 0.003175619568925733
622.0, 0.0010526291804921998
623.0, 0.003568363607424925
624.0, 0.0044229817665719755
625.0, 0.006789058954694335
626.0, 0.0033507185255926258
627.0, 0.0008899069088137876
628.0, 0.003460458714985259
629.0, 0.0014202599313382278
630.0, 0.0028516914809395026
631.0, 0.0006380203068102911
632.0, 0.005190357065701355
633.0, 0.007448704107268895
634.0, 0.005026150353111972
635.0, 0.0014609913478697044
636.0, 0.007749759794438611
637.0, 0.0033521371659350984
638.0, 0.00864386882480072
639.0, 0.009312061264507052
640.0, 0.008343472287426473
641.0, 0.007868753939730674
642.0, 0.004800466806856118
643.0, 0.0022209382520830385
644.0, 0.0011856005997342267
645.0, 0.0003614792159670029
646.0, 0.006199597565309401
647.0, 0.013875243937690851
648.0, 0.009681160613716766
649.0, 0.007772234484752103
650.0, 0.02290656987034165
651.0, 0.029572410017366494
652.0, 0.034729167104276246
653.0, 0.04339977240141471
654.0, 0.04953988391833498
655.0, 0.06369032342943946
656.0, 0.07276549142688069
657.0, 0.07970027333015763
658.0, 0.08614475702120157
659.0, 0.09820536068690132
660.0, 0.12159031014713623
661.0, 0.13970149413673708
662.0, 0.13721917077357823
663.0, 0.15307927089223314
664.0, 0.17431120658882177
665.0, 0.1899922839529379
666.0, 0.21019179332531696
667.0, 0.23342259968371784
668.0, 0.2972829729605542
669.0, 0.34137940239093784
670.0, 0.3708140120384323
671.0, 0.39385899214128905
672.0, 0.4006561362016456
673.0, 0.42449367751783706
674.0, 0.4752118572731789
675.0, 0.5243706974097397
676.0, 0.5701154019179699
677.0, 0.6207848395002052
678.0, 0.6803361383530458
679.0, 0.742161035135152
680.0, 0.798336789132464
681.0, 0.8488094557295924
682.0, 0.8955352576258422
683.0, 0.9354869729025969
684.0, 0.9664972741254223
685.0, 0.9942757217885269
686.0, 0.9986445716253108
687.0, 0.9855543515647652
688.0, 0.9531336876806842
689.0, 0.9070545482204325
690.0, 0.8568953780243823
691.0, 0.8022212884606039
692.0, 0.7496427642853278
693.0, 0.6925135087061249
694.0, 0.6466914284333258
695.0, 0.6024267157875961
696.0, 0.5518201566701741
697.0, 0.5230044758697278
698.0, 0.4899553372891048
699.0, 0.45178742757969986
700.0, 0.4235648397539513
701.0, 0.39831451583716504
702.0, 0.3674147865071008
703.0, 0.3401038795385813
704.0, 0.31952165627940665
705.0, 0.30630152164088825
706.0, 0.2925508153357107
707.0, 0.2780891297169658
708.0, 0.2638558277109212
709.0, 0.2511703022291759
710.0, 0.24872390956790602
711.0, 0.23424315431948867
712.0, 0.21831400384280583
713.0, 0.20299568255469183
714.0, 0.1914791834668795
715.0, 0.18713613867255313
716.0, 0.17128556937212738
717.0, 0.1648857191260685
718.0, 0.16194170047749704
719.0, 0.15262440422638676
720.0, 0.14243577924435083
721.0, 0.13732280352511628
722.0, 0.12988974133337033
723.0, 0.1384258936560733
724.0, 0.13675753856365577
725.0, 0.13365399278986972
726.0, 0.1279143112787741
727.0, 0.12310631616095977
728.0, 0.13183458501555098
729.0, 0.1253804111429818
730.0, 0.1190123076843161
731.0, 0.12466034274070463
732.0, 0.12525124844717947
733.0, 0.11898983829680947
734.0, 0.11940896432452319
735.0, 0.11116290591903161
736.0, 0.11298484759767279
737.0, 0.11303651116887997
738.0, 0.11441837710506568
739.0, 0.11824327444940774
740.0, 0.12025965174078164
741.0, 0.11753898870632071
742.0, 0.1100221016685616
743.0, 0.11002991800565266
744.0, 0.11612448036659762
745.0, 0.11851791194358673
746.0, 0.11412430716799937
747.0, 0.11008611826754788
748.0, 0.10301273677180557
749.0, 0.10869151415235916
750.0, 0.09593184482719128
751.0, 0.09077376752862998
752.0, 0.08604682981058837
753.0, 0.08584129860440246
754.0, 0.08446624314660302
755.0, 0.07690125183732018
756.0, 0.0788273152420966
757.0, 0.07797198647449151
758.0, 0.07395317793709098
759.0, 0.07228989009512779
760.0, 0.07120409437051896
761.0, 0.06111018644737051
762.0, 0.06566619442307528
763.0, 0.0712369100921073
764.0, 0.05966127768413718
765.0, 0.04172319935407259
766.0, 0.03609841961696379
767.0, 0.04077174353918461
768.0, 0.031333578423503566
769.0, 0.022950706526066563
770.0, 0.017774169970127953
771.0, 0.015952076244757644
772.0, 0.013648212641245275
773.0, 0.006731405165570122
774.0, 0.0013988804101580901
775.0, 0.0005141807916603343
776.0, 0.0006112497848714565
777.0, 0.006943731220817914
778.0, 0.01102708635878106
779.0, 0.009733646399059048
780.0, 0.0030815687100181855
781.0, 0.008746011208558196
782.0, 0.006574879149858608
783.0, 0.0011901753346077932
784.0, 0.000677343967707626
785.0, 0.0017091680047149754
786.0, 0.00047640359665666795
787.0, 0.0010924334431346816
788.0, 0.0038368651018625645
789.0, 0.006039644540987926
790.0, 0.00380490726946451
791.0, 0.002515410365174195
792.0, 0.0007108730563461208
793.0, 0.004366612373052192
794.0, 0.004529559529499887
795.0, 0.002900643085157035
796.0, 0.0005147283762272675
797.0, 0.009021914008930865
798.0, 0.014294302145297845
799.0, 0.014004887235237545
800.0, 0.015114604665169968
801.0, 0.023562643722144498
802.0, 0.026684120797273773
803.0, 0.02829848410724288
804.0, 0.0375203588634591
805.0, 0.04694743465636946
806.0, 0.04964331125588646
807.0, 0.05259287803575216
808.0, 0.061074612987197276
809.0, 0.07494068613932633
810.0, 0.08598362956474079
811.0, 0.10025084860159973
812.0, 0.11654367058618186
813.0, 0.12843908037995896
814.0, 0.13854846384675404
815.0, 0.162333685344992
816.0, 0.18003553089259033
817.0, 0.20355222542650825
818.0, 0.23150713100765424
819.0, 0.25323677195455085
820.0, 0.26785807474568046
821.0, 0.284745417834535
822.0, 0.30145760419403805
823.0, 0.32451463255283625
824.0, 0.3250038321011787
825.0, 0.31496889995160876
826.0, 0.31047338090193954
827.0, 0.3079274997721234
828.0, 0.2910347899637824
829.0, 0.26418410661226627
830.0, 0.2504395821627887
831.0, 0.22537984279373993
832.0, 0.19601225954655335
833.0, 0.17723758779024285
834.0, 0.1636306639513612
835.0, 0.14108072653165185
836.0, 0.12211082472277035
837.0, 0.10279073059632318
838.0, 0.08802644905128297
839.0, 0.07910026130908593
840.0, 0.06308063183245578
841.0, 0.05071280140805201
842.0, 0.038617147864567776
843.0, 0.02690601255763678
844.0, 0.022992780669076063
845.0, 0.015906657366094295
846.0, 0.013980630023523653
847.0, 0.009405214274509579
848.0, 0.0006813459122033851
849.0, 0.0006404534578050067
850.0, 0.0003887738784848904
851.0, 0.0003320748736636991
852.0, 0.0013113589808812587
853.0, 0.002179855175738084
854.0, 0.003231946794817882
855.0, 0.001141569808301865
856.0, 0.002040398336636329
857.0, 0.00019653373867482127
858.0, 0.002927656140728796
859.0, 0.009862514649541018
860.0, 0.01057753840806567
861.0, 0.014799385274308852
862.0, 0.016220934798314178
863.0, 0.017494853557709415
864.0, 0.015610478865622793
865.0, 0.015417200492077754
866.0, 0.024515489707942203
867.0, 0.025366126888817647
868.0, 0.02647340539978981
869.0, 0.032726922182824844
870.0, 0.03823111279300604
871.0, 0.04511010479084537
872.0, 0.046617056959948125
873.0, 0.04670098420265579
874.0, 0.05194789263187549
875.0, 0.05406175521539015
876.0, 0.0605087471340085
877.0, 0.07177022815499473
878.0, 0.07166454293816493
879.0, 0.07950120038435399
880.0, 0.08916128541144305
881.0, 0.09361576026797247
882.0, 0.10103962770318077
883.0, 0.10542063644584188
884.0, 0.10640449148576801
885.0, 0.11220810949555912
886.0, 0.11530487772417929
887.0, 0.1135160919840416
888.0, 0.116213755908515
889.0, 0.11152966505591186
890.0, 0.11540171981308242
891.0, 0.1199701517067189
892.0, 0.11828828422551858
893.0, 0.1213526363967192
894.0, 0.1271813885939364
895.0, 0.13409258757576956
896.0, 0.13964312781784766
897.0, 0.14465185705544126
898.0, 0.157439314204151
899.0, 0.1696379362129877
900.0, 0.17591558694651654
901.0, 0.17466296045728233
902.0, 0.19437301239745433
903.0, 0.21191161690147298
904.0, 0.2244374335670998
905.0, 0.2387816334489712
906.0, 0.2594457646978747
907.0, 0.2849738094404497
908.0, 0.3081641771530696
909.0, 0.32324457936618084
910.0, 0.35164290890459
911.0, 0.36979389185402517
912.0, 0.3809762774542045
913.0, 0.38545654029025345
914.0, 0.3781200592022975
915.0, 0.35832712160229546
916.0, 0.328921032721918
917.0, 0.2902834754707035
918.0, 0.26428360457004657
919.0, 0.22642304581666173
920.0, 0.19673622419776224
921.0, 0.1749451105221492
922.0, 0.14729376671197336
923.0, 0.1159642298269091
924.0, 0.10020398266632156
925.0, 0.1000346135405203
926.0, 0.09958905218407055
927.0, 0.08314034303243759
928.0, 0.05729564663905187
929.0, 0.031920478315710314
930.0, 0.013322372472797769
931.0, 0.005556373530546499
932.0, 0.00811302934011264
933.0, 0.0017183574896489772
934.0, 0.004272365589391313
935.0, 0.0010792992281987708
936.0, 0.0015947792075030895
937.0, 0.0008003609896272756
938.0, 0.0011116703513087437
939.0, 0.004186124369292223
940.0, 0.009364103567751567
941.0, 0.010877900751379978
942.0, 0.01112333062600118
943.0, 0.011800614030074355
944.0, 0.012240818435366159
945.0, 0.013548994894935829
946.0, 0.01221892426284011
947.0, 0.011895822575415521
948.0, 0.011554399411711769
949.0, 0.011549121761696847
950.0, 0.01259868141625199
951.0, 0.007943469928087763
952.0, 0.006828178317986013
953.0, 0.01131779654915416
954.0, 0.01117467658699601
955.0, 0.002352575684047655
956.0, 0.0034517414589437553
957.0, 0.0026596336670756567
958.0, 0.00420792616134373
959.0, 0.002388172030018091
960.0, 0.0009391627925528572
961.0, 0.003564529924909624
962.0, 0.0057014923717395175
963.0, 0.01279967314079946
964.0, 0.015544033022973447
965.0, 0.02408367238053251
966.0, 0.03111928953004629
967.0, 0.03407035058502385
968.0, 0.040102134412801485
969.0, 0.05168451031633645
970.0, 0.0614704155964293
971.0, 0.06462382338261659
972.0, 0.0680151206597262
973.0, 0.07715987781433489
974.0, 0.08700221137701286
975.0, 0.09537592229477351
976.0, 0.10473998623102236
977.0, 0.1115268897343364
978.0, 0.12113639275072165
979.0, 0.13100521795231376
980.0, 0.14024930839859878
981.0, 0.15193200112490748
982.0, 0.1540672303912279
983.0, 0.1487428501887328
984.0, 0.14568459401248807
985.0, 0.13837867048774832
986.0, 0.13597812645148477
987.0, 0.13626252881372855
988.0, 0.12414064033178344
989.0, 0.11831210722421204
990.0, 0.10678802591212873
991.0, 0.09223934338432391
992.0, 0.08032590823415882
993.0, 0.07282490868439843
994.0, 0.06512225663426377
995.0, 0.05732778484777447
996.0, 0.04893284679475199
997.0, 0.0384550589255224
998.0, 0.035553492035617196
999.0, 0.03322068298222453
1000.0, 0.02913745427433722
1001.0, 0.025676218279526406
1002.0, 0.0221950629890462
1003.0, 0.02026228120726269
1004.0, 0.018876471936550402
1005.0, 0.016272988650201322
1006.0, 0.017105314958677995
1007.0, 0.011602621182269028
1008.0, 0.013438825178199831
1009.0, 0.013797634570535799
1010.0, 0.008934244380160892
1011.0, 0.008529386174786342
1012.0, 0.008092118205788491
1013.0, 0.0020461488118710177
1014.0, 0.0015635889357187359
1015.0, 0.003105064888360914
1016.0, 0.0038447693047907027
1017.0, 0.0014649505908165042
1018.0, 0.001319228625134285
1019.0, 0.0009855625454204546
1020.0, 0.0021922132272287342
1021.0, 0.0006058808326248955
1022.0, 0.00576585114130583
1023.0, 0.0025097100577154653
1024.0, 0.0009970214374731424
1025.0, 0.0008971835418739404
1026.0, 0.0002793744641970941
1027.0, 0.001292599325310846
1028.0, 0.0023640989621243036
1029.0, 0.002279658184450919
1030.0, 0.003951587926780886
1031.0, 0.0013773164071230505
1032.0, 0.003231195216009628
1033.0, 0.007715081113124075
1034.0, 0.0013857604290718718
1035.0, 0.0019295029726660601
1036.0, 0.002903275510046324
1037.0, 0.005211073736042473
1038.0, 0.006049403379905154
1039.0, 0.01159557621142366
1040.0, 0.016900728489370638
1041.0, 0.011155147187168323
1042.0, 0.003087885748285446
1043.0, 0.0036250285302863697
1044.0, 0.008696183803948293
1045.0, 0.014437825678955907
1046.0, 0.016222748743048233
1047.0, 0.0126526357999576
1048.0, 0.01216927162029465
1049.0, 0.017644490111124192
1050.0, 0.018078780770553842
1051.0, 0.011937309502355288
1052.0, 0.021849548460628754
1053.0, 0.013570257475273469
1054.0, 0.014143164339394002
1055.0, 0.009283027002293723
1056.0, 0.00988262568353687
1057.0, 0.015908405617738323
1058.0, 0.01637770763982961
1059.0, 0.015314716495930632
1060.0, 0.012237800021967806
1061.0, 0.016544554312875076
1062.0, 0.010675859980041235
1063.0, 0.011676835636749074
1064.0, 0.0073785563473448435
1065.0, 0.012729340899021117
1066.0, 0.005592703059318038
1067.0, 0.0060065438633124
1068.0, 0.006161779518990594
1069.0, 0.008329339543066226
1070.0, 0.0027783787826951446
1071.0, 0.008114504981149146
1072.0, 0.010905707625039847
1073.0, 0.0165370829373152
1074.0, 0.016324148454770832
1075.0, 0.015308634734824246
1076.0, 0.01122044287895192
1077.0, 0.006291334725921487
1078.0, 0.012350774365263774
1079.0, 0.007777528360419698
1080.0, 0.0007676422908530353
1081.0, 0.0046842192363449
1082.0, 0.005300030272272148
1083.0, 0.0043927058103026655
1084.0, 0.0087593025540299
1085.0, 0.00901531341005108
1086.0, 0.007431051901015292
1087.0, 0.011043706192296226
1088.0, 0.005784552186906757
1089.0, 0.00029233393729272594
1090.0, 0.0021548368127744253
1091.0, 0.005962822501081834
1092.0, 0.0024903894903550066
1093.0, 0.0003298926291543506
1094.0, 0.001155804774272869
1095.0, 0.004798838007911185
1096.0, 0.00507193366986802
1097.0, 0.008997583982867704
1098.0, 0.008888392964203464
1099.0, 0.005337698899285848
1100.0, 0.0059872913258135554
1101.0, 0.005214854637226881
1102.0, 0.0052173650975620945
1103.0, 0.007813295512584601
1104.0, 0.003340284834747421
1105.0, 0.0009574485446601406
1106.0, 0.0036834115948802147
1107.0, 0.009898123554790344
1108.0, 0.007540928288812519
1109.0, 0.012938201217893023
1110.0, 0.01347645473190106
1111.0, 0.00902192238178335
1112.0, 0.005587054453791318
1113.0, 0.0034047211927491403
1114.0, 0.000725200681887203
1115.0, 0.006881789135636541
1116.0, 0.015295446096345484
1117.0, 0.01131265143117009
1118.0, 0.01145762605878679
1119.0, 0.020427993916957717
1120.0, 0.012669998305508407
1121.0, 0.006651286454460917
1122.0, 0.005196617168570063
1123.0, 0.004147733444185753
1124.0, 0.010451335515692963
1125.0, 0.011115920651361416
1126.0, 0.006266234629700671
1127.0, 0.008513068399010821
1128.0, 0.009804227593657367
1129.0, 0.0121658822409834
1130.0, 0.013226546848212195
1131.0, 0.01240541560198617
1132.0, 0.011599256690958838
1133.0, 0.011150370474701878
1134.0, 0.009237028886328871
1135.0, 0.007219995170237148
1136.0, 0.007986461735753231
1137.0, 0.011758304609904189
1138.0, 0.012058943973297447
1139.0, 0.0056617592783448365
1140.0, 0.009751207341217384
1141.0, 0.0025617557794415193
1142.0, 0.012474041456383648
1143.0, 0.010615853977497546
1144.0, 0.002934437593226698
1145.0, 0.0024025538000063133
1146.0, 0.00858771182264459
1147.0, 0.011256776035958718
1148.0, 0.005189965216195469
1149.0, 0.0011683403302407153
1150.0, 0.005473290550486045
1151.0, 0.0037367159661227996
1152.0, 0.00826679600796451
1153.0, 0.007332574873075054
1154.0, 0.0060896851742464975
1155.0, 0.00784281134384136
1156.0, 0.006624580682582939
1157.0, 0.010981807087758323
1158.0, 0.00810048966301368
1159.0, 0.010487509588500093
1160.0, 0.011964173521149507
1161.0, 0.007852843845029416
1162.0, 0.00776362775036602
1163.0, 0.009013124688572289
1164.0, 0.01041640927703434
1165.0, 0.007116019689928958
1166.0, 0.002238800616938904
1167.0, 0.004804867970008886
1168.0, 0.0036087274233640256
1169.0, 0.003324953583263039
1170.0, 0.004385344119113516
1171.0, 0.0028337132916210956
1172.0, 0.0036703147786865805
1173.0, 0.0058427331866563095
1174.0, 0.007291977701281885
1175.0, 0.0011776926593585132
1176.0, 0.0010471050513755193
1177.0, 0.005006894466471894
1178.0, 0.001632621431663075
1179.0, 0.0010800315737149201
1180.0, 0.0017752300916159395
1181.0, 0.0068311953359094756
1182.0, 0.005895834376672388
1183.0, 0.00027997089040443366
1184.0, 0.005851815161041506
1185.0, 0.010273406534814084
1186.0, 0.0018292606682821437
1187.0, 0.003448383945010962
1188.0, 0.003383842368160311
1189.0, 0.002376778810253654
1190.0, 0.003558364993466305
1191.0, 0.003723148037416072
1192.0, 0.005237775321494455
1193.0, 0.00677555298509879
1194.0, 0.0015395984799715548
1195.0, 0.005017262849066322
1196.0, 0.009280978630395821
1197.0, 0.0014136370048523045
1198.0, 0.0004529785875618166
1199.0, 0.0023414464882382724
1200.0, 0.0037211497165716857
1201.0, 0.005589753861502011
1202.0, 0.001543869751228955
1203.0, 0.0011670790995290134
1204.0, 0.0021592537473995753
1205.0, 0.008059604185991743
1206.0, 0.00038732649134794596
1207.0, 0.001334514942309288
1208.0, 0.00480872543396809
1209.0, 0.0014474468631512723
1210.0, 0.0031911933540430936
1211.0, 0.006958493118319151
1212.0, 0.005046585137412563
1213.0, 0.010461826890234737
1214.0, 0.0041114030781288936
1215.0, 0.005461784855400856
1216.0, 0.009653345438854951
1217.0, 0.0006249290725179462
1218.0, 0.0016521547388224317
1219.0, 0.0043926854363615245
1220.0, 0.0070120447678105585
1221.0, 0.003060648021165841
1222.0, 0.007393050034464834
1223.0, 0.0031422294696422082
1224.0, 0.0017754642523964343
1225.0, 0.0017006338691450075
1226.0, 0.00251433417450729
1227.0, 0.005129245288411484
1228.0, 0.007899481750950822
1229.0, 0.008198558924937512
1230.0, 0.00588178752079219
1231.0, 0.004888491444580178
1232.0, 0.00870359182492238
1233.0, 0.009679673571963586
1234.0, 0.012725529297377046
1235.0, 0.010957195087245209
1236.0, 0.005472361442931062
1237.0, 0.004790214063238978
1238.0, 0.005350730128133612
1239.0, 0.006701068366571231
1240.0, 0.0099080632473262
1241.0, 0.01021777590599761
1242.0, 0.009671791391545002
1243.0, 0.01438557684534552
1244.0, 0.015452942525685822
1245.0, 0.008771790663832487
1246.0, 0.009278782803259526
1247.0, 0.013630561272277342
1248.0, 0.007946361074125524
1249.0, 0.0011154646490575762
1250.0, 0.0002722812624843951
1251.0, 0.0014814490179672825
1252.0, 0.004128234465721867
1253.0, 0.009570437451416966
1254.0, 0.005188728804144505
1255.0, 0.0004559981173406179
1256.0, 0.0042599754419655475
1257.0, 0.011753822342758033
1258.0, 0.006273167202655026
1259.0, 0.003134819495002137
1260.0, 0.004975200428050028
1261.0, 0.0005534137466534855
1262.0, 0.0009846222711728967
1263.0, 0.002777914926655569
1264.0, 0.002769337497254139
1265.0, 0.000370780338936944
1266.0, 0.002449590994502945
1267.0, 0.0014958101349187446
1268.0, 0.0002493005727722897
1269.0, 0.0034024253565387327
1270.0, 0.002663925896467422
1271.0, 0.004407820204902536
1272.0, 0.007784423683713083
1273.0, 0.007565194490508658
1274.0, 0.013436829542562357
1275.0, 0.01009947670747982
1276.0, 0.002296652842672057
1277.0, 0.003880931655603731
1278.0, 0.008578129371824379
1279.0, 0.0063589268121060916
1280.0, 0.0019791157531518205
1281.0, 0.00428916264828906
1282.0, 0.004625443205864405
1283.0, 0.000377040720900775
1284.0, 0.0028392282105999204
1285.0, 0.00237378356174766
1286.0, 0.0015014154807072547
1287, 0.0
1288, 0.0
1289, 0.0
1290, 0.0
1291, 0.0
1292, 0.0
1293, 0.0
1294, 0.0
1295, 0.0
1296, 0.0
1297, 0.0
1298, 0.0
1299, 0.0
1300, 0.0
1301, 0.0
1302, 0.0
1303, 0.0
1304, 0.0
1305, 0.0
1306, 0.0
1307, 0.0
1308, 0.0
1309, 0.0
1310, 0.0
1311, 0.0
1312, 0.0
1313, 0.0
1314, 0.0
1315, 0.0
1316, 0.0
1317, 0.0
1318, 0.0
1319, 0.0
1320, 0.0
1321, 0.0
1322, 0.0
1323, 0.0
1324, 0.0
1325, 0.0
1326, 0.0
1327, 0.0
1328, 0.0
1329, 0.0
1330, 0.0
1331, 0.0
1332, 0.0
1333, 0.0
1334, 0.0
1335, 0.0
1336, 0.0
1337, 0.0
1338, 0.0
1339, 0.0
1340, 0.0
1341, 0.0
1342, 0.0
1343, 0.0
1344, 0.0
1345, 0.0
1346, 0.0
1347, 0.0
1348, 0.0
1349, 0.0
1350, 0.0
1351, 0.0
1352, 0.0
1353, 0.0
1354, 0.0
1355, 0.0
1356, 0.0
1357, 0.0
1358, 0.0
1359, 0.0
1360, 0.0
1361, 0.0
1362, 0.0
1363, 0.0
1364, 0.0
1365, 0.0
1366, 0.0
1367, 0.0
1368, 0.0
1369, 0.0
1370, 0.0
1371, 0.0
1372, 0.0
1373, 0.0
1374, 0.0
1375, 0.0
1376, 0.0
1377, 0.0
1378, 0.0
1379, 0.0
1380, 0.0
1381, 0.0
1382, 0.0
1383, 0.0
1384, 0.0
1385, 0.0
1386, 0.0
1387, 0.0
1388, 0.0
1389, 0.0
1390, 0.0
1391, 0.0
1392, 0.0
1393, 0.0
1394, 0.0
1395, 0.0
1396, 0.0
1397, 0.0
1398, 0.0
1399, 0.0
1400, 0.0
1401, 0.0
1402, 0.0
1403, 0.0
1404, 0.0
1405, 0.0
1406, 0.0
1407, 0.0
1408, 0.0
1409, 0.0
1410, 0.0
1411, 0.0
1412, 0.0
1413, 0.0
1414, 0.0
1415, 0.0
1416, 0.0
1417, 0.0
1418, 0.0
1419, 0.0
1420, 0.0
1421, 0.0
1422, 0.0
1423, 0.0
1424, 0.0
1425, 0.0
1426, 0.0
1427, 0.0
1428, 0.0
1429, 0.0
1430, 0.0
1431, 0.0
1432, 0.0
1433, 0.0
1434, 0.0
1435, 0.0
1436, 0.0
1437, 0.0
1438, 0.0
1439, 0.0
1440, 0.0
1441, 0.0
1442, 0.0
1443, 0.0
1444, 0.0
1445, 0.0
1446, 0.0
1447, 0.0
1448, 0.0
1449, 0.0
1450, 0.0
1451, 0.0
1452, 0.0
1453, 0.0
1454, 0.0
1455, 0.0
1456, 0.0
1457, 0.0
1458, 0.0
1459, 0.0
1460, 0.0
1461, 0.0
1462, 0.0
1463, 0.0
1464, 0.0
1465, 0.0
1466, 0.0
1467, 0.0
1468, 0.0
1469, 0.0
1470, 0.0
1471, 0.0
1472, 0.0
1473, 0.0
1474, 0.0
1475, 0.0
1476, 0.0
1477, 0.0
1478, 0.0
1479, 0.0
1480, 0.0
1481, 0.0
1482, 0.0
1483, 0.0
1484, 0.0
1485, 0.0
1486, 0.0
1487, 0.0
1488, 0.0
1489, 0.0
1490, 0.0
1491, 0.0
1492, 0.0
1493, 0.0
1494, 0.0
1495, 0.0
1496, 0.0
1497, 0.0
1498, 0.0
1499, 0.0
1500, 0.0
1501, 0.0
1502, 0.0
1503, 0.0
1504, 0.0
1505, 0.0
1506, 0.0
1507, 0.0
1508, 0.0
1509, 0.0
1510, 0.0
1511, 0.0
1512, 0.0
1513, 0.0
1514, 0.0
1515, 0.0
1516, 0.0
1517, 0.0
1518, 0.0
1519, 0.0
1520, 0.0
1521, 0.0
1522, 0.0
1523, 0.0
1524, 0.0
1525, 0.0
1526, 0.0
1527, 0.0
1528, 0.0
1529, 0.0
1530, 0.0
1531, 0.0
1532, 0.0
1533, 0.0
1534, 0.0
1535, 0.0
1536, 0.0
1537, 0.0
1538, 0.0
1539, 0.0
1540, 0.0
1541, 0.0
1542, 0.0
1543, 0.0
1544, 0.0
1545, 0.0
1546, 0.0
1547, 0.0
1548, 0.0
1549, 0.0
1550, 0.0
1551, 0.0
1552, 0.0
1553, 0.0
1554, 0.0
1555, 0.0
1556, 0.0
1557, 0.0
1558, 0.0
1559, 0.0
1560, 0.0
1561, 0.0
1562, 0.0
1563, 0.0
1564, 0.0
1565, 0.0
1566, 0.0
1567, 0.0
1568, 0.0
1569, 0.0
1570, 0.0
1571, 0.0
1572, 0.0
1573, 0.0
1574, 0.0
1575, 0.0
1576, 0.0
1577, 0.0
1578, 0.0
1579, 0.0
1580, 0.0
1581, 0.0
1582, 0.0
1583, 0.0
1584, 0.0
1585, 0.0
1586, 0.0
1587, 0.0
1588, 0.0
1589, 0.0
1590, 0.0
1591, 0.0
1592, 0.0
1593, 0.0
1594, 0.0
1595, 0.0
1596, 0.0
1597, 0.0
1598, 0.0
1599, 0.0
