30, 0.0
31, 0.0
32, 0.0
33, 0.0
34, 0.0
35, 0.0
36, 0.0
37, 0.0
38, 0.0
39, 0.0
40, 0.0
41, 0.0
42, 0.0
43, 0.0
44, 0.0
45, 0.0
46, 0.0
47, 0.0
48, 0.0
49, 0.0
50, 0.0
51, 0.0
52, 0.0
53, 0.0
54, 0.0
55, 0.0
56, 0.0
57, 0.0
58, 0.0
59, 0.0
60, 0.0
61, 0.0
62, 0.0
63, 0.0
64, 0.0
65, 0.0
66, 0.0
67, 0.0
68, 0.0
69, 0.0
70, 0.0
71, 0.0
72, 0.0
73, 0.0
74, 0.0
75, 0.0
76, 0.0
77, 0.0
78.0, 0.0006434227332854301
79.0, 0.011148341908608828
80.0, 0.040440926469868785
81.0, 0.04078409712859589
82.0, 0.02805597042074536
83.0, 0.008536972511366406
84.0, 0.006840826920085527
85.0, 0.004674311831354808
86.0, 0.010202642766670968
87.0, 0.031270876986960586
88.0, 0.06595819750104781
89.0, 0.10441340835304212
90.0, 0.1428535802603459
91.0, 0.16579245117153085
92.0, 0.2233663427505222
93.0, 0.28804926847070994
94.0, 0.34261856758066217
95.0, 0.37655183467938047
96.0, 0.42752255097535374
97.0, 0.49108484277848446
98.0, 0.5374158412714066
99.0, 0.5825684235437525
100.0, 0.6238588952304838
101.0, 0.6586651887004379
102.0, 0.6883862297508105
103.0, 0.7282672063491616
104.0, 0.768249407823106
105.0, 0.7637243739551137
106.0, 0.7861932117711589
107.0, 0.8077978177778897
108.0, 0.8129270902824429
109.0, 0.8586928750948547
110.0, 0.902206047280843
111.0, 0.9314431480178581
112.0, 0.9062691156244349
113.0, 0.9073302244754217
114.0, 0.9147630425447381
115.0, 0.9205468638985784
116.0, 0.9457712589758005
117.0, 0.9408373807817466
118.0, 0.9173989091349778
119.0, 0.9029861459013923
120.0, 0.8968828185839804
121.0, 0.8912909932079015
122.0, 0.8836754996427996
123.0, 0.8834551253357475
124.0, 0.874564739079687
125.0, 0.8643156422861705
126.0, 0.8670823228445607
127.0, 0.8644422421196812
128.0, 0.8640945788214016
129.0, 0.8662300137487363
130.0, 0.836618232664771
131.0, 0.8395807675235794
132.0, 0.8532831465980814
133.0, 0.8499024227293899
134.0, 0.8408492816716607
135.0, 0.8476434195093584
136.0, 0.8694612569444037
137.0, 0.8624504704403657
138.0, 0.8789557536620939
139.0, 0.8920783948114211
140.0, 0.8748496052207486
141.0, 0.9004827754977648
142.0, 0.9236069012150271
143.0, 0.9357933285786575
144.0, 0.9149207833145628
145.0, 0.9247446763115769
146.0, 0.9333860898480837
147.0, 0.9209815801937385
148.0, 0.9311769979302716
149.0, 0.9427218042266814
150.0, 0.9501062248161193
151.0, 0.9377673176398795
152.0, 0.9142394573973185
153.0, 0.9001761322304754
154.0, 0.9031939737910304
155.0, 0.8787525550659715
156.0, 0.8584734969415692
157.0, 0.8385501372161291
158.0, 0.812286163719579
159.0, 0.7796067044181185
160.0, 0.7441172818013967
161.0, 0.7085067623521614
162.0, 0.6935000916295295
163.0, 0.6518051926952456
164.0, 0.6081989724233827
165.0, 0.5866126837700216
166.0, 0.5702250159081419
167.0, 0.5542746488847449
168.0, 0.540418095123004
169.0, 0.5385325551284008
170.0, 0.5044768360440727
171.0, 0.4764800588916565
172.0, 0.4750087278568237
173.0, 0.4231666542032293
174.0, 0.39700111710349256
175.0, 0.38728848691985784
176.0, 0.37605392534409593
177.0, 0.3569894062163139
178.0, 0.3442630639158883
179.0, 0.3395545291741226
180.0, 0.3140785816930206
181.0, 0.3143698994903444
182.0, 0.31416878090554445
183.0, 0.2850422353258697
184.0, 0.29274182770404367
185.0, 0.2825059210921545
186.0, 0.25677125638171006
187.0, 0.24880905635407058
188.0, 0.23801609622762676
189.0, 0.22516014754124497
190.0, 0.2103684063127146
191.0, 0.19263867242609958
192.0, 0.19764624488150992
193.0, 0.21100121474933403
194.0, 0.2064640052265646
195.0, 0.1979123615643323
196.0, 0.1833388664894679
197.0, 0.1646931270079844
198.0, 0.16396379595260963
199.0, 0.16123675621631367
200.0, 0.16144463449470206
201.0, 0.16921762935490384
202.0, 0.13493342870415884
203.0, 0.13073057496363297
204.0, 0.14414270442631583
205.0, 0.12935991345814413
206.0, 0.12842400541250443
207.0, 0.13377324088518416
208.0, 0.1421718010517185
209.0, 0.13218485952315667
210.0, 0.13501111348716477
211.0, 0.1315907290257223
212.0, 0.0980065439566996
213.0, 0.0877495011152567
214.0, 0.08724206833780748
215.0, 0.09270074966467463
216.0, 0.09497297033686732
217.0, 0.0928435870836572
218.0, 0.08644610128254933
219.0, 0.07618034035834072
220.0, 0.0916979402739032
221.0, 0.0919653483285163
222.0, 0.0856988934060188
223.0, 0.08426278434149283
224.0, 0.07019142212295518
225.0, 0.06973661709100344
226.0, 0.07972031294713268
227.0, 0.06699399684606966
228.0, 0.0550029641143275
229.0, 0.05240132719931069
230.0, 0.06408181073410858
231.0, 0.06179017871350127
232.0, 0.06312432119063027
233.0, 0.06380766114605242
234.0, 0.05683782361417071
235.0, 0.05659472612178631
236.0, 0.061086651367470685
237.0, 0.06772373744468918
238.0, 0.06458990128513659
239.0, 0.05714197043427235
240.0, 0.046153198851532386
241.0, 0.031963215853449606
242.0, 0.034557240722434004
243.0, 0.03791033116946446
244.0, 0.040385141540149744
245.0, 0.03929990769176474
246.0, 0.045925253713683764
247.0, 0.04935566892078901
248.0, 0.05025062768192819
249.0, 0.058105017565049946
250.0, 0.05378252227003515
251.0, 0.04761728160185136
252.0, 0.0438203605038262
253.0, 0.038301998585364185
254.0, 0.030307258525064846
255.0, 0.024338327442278894
256.0, 0.026477853285509115
257.0, 0.012993590477320096
258.0, 0.011606786245618849
259.0, 0.018731538051324156
260.0, 0.01338973455441674
261.0, 0.008067384517195606
262.0, 0.003936420542952358
263.0, 0.0017039764887084136
264.0, 0.0046098329652959295
265.0, 0.008475196177335526
266.0, 0.014297599340853171
267.0, 0.023310076297734298
268.0, 0.017794494926773954
269.0, 0.012149781527534155
270.0, 0.010796416851685831
271.0, 0.023552148359880475
272.0, 0.014486424514878773
273.0, 0.005293644717828901
274.0, 0.0014457083148873397
275.0, 0.007730330695247915
276.0, 0.0043837527084911706
277.0, 0.004993598555636081
278.0, 0.01748884038425021
279.0, 0.0076207127816839675
280.0, 0.010803941116156074
281.0, 0.016419389098826197
282.0, 0.009111628736355662
283.0, 0.03368117664834785
284.0, 0.028162778984444924
285.0, 0.0034356730954151794
286.0, 0.022716909568922892
287.0, 0.014179613482623534
288.0, 0.010193979786477084
289.0, 0.019715956846884413
290.0, 0.02066461890885353
291.0, 0.01859250460179688
292.0, 0.014111760029490016
293.0, 0.007390714376690877
294.0, 0.003724104960433097
295.0, 0.007132515268782594
296.0, 0.013516892295717788
297.0, 0.015609296891823405
298.0, 0.02040463559719353
299.0, 0.016405062278421707
300.0, 0.009484009668986161
301.0, 0.032026894949853335
302.0, 0.026742651808580212
303.0, 0.026491708493434688
304.0, 0.04100967591257563
305.0, 0.03419490338385928
306.0, 0.02067591645071293
307.0, 0.01928956930526997
308.0, 0.046797680517320805
309.0, 0.025830572943913478
310.0, 0.030213981032484665
311.0, 0.04478354557795701
312.0, 0.040860181109137875
313.0, 0.03779313895484242
314.0, 0.05000726485049899
315.0, 0.06794203799143134
316.0, 0.047824709625351215
317.0, 0.05927929321043332
318.0, 0.05827237689924742
319.0, 0.03437934733445358
320.0, 0.0314449218477211
321.0, 0.03128325384813502
322.0, 0.023808609131907386
323.0, 0.001972706514040119
324.0, 0.018155719037045607
325.0, 0.016476837027508937
326.0, 0.013138442614123369
327.0, 0.03030035962125946
328.0, 0.013847288132603323
329.0, 0.00931265870495187
330.0, 0.016374485973486116
331.0, 0.024950904363227944
332.0, 0.012134614558081198
333.0, 0.005697598459276591
334.0, 0.010279823548817069
335.0, 0.017620328429477344
336.0, 0.009141895119102352
337.0, 0.00547155361566532
338.0, 0.013891335689307952
339.0, 0.0040650337113789185
340.0, 0.024788018964076994
341.0, 0.037295078248915
342.0, 0.009286088009651167
343.0, 0.03279358906964786
344.0, 0.023037527280014496
345.0, 0.006732385521061812
346.0, 0.025893054334744998
347.0, 0.009001512885302716
348.0, 0.00019611144067221357
349.0, 0.004742297813562878
350.0, 0.02678642590652873
351.0, 0.01380847226518796
352.0, 0.012683499681970157
353.0, 0.030628411147862397
354.0, 0.05270270817793411
355.0, 0.05446219745070536
356.0, 0.054784159156991696
357.0, 0.05780577541698551
358.0, 0.027147282770687224
359.0, 0.035280064370980635
360.0, 0.047761799460640506
361.0, 0.04200723264852386
362.0, 0.03246594708553406
363.0, 0.05020059449255727
364.0, 0.07166444052719065
365.0, 0.06996918056853299
366.0, 0.11575556509554831
367.0, 0.12632413981980528
368.0, 0.11868895093581966
369.0, 0.1312525764443583
370.0, 0.1524406187352372
371.0, 0.159993028002535
372.0, 0.1595222594156844
373.0, 0.17691925389139704
374.0, 0.15536793983521593
375.0, 0.16179680032144195
376.0, 0.19756056299629332
377.0, 0.18585827887258483
378.0, 0.20841821578388875
379.0, 0.23397021114983357
380.0, 0.24908166459464712
381.0, 0.23958259659338163
382.0, 0.2732180864072527
383.0, 0.30142372619902397
384.0, 0.2971897307805383
385.0, 0.322641654769363
386.0, 0.3300860947148339
387.0, 0.3348443676760851
388.0, 0.35065872845192286
389.0, 0.40896842977040837
390.0, 0.4294941686034484
391.0, 0.43645137577445914
392.0, 0.46355177691985533
393.0, 0.49894624995065917
394.0, 0.5181453591022188
395.0, 0.5409105085609196
396.0, 0.6104378919612657
397.0, 0.6187760913420367
398.0, 0.6649124017237831
399.0, 0.7303083318680385
400.0, 0.7256395355376645
401.0, 0.7551064103539775
402.0, 0.8048580172695136
403.0, 0.86360320926375
404.0, 0.8958027050231862
405.0, 0.9450943161907511
406.0, 0.965845284343295
407.0, 0.9558913264028401
408.0, 0.9918984068903168
409.0, 0.9821743869319727
410.0, 0.9619841860409084
411.0, 0.9447287343251198
412.0, 0.9188485226008115
413.0, 0.8867699113666756
414.0, 0.8566304590438729
415.0, 0.8318384206349287
416.0, 0.7875951434628318
417.0, 0.7467348638892908
418.0, 0.7153239977663186
419.0, 0.6975985986401301
420.0, 0.6489327044221895
421.0, 0.6351135744564868
422.0, 0.6114979342651055
423.0, 0.5333701746376586
424.0, 0.5437672240522833
425.0, 0.5126201271550465
426.0, 0.46974368749414397
427.0, 0.4549471619261796
428.0, 0.43127171271076825
429.0, 0.39524822448992664
430.0, 0.369652720423611
431.0, 0.3920729731908804
432.0, 0.3469444345868636
433.0, 0.32283657393881543
434.0, 0.31588379981609765
435.0, 0.30546732054908854
436.0, 0.2792642639936592
437.0, 0.2688875994950612
438.0, 0.2648969139067379
439.0, 0.23606428197338084
440.0, 0.2308971799845592
441.0, 0.230633647945662
442.0, 0.2268720576312291
443.0, 0.20349143401593045
444.0, 0.21122062508594278
445.0, 0.19909712008510655
446.0, 0.17591744735491605
447.0, 0.20525054262377462
448.0, 0.22020181078938592
449.0, 0.2073406723635343
450.0, 0.18158937527057872
451.0, 0.21578009902225775
452.0, 0.19672874223094275
453.0, 0.1992835058379063
454.0, 0.2251121552320857
455.0, 0.1864009073747971
456.0, 0.1918478249820213
457.0, 0.20703191852996022
458.0, 0.21617428971831062
459.0, 0.19085310473742173
460.0, 0.21228740447597394
461.0, 0.21639927374228193
462.0, 0.18992560297013994
463.0, 0.1882177164582968
464.0, 0.1849790752939763
465.0, 0.16598003147101775
466.0, 0.1356767058134999
467.0, 0.1621631418643822
468.0, 0.15153651836930146
469.0, 0.15536236217815724
470.0, 0.18654054873498632
471.0, 0.18385488351963125
472.0, 0.16464316801162202
473.0, 0.16648761714587773
474.0, 0.19519704747918099
475.0, 0.1662380415719815
476.0, 0.1962626169480419
477.0, 0.21764697818214354
478.0, 0.20682945927749238
479.0, 0.21971604105128345
480.0, 0.23780914227628974
481.0, 0.2545834043164366
482.0, 0.2723879042417781
483.0, 0.33590463433354384
484.0, 0.3459241630220914
485.0, 0.38583686766929165
486.0, 0.48097995160499807
487.0, 0.516331785574567
488.0, 0.5508987138643139
489.0, 0.616409797048085
490.0, 0.7135618029525862
491.0, 0.7264564217670673
492.0, 0.7767970627682793
493.0, 0.8252611431948552
494.0, 0.8496657850186967
495.0, 0.8137692743896802
496.0, 0.8281869623447702
497.0, 0.8109231293957357
498.0, 0.7395597844571498
499.0, 0.7046344125236704
500.0, 0.6331502447954661
501.0, 0.5644924983603842
502.0, 0.5133255294212713
503.0, 0.472288949725196
504.0, 0.3805656727871578
505.0, 0.314279512339714
506.0, 0.29057331267660935
507.0, 0.24426006414535723
508.0, 0.22027957267376366
509.0, 0.2029410303270189
510.0, 0.1841216530805163
511.0, 0.1491696230908667
512.0, 0.1539205699837191
513.0, 0.13651300625261717
514.0, 0.0976216918961516
515.0, 0.12225998470315176
516.0, 0.1090500345059932
517.0, 0.08245356983972837
518.0, 0.06099718640444156
519.0, 0.09052033500765042
520.0, 0.06419319540364687
521.0, 0.053754723781771915
522.0, 0.06039841822990596
523.0, 0.036397494233095004
524.0, 0.015549420929265336
525.0, 0.04047750898595527
526.0, 0.08165745512224712
527.0, 0.0382102071229823
528.0, 0.04896021093328523
529.0, 0.03941043589397755
530.0, 0.022027387973145438
531.0, 0.04961362797884748
532.0, 0.046060986670172915
533.0, 0.027350030648736125
534.0, 0.011704000002020022
535.0, 0.02956432375601055
536.0, 0.012593504061058067
537.0, 0.011875100991866748
538.0, 0.024758951359302096
539.0, 0.04158006550535026
540.0, 0.01899612428226658
541.0, 0.030420793082852816
542.0, 0.044008260473102884
543.0, 0.01737211781091911
544.0, 0.008143679391360396
545.0, 0.016953737943836707
546.0, 0.03051700811816597
547.0, 0.036359300453965654
548.0, 0.057700477253515396
549.0, 0.04137951012664752
550.0, 0.022723923669078005
551.0, 0.026646779018491374
552.0, 0.01595333147133539
553.0, 0.008399303635762797
554.0, 0.026282996347620238
555.0, 0.07044689128928279
556.0, 0.022181196074280287
557.0, 0.020893173710039754
558.0, 0.0290180301790251
559.0, 0.02946953867277686
560.0, 0.019220318048043965
561.0, 0.026284274485724568
562.0, 0.03230085557261496
563.0, 0.033363778665627494
564.0, 0.03809245037041899
565.0, 0.018309454825413757
566.0, 0.010624353961575954
567.0, 0.023195005331780844
568.0, 0.05562543568185834
569.0, 0.020723499478638524
570.0, 0.01466378971205677
571.0, 0.027827590232828166
572.0, 0.011000026766159098
573.0, 0.014303170563614036
574.0, 0.023361095197068575
575.0, 0.026007666945305628
576.0, 0.00651118925181484
577.0, 0.03255481544286369
578.0, 0.02447208634372044
579.0, 0.01644708319914988
580.0, 0.044887024587976346
581.0, 0.057582909188848834
582.0, 0.0299140442236945
583.0, 0.019236066243545062
584.0, 0.057479616884901163
585.0, 0.0251379202544878
586.0, 0.022004944510599166
587.0, 0.02172707136974355
588.0, 0.013403795581493815
589.0, 0.010374457542050661
590.0, 0.041356002064272694
591.0, 0.043475478395626745
592.0, 0.020621741610858724
593.0, 0.06398337504617843
594.0, 0.07844904528669713
595.0, 0.06882040815582903
596.0, 0.05600546029425424
597.0, 0.08743511871699662
598.0, 0.052930577124888835
599.0, 0.05425492456502309
600.0, 0.0783582117548766
601.0, 0.08901484483311844
602.0, 0.06319271946862921
603.0, 0.083063790634342
604.0, 0.09945266502336508
605.0, 0.06538537184765558
606.0, 0.11758972590508654
607.0, 0.11651880130047061
608.0, 0.10093214120556408
609.0, 0.09831213727620165
610.0, 0.13074530659971967
611.0, 0.1006247205613036
612.0, 0.09177916414584318
613.0, 0.12006933651825041
614.0, 0.10992049399859026
615.0, 0.10561696142329066
616.0, 0.12611060099695076
617.0, 0.15016849141706545
618.0, 0.11324807865289371
619.0, 0.1773059494431041
620.0, 0.16885262942756243
621.0, 0.13742501968353663
622.0, 0.18573635865056398
623.0, 0.171978312647744
624.0, 0.13628963008987638
625.0, 0.12021166431475348
626.0, 0.15422404158534161
627.0, 0.12121265338818735
628.0, 0.11966906881826818
629.0, 0.1390857602646305
630.0, 0.15974193842286155
631.0, 0.09394250630342076
632.0, 0.14805001546372606
633.0, 0.15188964852551842
634.0, 0.0967203205582835
635.0, 0.11923834181861576
636.0, 0.12593165478958598
637.0, 0.10363773386515124
638.0, 0.08403897585707185
639.0, 0.1254156127555639
640.0, 0.12001967265740567
641.0, 0.10362245390219407
642.0, 0.10206443100171005
643.0, 0.13351890500715297
644.0, 0.06955975703930393
645.0, 0.10831285439624093
646.0, 0.12899712759861873
647.0, 0.08602247151793962
648.0, 0.12444106979722624
649.0, 0.13451891786965772
650.0, 0.09871105565475238
651.0, 0.053675194420273804
652.0, 0.12296887631632555
653.0, 0.05749372936289677
654.0, 0.054742358767515376
655.0, 0.09130368189055968
656.0, 0.09090513800964686
657.0, 0.0660705958186706
658.0, 0.09872389837620085
659.0, 0.11569036616313172
660.0, 0.06497736504311293
661.0, 0.08946208316945685
662.0, 0.09491596853983102
663.0, 0.06651570825991071
664.0, 0.023734982049769322
665.0, 0.08007576294319306
666.0, 0.042910190269349856
667.0, 0.032943382260756326
668.0, 0.05744087218697927
669.0, 0.07897025333153318
670.0, 0.024624193912919673
671.0, 0.058029141697397986
672.0, 0.08987969344033979
673.0, 0.023605866764892104
674.0, 0.08102406989520113
675.0, 0.08628465338518501
676.0, 0.05675092915009127
677.0, 0.021948473869505172
678.0, 0.09044629510969819
679.0, 0.04931415663766896
680.0, 0.03297782778835344
681.0, 0.054248749652768276
682.0, 0.06153776020513168
683.0, 0.025372695687478353
684.0, 0.05739519885327926
685.0, 0.09075581580838568
686.0, 0.04276534192822007
687.0, 0.08818670966172461
688.0, 0.08625145019076029
689.0, 0.06583526329447946
690.0, 0.051946346985802465
691.0, 0.08954711297906988
692.0, 0.0455780354585552
693.0, 0.027701249638051706
694.0, 0.04660912447687207
695.0, 0.06300902452317447
696.0, 0.024295931609050726
697.0, 0.06250720823686931
698.0, 0.09012845150384367
699.0, 0.012715307685140897
700.0, 0.08482358308470185
701.0, 0.10114373804982947
702.0, 0.07292346876693113
703.0, 0.03110428766881289
704.0, 0.09224279122206278
705.0, 0.0402689416098206
706.0, 0.026990031275247232
707.0, 0.04931862146370989
708.0, 0.038608594502838864
709.0, 0.017341644038680708
710.0, 0.052392687456227466
711.0, 0.07340636197659772
712.0, 0.02665254169493397
713.0, 0.04385170821198565
714.0, 0.05647292449579042
715.0, 0.050861643165804216
716.0, 0.03721707874088774
717.0, 0.06712854763877095
718.0, 0.03294414679473953
719.0, 0.02995362376843932
720.0, 0.05285033958703775
721.0, 0.07447097149186219
722.0, 0.025376968167354224
723.0, 0.08438141301140721
724.0, 0.11041155209397788
725.0, 0.04733490768078294
726.0, 0.08497694495388615
727.0, 0.119041821338453
728.0, 0.09608218760505254
729.0, 0.054116151697551435
730.0, 0.09835842449183149
731.0, 0.04569544327563011
732.0, 0.036705048047856334
733.0, 0.06732741202837839
734.0, 0.11243375482845858
735.0, 0.0248447812611622
736.0, 0.076799987098796
737.0, 0.09567481511789921
738.0, 0.05935731909740205
739.0, 0.08858541493952202
740.0, 0.1252624376847711
741.0, 0.08411461359200173
742.0, 0.05033308745696955
743.0, 0.12225779033883906
744.0, 0.058698231098425764
745.0, 0.057207735791325806
746.0, 0.08847974057224488
747.0, 0.11300081887146361
748.0, 0.03536667826367686
749.0, 0.10059023936381598
750.0, 0.10803816638158673
751.0, 0.08307488875663094
752.0, 0.10763753972705134
753.0, 0.14200641858140503
754.0, 0.0933048718688857
755.0, 0.08848852932709879
756.0, 0.160767106378427
757.0, 0.10644185401379365
758.0, 0.08959159705009614
759.0, 0.11835329217376446
760.0, 0.1414883088613254
761.0, 0.07394288488843709
762.0, 0.1498859769990113
763.0, 0.14971342295038026
764.0, 0.12871214873962689
765.0, 0.13334054883660906
766.0, 0.2041168976081049
767.0, 0.14434542518838647
768.0, 0.14501675304590042
769.0, 0.19143371063011339
770.0, 0.18137583418328418
771.0, 0.1614901268303688
772.0, 0.1873229586706803
773.0, 0.19057216587873954
774.0, 0.14842285839830227
775.0, 0.20428055861992153
776.0, 0.22243948323866927
777.0, 0.20875626144854542
778.0, 0.20877095990697134
779.0, 0.29762109206767734
780.0, 0.2257843821657703
781.0, 0.23359750052439773
782.0, 0.2662180277714416
783.0, 0.2760095770452081
784.0, 0.22541697405408737
785.0, 0.2928601269226836
786.0, 0.27531738113384735
787.0, 0.22800210848595037
788.0, 0.3089396080388681
789.0, 0.2896733277676171
790.0, 0.25513868768581505
791.0, 0.27649746476979076
792.0, 0.34629142570077215
793.0, 0.2378329124490319
794.0, 0.2628418875212593
795.0, 0.27959147916000476
796.0, 0.2632083874391219
797.0, 0.21852747032648837
798.0, 0.2581892647426306
799.0, 0.22023756153190863
800.0, 0.20006353889696038
801.0, 0.23190263424114438
802.0, 0.2612805131338376
803.0, 0.20496934464734048
804.0, 0.22763249887063494
805.0, 0.2539913467817141
806.0, 0.18460884969881067
807.0, 0.19566696403333683
808.0, 0.21529942334393165
809.0, 0.1805492260058616
810.0, 0.12085062980587251
811.0, 0.17959931770353932
812.0, 0.11941766130945133
813.0, 0.10070003033167146
814.0, 0.12330369504525214
815.0, 0.15944875368641734
816.0, 0.08721268655539918
817.0, 0.1350886078152403
818.0, 0.1539096940778221
819.0, 0.1211623741260057
820.0, 0.07426599363201229
821.0, 0.1353681805773887
822.0, 0.0915840402438989
823.0, 0.06484722750805287
824.0, 0.10986079392950127
825.0, 0.1067168659068613
826.0, 0.03667954798270479
827.0, 0.07764652791832388
828.0, 0.1325119440724268
829.0, 0.05248903325446416
830.0, 0.08994407144601665
831.0, 0.09031649036703575
832.0, 0.0752287307105999
833.0, 0.07396403243309532
834.0, 0.13861094414293032
835.0, 0.08093953952812022
836.0, 0.07049346045283887
837.0, 0.0858261864760597
838.0, 0.08922736956981739
839.0, 0.021882951813370202
840.0, 0.0963335190093921
841.0, 0.0983088569164919
842.0, 0.0483046568509238
843.0, 0.0592053635916083
844.0, 0.12412884332411654
845.0, 0.0824529231483427
846.0, 0.06893957260506822
847.0, 0.11035057753073657
848.0, 0.0724015460910985
849.0, 0.04003156774510844
850.0, 0.05674043873909382
851.0, 0.06905095347454072
852.0, 0.03893271463335694
853.0, 0.08718795897117793
854.0, 0.07745620725972528
855.0, 0.05405595486205
856.0, 0.06035537838319015
857.0, 0.1426869527529988
858.0, 0.0698784799334204
859.0, 0.10802805726378684
860.0, 0.13916765941814904
861.0, 0.10375050920199347
862.0, 0.008372388875648382
863.0, 0.1048504651535409
864.0, 0.10041570366791473
865.0, 0.05628029471459462
866.0, 0.050418492032175063
867.0, 0.07362289810018094
868.0, 0.04341975859995856
869.0, 0.07060876492638833
870.0, 0.1108203908151024
871.0, 0.0672030332216601
872.0, 0.07185601912445362
873.0, 0.09617084878990262
874.0, 0.06831659356272021
875.0, 0.020756584419271924
876.0, 0.11080793730183326
877.0, 0.02919171772599497
878.0, 0.027834684931786164
879.0, 0.07816919815317863
880.0, 0.12275875291173965
881.0, 0.04519083599637998
882.0, 0.07866684482147888
883.0, 0.0839235835907977
884.0, 0.05602652172219743
885.0, 0.026097706841864174
886.0, 0.10573454497200117
887.0, 0.046395169078940125
888.0, 0.04298606590486737
889.0, 0.08556834152523353
890.0, 0.05649104794666991
891.0, 0.021332378390920514
892.0, 0.08007976424394596
893.0, 0.0867968030795187
894.0, 0.023859399095309722
895.0, 0.04368563088312219
896.0, 0.086220280006394
897.0, 0.04894732922281678
898.0, 0.046119691521195605
899.0, 0.11783104472184495
900.0, 0.033309211036030406
901.0, 0.05957250403617924
902.0, 0.07418450764385853
903.0, 0.05276963834820127
904.0, 0.0060265446359156274
905.0, 0.07039523893192434
906.0, 0.05246661673884696
907.0, 0.034513545909937306
908.0, 0.05709834389866819
909.0, 0.1363999853024611
910.0, 0.03120883945588821
911.0, 0.05763667472751041
912.0, 0.09387912370106108
913.0, 0.08312068838071195
914.0, 0.014906454047735121
915.0, 0.11239907433595414
916.0, 0.06644643413095885
917.0, 0.014070700436307666
918.0, 0.03202593723777564
919.0, 0.09240809200824196
920.0, 0.036748543986097774
921.0, 0.06441494975649927
922.0, 0.07250178766410466
923.0, 0.006636223049685121
924.0, 0.04954557334229613
925.0, 0.10341743304723937
926.0, 0.06430485932702233
927.0, 0.033017339819600096
928.0, 0.10149821973178871
929.0, 0.06817380531920351
930.0, 0.032860402995999814
931.0, 0.058894519880370456
932.0, 0.08310770038060106
933.0, 0.021410276588297264
934.0, 0.10026977574033741
935.0, 0.0879289627603018
936.0, 0.04337824281358884
937.0, 0.038793931380657114
938.0, 0.1489976045653873
939.0, 0.04328461737615437
940.0, 0.06219814510850165
941.0, 0.09329342714110138
942.0, 0.0851000693272594
943.0, 0.0323110530081767
944.0, 0.09495186141941844
945.0, 0.05198281476480128
946.0, 0.021858342684053508
947.0, 0.05214812216574105
948.0, 0.09926313246751488
949.0, 0.02526499134250872
950.0, 0.07312086987185087
951.0, 0.10883749646124335
952.0, 0.06579511552944367
953.0, 0.026065640115161742
954.0, 0.11217541917923302
955.0, 0.08278019411274277
956.0, 0.05537260222419677
957.0, 0.09894959080292953
958.0, 0.08609825480867633
959.0, 0.03174490056518248
960.0, 0.07588048043817569
961.0, 0.11233569445594419
962.0, 0.06458881317169812
963.0, 0.061035795528208744
964.0, 0.12019120376902533
965.0, 0.07792738000169142
966.0, 0.049309362531355906
967.0, 0.12592855638015077
968.0, 0.08096344550900768
969.0, 0.026905076410247267
970.0, 0.06978035110871642
971.0, 0.10267862808285691
972.0, 0.030729101249345796
973.0, 0.09160892931301781
974.0, 0.08459914522348233
975.0, 0.04700246303057561
976.0, 0.05458473356715538
977.0, 0.14862307065855568
978.0, 0.06697770543139522
979.0, 0.08407611238987302
980.0, 0.11267905673648805
981.0, 0.09783084614663182
982.0, 0.023688763677496602
983.0, 0.10310474811342371
984.0, 0.09884219059913625
985.0, 0.04870725204818263
986.0, 0.04309948561496273
987.0, 0.14636192634288006
988.0, 0.038938204051919376
989.0, 0.06767205865333072
990.0, 0.09483104559296769
991.0, 0.07917304178996738
992.0, 0.03352333365763158
993.0, 0.15252444594891132
994.0, 0.07394542231023388
995.0, 0.03979946731231315
996.0, 0.0795707685747018
997.0, 0.13243837259250363
998.0, 0.021717145685793436
999.0, 0.09705340828581413
1000.0, 0.11238898538734896
1001.0, 0.08094642392119362
1002.0, 0.09901080838194076
1003.0, 0.20047195379105776
1004.0, 0.1032792822061068
1005.0, 0.0895014635041694
1006.0, 0.1353957241088773
1007.0, 0.12877350417136582
1008.0, 0.0460622090706898
1009.0, 0.141051484008709
1010.0, 0.11908678427750406
1011.0, 0.061558062342748604
1012.0, 0.11812408087252993
1013.0, 0.17270543714635947
1014.0, 0.08121658955599806
1015.0, 0.11900479991476388
1016.0, 0.1802359474249
1017.0, 0.1222086261144653
1018.0, 0.10816484493830268
1019.0, 0.1770666218278708
1020.0, 0.13058908576635667
1021.0, 0.09677550332736085
1022.0, 0.18538582731021003
1023.0, 0.1598615029179112
1024.0, 0.11103413224634859
1025.0, 0.16136551081103687
1026.0, 0.17887294343035945
1027.0, 0.09436957797741717
1028.0, 0.16257053338071314
1029.0, 0.19947719766664743
1030.0, 0.15858148408108272
1031.0, 0.16404781867179696
1032.0, 0.24155582513199975
1033.0, 0.13880247421393022
1034.0, 0.09569374452238597
1035.0, 0.14798061061223722
1036.0, 0.1346954356167912
1037.0, 0.04124609701740118
1038.0, 0.12943490570227847
1039.0, 0.1511280235919497
1040.0, 0.10243758966448896
1041.0, 0.1273769642747314
1042.0, 0.20509101845967934
1043.0, 0.10735095763499695
1044.0, 0.15327256000954922
1045.0, 0.19195084029807868
1046.0, 0.16978476712775253
1047.0, 0.1329666006740945
1048.0, 0.20138187242303004
1049.0, 0.13352892899370128
1050.0, 0.08989963018475315
1051.0, 0.13482495320541413
1052.0, 0.16887232549275544
1053.0, 0.04107471056880159
1054.0, 0.11792721934894143
1055.0, 0.1706477119681097
1056.0, 0.13539726145542771
1057.0, 0.11407341298433052
1058.0, 0.2064394815541011
1059.0, 0.11261531475571009
1060.0, 0.09943482144393231
1061.0, 0.1455873227505842
1062.0, 0.1499660889482075
1063.0, 0.07423270830885348
1064.0, 0.15958339875040545
1065.0, 0.14173773588897634
1066.0, 0.07088036458810225
1067.0, 0.09686755836276524
1068.0, 0.21762069824654073
1069.0, 0.10167845757749829
1070.0, 0.1459666808342608
1071.0, 0.22191949935740915
1072.0, 0.19261082535416427
1073.0, 0.11584733149442394
1074.0, 0.2653770974982008
1075.0, 0.19659362777468326
1076.0, 0.14394156960186438
1077.0, 0.18789352720992214
1078.0, 0.23416933099797715
1079.0, 0.11288336921614789
1080.0, 0.17554801570898998
1081.0, 0.23465567992560174
1082.0, 0.1963361612447471
1083.0, 0.1771961493221393
1084.0, 0.28540968288296853
1085.0, 0.18916828707362388
1086.0, 0.18971640788170172
1087.0, 0.254137046123894
1088.0, 0.24750161590620642
1089.0, 0.14933955344863858
1090.0, 0.2678933093906085
1091.0, 0.20509335503173934
1092.0, 0.17197804082098123
1093.0, 0.222268002027124
1094.0, 0.28265646159199354
1095.0, 0.14905488245508683
1096.0, 0.22659496180261948
1097.0, 0.32121732613333454
1098.0, 0.2656470614123736
1099.0, 0.1768989196317025
1100.0, 0.29345608882517127
1101.0, 0.2729081252752934
1102.0, 0.1830350019189221
1103.0, 0.2544044681863037
1104.0, 0.3001121602814735
1105.0, 0.1656860503395427
1106.0, 0.27917267408761803
1107.0, 0.2902560018451081
1108.0, 0.2311853086084727
1109.0, 0.25575269005414997
1110.0, 0.3573693974271361
1111.0, 0.25342075488432503
1112.0, 0.23095293854964075
1113.0, 0.3062217442681553
1114.0, 0.26374284625680416
1115.0, 0.16930403149900577
1116.0, 0.26025073995584264
1117.0, 0.2692160326743447
1118.0, 0.1656866898602432
1119.0, 0.19116601744435716
1120.0, 0.23980998291564773
1121.0, 0.1786452612485603
1122.0, 0.19511688318083445
1123.0, 0.29784949903730396
1124.0, 0.2480272092372684
1125.0, 0.22266827605621373
1126.0, 0.29678158470958493
1127.0, 0.3231968784292293
1128.0, 0.16834475573596344
1129.0, 0.27281591199894933
1130.0, 0.26188069098465727
1131.0, 0.16268279039798264
1132.0, 0.218654444118817
1133.0, 0.3113335017351439
1134.0, 0.19579180361498733
1135.0, 0.21914910681993827
1136.0, 0.29133925666198035
1137.0, 0.26871011925466837
1138.0, 0.14641144554749502
1139.0, 0.28175329920801623
1140.0, 0.2261516023785367
1141.0, 0.18178426869317676
1142.0, 0.23196835361101442
1143.0, 0.28992015518705955
1144.0, 0.1251389655821948
1145.0, 0.23857837855183853
1146.0, 0.26433065953570606
1147.0, 0.17834104111288873
1148.0, 0.11967740846297403
1149.0, 0.3409040473061736
1150.0, 0.17914208621841984
1151.0, 0.19418461508657642
1152.0, 0.253246776647141
1153.0, 0.21951448410799268
1154.0, 0.0721664525482534
1155.0, 0.22653313104446188
1156.0, 0.18841857356563166
1157.0, 0.1323922640363434
1158.0, 0.1448487482960108
1159.0, 0.22004967154301897
1160.0, 0.14412039255617606
1161.0, 0.15070616487514793
1162.0, 0.20081113149530644
1163.0, 0.1654440985674651
1164.0, 0.09341070970864011
1165.0, 0.28810382392748607
1166.0, 0.149325104681018
1167.0, 0.08537679342595843
1168.0, 0.1482542007053889
1169.0, 0.18599172682124376
1170.0, 0.054779885634249105
1171.0, 0.14027910099557112
1172.0, 0.18287143595907432
1173.0, 0.11037444431849908
1174.0, 0.11142199392854914
1175.0, 0.19844003639076968
1176.0, 0.096855232603999
1177.0, 0.10794578015199427
1178.0, 0.1955092659108579
1179.0, 0.13935190523442423
1180.0, 0.06590094672683443
1181.0, 0.15630165341722152
1182.0, 0.13018604145577675
1183.0, 0.03853490010409347
1184.0, 0.10458357775292003
1185.0, 0.1353887412952176
1186.0, 0.07075875888553537
1187.0, 0.06857217622130522
1188.0, 0.20433935218807478
1189.0, 0.10279626827158192
1190.0, 0.08607618438260052
1191.0, 0.1417988539243287
1192.0, 0.1437228182605057
1193.0, 0.013679427323709109
1194.0, 0.12201752057875084
1195.0, 0.0696231795924143
1196.0, 0.022500403248932297
1197.0, 0.065333210581061
1198.0, 0.1511377557626522
1199.0, 0.060323614192804145
1200.0, 0.07611515944937597
1201.0, 0.13210416890933868
1202.0, 0.11233422631848464
1203.0, 0.04121036261166809
1204.0, 0.22197004601001924
1205.0, 0.09514843212030469
1206.0, 0.05357558692205013
1207.0, 0.12277337326393845
1208.0, 0.1622141691770636
1209.0, 0.046354611821971904
1210.0, 0.107638346206226
1211.0, 0.15157354797374642
1212.0, 0.08756722667996408
1213.0, 0.10096900405442058
1214.0, 0.17914974561186017
1215.0, 0.0884656410914656
1216.0, 0.10163554359927009
1217.0, 0.17606833332494984
1218.0, 0.1220469164553067
1219.0, 0.07632191415575816
1220.0, 0.14242864884537676
1221.0, 0.1395210969650079
1222.0, 0.04230072494096997
1223.0, 0.12139944983197566
1224.0, 0.1050740197600759
1225.0, 0.02384985021958718
1226.0, 0.061391883572984474
1227.0, 0.2426428047977856
1228.0, 0.06514283615488606
1229.0, 0.09506802103919705
1230.0, 0.16882956344064137
1231.0, 0.14947738620895495
1232.0, 0.05561128432622131
1233.0, 0.23070755395609402
1234.0, 0.13899736557799933
1235.0, 0.059189259138716484
1236.0, 0.11713017411120052
1237.0, 0.220967164869258
1238.0, 0.013825072997029259
1239.0, 0.09529071942898798
1240.0, 0.1683610763385574
1241.0, 0.10940141493256192
1242.0, 0.0885165175555098
1243.0, 0.21483315330757027
1244.0, 0.07335801752154655
1245.0, 0.0789878869573816
1246.0, 0.1701213012435301
1247.0, 0.13194015840258339
1248.0, 0.042306351514696874
1249.0, 0.11212245778823218
1250.0, 0.2025885019141806
1251.0, 0.0783205205982545
1252.0, 0.13921178601096354
1253.0, 0.16541251318618694
1254.0, 0.08680491976936669
1255.0, 0.06498584553039477
1256.0, 0.27378826109444326
1257.0, 0.13728635025187125
1258.0, 0.09837530960279918
1259.0, 0.16105614500596185
1260.0, 0.18790626143439623
1261.0, 0.02237465167090688
1262.0, 0.13448225543222656
1263.0, 0.16551835247013358
1264.0, 0.09467324824572707
1265.0, 0.10101960249036013
1266.0, 0.20639330410173562
1267.0, 0.045744796737965776
1268.0, 0.14468195434810904
1269.0, 0.25428548782888544
1270.0, 0.18388926826536187
1271.0, 0.11791132464969005
1272.0, 0.22232708383994357
1273.0, 0.2171015301014984
1274.0, 0.045228397890185915
1275.0, 0.19514885380208413
1276.0, 0.20373161259559644
1277.0, 0.07956074613596692
1278.0, 0.07736190634001748
1279.0, 0.3245653411941748
1280.0, 0.10666908125303895
1281.0, 0.12964330928657578
1282.0, 0.22054237371828814
1283.0, 0.20693888478602662
1284.0, 0.07734590780697807
1285.0, 0.27863863520473414
1286.0, 0.15933370037042296
1287.0, 0.08101655090835798
1288.0, 0.14216889660077292
1289.0, 0.19943438745354877
1290.0, 0.06720491474515494
1291.0, 0.1320978019744541
1292.0, 0.2229989971434575
1293.0, 0.11785625284373909
1294.0, 0.14836123341067314
1295.0, 0.2744501577657803
1296.0, 0.18316798496172923
1297.0, 0.0708568593479141
1298.0, 0.26886034432139255
1299.0, 0.20456528170770025
1300.0, 0.11264264889692585
1301.0, 0.15364128494020052
1302.0, 0.25960061524062467
1303.0, 0.04116592593715433
1304.0, 0.21513881461419504
1305.0, 0.27028753697300084
1306.0, 0.18120159412396455
1307.0, 0.1239505811699126
1308.0, 0.282258637793253
1309.0, 0.2216281765995837
1310.0, 0.1776891929290197
1311.0, 0.24995681963930075
1312.0, 0.215456698788325
1313.0, 0.12372307464429025
1314.0, 0.22098793727876245
1315.0, 0.23069146587293998
1316.0, 0.06909153578089175
1317.0, 0.18506836160615822
1318.0, 0.23928152328927485
1319.0, 0.13922542732210352
1320.0, 0.09917133169094923
1321.0, 0.2964795213345968
1322.0, 0.1894726328070935
1323.0, 0.14353589439092027
1324.0, 0.20379189833443673
1325.0, 0.2279706358989779
1326.0, 0.09096641569323619
1327.0, 0.24058228612914245
1328.0, 0.187713273253264
1329.0, 0.07628343505165239
1330.0, 0.14156150141003776
1331.0, 0.2499265812781142
1332.0, 0.14178684232318062
1333.0, 0.067758938737703
1334.0, 0.2735919952154965
1335.0, 0.16588058492878227
1336.0, 0.15597166769907786
1337.0, 0.2555664748857966
1338.0, 0.23405052292384332
1339.0, 0.009921349272423191
1340.0, 0.24160716810041985
1341.0, 0.1929818160952168
1342.0, 0.10092691623181069
1343.0, 0.13301859158791396
1344.0, 0.25073201423077235
1345.0, 0.10924983730770825
1346.0, 0.14816983087811797
1347.0, 0.2347815667313414
1348.0, 0.14711782863112505
1349.0, 0.12075934426261292
1350.0, 0.2694879940087885
1351.0, 0.21296976947710314
1352.0, 0.05904969743664895
1353.0, 0.2529771580087304
1354.0, 0.16502547816364563
1355.0, 0.032745852307988585
1356.0, 0.09950159830928741
1357.0, 0.24231778183666222
1358.0, 0.07092214028430265
1359.0, 0.10397850070651528
1360.0, 0.19991462878764624
1361.0, 0.15372636561707675
1362.0, 0.08846969431541969
1363.0, 0.2887625420315886
1364.0, 0.18293527023175063
1365.0, 0.10200869946865923
1366.0, 0.2320283674582104
1367.0, 0.19855808836000705
1368.0, 0.056784064757801636
1369.0, 0.10039902677522379
1370.0, 0.26781278334416203
1371.0, 0.08224828855825575
1372.0, 0.1361708647819591
1373.0, 0.17572375539853632
1374.0, 0.131147761894658
1375.0, 0.10158960491623177
1376.0, 0.2688325046704704
1377.0, 0.16938031268711123
1378.0, 0.08281985581062692
1379.0, 0.19635591013081963
1380.0, 0.23667689243768775
1381.0, 0.12857064495142773
1382.0, 0.1818326254256713
1383.0, 0.25496911268340644
1384.0, 0.10125914598994207
1385.0, 0.16249521737483127
1386.0, 0.21992836324101056
1387.0, 0.15008094411984507
1388.0, 0.07046487171002919
1389.0, 0.32190053476468283
1390.0, 0.1806664718736437
1391.0, 0.10069592631232907
1392.0, 0.22344628068096295
1393.0, 0.2678707436406007
1394.0, 0.0785227693285847
1395.0, 0.16024880876062733
1396.0, 0.26749173596272413
1397.0, 0.08919577256270353
1398.0, 0.11237215925883688
1399.0, 0.21507533010259783
1400.0, 0.19177953708979395
1401.0, 0.048518805939756895
1402.0, 0.28996530608001
1403.0, 0.15683415071380427
1404.0, 0.1266086016847022
1405.0, 0.2147563950192523
1406.0, 0.22743808103063518
1407.0, 0.055129256787480485
1408.0, 0.10874332735730488
1409.0, 0.24506383114534144
1410.0, 0.09981478438862605
1411.0, 0.13448593428597277
1412.0, 0.23275930588536042
1413.0, 0.18329797300485112
1414.0, 0.05364416056021809
1415.0, 0.3718936115928736
1416.0, 0.16576551400144715
1417.0, 0.1074155811527181
1418.0, 0.22824805971149806
1419.0, 0.2722146728269282
1420.0, 0.07575511683297198
1421.0, 0.21834075508680592
1422.0, 0.24375180776769714
1423.0, 0.10488443082467871
1424.0, 0.17643758160283476
1425.0, 0.28115460938758685
1426.0, 0.19222712525013042
1427.0, 0.04279340225811659
1428.0, 0.3517740115051159
1429.0, 0.22146233303732757
1430.0, 0.18514896970430753
1431.0, 0.29194604905542265
1432.0, 0.31455629678488456
1433.0, 0.10963320408608515
1434.0, 0.23126703533625828
1435.0, 0.3113585988826363
1436.0, 0.1275003063201012
1437.0, 0.16521200103326658
1438.0, 0.2703516997514916
1439.0, 0.22449631330354364
1440.0, 0.13623079706490412
1441.0, 0.4181184714537105
1442.0, 0.21294468879207917
1443.0, 0.17901730792760848
1444.0, 0.31893151117629115
1445.0, 0.329982813273294
1446.0, 0.10837462446359061
1447.0, 0.3077228916395275
1448.0, 0.31509449063952044
1449.0, 0.17453388029869324
1450.0, 0.23331560174799726
1451.0, 0.3035491096199988
1452.0, 0.2363204441529172
1453.0, 0.1531416651305682
1454.0, 0.3977550055541582
1455.0, 0.2725692700265396
1456.0, 0.21981499117507583
1457.0, 0.3165865847907366
1458.0, 0.32252640028670476
1459.0, 0.1635323152202031
1460.0, 0.2117277035796009
1461.0, 0.37109610146524624
1462.0, 0.12800366289185727
1463.0, 0.2228590271644192
1464.0, 0.2839585633000301
1465.0, 0.16222050794539103
1466.0, 0.08362913161286264
1467.0, 0.40831365196752356
1468.0, 0.2389194475369253
1469.0, 0.13695052049788217
1470.0, 0.3262031210380148
1471.0, 0.32576076976517443
1472.0, 0.1484320454954819
1473.0, 0.26991154694601827
1474.0, 0.3528805139610938
1475.0, 0.06326892591342215
1476.0, 0.21204026697482645
1477.0, 0.27466931005499123
1478.0, 0.16781543126832815
1479.0, 0.11518094257171513
1480.0, 0.32475446750309644
1481.0, 0.22080565233218302
1482.0, 0.12510060299279258
1483.0, 0.3121290156752692
1484.0, 0.26238393224276074
1485.0, 0.14033533992821298
1486.0, 0.2249675416330295
1487.0, 0.2995491919497742
1488.0, 0.05267024616747579
1489.0, 0.18670482122036028
1490.0, 0.294800361105084
1491.0, 0.18556932953170205
1492.0, 0.13159367740767985
1493.0, 0.31530198630436707
1494.0, 0.22777980774870454
1495.0, 0.08975155541850878
1496.0, 0.32655415350950784
1497.0, 0.2774606416726412
1498.0, 0.17723664949541676
1499.0, 0.2369559806039085
1500.0, 0.3443284107540656
1501.0, 0.06573123831118922
1502.0, 0.16985206267756148
1503.0, 0.2917078982646206
1504.0, 0.1357085356694925
1505.0, 0.10459626923647675
1506.0, 0.22624701387970386
1507.0, 0.19577866091621515
1508.0, 0.07787340099709963
1509.0, 0.27476126106820953
1510.0, 0.19235898142689922
1511.0, 0.08322485018328538
1512.0, 0.17096566714410977
1513.0, 0.24108034506561704
1514, 0.0
1515, 0.0
1516, 0.0
1517, 0.0
1518, 0.0
1519, 0.0
1520, 0.0
1521, 0.0
1522, 0.0
1523, 0.0
1524, 0.0
1525, 0.0
1526, 0.0
1527, 0.0
1528, 0.0
1529, 0.0
1530, 0.0
1531, 0.0
1532, 0.0
1533, 0.0
1534, 0.0
1535, 0.0
1536, 0.0
1537, 0.0
1538, 0.0
1539, 0.0
1540, 0.0
1541, 0.0
1542, 0.0
1543, 0.0
1544, 0.0
1545, 0.0
1546, 0.0
1547, 0.0
1548, 0.0
1549, 0.0
1550, 0.0
1551, 0.0
1552, 0.0
1553, 0.0
1554, 0.0
1555, 0.0
1556, 0.0
1557, 0.0
1558, 0.0
1559, 0.0
1560, 0.0
1561, 0.0
1562, 0.0
1563, 0.0
1564, 0.0
1565, 0.0
1566, 0.0
1567, 0.0
1568, 0.0
1569, 0.0
1570, 0.0
1571, 0.0
1572, 0.0
1573, 0.0
1574, 0.0
1575, 0.0
1576, 0.0
1577, 0.0
1578, 0.0
1579, 0.0
1580, 0.0
1581, 0.0
1582, 0.0
1583, 0.0
1584, 0.0
1585, 0.0
1586, 0.0
1587, 0.0
1588, 0.0
1589, 0.0
1590, 0.0
1591, 0.0
1592, 0.0
1593, 0.0
1594, 0.0
1595, 0.0
1596, 0.0
1597, 0.0
1598, 0.0
1599, 0.0
