30, 0.0
31, 0.0
32, 0.0
33, 0.0
34, 0.0
35, 0.0
36, 0.0
37, 0.0
38, 0.0
39, 0.0
40, 0.0
41, 0.0
42, 0.0
43, 0.0
44, 0.0
45, 0.0
46, 0.0
47, 0.0
48, 0.0
49, 0.0
50, 0.0
51, 0.0
52, 0.0
53, 0.0
54, 0.0
55, 0.0
56, 0.0
57, 0.0
58, 0.0
59, 0.0
60, 0.0
61, 0.0
62, 0.0
63, 0.0
64, 0.0
65, 0.0
66, 0.0
67, 0.0
68, 0.0
69, 0.0
70, 0.0
71, 0.0
72, 0.0
73, 0.0
74, 0.0
75, 0.0
76, 0.0
77, 0.0
78, 0.0
79, 0.0
80, 0.0
81, 0.0
82, 0.0
83, 0.0
84, 0.0
85, 0.0
86, 0.0
87, 0.0
88, 0.0
89, 0.0
90, 0.0
91, 0.0
92, 0.0
93, 0.0
94, 0.0
95, 0.0
96, 0.0
97, 0.0
98, 0.0
99, 0.0
100, 0.0
101, 0.0
102, 0.0
103, 0.0
104, 0.0
105, 0.0
106, 0.0
107, 0.0
108, 0.0
109, 0.0
110, 0.0
111, 0.0
112, 0.0
113, 0.0
114, 0.0
115, 0.0
116, 0.0
117, 0.0
118, 0.0
119, 0.0
120, 0.0
121, 0.0
122.0, 0.0004630542537507791
123.0, 0.00042012425932097183
124.0, 0.00023290028323518771
125.0, 0.00012436097990672673
126.0, 0.0017922253378408709
127.0, 0.003994944365434425
128.0, 0.005930780555851427
129.0, 0.008090060618805833
130.0, 0.011358129055959829
131.0, 0.014165665521721393
132.0, 0.01731891321835315
133.0, 0.021976712658449367
134.0, 0.025723453275474498
135.0, 0.02976469627373622
136.0, 0.03513535590376391
137.0, 0.041267308090002036
138.0, 0.04536510364013562
139.0, 0.04935704234324453
140.0, 0.052307001913975845
141.0, 0.0539464788196124
142.0, 0.05614335430016226
143.0, 0.05680230849535403
144.0, 0.05717629115967544
145.0, 0.05813077110159493
146.0, 0.05974614986570077
147.0, 0.06080097301414541
148.0, 0.06103330312821188
149.0, 0.061524696283390246
150.0, 0.06314058435787746
151.0, 0.0631614108913724
152.0, 0.06371774086876647
153.0, 0.06472486193863781
154.0, 0.06566889859459146
155.0, 0.06683941986535583
156.0, 0.06646901202302122
157.0, 0.06505317880307114
158.0, 0.06330210228102923
159.0, 0.06183532602975143
160.0, 0.061893616258950686
161.0, 0.060918608745424346
162.0, 0.059617421230858184
163.0, 0.06016550186070846
164.0, 0.060562646181417656
165.0, 0.061924090857976115
166.0, 0.06233889524094729
167.0, 0.06058933006780124
168.0, 0.05993391336897183
169.0, 0.06074114598497382
170.0, 0.061060247211127065
171.0, 0.060391713467524116
172.0, 0.06060313157997884
173.0, 0.06052017745800936
174.0, 0.05972198795740197
175.0, 0.05880031209943636
176.0, 0.05858838242981113
177.0, 0.058357255994559515
178.0, 0.0576705073944716
179.0, 0.055960906419691064
180.0, 0.05331741806378786
181.0, 0.05354753390210721
182.0, 0.052524759382482106
183.0, 0.051501297355356995
184.0, 0.051314639247218706
185.0, 0.04999464003004205
186.0, 0.048392379096298885
187.0, 0.04781669110396331
188.0, 0.04738609438153674
189.0, 0.04519378703007861
190.0, 0.04393085733080484
191.0, 0.04315501376704731
192.0, 0.042448836978083083
193.0, 0.041514832156590874
194.0, 0.03926004282956576
195.0, 0.038221540298910145
196.0, 0.03684350504449176
197.0, 0.03420546521757301
198.0, 0.03207126745579077
199.0, 0.03083341757570103
200.0, 0.029735470234555732
201.0, 0.028653865226455914
202.0, 0.02779090813005583
203.0, 0.025942358205602773
204.0, 0.024956284218476843
205.0, 0.02396510974576224
206.0, 0.02219000112660972
207.0, 0.02187561991939298
208.0, 0.020820891573266154
209.0, 0.020336361227573742
210.0, 0.02072692984272365
211.0, 0.020753948335389526
212.0, 0.019215952470567642
213.0, 0.018211959355970295
214.0, 0.017384720564737808
215.0, 0.01562239380141201
216.0, 0.014772789624462393
217.0, 0.01495078135875105
218.0, 0.014383096702934133
219.0, 0.012820934446593985
220.0, 0.012232149115938607
221.0, 0.011673828650400462
222.0, 0.01055183572168326
223.0, 0.009664701314750324
224.0, 0.010294307589097586
225.0, 0.01055318468436667
226.0, 0.009811070114226855
227.0, 0.008905620925535793
228.0, 0.008368722827820571
229.0, 0.007677873967309426
230.0, 0.007667355958439301
231.0, 0.007742182797318701
232.0, 0.007388694925243784
233.0, 0.006530632261403638
234.0, 0.00607509935509977
235.0, 0.006469327791231878
236.0, 0.00653329772502004
237.0, 0.005525197044392365
238.0, 0.0050178702933957155
239.0, 0.004200031598040992
240.0, 0.003916129353334561
241.0, 0.0038368813707099483
242.0, 0.002682864868629283
243.0, 0.0025999213584631444
244.0, 0.002810443352637198
245.0, 0.002685397668717195
246.0, 0.0020272140937141496
247.0, 0.0009523237531459978
248.0, 0.0016479214035617232
249.0, 0.0015877686994629696
250.0, 0.0006375347066116141
251.0, 0.0009552070650524476
252.0, 0.0006193537380480249
253.0, 0.0006361174554357972
254.0, 0.0006613331752426771
255.0, 0.00026115989130505473
256.0, 0.0002412671375892937
257.0, 0.00025875213249490714
258.0, 0.00025548971322847223
259.0, 0.00012854652523172088
260.0, 0.0009839978205379914
261.0, 0.00037425045722080485
262.0, 0.00041738318976862113
263.0, 0.0009177806261294592
264.0, 0.0011062356810434461
265.0, 0.0010242764309750813
266.0, 0.0014586540386543163
267.0, 0.00136049986049401
268.0, 0.0009819951670147395
269.0, 0.0014996504766439161
270.0, 0.0014932820244167842
271.0, 0.0017697261669824282
272.0, 0.0018911312537163787
273.0, 0.0016517974180699424
274.0, 0.0019569123417365443
275.0, 0.0018288318086602821
276.0, 0.0020588604983319933
277.0, 0.0022513954187344037
278.0, 0.0016912380863162034
279.0, 0.0018182302715461513
280.0, 0.001511127837385957
281.0, 0.00137949842436397
282.0, 0.001393160183202712
283.0, 0.00041900532207586795
284.0, 0.0005134267601194191
285.0, 0.0005850512948756671
286.0, 0.00016809560282661151
287.0, 0.0010996568802340784
288.0, 0.0016251134211736928
289.0, 0.0032948781525921466
290.0, 0.004424521997339231
291.0, 0.005130027651259438
292.0, 0.007014987860027484
293.0, 0.007326263460351017
294.0, 0.009357782385619419
295.0, 0.011838743017031935
296.0, 0.013532300083796859
297.0, 0.016413912245606947
298.0, 0.01928053329117089
299.0, 0.021027820407893978
300.0, 0.024003354329490505
301.0, 0.02966979267582328
302.0, 0.03248947846160237
303.0, 0.03494498509165533
304.0, 0.037021005668688274
305.0, 0.038841888016179084
306.0, 0.04102044585204094
307.0, 0.04168106590772576
308.0, 0.04266020255155651
309.0, 0.043765628674938786
310.0, 0.04383903191530989
311.0, 0.04256087635678111
312.0, 0.04367852157834818
313.0, 0.04334185734669966
314.0, 0.04208243030434721
315.0, 0.04244170992351789
316.0, 0.042959729242808664
317.0, 0.043407587010463
318.0, 0.04275101936773949
319.0, 0.042114310065969794
320.0, 0.043722797874630445
321.0, 0.04479385353563498
322.0, 0.046240146523073206
323.0, 0.04757706375760216
324.0, 0.04874841459652199
325.0, 0.05155541084466459
326.0, 0.05544800699130606
327.0, 0.05850402013516027
328.0, 0.06132912693817689
329.0, 0.06494947815130468
330.0, 0.06808499152539718
331.0, 0.07006865623439969
332.0, 0.07292956632586055
333.0, 0.07691932398252989
334.0, 0.08036350246092194
335.0, 0.08289737811623402
336.0, 0.0835044801614952
337.0, 0.08326588992242899
338.0, 0.08346160166101257
339.0, 0.08404928725055626
340.0, 0.08115226870016753
341.0, 0.07617660199456035
342.0, 0.07204268624081064
343.0, 0.06986568103246751
344.0, 0.06611156597947535
345.0, 0.060023222480074225
346.0, 0.055599765341331736
347.0, 0.052275066163194474
348.0, 0.047468597222200676
349.0, 0.04309396818227155
350.0, 0.03900827657930746
351.0, 0.0364871098956313
352.0, 0.035381521343243655
353.0, 0.03427103995245892
354.0, 0.03235607718885107
355.0, 0.03230456707293088
356.0, 0.033279258645416754
357.0, 0.03537719256446236
358.0, 0.04006923113442692
359.0, 0.04350999124066702
360.0, 0.048320778870946275
361.0, 0.05324770242394157
362.0, 0.05838067072814996
363.0, 0.06710781989971983
364.0, 0.07572452162306098
365.0, 0.08333109904655711
366.0, 0.0924355502527082
367.0, 0.10297582179110175
368.0, 0.10835214401372856
369.0, 0.1133585024495289
370.0, 0.11641921463878954
371.0, 0.11574583840229534
372.0, 0.11035015961052083
373.0, 0.10075485035299227
374.0, 0.09066550255817933
375.0, 0.07976302911589654
376.0, 0.0681313128051307
377.0, 0.057303096628162124
378.0, 0.04901343843807579
379.0, 0.042226896202044915
380.0, 0.0366851108959583
381.0, 0.03248198741706033
382.0, 0.029318723882028903
383.0, 0.025394451939697252
384.0, 0.02284251991090026
385.0, 0.02074575432227315
386.0, 0.019101096160521518
387.0, 0.018907329894873863
388.0, 0.017949211647509268
389.0, 0.01664439166737062
390.0, 0.014769287153111349
391.0, 0.013216136955674878
392.0, 0.01324683891016128
393.0, 0.012267262261725956
394.0, 0.011600221858541994
395.0, 0.010423430391469188
396.0, 0.008967522437858429
397.0, 0.009561632673443489
398.0, 0.010803949758782962
399.0, 0.011014580206958372
400.0, 0.010973324252718757
401.0, 0.011974452329050665
402.0, 0.014705497954086964
403.0, 0.01605537026688688
404.0, 0.01711594248185998
405.0, 0.01814434950764636
406.0, 0.01929111650135665
407.0, 0.021305709816742787
408.0, 0.022717264193426408
409.0, 0.024054090690962888
410.0, 0.025705276470774474
411.0, 0.02746236676872712
412.0, 0.02889581749709236
413.0, 0.03167804782212147
414.0, 0.0344003484524745
415.0, 0.03601962794976456
416.0, 0.037007178137351875
417.0, 0.03906777522714738
418.0, 0.041297549485916886
419.0, 0.04340457328287036
420.0, 0.045267469336425704
421.0, 0.04603931574127436
422.0, 0.04392382343638001
423.0, 0.041703071889116726
424.0, 0.03851755094053094
425.0, 0.03480783345782598
426.0, 0.031168418718717072
427.0, 0.027576782372897148
428.0, 0.02407750039852732
429.0, 0.020077895556070056
430.0, 0.016572773703291657
431.0, 0.014331225919905688
432.0, 0.012391043125111563
433.0, 0.010113191851368357
434.0, 0.008838910104365242
435.0, 0.008104251924008377
436.0, 0.006993819156654723
437.0, 0.005576557503917517
438.0, 0.005760602929761277
439.0, 0.004917796539524697
440.0, 0.003556732924100222
441.0, 0.002639667970678889
442.0, 0.00188648264573189
443.0, 0.0018199938725041013
444.0, 0.0014808393188705444
445.0, 0.0004839450348449249
446.0, 0.0005166601838260241
447.0, 0.000417965581677727
448.0, 0.0011549077692513572
449.0, 0.0005710375349275809
450.0, 0.0004692160232059278
451.0, 0.0013768342630525448
452.0, 0.001282669731663523
453.0, 0.0009440718739743059
454.0, 0.001275315436429295
455.0, 0.001401657567480497
456.0, 0.0010755343660969158
457.0, 0.001082177286412837
458.0, 0.0013538852257491802
459.0, 0.0016197907980761335
460.0, 0.0015218476809108774
461.0, 0.0011484167727121028
462.0, 0.0008144167940586915
463.0, 0.00047562461466191757
464.0, 0.0005281686500307008
465.0, 0.00044502777893044653
466.0, 0.00027687923907369997
467.0, 0.00032401015153996245
468.0, 0.00015725928115041621
469.0, 0.00014292162088599494
470.0, 0.0002514559434107477
471.0, 0.0003792019096823991
472.0, 0.0002983408011900008
473.0, 0.0002446965992759657
474.0, 0.0004906883225881569
475.0, 0.0003350686517448971
476.0, 0.00028117326272540893
477.0, 0.000594561307861966
478.0, 0.0009221780716796423
479.0, 0.0012342051553146107
480.0, 0.001385554487070724
481.0, 0.0010665722658104312
482.0, 0.0007446025413499438
483.0, 0.0013384657106506545
484.0, 0.0015285071906428332
485.0, 0.00210314944200221
486.0, 0.0021989118787342768
487.0, 0.001830428776945852
488.0, 0.0018756600313165224
489.0, 0.0019280978713894226
490.0, 0.0025482839026447278
491.0, 0.002559227033630697
492.0, 0.002486067920659533
493.0, 0.0031379489338927125
494.0, 0.0028192013281226258
495.0, 0.00321865336770228
496.0, 0.0031820402885745476
497.0, 0.002731504084937196
498.0, 0.0027509640057275593
499.0, 0.003526880484074252
500.0, 0.0035669374661309503
501.0, 0.0035749451101667255
502.0, 0.003520349498106121
503.0, 0.003415132952623978
504.0, 0.0035867249037697464
505.0, 0.003783805889380821
506.0, 0.004024196668114508
507.0, 0.0038599206047454085
508.0, 0.0032070721665533293
509.0, 0.002692527826837358
510.0, 0.0034054415082530997
511.0, 0.0038135325610776836
512.0, 0.0038982725645217925
513.0, 0.003644629938872105
514.0, 0.0031245843242653595
515.0, 0.0028587053334962692
516.0, 0.002846923018255576
517.0, 0.0026912900279086405
518.0, 0.0023912190300132215
519.0, 0.002199520301641207
520.0, 0.002341950074280238
521.0, 0.001953740853141177
522.0, 0.0017983102988825804
523.0, 0.0015716226861147797
524.0, 0.0017568129905199243
525.0, 0.0024802571733944312
526.0, 0.0015776768650476976
527.0, 0.0012284877736536003
528.0, 0.0016575049147208162
529.0, 0.001671048752454772
530.0, 0.0011126067615985936
531.0, 0.0014206169996286938
532.0, 0.001199127633254425
533.0, 0.0015106937012896412
534.0, 0.001779698887899252
535.0, 0.001516500683299202
536.0, 0.0008995139596587364
537.0, 0.000877891680017652
538.0, 0.0009142638932024619
539.0, 0.0008934179829760415
540.0, 0.0009064573511683079
541.0, 0.0011069857993683996
542.0, 0.0013976937602382463
543.0, 0.0008533884596246494
544.0, 0.000830531212019032
545.0, 0.0011046525388224756
546.0, 0.0012455838422652894
547.0, 0.0013161690418707292
548.0, 0.0007985755273426553
549.0, 0.0008568405201788352
550.0, 0.0011217786829276159
551.0, 0.0013898172211109102
552.0, 0.0015788838234553218
553.0, 0.001347764835222338
554.0, 0.0012950783104915277
555.0, 0.001066867885680144
556.0, 0.0008731557123610395
557.0, 0.0008555523425613108
558.0, 0.000786658361194098
559.0, 0.0009808986217743703
560.0, 0.0003888190808904047
561.0, 0.0006530757366315291
562.0, 0.0012545185242857622
563.0, 0.0010351615367161886
564.0, 0.0011677629009631465
565.0, 0.0007951147016260092
566.0, 0.0007625450042203455
567.0, 0.0012572487110049217
568.0, 0.0017269425190992991
569.0, 0.0015907620390796272
570.0, 0.0009522617721255542
571.0, 0.0010639375429873062
572.0, 0.0015545234192263506
573.0, 0.0013498027575519584
574.0, 0.0005120650870025979
575.0, 0.0011881650843487814
576.0, 0.0018235469375103418
577.0, 0.0012793261814903396
578.0, 0.000829486902251328
579.0, 0.001322847713604785
580.0, 0.001994692301353771
581.0, 0.0017585749217204315
582.0, 0.0012694563041361407
583.0, 0.001295283143301107
584.0, 0.0015192460143181822
585.0, 0.0017832462642860295
586.0, 0.0025359024761248596
587.0, 0.0023906391658338167
588.0, 0.0016970654280101401
589.0, 0.0015632371992758888
590.0, 0.0018967104764170883
591.0, 0.00191889472608668
592.0, 0.0017203855574137832
593.0, 0.002211811020763775
594.0, 0.0024777218329061065
595.0, 0.002628634636228898
596.0, 0.002716951291726171
597.0, 0.0024712782966869367
598.0, 0.0024122567663770523
599.0, 0.0025591332652962623
600.0, 0.003218347588998372
601.0, 0.00350812490413637
602.0, 0.0031367203231342316
603.0, 0.0033446581477546457
604.0, 0.003576478817191393
605.0, 0.0031822026295335267
606.0, 0.0033440142033752977
607.0, 0.004044784461953629
608.0, 0.004086311679842791
609.0, 0.00313722163312458
610.0, 0.004515846996952668
611.0, 0.004146365403004124
612.0, 0.0038982765895777555
613.0, 0.004110770423757505
614.0, 0.003397014661542793
615.0, 0.004029658376798171
616.0, 0.0049074920567118065
617.0, 0.004023787789991628
618.0, 0.0032850373343664635
619.0, 0.0037065037404035426
620.0, 0.003708018016333684
621.0, 0.003763398262096577
622.0, 0.004308311315801258
623.0, 0.004211193397529541
624.0, 0.004142696414120637
625.0, 0.004524626836292805
626.0, 0.0043773865207555425
627.0, 0.0034628384994547135
628.0, 0.0035767157501310444
629.0, 0.0037043300917815607
630.0, 0.003643750878910645
631.0, 0.0038451048315455917
632.0, 0.004177549144371494
633.0, 0.004159055879731004
634.0, 0.003960694288894972
635.0, 0.003761786828954467
636.0, 0.004060877520266542
637.0, 0.004832629664506707
638.0, 0.004817808569742753
639.0, 0.004235414667923358
640.0, 0.003850435505913058
641.0, 0.003924631174273132
642.0, 0.0039799070888094845
643.0, 0.003679833221451676
644.0, 0.0039396104765767465
645.0, 0.003685375725374625
646.0, 0.0038684093484950863
647.0, 0.003855345776104426
648.0, 0.003904665742913701
649.0, 0.0046849499490850145
650.0, 0.004743249933674405
651.0, 0.003922954135446041
652.0, 0.004196721805580806
653.0, 0.004551790054492606
654.0, 0.004538942962496641
655.0, 0.004670535580795547
656.0, 0.004905101112087399
657.0, 0.0052649298464169355
658.0, 0.004763152960494747
659.0, 0.004839264449357698
660.0, 0.005543155763643056
661.0, 0.005582985894309828
662.0, 0.005677436702196351
663.0, 0.005388680757798831
664.0, 0.005667711081241792
665.0, 0.006249348758277992
666.0, 0.006327481397704709
667.0, 0.005556709241761218
668.0, 0.005584193823931571
669.0, 0.0054949838554388675
670.0, 0.005880815480746086
671.0, 0.006297052838489119
672.0, 0.006503873417076109
673.0, 0.006570867000433712
674.0, 0.005833363466755286
675.0, 0.005721514677346878
676.0, 0.005205037445101662
677.0, 0.00514825379820425
678.0, 0.005050417425850372
679.0, 0.0039951861786902115
680.0, 0.004082638697205002
681.0, 0.004413492545801909
682.0, 0.004570543079587468
683.0, 0.004037221577549165
684.0, 0.0033269274625676967
685.0, 0.0031371943845770562
686.0, 0.0027877198929638553
687.0, 0.002308934879798558
688.0, 0.002250493939573354
689.0, 0.0018026777743192608
690.0, 0.0013807482136793693
691.0, 0.001795423088543056
692.0, 0.00237716778801599
693.0, 0.002318231858480912
694.0, 0.001434121297045273
695.0, 0.0014586420629138018
696.0, 0.001652485295514604
697.0, 0.001137486054983174
698.0, 0.0011426047059909551
699.0, 0.0009923553041319274
700.0, 0.0012500363975801775
701.0, 0.000600422006447083
702.0, 0.0004589408080324848
703.0, 0.0010611583198856225
704.0, 0.00019341012666848707
705.0, 0.0005757282032176566
706.0, 0.0012677360211280485
707.0, 0.0006750025613502519
708.0, 0.0005349022842201811
709.0, 0.0009138394847878859
710.0, 6.47863184572017e-05
711.0, 0.00011303140495804115
712.0, 0.0004045005259830769
713.0, 0.001402626542168876
714.0, 0.0018874013198284828
715.0, 0.0017780089390965368
716.0, 0.0019275335661423018
717.0, 0.0019787171394022793
718.0, 0.0025949103541093393
719.0, 0.0022547832443662406
720.0, 0.0020379593427410983
721.0, 0.0018341559210505653
722.0, 0.0014049585729538443
723.0, 0.001933224147509204
724.0, 0.0020232761830492954
725.0, 0.0013480596745101578
726.0, 0.001054544308205392
727.0, 0.001720845564944442
728.0, 0.0023708330838734673
729.0, 0.0018327832400892678
730.0, 0.000703582400529048
731.0, 0.0006316997710963259
732.0, 0.00025542637530941495
733.0, 0.0008812798793583823
734.0, 0.0011013429846117636
735.0, 0.0013246419825397315
736.0, 0.0016237698245057967
737.0, 0.0020327719621064427
738.0, 0.0026656788351756967
739.0, 0.004121986476724851
740.0, 0.005779678029686384
741.0, 0.00663861327807815
742.0, 0.006973094902466787
743.0, 0.00870312673526991
744.0, 0.01108383477487631
745.0, 0.012757777525052215
746.0, 0.013759712931571284
747.0, 0.015896042940031874
748.0, 0.020660797272498442
749.0, 0.026397708173207263
750.0, 0.029625182747916284
751.0, 0.035195054288061245
752.0, 0.04141289522369368
753.0, 0.0480984681620673
754.0, 0.05688220687781458
755.0, 0.0675531886826141
756.0, 0.07905798824196013
757.0, 0.08805049796057218
758.0, 0.10137152042501636
759.0, 0.11453064976485577
760.0, 0.12646246569083106
761.0, 0.1410603039837358
762.0, 0.15515916099139332
763.0, 0.16800191186175628
764.0, 0.17704343020504
765.0, 0.18549322398676213
766.0, 0.1915032225254903
767.0, 0.19299645223409082
768.0, 0.19333343248875878
769.0, 0.19497322698724165
770.0, 0.19404578978225553
771.0, 0.19497337346733368
772.0, 0.1956447020743264
773.0, 0.1960946218926892
774.0, 0.19901233216461872
775.0, 0.2050414265529444
776.0, 0.21443680870391768
777.0, 0.2247165745742224
778.0, 0.23974896217434635
779.0, 0.2564846038953452
780.0, 0.2730773050962974
781.0, 0.29162452874276273
782.0, 0.31037278028978216
783.0, 0.3320164607442673
784.0, 0.3509555683418527
785.0, 0.36781706884543813
786.0, 0.37915953388440926
787.0, 0.38331830221535534
788.0, 0.38512132526171666
789.0, 0.38963862482007183
790.0, 0.3946504834913234
791.0, 0.3992621273658027
792.0, 0.4120740480602474
793.0, 0.4337042598465144
794.0, 0.45952106848352714
795.0, 0.4919542262237865
796.0, 0.5323771891113962
797.0, 0.5686320728337021
798.0, 0.609116375468753
799.0, 0.6548356405903996
800.0, 0.7088208674917753
801.0, 0.7737149294384452
802.0, 0.8437478847771086
803.0, 0.9169956098356609
804.0, 0.9745880525057108
805.0, 0.9993076331523445
806.0, 0.9838068637071199
807.0, 0.9336662222231524
808.0, 0.8670611612189989
809.0, 0.7999316031486964
810.0, 0.742902652719709
811.0, 0.6942277900342231
812.0, 0.6480712394714975
813.0, 0.6006474653717307
814.0, 0.5501991032095299
815.0, 0.49575248297548735
816.0, 0.4384436892110492
817.0, 0.3790321838780229
818.0, 0.32860786724883123
819.0, 0.2866930055438631
820.0, 0.252790252291975
821.0, 0.22789553467893264
822.0, 0.21020866742665278
823.0, 0.1944054898245377
824.0, 0.18341946385746363
825.0, 0.17487644124210602
826.0, 0.1668564452340438
827.0, 0.16081349184128113
828.0, 0.1555430329341165
829.0, 0.14812751442151015
830.0, 0.14306326193565758
831.0, 0.1366420166015862
832.0, 0.1326064557741133
833.0, 0.12571382593240518
834.0, 0.11832345172716324
835.0, 0.11334432740211245
836.0, 0.10697603160043972
837.0, 0.09857180639313994
838.0, 0.09545373201064611
839.0, 0.09085522519523773
840.0, 0.08583262958245111
841.0, 0.08007619671475746
842.0, 0.07515956171265448
843.0, 0.07367388321755135
844.0, 0.07044477501323884
845.0, 0.06879552213944691
846.0, 0.06479165252782619
847.0, 0.06168915436753051
848.0, 0.05993111819032392
849.0, 0.05810249646409205
850.0, 0.05583167457654183
851.0, 0.05336840248606532
852.0, 0.05018713623854382
853.0, 0.04646215333390287
854.0, 0.04266452420425016
855.0, 0.039083603194296254
856.0, 0.03489884948351097
857.0, 0.029744472166900012
858.0, 0.02525529930137253
859.0, 0.01979016950622451
860.0, 0.016409280708137696
861.0, 0.011992729678264567
862.0, 0.00927495809967832
863.0, 0.008082078472260789
864.0, 0.005921941233382849
865.0, 0.003777251462746597
866.0, 0.0028997434867523483
867.0, 0.002120296358748519
868.0, 0.0008865510973594805
869.0, 9.360639303721871e-05
870.0, 0.0003621544772330245
871.0, 0.0006965912803396058
872.0, 0.0007535681019772058
873.0, 0.0010635652256193611
874.0, 0.0002654742396147848
875.0, 0.0005768310219718991
876.0, 0.0006461964090867088
877.0, 0.0006467044331991709
878.0, 0.001454999378972877
879.0, 0.0007224836523667846
880.0, 0.0009775224633054404
881.0, 0.0003932021462079314
882.0, 0.00016522038551079749
883.0, 0.0004593079550341316
884.0, 0.0010242920354055897
885.0, 0.0010411825598093478
886.0, 0.0006947801868734916
887.0, 0.0011517338462770101
888.0, 0.0013947577068098725
889.0, 0.0021116454890019202
890.0, 0.0014925026445217213
891.0, 0.001303983903438479
892.0, 0.001660204581865592
893.0, 0.0019712381255487343
894.0, 0.0021286676051965564
895.0, 0.0015562823945793013
896.0, 0.0010410241948544524
897.0, 0.0017978624992277066
898.0, 0.002196267842464717
899.0, 0.0018996518079951816
900.0, 0.001151680409607639
901.0, 0.00037779182283146474
902.0, 0.00011589288223728367
903.0, 0.0005400821374021385
904.0, 0.0008712156815399612
905.0, 0.0020028079188427195
906.0, 0.0022459264514122614
907.0, 0.002139975153144286
908.0, 0.0027719537485394923
909.0, 0.0037337803839627317
910.0, 0.0036350453808917152
911.0, 0.002964209306564429
912.0, 0.0035587553812141035
913.0, 0.004526781331965263
914.0, 0.00392665120509222
915.0, 0.0034401993748492277
916.0, 0.003892200237976423
917.0, 0.0037308855385052805
918.0, 0.0033606009909187143
919.0, 0.003600229655194161
920.0, 0.0032492340758542965
921.0, 0.0033839120758292836
922.0, 0.0035654091671818927
923.0, 0.0035246994655771724
924.0, 0.0035869639262618267
925.0, 0.0038344255340781704
926.0, 0.0036527303588910144
927.0, 0.0029045985610583356
928.0, 0.003854128999294128
929.0, 0.004932753143084084
930.0, 0.004819996811092456
931.0, 0.00408868098088892
932.0, 0.0039681944106667155
933.0, 0.004674009481315074
934.0, 0.005082096217299032
935.0, 0.004222920923203419
936.0, 0.005265187289564953
937.0, 0.0052924716461464115
938.0, 0.004891909805568869
939.0, 0.0050769272038043885
940.0, 0.0053720352577041825
941.0, 0.005344936791267895
942.0, 0.005559701826190194
943.0, 0.005657062693829231
944.0, 0.006350950018252658
945.0, 0.006937111812170112
946.0, 0.0065889606969698755
947.0, 0.005880034919018137
948.0, 0.005762591209103765
949.0, 0.005981103124200654
950.0, 0.006424677411197733
951.0, 0.006328133831075228
952.0, 0.005242042205369041
953.0, 0.005360147320613035
954.0, 0.00558914627818562
955.0, 0.005261407578977376
956.0, 0.0048517750404650254
957.0, 0.0042249784116539435
958.0, 0.004107822656759265
959.0, 0.0038561749600866746
960.0, 0.004587491898733309
961.0, 0.004752849066809077
962.0, 0.0050728841032465985
963.0, 0.004965143773827423
964.0, 0.004032569479482861
965.0, 0.0037286332402068512
966.0, 0.003954086824440918
967.0, 0.0035565042036527186
968.0, 0.004658690138294265
969.0, 0.004654607041658109
970.0, 0.004460195056080771
971.0, 0.0048804073180135615
972.0, 0.0050746337670795495
973.0, 0.004822955507504043
974.0, 0.00512256421958409
975.0, 0.005191262517556445
976.0, 0.0053838703042901415
977.0, 0.0050421414895155045
978.0, 0.005255593189089123
979.0, 0.005690638967227338
980.0, 0.005552359254819426
981.0, 0.0048732806263321405
982.0, 0.004505178388295421
983.0, 0.004890391335185787
984.0, 0.004437058635949065
985.0, 0.0049051944888667855
986.0, 0.004832257559284528
987.0, 0.004760651019090886
988.0, 0.004493508657961559
989.0, 0.0040417008663367
990.0, 0.004339347520483761
991.0, 0.0040073096350674514
992.0, 0.003433382966559173
993.0, 0.0033929639238433717
994.0, 0.003978548352228056
995.0, 0.004157660073788089
996.0, 0.004105029237006463
997.0, 0.00431131233503149
998.0, 0.00423449702451242
999.0, 0.0036538056325303597
1000.0, 0.004240188342005491
1001.0, 0.004469703871905019
1002.0, 0.003388371278560169
1003.0, 0.0032052044687854203
1004.0, 0.0033604233704370005
1005.0, 0.003292839544585585
1006.0, 0.003293050709876553
1007.0, 0.003461381466596508
1008.0, 0.0035293001735498633
1009.0, 0.003432690290637993
1010.0, 0.003303502971677078
1011.0, 0.002877181931056137
1012.0, 0.0030331960073278473
1013.0, 0.002925339008423786
1014.0, 0.002428252108055451
1015.0, 0.0024173501274008754
1016.0, 0.0027639772931352157
1017.0, 0.002449427232079647
1018.0, 0.0028130681041049713
1019.0, 0.002024263410258397
1020.0, 0.002105560278030138
1021.0, 0.0026478930971950295
1022.0, 0.0027020354048978936
1023.0, 0.002451241886171494
1024.0, 0.0023856767248010167
1025.0, 0.002188241322093266
1026.0, 0.0017352881588214581
1027.0, 0.002119802042911291
1028.0, 0.0019229216143603377
1029.0, 0.0021574094291771286
1030.0, 0.0018398919123733934
1031.0, 0.0018114567948346247
1032.0, 0.00216467794452538
1033.0, 0.002035762682218375
1034.0, 0.0019772990632546538
1035.0, 0.0018316991998980335
1036.0, 0.0016917629838082537
1037.0, 0.0019600034034688717
1038.0, 0.00226425268404753
1039.0, 0.0018451534417054727
1040.0, 0.0011946368877128345
1041.0, 0.0010872035589865746
1042.0, 0.001336092753898665
1043.0, 0.0013636616266069295
1044.0, 0.0015015284161392422
1045.0, 0.0010950973301811638
1046.0, 0.0008226413934815141
1047.0, 0.0007518535512068008
1048.0, 0.0006979806705934568
1049.0, 0.0007594981792134958
1050.0, 0.0007942203759181153
1051.0, 0.0006767552951431735
1052.0, 0.00053834921702633
1053.0, 0.00024687195787040313
1054.0, 0.0008632612737670189
1055.0, 0.0007269920541347637
1056.0, 0.00048381498983398946
1057.0, 0.00035528764323125805
1058.0, 0.0006489852348229826
1059.0, 0.0005391184784877166
1060.0, 0.00024765838701754176
1061.0, 0.0008668880973075897
1062.0, 0.0007901977151251547
1063.0, 0.0003872791204943537
1064.0, 0.0004177786277127211
1065.0, 0.00015569799799032677
1066.0, 0.00014513417962190226
1067.0, 0.0001507678147613503
1068.0, 0.00027561353313511436
1069.0, 0.0003109535909300672
1070.0, 0.0001389166096855675
1071.0, 0.0007581418073843864
1072.0, 0.00011335892541453586
1073.0, 0.00037724632718541236
1074.0, 0.00014439916418319907
1075.0, 5.5472977065012855e-05
1076.0, 0.000632129883741214
1077.0, 0.0004942987363411033
1078.0, 6.271595088102129e-05
1079.0, 6.557013204782622e-05
1080.0, 0.00025395374800620983
1081.0, 0.0007585070334479759
1082.0, 0.0004160584048735355
1083.0, 0.0002793512297563598
1084.0, 0.00023631547016228797
1085.0, 0.00014256855369592538
1086.0, 0.00016279692884667621
1087.0, 0.0003074829463650137
1088.0, 0.00036763168754731237
1089.0, 0.0003395409345931883
1090.0, 0.0003656763822155859
1091.0, 0.00011687757374173289
1092.0, 1.594874030101134e-05
1093.0, 0.0002322438263287087
1094.0, 0.0001848351803409214
1095.0, 0.00022737508584457007
1096.0, 0.0007937666876771157
1097.0, 0.0008706133129191536
1098.0, 0.0002810521516088759
1099.0, 7.54841780331887e-05
1100.0, 0.0003706513382432385
1101.0, 8.06881532071449e-05
1102.0, 0.00011457157708077386
1103.0, 0.0004546685644303932
1104.0, 0.0003467882833927967
1105.0, 9.90140667496467e-05
1106.0, 5.688543377442159e-05
1107.0, 0.00019653342160372772
1108.0, 8.851581716440215e-05
1109.0, 0.0005624063975164838
1110.0, 0.0005965924262071797
1111.0, 0.00038429555875863376
1112.0, 0.0004388624031613138
1113.0, 0.00012033639874900049
1114.0, 0.0005868084311736291
1115.0, 0.00025027668684309706
1116.0, 7.53447835605268e-05
1117.0, 0.00028907947120164436
1118.0, 0.0004736958887657949
1119.0, 7.451192893117202e-05
1120.0, 0.0003096500806863707
1121.0, 0.0005151047866359084
1122.0, 5.591972650108077e-05
1123.0, 0.0005066009903932917
1124.0, 0.0001299877434329823
1125.0, 6.0078830258079074e-05
1126.0, 0.00017433435516653136
1127.0, 8.195862604335834e-05
1128.0, 0.0003948523695131112
1129.0, 0.0003146279939957787
1130.0, 0.0003316804997764677
1131.0, 0.0006734657025220952
1132.0, 0.00020376803345065452
1133.0, 0.00012379003266509413
1134.0, 0.0008295633272485358
1135.0, 0.0003743129001338158
1136.0, 0.0004830482952928305
1137.0, 0.00045513733901368045
1138.0, 0.0003033518883601428
1139.0, 0.000348557501686475
1140.0, 0.0004561592864358002
1141.0, 0.0006509600392531664
1142.0, 9.471715677865667e-05
1143.0, 8.142193156754293e-05
1144.0, 0.00023315260418603728
1145.0, 0.0006461795751414809
1146.0, 0.00016724038214769026
1147.0, 0.00024203347830427794
1148.0, 0.000445460422897261
1149.0, 8.929217826351663e-05
1150.0, 4.3149583857273296e-05
1151.0, 0.00037603866774564625
1152.0, 0.00032574625876997384
1153.0, 0.00012795541448478118
1154.0, 7.52738374753019e-05
1155.0, 0.0006788726840624709
1156.0, 0.00030300688966715004
1157.0, 0.00013722586673762537
1158.0, 0.0007633891710404478
1159.0, 0.0010201627111258182
1160.0, 0.0007409196988139155
1161.0, 0.0005384752626948948
1162.0, 0.00040835082600933843
1163.0, 0.00028262257860387397
1164.0, 0.00019944467968895322
1165.0, 0.0005776048143233133
1166.0, 0.0004815836336842996
1167.0, 0.0009311848573115766
1168.0, 0.0010331711715968357
1169.0, 0.0013977294044746473
1170.0, 0.0013501389316784712
1171.0, 0.0008789695127162098
1172.0, 0.0006669431611514644
1173.0, 0.0006835625175518124
1174.0, 0.0008133029253531255
1175.0, 0.0009457985137385627
1176.0, 0.0010607802330334648
1177.0, 0.0009434255401810685
1178.0, 0.0007450356214684632
1179.0, 0.0013398879934719105
1180.0, 0.0013104709575594627
1181.0, 0.0009374767694694023
1182.0, 0.0006495662454025228
1183.0, 0.000664924507370986
1184.0, 0.0008009529616583721
1185.0, 0.0005749068814708762
1186.0, 0.0005276678392976802
1187.0, 0.0009741739460914959
1188.0, 0.0010274866333742482
1189.0, 0.0015899172419298587
1190.0, 0.001117753106771742
1191.0, 0.0007236283341864747
1192.0, 0.0008670770682223513
1193.0, 0.0010878446589806022
1194.0, 0.0010820015251942262
1195.0, 0.0009348949010181297
1196.0, 0.0008276419216482964
1197.0, 0.0008829547233324262
1198.0, 0.0009308440456247637
1199.0, 0.0004439498985427788
1200.0, 0.0008415760084911302
1201.0, 0.001129509787547572
1202.0, 0.0013700714002762313
1203.0, 0.0015317463314773638
1204.0, 0.0012329765185906292
1205.0, 0.0013243075778399073
1206.0, 0.0016339375190062616
1207.0, 0.0016553157802633035
1208.0, 0.0017255050476955537
1209.0, 0.001712689400617883
1210.0, 0.0013080705579415787
1211.0, 0.0022986481009565217
1212.0, 0.0014504553029380878
1213.0, 0.0011939132808736637
1214.0, 0.0010336667712306828
1215.0, 0.0008367724300641018
1216.0, 0.0011251619530956438
1217.0, 0.0008991715279515643
1218.0, 0.0007636634180753131
1219.0, 0.0014271140837125312
1220.0, 0.0016704382279823947
1221.0, 0.0009182280699569484
1222.0, 0.0012105235461764804
1223.0, 0.002419073568766189
1224.0, 0.002421394895311559
1225.0, 0.0017056960432865786
1226.0, 0.0011560347816312732
1227.0, 0.0009589691605943015
1228.0, 0.0009355189070525225
1229.0, 0.0013958049812051049
1230.0, 0.0014024923359084983
1231.0, 0.0010751106702537535
1232.0, 0.00117203697814142
1233.0, 0.0011659333548813468
1234.0, 0.0006051452934028704
1235.0, 0.000595415646995507
1236.0, 0.0009472812515734156
1237.0, 0.0010430200981554197
1238.0, 0.0009354691649675675
1239.0, 0.0008767788998950778
1240.0, 0.0008251065832190971
1241.0, 0.0009185521240703135
1242.0, 0.00103313109736324
1243.0, 0.0012225157330289574
1244.0, 0.000968309595464343
1245.0, 0.00046142938586076816
1246.0, 0.0005678526306402934
1247.0, 0.0007309883158618262
1248.0, 0.0005590102543662432
1249.0, 0.0010934622958859372
1250.0, 0.001417654156982074
1251.0, 0.001271620665374977
1252.0, 0.0006390437346008649
1253.0, 0.0008767558425778999
1254.0, 0.0004577572443339643
1255.0, 0.0006452654047334985
1256.0, 0.0009652909712620014
1257.0, 0.0006299201463728664
1258.0, 0.00045748782073835284
1259.0, 0.0007653603790513646
1260.0, 0.0011912469356254681
1261.0, 0.0013889868130529423
1262.0, 0.0004627359975212257
1263.0, 0.0006340264097364047
1264.0, 0.0008110709582173578
1265.0, 0.0005728858649252825
1266.0, 0.0009034354635857105
1267.0, 0.0009859204667955045
1268.0, 0.0006423159967825185
1269.0, 0.0005481892909479332
1270.0, 0.0006521011105973714
1271.0, 0.0006911337944786772
1272.0, 0.0006487595003920629
1273.0, 0.000586021779457298
1274.0, 0.0005912705407868465
1275.0, 0.0005761500760926795
1276.0, 0.0012519208522555
1277.0, 0.0016604837738025716
1278.0, 0.0009762947880441275
1279.0, 0.0010648449786734855
1280.0, 0.0002789804298313409
1281.0, 0.00035081913837190187
1282.0, 0.0007469609566750105
1283.0, 0.0008177892524443
1284.0, 0.00040094535449861584
1285.0, 9.789209648947481e-05
1286.0, 7.727937786144609e-05
1287.0, 3.535263691613943e-05
1288.0, 7.417981057692718e-05
1289.0, 0.0002544370627810623
1290.0, 0.0007464389547650698
1291.0, 1.8559144342160708e-05
1292.0, 0.0002248219126675471
1293.0, 0.00013548554007135227
1294.0, 0.00039234719232253
1295.0, 0.0002672890266710245
1296.0, 2.4003465400273496e-05
1297.0, 0.00017224007342853286
1298.0, 1.7357709307650203e-05
1299, 0.0
1300, 0.0
1301, 0.0
1302, 0.0
1303, 0.0
1304, 0.0
1305, 0.0
1306, 0.0
1307, 0.0
1308, 0.0
1309, 0.0
1310, 0.0
1311, 0.0
1312, 0.0
1313, 0.0
1314, 0.0
1315, 0.0
1316, 0.0
1317, 0.0
1318, 0.0
1319, 0.0
1320, 0.0
1321, 0.0
1322, 0.0
1323, 0.0
1324, 0.0
1325, 0.0
1326, 0.0
1327, 0.0
1328, 0.0
1329, 0.0
1330, 0.0
1331, 0.0
1332, 0.0
1333, 0.0
1334, 0.0
1335, 0.0
1336, 0.0
1337, 0.0
1338, 0.0
1339, 0.0
1340, 0.0
1341, 0.0
1342, 0.0
1343, 0.0
1344, 0.0
1345, 0.0
1346, 0.0
1347, 0.0
1348, 0.0
1349, 0.0
1350, 0.0
1351, 0.0
1352, 0.0
1353, 0.0
1354, 0.0
1355, 0.0
1356, 0.0
1357, 0.0
1358, 0.0
1359, 0.0
1360, 0.0
1361, 0.0
1362, 0.0
1363, 0.0
1364, 0.0
1365, 0.0
1366, 0.0
1367, 0.0
1368, 0.0
1369, 0.0
1370, 0.0
1371, 0.0
1372, 0.0
1373, 0.0
1374, 0.0
1375, 0.0
1376, 0.0
1377, 0.0
1378, 0.0
1379, 0.0
1380, 0.0
1381, 0.0
1382, 0.0
1383, 0.0
1384, 0.0
1385, 0.0
1386, 0.0
1387, 0.0
1388, 0.0
1389, 0.0
1390, 0.0
1391, 0.0
1392, 0.0
1393, 0.0
1394, 0.0
1395, 0.0
1396, 0.0
1397, 0.0
1398, 0.0
1399, 0.0
1400, 0.0
1401, 0.0
1402, 0.0
1403, 0.0
1404, 0.0
1405, 0.0
1406, 0.0
1407, 0.0
1408, 0.0
1409, 0.0
1410, 0.0
1411, 0.0
1412, 0.0
1413, 0.0
1414, 0.0
1415, 0.0
1416, 0.0
1417, 0.0
1418, 0.0
1419, 0.0
1420, 0.0
1421, 0.0
1422, 0.0
1423, 0.0
1424, 0.0
1425, 0.0
1426, 0.0
1427, 0.0
1428, 0.0
1429, 0.0
1430, 0.0
1431, 0.0
1432, 0.0
1433, 0.0
1434, 0.0
1435, 0.0
1436, 0.0
1437, 0.0
1438, 0.0
1439, 0.0
1440, 0.0
1441, 0.0
1442, 0.0
1443, 0.0
1444, 0.0
1445, 0.0
1446, 0.0
1447, 0.0
1448, 0.0
1449, 0.0
1450, 0.0
1451, 0.0
1452, 0.0
1453, 0.0
1454, 0.0
1455, 0.0
1456, 0.0
1457, 0.0
1458, 0.0
1459, 0.0
1460, 0.0
1461, 0.0
1462, 0.0
1463, 0.0
1464, 0.0
1465, 0.0
1466, 0.0
1467, 0.0
1468, 0.0
1469, 0.0
1470, 0.0
1471, 0.0
1472, 0.0
1473, 0.0
1474, 0.0
1475, 0.0
1476, 0.0
1477, 0.0
1478, 0.0
1479, 0.0
1480, 0.0
1481, 0.0
1482, 0.0
1483, 0.0
1484, 0.0
1485, 0.0
1486, 0.0
1487, 0.0
1488, 0.0
1489, 0.0
1490, 0.0
1491, 0.0
1492, 0.0
1493, 0.0
1494, 0.0
1495, 0.0
1496, 0.0
1497, 0.0
1498, 0.0
1499, 0.0
1500, 0.0
1501, 0.0
1502, 0.0
1503, 0.0
1504, 0.0
1505, 0.0
1506, 0.0
1507, 0.0
1508, 0.0
1509, 0.0
1510, 0.0
1511, 0.0
1512, 0.0
1513, 0.0
1514, 0.0
1515, 0.0
1516, 0.0
1517, 0.0
1518, 0.0
1519, 0.0
1520, 0.0
1521, 0.0
1522, 0.0
1523, 0.0
1524, 0.0
1525, 0.0
1526, 0.0
1527, 0.0
1528, 0.0
1529, 0.0
1530, 0.0
1531, 0.0
1532, 0.0
1533, 0.0
1534, 0.0
1535, 0.0
1536, 0.0
1537, 0.0
1538, 0.0
1539, 0.0
1540, 0.0
1541, 0.0
1542, 0.0
1543, 0.0
1544, 0.0
1545, 0.0
1546, 0.0
1547, 0.0
1548, 0.0
1549, 0.0
1550, 0.0
1551, 0.0
1552, 0.0
1553, 0.0
1554, 0.0
1555, 0.0
1556, 0.0
1557, 0.0
1558, 0.0
1559, 0.0
1560, 0.0
1561, 0.0
1562, 0.0
1563, 0.0
1564, 0.0
1565, 0.0
1566, 0.0
1567, 0.0
1568, 0.0
1569, 0.0
1570, 0.0
1571, 0.0
1572, 0.0
1573, 0.0
1574, 0.0
1575, 0.0
1576, 0.0
1577, 0.0
1578, 0.0
1579, 0.0
1580, 0.0
1581, 0.0
1582, 0.0
1583, 0.0
1584, 0.0
1585, 0.0
1586, 0.0
1587, 0.0
1588, 0.0
1589, 0.0
1590, 0.0
1591, 0.0
1592, 0.0
1593, 0.0
1594, 0.0
1595, 0.0
1596, 0.0
1597, 0.0
1598, 0.0
1599, 0.0
