30, 0.0
31, 0.0
32, 0.0
33, 0.0
34, 0.0
35, 0.0
36, 0.0
37, 0.0
38, 0.0
39, 0.0
40, 0.0
41, 0.0
42, 0.0
43, 0.0
44, 0.0
45, 0.0
46, 0.0
47, 0.0
48, 0.0
49, 0.0
50, 0.0
51, 0.0
52, 0.0
53, 0.0
54, 0.0
55, 0.0
56, 0.0
57, 0.0
58, 0.0
59, 0.0
60, 0.0
61, 0.0
62, 0.0
63, 0.0
64, 0.0
65, 0.0
66.0, 0.00010526969213335959
67.0, 0.00017881838023113132
68.0, 0.0007982508251090187
69.0, 0.001721851596633652
70.0, 0.0029601383656849226
71.0, 0.003945083652392458
72.0, 0.005015638317812712
73.0, 0.006387269644425185
74.0, 0.007969138945031776
75.0, 0.00928836062158368
76.0, 0.010751793702291788
77.0, 0.011972315389094903
78.0, 0.013132978397927247
79.0, 0.014788845566136086
80.0, 0.01638925386997926
81.0, 0.018192015026215196
82.0, 0.019995597014466016
83.0, 0.021599312042281917
84.0, 0.023169236493083757
85.0, 0.024336731217046596
86.0, 0.025378867605201205
87.0, 0.026483898627258938
88.0, 0.027369526102546858
89.0, 0.02885430121332281
90.0, 0.03011641852361827
91.0, 0.03189541095262176
92.0, 0.0342112741979722
93.0, 0.03691256152297009
94.0, 0.04088138919649802
95.0, 0.04438636388859441
96.0, 0.04710786491664943
97.0, 0.0476870515035133
98.0, 0.04738051387687097
99.0, 0.046239460901297755
100.0, 0.044697302603754166
101.0, 0.042977880683192145
102.0, 0.04079734625386439
103.0, 0.03858204545651883
104.0, 0.036501915359235367
105.0, 0.033955636511916375
106.0, 0.031465783701664606
107.0, 0.02916559458406573
108.0, 0.026815265006062978
109.0, 0.024025472005428674
110.0, 0.021966722376587023
111.0, 0.019711996705162653
112.0, 0.017594634280726107
113.0, 0.01609905127310536
114.0, 0.014115487942300631
115.0, 0.012019280971267265
116.0, 0.009677174861467526
117.0, 0.007270845591113694
118.0, 0.0056426049776233805
119.0, 0.0038429115182738744
120.0, 0.002068644648982503
121.0, 0.0003044238534313309
122.0, 0.0017492791502285029
123.0, 0.0021725608043917147
124.0, 0.0020421723490798523
125.0, 0.0018625481905483988
126.0, 0.0008481579376789872
127.0, 0.0015314505401229535
128.0, 0.003709993140344303
129.0, 0.005640136864735227
130.0, 0.007922934746948582
131.0, 0.010824420537016953
132.0, 0.013403539018408794
133.0, 0.016397288144564287
134.0, 0.018381486322530158
135.0, 0.01783442564819224
136.0, 0.01714510571638282
137.0, 0.016885834472840856
138.0, 0.016894086898499684
139.0, 0.017388490814636757
140.0, 0.019228967641122818
141.0, 0.021960200833124683
142.0, 0.02490668754029224
143.0, 0.02860679531302451
144.0, 0.03425840196039341
145.0, 0.04121435435402968
146.0, 0.048286177635103796
147.0, 0.05504513312267967
148.0, 0.061201299943678476
149.0, 0.06596636575470222
150.0, 0.07013320797309949
151.0, 0.07518930417557451
152.0, 0.0788726492174039
153.0, 0.07647566914801518
154.0, 0.0755983564611178
155.0, 0.07391106590922376
156.0, 0.0718415632958117
157.0, 0.0712912463299096
158.0, 0.0691123072473653
159.0, 0.06841828949991553
160.0, 0.06899634750683112
161.0, 0.06959650062653056
162.0, 0.06947936832966636
163.0, 0.07214420287355174
164.0, 0.07400110827674185
165.0, 0.07496240858840741
166.0, 0.07732425274311433
167.0, 0.08171400007811115
168.0, 0.08495725785041275
169.0, 0.0869332261645515
170.0, 0.0883187060840153
171.0, 0.0888539883235705
172.0, 0.08739066951871725
173.0, 0.08702017086799536
174.0, 0.08656385478103332
175.0, 0.0834787112066647
176.0, 0.0794766020005014
177.0, 0.0777996942728742
178.0, 0.07648400084795856
179.0, 0.07386548026801999
180.0, 0.0700997985109875
181.0, 0.0673012596948475
182.0, 0.0623731585293784
183.0, 0.05779658738310359
184.0, 0.05619259998227396
185.0, 0.051940172752847895
186.0, 0.047757305861447434
187.0, 0.045722759441385125
188.0, 0.044758673875705875
189.0, 0.040243763167701535
190.0, 0.037374860318886406
191.0, 0.03607949013816624
192.0, 0.03467551419300239
193.0, 0.03155891188904382
194.0, 0.029100596820510152
195.0, 0.028020448582108243
196.0, 0.02613051986723092
197.0, 0.022796198909539215
198.0, 0.02027824067714734
199.0, 0.019317854418894623
200.0, 0.017879387315185208
201.0, 0.015374775212281946
202.0, 0.012757274966602521
203.0, 0.011210999645081259
204.0, 0.011571754949850778
205.0, 0.007944946374835515
206.0, 0.003963382261280238
207.0, 0.003891983458942534
208.0, 0.0011508607410965067
209.0, 0.0017495969245187246
210.0, 0.0009031372550077095
211.0, 0.0017507212310369908
212.0, 0.003701732340673693
213.0, 0.0035924508002691596
214.0, 0.004397646095042921
215.0, 0.005176262609827666
216.0, 0.004303881837379303
217.0, 0.005801244859422674
218.0, 0.005692098037956042
219.0, 0.0028601507046224603
220.0, 0.0005251509864745298
221.0, 0.00030697984393675645
222.0, 0.0018340121521646534
223.0, 0.0017284081841838811
224.0, 0.0004069608067070548
225.0, 0.0011008586226359301
226.0, 0.0010807852240843744
227.0, 0.0003396408497177704
228.0, 0.0008483558775027049
229.0, 0.0013304754646281227
230.0, 4.6892436504282356e-05
231.0, 0.0017190015631329129
232.0, 0.0017584730151745578
233.0, 0.0008021087927118826
234.0, 0.0021662533785858635
235.0, 0.0007023553617373677
236.0, 0.003967831810975269
237.0, 0.00343839934410074
238.0, 0.0023495653938034426
239.0, 0.0026063024103090216
240.0, 0.003372898032308107
241.0, 0.00439668471182037
242.0, 0.002857274487464329
243.0, 0.002147062055403723
244.0, 0.005056603369313407
245.0, 0.005609951231178346
246.0, 0.004430219813828475
247.0, 0.005222779003755825
248.0, 0.00705483681810229
249.0, 0.0060423611821145695
250.0, 0.0037635980510141503
251.0, 0.0052245193354306
252.0, 0.0066107624825376965
253.0, 0.006411934049658069
254.0, 0.0075721621680482475
255.0, 0.011241588535328096
256.0, 0.011771889969201383
257.0, 0.012295739221301387
258.0, 0.014615098529481708
259.0, 0.01665725909260598
260.0, 0.01725281336357076
261.0, 0.0177269074333847
262.0, 0.018153454115474983
263.0, 0.01924049572506001
264.0, 0.02267808005637011
265.0, 0.024724273171682302
266.0, 0.024905727925121836
267.0, 0.02362353188119575
268.0, 0.022575872814062047
269.0, 0.026501777600930664
270.0, 0.028926557059348074
271.0, 0.029220014925447346
272.0, 0.029540072315036116
273.0, 0.03163600037858468
274.0, 0.03258617596716023
275.0, 0.03500265954443395
276.0, 0.03781602119900463
277.0, 0.03900918221315513
278.0, 0.038247941948195335
279.0, 0.03919259768036853
280.0, 0.04425072719426197
281.0, 0.04851601252132034
282.0, 0.05162603978819768
283.0, 0.05701506448658589
284.0, 0.06007907440260999
285.0, 0.06208260091546582
286.0, 0.06713802100861485
287.0, 0.07427055872474421
288.0, 0.07687289961827931
289.0, 0.07866902305336226
290.0, 0.08324688781249484
291.0, 0.08805669586436433
292.0, 0.0911141372057936
293.0, 0.09486572897751634
294.0, 0.09976313998331933
295.0, 0.1040213787742678
296.0, 0.1096966372367659
297.0, 0.11521540541340991
298.0, 0.11665703394443969
299.0, 0.12285491905627939
300.0, 0.1320918840612943
301.0, 0.13942432045242437
302.0, 0.14602381725612196
303.0, 0.15692421068528617
304.0, 0.1612417781707269
305.0, 0.16829339927542847
306.0, 0.1749299733337834
307.0, 0.1801910448734365
308.0, 0.19176828352809544
309.0, 0.19547307840610909
310.0, 0.19856641605451977
311.0, 0.20421307579587145
312.0, 0.2116595894360089
313.0, 0.2164559198738349
314.0, 0.21898511735996656
315.0, 0.21938998617809172
316.0, 0.21788260197230916
317.0, 0.21406151543162996
318.0, 0.20808122050869754
319.0, 0.20737121129352754
320.0, 0.20136407162572753
321.0, 0.1967350862514742
322.0, 0.19524697315850156
323.0, 0.18362034108756448
324.0, 0.1829818769068498
325.0, 0.17802234299549863
326.0, 0.17213240679645633
327.0, 0.1719009934553862
328.0, 0.17369543895085934
329.0, 0.16795764674295996
330.0, 0.16701641003685483
331.0, 0.1671668262508249
332.0, 0.16369971283273657
333.0, 0.16325930156287377
334.0, 0.1650146915782796
335.0, 0.16647542355308628
336.0, 0.16710468074489426
337.0, 0.16619043341261927
338.0, 0.16297234786597814
339.0, 0.15998081379597182
340.0, 0.1562899530759215
341.0, 0.15476937683535755
342.0, 0.1519981794501521
343.0, 0.14340621571640677
344.0, 0.13786953223700849
345.0, 0.13624458969282485
346.0, 0.1310263550866218
347.0, 0.12466089001813599
348.0, 0.12265307292254876
349.0, 0.11528110956341989
350.0, 0.11088457243876501
351.0, 0.1069121811308149
352.0, 0.10167442004874387
353.0, 0.09615866413602904
354.0, 0.09187472425683932
355.0, 0.08524720634870996
356.0, 0.08528141162983811
357.0, 0.08505140341292683
358.0, 0.07929933614698137
359.0, 0.07967299620662309
360.0, 0.07630137783607059
361.0, 0.0749240467843862
362.0, 0.07583569634909565
363.0, 0.07734207004567312
364.0, 0.07984334829683788
365.0, 0.08198925711809757
366.0, 0.08143212968325418
367.0, 0.08221503241661732
368.0, 0.08770128563183544
369.0, 0.09491066139955699
370.0, 0.09513300044927586
371.0, 0.09239187412491037
372.0, 0.08848218089539678
373.0, 0.08357819332813618
374.0, 0.07618775386461088
375.0, 0.06282363478670813
376.0, 0.05493935138337354
377.0, 0.04726364961070818
378.0, 0.03768153713589202
379.0, 0.028675991803768605
380.0, 0.02215119347130197
381.0, 0.020238380346695
382.0, 0.016361431062803626
383.0, 0.00947119886747775
384.0, 0.004000840279317385
385.0, 0.0038897722510224746
386.0, 0.0031693160087944393
387.0, 0.0034296035709420404
388.0, 0.003980038650558007
389.0, 0.0011343792629304392
390.0, 0.004703835712385752
391.0, 0.002203497409898762
392.0, 0.00023460758374922898
393.0, 0.0011322602199430886
394.0, 0.0016453728935392883
395.0, 0.0003411036672436561
396.0, 0.003127062852145171
397.0, 0.003349913497722264
398.0, 0.0009461306918664571
399.0, 0.0013829106700010939
400.0, 0.003330026369906805
401.0, 0.00053286848121872
402.0, 0.002219987942532302
403.0, 0.0010021361524467445
404.0, 0.0010248796322138002
405.0, 0.0016644568372123194
406.0, 0.0020808639520055803
407.0, 0.0026182213650464137
408.0, 0.0054182499244143255
409.0, 0.006650556063702553
410.0, 0.006122869089345677
411.0, 0.006008203851733405
412.0, 0.007496435431323586
413.0, 0.009202606999592841
414.0, 0.013572302642386479
415.0, 0.015160943034254873
416.0, 0.013525197178714204
417.0, 0.014436386756616341
418.0, 0.015967840617328005
419.0, 0.019536370565322623
420.0, 0.01886613027198901
421.0, 0.017608749021044163
422.0, 0.020405686265960038
423.0, 0.022956605164981984
424.0, 0.024563179971006908
425.0, 0.021574658797523388
426.0, 0.019740159457464965
427.0, 0.02050909591583039
428.0, 0.019241928305506032
429.0, 0.01685642085041682
430.0, 0.013079534920943056
431.0, 0.012015138097686033
432.0, 0.010836335772692964
433.0, 0.007041612903983649
434.0, 0.007916013435182586
435.0, 0.0050070639929821565
436.0, 0.004578313677904412
437.0, 0.004480534676153
438.0, 0.003327050616783253
439.0, 0.003121685384341675
440.0, 0.0021869880699612303
441.0, 0.001001232938224419
442.0, 0.0003265019606456161
443.0, 0.0002310622822436102
444.0, 0.0028998703303469014
445.0, 0.0015089587755550212
446.0, 0.0008780997996897475
447.0, 0.0015626809633212165
448.0, 0.0007573650745685623
449.0, 0.0009062598218977741
450.0, 0.004061196948228893
451.0, 0.0037051626526315795
452.0, 0.0019978462846419404
453.0, 0.0014685578420373662
454.0, 0.0010255274966922733
455.0, 0.00021291224258440138
456.0, 0.0006997083441902254
457.0, 0.0024620106127711777
458.0, 0.0011507687542152154
459.0, 0.0017982512974632988
460.0, 0.0037801699323981577
461.0, 0.0032557628581725475
462.0, 0.002260006820957404
463.0, 0.000847004500869674
464.0, 0.0003462127964192644
465.0, 0.0005376741639654137
466.0, 0.00038847648540451456
467.0, 0.002242424762662369
468.0, 0.004627774020639741
469.0, 0.006252895761102668
470.0, 0.005323492559276437
471.0, 0.00397223307759083
472.0, 0.005800953362908892
473.0, 0.013399811371955022
474.0, 0.015115973331568746
475.0, 0.011729476468808196
476.0, 0.009395507476216385
477.0, 0.0104019803321806
478.0, 0.012574195997908095
479.0, 0.013365877986940819
480.0, 0.01400391741484435
481.0, 0.015562767697447482
482.0, 0.017258063689462474
483.0, 0.01854461654132117
484.0, 0.019100084512901624
485.0, 0.016875294325145347
486.0, 0.021143907253557023
487.0, 0.018962929987407888
488.0, 0.020352851039540258
489.0, 0.02196304914937121
490.0, 0.02265257227320896
491.0, 0.02402353205985202
492.0, 0.026421327933803307
493.0, 0.027597297795766404
494.0, 0.02801784591134833
495.0, 0.029619653135478246
496.0, 0.029686763826613286
497.0, 0.02750798938990187
498.0, 0.02964379835601434
499.0, 0.03203876563151659
500.0, 0.031905904643399326
501.0, 0.030666807785420958
502.0, 0.0320586792638298
503.0, 0.03304962076981338
504.0, 0.036160343171834426
505.0, 0.03495323785300224
506.0, 0.03228697251170242
507.0, 0.03207332148012555
508.0, 0.032581135952182226
509.0, 0.03162649697246798
510.0, 0.03540790971854284
511.0, 0.035099310331834235
512.0, 0.033238933395343805
513.0, 0.033542290340671375
514.0, 0.03324649299019079
515.0, 0.03291869607441215
516.0, 0.033068164875086604
517.0, 0.03114664179562592
518.0, 0.02993428668179548
519.0, 0.030497191629910336
520.0, 0.029634443669726607
521.0, 0.02914330799286825
522.0, 0.02738368653642447
523.0, 0.028065813238286785
524.0, 0.028313136074707056
525.0, 0.02689177851271733
526.0, 0.027114709592311246
527.0, 0.027839932876256784
528.0, 0.025657096095137957
529.0, 0.023964062710968053
530.0, 0.025734368385504375
531.0, 0.027408251085648833
532.0, 0.0256265516795833
533.0, 0.029936794509649606
534.0, 0.026392364910790885
535.0, 0.027204813460767984
536.0, 0.027766600324818095
537.0, 0.026109700106277455
538.0, 0.027393898972001084
539.0, 0.02874142668366381
540.0, 0.029252092068796295
541.0, 0.028826143093568166
542.0, 0.028891785178783474
543.0, 0.028967746993993255
544.0, 0.027997184965241787
545.0, 0.026864054627420742
546.0, 0.024987819028643436
547.0, 0.024975961909201438
548.0, 0.026423660035963564
549.0, 0.02702586243532577
550.0, 0.02531537609579757
551.0, 0.02302600641452717
552.0, 0.024559371504091997
553.0, 0.02455039924862796
554.0, 0.024589218223747128
555.0, 0.0255044476918557
556.0, 0.025534936492544028
557.0, 0.023818790399572225
558.0, 0.025231235096035268
559.0, 0.02520840863174831
560.0, 0.02454394124392513
561.0, 0.024188940386421953
562.0, 0.02414072941971043
563.0, 0.023977116255554185
564.0, 0.02311824292288237
565.0, 0.02545763431727567
566.0, 0.02508233058689661
567.0, 0.02287151857303269
568.0, 0.023770698261593216
569.0, 0.027678748326113584
570.0, 0.02687698478901999
571.0, 0.023579130893739336
572.0, 0.021356387595776766
573.0, 0.02409666689487555
574.0, 0.021642693809515653
575.0, 0.021370509166635413
576.0, 0.021234400448514733
577.0, 0.022598048576320147
578.0, 0.02284498455228998
579.0, 0.02393473148400086
580.0, 0.023469234830117244
581.0, 0.02172071217791101
582.0, 0.024262055097611205
583.0, 0.020778705699008703
584.0, 0.02202827112766096
585.0, 0.02258369064345796
586.0, 0.02120092420159322
587.0, 0.02157487448254103
588.0, 0.02401985738944004
589.0, 0.02270143052796119
590.0, 0.02080788699818795
591.0, 0.019632694991051917
592.0, 0.021953702626395538
593.0, 0.023298224855562946
594.0, 0.020685776040575934
595.0, 0.017965091856993996
596.0, 0.021775899733305796
597.0, 0.022663196604410123
598.0, 0.019175179129882716
599.0, 0.019513467105559377
600.0, 0.021637281567596846
601.0, 0.01976933537325604
602.0, 0.018910824519571635
603.0, 0.020083119486037113
604.0, 0.015316955821943774
605.0, 0.017744278103885916
606.0, 0.019764860666046415
607.0, 0.017055972257974845
608.0, 0.017236554064518673
609.0, 0.01671207448875729
610.0, 0.016915043237897075
611.0, 0.015144131430629757
612.0, 0.014227518553978828
613.0, 0.014918990452905043
614.0, 0.015195757785262711
615.0, 0.013714271850792232
616.0, 0.01306810077716546
617.0, 0.01335054164646286
618.0, 0.011877922434265612
619.0, 0.010293753213784514
620.0, 0.010068191814308595
621.0, 0.010522435074245115
622.0, 0.01045442255904899
623.0, 0.00841214498669235
624.0, 0.0066361861335362884
625.0, 0.006217049825201127
626.0, 0.0064218591527172054
627.0, 0.0068693378786359215
628.0, 0.007499089154491265
629.0, 0.006849309134430036
630.0, 0.00512580273982992
631.0, 0.0032546931112398315
632.0, 0.0034226722630192412
633.0, 0.0030933198151538058
634.0, 0.0029142427287138775
635.0, 0.006095158846435827
636.0, 0.004283687285665406
637.0, 0.0016805004837591117
638.0, 0.0002975039975960463
639.0, 0.00044238630950001656
640.0, 0.0017069029785689127
641.0, 0.0022174702887049753
642.0, 0.0008438022240451635
643.0, 0.0004611885031034072
644.0, 0.0020041745396019626
645.0, 0.0008118513736966926
646.0, 0.0002856045780335313
647.0, 0.0013228422756420193
648.0, 0.0012708643837061866
649.0, 0.001366306562937015
650.0, 0.0002653257659760525
651.0, 0.0018422998413896992
652.0, 0.002317526381390353
653.0, 0.0013520601968295349
654.0, 0.0017776789399210982
655.0, 0.0032863187272261325
656.0, 0.0022266057538046133
657.0, 0.0007947134901624474
658.0, 0.0005392442062323772
659.0, 0.0007054820550882489
660.0, 0.0001427720455815073
661.0, 0.0019017172085961445
662.0, 0.0016111703422733794
663.0, 0.00019232933713600204
664.0, 0.002123047608749751
665.0, 0.0006685821564664081
666.0, 0.0013396391394051486
667.0, 0.0016887707688612457
668.0, 0.0006341259233413152
669.0, 0.0010554877057900036
670.0, 0.0023767113503337495
671.0, 0.0007373549361928715
672.0, 0.0011108108308625624
673.0, 0.0011328344948002423
674.0, 0.0010194581719342147
675.0, 0.00039199862464175375
676.0, 0.0014606943574443807
677.0, 0.0007880252146345455
678.0, 0.0002796672359651596
679.0, 0.0010479144535827727
680.0, 0.00047570561277379496
681.0, 0.0002493283002702716
682.0, 0.0009691555099288068
683.0, 0.001875471558913161
684.0, 0.0018299747073342435
685.0, 0.00013452789190874178
686.0, 0.0005290475701418077
687.0, 0.0007162177095630867
688.0, 0.00026965532275912465
689.0, 0.0002829897155956511
690.0, 0.0007784150356219858
691.0, 0.0008381714648398336
692.0, 0.0005516565556256461
693.0, 0.0013251024145351513
694.0, 0.001305311357543043
695.0, 0.0003461182389511989
696.0, 9.755631565784434e-05
697.0, 0.00011724902813784416
698.0, 0.0009568388640604967
699.0, 0.0016337687917331568
700.0, 0.00042407504005033994
701.0, 0.0010959066557224366
702.0, 0.0005371012884642742
703.0, 0.00029506663113437385
704.0, 0.0004785282735448376
705.0, 0.00039386549302581177
706.0, 0.0009271309293011318
707.0, 0.0004286741542512941
708.0, 0.0007531076942513854
709.0, 0.0019426097881745806
710.0, 0.0007190485959662061
711.0, 0.00072580128298149
712.0, 0.001229594201759059
713.0, 0.0008105866997908085
714.0, 0.0015956059918229733
715.0, 0.0014242497369850954
716.0, 0.0011753461299326925
717.0, 0.0011638572845741966
718.0, 0.0008150927653765874
719.0, 0.00021183959058041299
720.0, 0.0004945339644195365
721.0, 0.0007949582162312973
722.0, 0.00031030152856820735
723.0, 0.0009729151953981549
724.0, 0.00041388566324841074
725.0, 0.00011223828880038464
726.0, 0.0003181422962518555
727.0, 6.393052412114494e-05
728.0, 0.0008050428905722808
729.0, 0.0016021237728242126
730.0, 0.0029233998236498455
731.0, 0.001871827575325809
732.0, 0.001958051842262978
733.0, 0.0008864985466045522
734.0, 0.0016181496860050468
735.0, 0.0030567660400394147
736.0, 0.0030060435556628785
737.0, 0.004189517311552351
738.0, 0.005161763121046999
739.0, 0.004428125134092138
740.0, 0.004962955605391907
741.0, 0.004881691536147359
742.0, 0.004733570642668085
743.0, 0.005686847064612128
744.0, 0.0077782719677969205
745.0, 0.010623471682846733
746.0, 0.012141636235082647
747.0, 0.013437011842868038
748.0, 0.01720414731633061
749.0, 0.01971828869950797
750.0, 0.022099108408965448
751.0, 0.02614021293081364
752.0, 0.031311006363240725
753.0, 0.03705632010946334
754.0, 0.044958538543648174
755.0, 0.051708255225798055
756.0, 0.06006130024609166
757.0, 0.0696027241080397
758.0, 0.08015747290683836
759.0, 0.09097410382117933
760.0, 0.1024066866013323
761.0, 0.11550281010545609
762.0, 0.12546420565381294
763.0, 0.1336574611322841
764.0, 0.13836523803385534
765.0, 0.1434518706110181
766.0, 0.14772713672799304
767.0, 0.15247187134045065
768.0, 0.1527621086530712
769.0, 0.13792881210409674
770.0, 0.13392131383248135
771.0, 0.13132529056363307
772.0, 0.12780560414373882
773.0, 0.12184076861840647
774.0, 0.12014640242056385
775.0, 0.11982406044824757
776.0, 0.1183110860122267
777.0, 0.11976373681631972
778.0, 0.12297306686899813
779.0, 0.12425274540932921
780.0, 0.12572479808187198
781.0, 0.13227162239980741
782.0, 0.1393163193685725
783.0, 0.14236428244139215
784.0, 0.14561218103852924
785.0, 0.1526320740439508
786.0, 0.1553486161110757
787.0, 0.1562590378556112
788.0, 0.16146238527559756
789.0, 0.16504293599541187
790.0, 0.17131884961848848
791.0, 0.17845696631266764
792.0, 0.18634945183954352
793.0, 0.197317176509159
794.0, 0.2111510348817767
795.0, 0.23146200675115433
796.0, 0.25947808990199855
797.0, 0.2868655252694095
798.0, 0.317223991198572
799.0, 0.35804826899143927
800.0, 0.40623863483412487
801.0, 0.4583681184270156
802.0, 0.5165125332703477
803.0, 0.5831377633305572
804.0, 0.6572485528893536
805.0, 0.7326590151852758
806.0, 0.8038267975374607
807.0, 0.8713827667943665
808.0, 0.9317087319630948
809.0, 0.9733384204221065
810.0, 0.9932610024645436
811.0, 0.9993930809162033
812.0, 0.9845683641408415
813.0, 0.9520764001425986
814.0, 0.911883859624301
815.0, 0.8475661371820733
816.0, 0.7759029793940521
817.0, 0.6951484643289352
818.0, 0.6099151437398214
819.0, 0.5276253376777793
820.0, 0.4469537517540246
821.0, 0.3784617311267129
822.0, 0.3188500142421652
823.0, 0.2693344526998849
824.0, 0.22806031261420698
825.0, 0.19426263981717923
826.0, 0.1666740338819398
827.0, 0.14371829638684533
828.0, 0.12450433898857838
829.0, 0.10857027789321505
830.0, 0.09608071887192295
831.0, 0.08601602607588986
832.0, 0.07705396949290443
833.0, 0.06863099478655861
834.0, 0.061256609705871566
835.0, 0.05596282644756612
836.0, 0.05163870864594879
837.0, 0.047354476835599596
838.0, 0.04386074979436394
839.0, 0.039109929358664045
840.0, 0.03437416074380253
841.0, 0.031261227563143756
842.0, 0.029101454669013312
843.0, 0.02727838422465562
844.0, 0.026180070942434554
845.0, 0.024136146662560132
846.0, 0.02123890109063117
847.0, 0.02005145892474301
848.0, 0.019097870412418984
849.0, 0.01772060422809416
850.0, 0.01819736164603438
851.0, 0.015684918676815852
852.0, 0.015378336788581252
853.0, 0.014630876499781426
854.0, 0.011941617551178466
855.0, 0.011221842780133825
856.0, 0.012154887927860363
857.0, 0.009816262174822952
858.0, 0.007325405689207521
859.0, 0.007732594406319713
860.0, 0.0064279055144722845
861.0, 0.005979573862806095
862.0, 0.003556173585690649
863.0, 0.0020692174399290454
864.0, 0.002623968077185091
865.0, 0.0018336590370848442
866.0, 0.0009314090479850878
867.0, 0.0007083009156846871
868.0, 0.001261666055006708
869.0, 0.0011584762483521317
870.0, 0.0018094770703302536
871.0, 0.0007802628135665056
872.0, 0.0014027757829184033
873.0, 0.00201827663878608
874.0, 0.0020288029781387177
875.0, 0.0014270243863932282
876.0, 0.0024127387026241245
877.0, 0.0021737828032326965
878.0, 0.0010225239780028688
879.0, 0.0018346726351214154
880.0, 0.00038957551773143836
881.0, 0.0004087119522322441
882.0, 0.0022482429590623223
883.0, 0.0016745875499844405
884.0, 0.0001569303296755693
885.0, 0.001294762932138792
886.0, 0.0019016308121895748
887.0, 0.0006440937395809339
888.0, 0.000661890486632137
889.0, 0.0020802725806145406
890.0, 0.0013364175047730564
891.0, 0.0013757769194528181
892.0, 0.00028532103100067674
893.0, 0.00073386690517201
894.0, 0.0005950816824207956
895.0, 0.00033980461544867236
896.0, 0.0003313259439004877
897.0, 0.0007428568364800427
898.0, 0.0012113332420277045
899.0, 0.00030431416120392594
900.0, 0.0012911237051702672
901.0, 0.0009826383635250578
902.0, 0.00029224317405353333
903.0, 0.0011742772630406746
904.0, 0.001780784451687504
905.0, 0.002124103489376388
906.0, 0.004119067835209963
907.0, 0.0030289700350926495
908.0, 0.003023472338007864
909.0, 0.005304041849513825
910.0, 0.006744870208616008
911.0, 0.006627296868623885
912.0, 0.00757931304178349
913.0, 0.00929533287505333
914.0, 0.010255007145889124
915.0, 0.010692745298165163
916.0, 0.01140189953981838
917.0, 0.013044711036765504
918.0, 0.015827506139759577
919.0, 0.01474048021261287
920.0, 0.013074271584217931
921.0, 0.013186127832166515
922.0, 0.011869166304227604
923.0, 0.009189804323271277
924.0, 0.00791710852249359
925.0, 0.006971183113774691
926.0, 0.005430987225858201
927.0, 0.006131804296005316
928.0, 0.006637297152939457
929.0, 0.0037057838874177446
930.0, 0.005791480768075779
931.0, 0.004434975306711364
932.0, 0.00459672767402573
933.0, 0.005205690258332287
934.0, 0.005334409365451914
935.0, 0.005201926910400919
936.0, 0.004452300242161301
937.0, 0.0037721277424773887
938.0, 0.004239918117653976
939.0, 0.004179128400231652
940.0, 0.004017584655606984
941.0, 0.004111794357123226
942.0, 0.0037865961916600083
943.0, 0.003647814659666184
944.0, 0.004460715667347681
945.0, 0.005229213506595829
946.0, 0.005183301378209971
947.0, 0.004404111144801351
948.0, 0.00398079144732019
949.0, 0.004580691221033184
950.0, 0.004837545480702373
951.0, 0.00461833830778292
952.0, 0.004924875608020697
953.0, 0.005742190012963418
954.0, 0.005330806209901145
955.0, 0.005331938385590422
956.0, 0.0049171663861305275
957.0, 0.0058203196759166916
958.0, 0.0075236906552253275
959.0, 0.007456341279931374
960.0, 0.0061463867269447355
961.0, 0.006557888741571643
962.0, 0.00790029572163636
963.0, 0.00806172575343013
964.0, 0.0077656356256775964
965.0, 0.007635036649495805
966.0, 0.007401507428251956
967.0, 0.007898272225146498
968.0, 0.010059635856967898
969.0, 0.009363798386161071
970.0, 0.008129051464730627
971.0, 0.009501140947336053
972.0, 0.009869527873877558
973.0, 0.009124180762752516
974.0, 0.010052551406650794
975.0, 0.009518331472814296
976.0, 0.00943082308280724
977.0, 0.00984359909227509
978.0, 0.010142244539801205
979.0, 0.0124540063877387
980.0, 0.011806064540113839
981.0, 0.011593475702195424
982.0, 0.01252634040919847
983.0, 0.011261062051630797
984.0, 0.010088489417737524
985.0, 0.010759899837231263
986.0, 0.010612616404938139
987.0, 0.012449752590959666
988.0, 0.010460680331548126
989.0, 0.010621855358950008
990.0, 0.010837133631463531
991.0, 0.009648759857291316
992.0, 0.012199181475902562
993.0, 0.011515685892103824
994.0, 0.01034778406136056
995.0, 0.011715924332422642
996.0, 0.011104127725504478
997.0, 0.010166673029896938
998.0, 0.009814212021131294
999.0, 0.009313263182046916
1000.0, 0.010149673944658825
1001.0, 0.010195388630808586
1002.0, 0.010811339106682314
1003.0, 0.010500806446156674
1004.0, 0.01039587462592973
1005.0, 0.010492191455059495
1006.0, 0.011249569835736235
1007.0, 0.011290369059582334
1008.0, 0.009187913321478305
1009.0, 0.007741055382031815
1010.0, 0.008631187221415424
1011.0, 0.00836364062603519
1012.0, 0.007871680468716958
1013.0, 0.010198425460233519
1014.0, 0.008607091062397125
1015.0, 0.010490007303381746
1016.0, 0.01046279209808042
1017.0, 0.009603011998945194
1018.0, 0.008405350867308675
1019.0, 0.008206168947810177
1020.0, 0.009686845621734464
1021.0, 0.010297800675578906
1022.0, 0.009379771023564604
1023.0, 0.008021758668071435
1024.0, 0.006230396773345443
1025.0, 0.009792116170506831
1026.0, 0.007513870442089725
1027.0, 0.007649034902191926
1028.0, 0.006069958514346637
1029.0, 0.0043748613284035
1030.0, 0.003221830361227329
1031.0, 0.006691483701334521
1032.0, 0.006998540303630797
1033.0, 0.004322543268444188
1034.0, 0.0052989592125485116
1035.0, 0.005855324424753322
1036.0, 0.004313180409745526
1037.0, 0.0058674296859207355
1038.0, 0.0035843537226661498
1039.0, 0.005346252224237849
1040.0, 0.0017667189163050132
1041.0, 0.0024199835315538393
1042.0, 0.004658446511609335
1043.0, 0.0029646547935610486
1044.0, 0.00235202663216254
1045.0, 0.0015678160813122654
1046.0, 0.00432124007731716
1047.0, 0.002467686315715699
1048.0, 0.0008149228988351088
1049.0, 0.0033885151906022735
1050.0, 0.005091820644712612
1051.0, 0.00631250341910568
1052.0, 0.0062865975217624845
1053.0, 0.006232106270981048
1054.0, 0.005109265388456164
1055.0, 0.004590006620921797
1056.0, 0.006072984188684163
1057.0, 0.004995317141133771
1058.0, 0.005545762769435687
1059.0, 0.004416699542121284
1060.0, 0.00462870689430217
1061.0, 0.004819130073641867
1062.0, 0.003753261157627855
1063.0, 0.00559353586630126
1064.0, 0.006506438071734127
1065.0, 0.005752489992506644
1066.0, 0.009667048556860548
1067.0, 0.008228170020152406
1068.0, 0.005297354286165131
1069.0, 0.008870812328938413
1070.0, 0.008910857282542728
1071.0, 0.006438328007177679
1072.0, 0.009791013863482523
1073.0, 0.00885615566838589
1074.0, 0.007861811137270379
1075.0, 0.00862878414707094
1076.0, 0.0065656873710513465
1077.0, 0.008870141639061527
1078.0, 0.009603641825092935
1079.0, 0.010281394633649686
1080.0, 0.011282145074841205
1081.0, 0.00682675821252427
1082.0, 0.004930903970637188
1083.0, 0.009571022045462433
1084.0, 0.014531760596587713
1085.0, 0.011784352215014891
1086.0, 0.011397728277428895
1087.0, 0.008585621154535351
1088.0, 0.010046772408575887
1089.0, 0.006894440958097141
1090.0, 0.008171005914214862
1091.0, 0.012342367249141487
1092.0, 0.008136292471398078
1093.0, 0.004830005748173203
1094.0, 0.008761676493114882
1095.0, 0.009088608860963774
1096.0, 0.007088189047985997
1097.0, 0.008629192596363076
1098.0, 0.0062672094620425944
1099.0, 0.007279389460720156
1100.0, 0.008071939639314872
1101.0, 0.003886774444289368
1102.0, 0.0026955015604335523
1103.0, 0.003994092943504905
1104.0, 0.0022010167424339772
1105.0, 0.0004805258993794349
1106.0, 0.003910459083741779
1107.0, 0.0067561870983337295
1108.0, 0.004236900894081275
1109.0, 0.0023808162655161863
1110.0, 0.003761489436088207
1111.0, 0.0018606755549722084
1112.0, 0.006295409762643458
1113.0, 0.004056381257476217
1114.0, 0.0003739428275479455
1115.0, 0.0035514422848097246
1116.0, 0.007171407323727366
1117.0, 0.008525885772276835
1118.0, 0.010104605687321747
1119.0, 0.007136428254164315
1120.0, 0.012385677387004914
1121.0, 0.007709498506679476
1122.0, 0.009427922419297331
1123.0, 0.01127730293702455
1124.0, 0.009825941791385817
1125.0, 0.008638783525558393
1126.0, 0.013185541449389054
1127.0, 0.013117641815775452
1128.0, 0.010456257300486809
1129.0, 0.01261839288820258
1130.0, 0.008063914056193664
1131.0, 0.011065617031169128
1132.0, 0.015928555133908097
1133.0, 0.012684971249230256
1134.0, 0.01609909358213076
1135.0, 0.018625323759819228
1136.0, 0.012538708145655428
1137.0, 0.009853843768077351
1138.0, 0.012530762120144898
1139.0, 0.011852637667852006
1140.0, 0.014621236815988304
1141.0, 0.011858535076028028
1142.0, 0.016290621104814745
1143.0, 0.00945301692198625
1144.0, 0.014923935179670353
1145.0, 0.01323812488129282
1146.0, 0.013963567890599429
1147.0, 0.013533127750317064
1148.0, 0.010359886719168541
1149.0, 0.01488134787851526
1150.0, 0.016900350201364097
1151.0, 0.016230746537790382
1152.0, 0.016039774812439275
1153.0, 0.013940262201615069
1154.0, 0.011894686961542592
1155.0, 0.012059054778000497
1156.0, 0.014159407872367542
1157.0, 0.009318512422298362
1158.0, 0.006311452307054339
1159.0, 0.0020509214871566443
1160.0, 0.005088145201620736
1161.0, 0.005459644093002494
1162.0, 0.0003022508647209022
1163.0, 0.0016916481656676122
1164.0, 0.0019645742384213453
1165, 0.0
1166, 0.0
1167, 0.0
1168, 0.0
1169, 0.0
1170, 0.0
1171, 0.0
1172, 0.0
1173, 0.0
1174, 0.0
1175, 0.0
1176, 0.0
1177, 0.0
1178, 0.0
1179, 0.0
1180, 0.0
1181, 0.0
1182, 0.0
1183, 0.0
1184, 0.0
1185, 0.0
1186, 0.0
1187, 0.0
1188, 0.0
1189, 0.0
1190, 0.0
1191, 0.0
1192, 0.0
1193, 0.0
1194, 0.0
1195, 0.0
1196, 0.0
1197, 0.0
1198, 0.0
1199, 0.0
1200, 0.0
1201, 0.0
1202, 0.0
1203, 0.0
1204, 0.0
1205, 0.0
1206, 0.0
1207, 0.0
1208, 0.0
1209, 0.0
1210, 0.0
1211, 0.0
1212, 0.0
1213, 0.0
1214, 0.0
1215, 0.0
1216, 0.0
1217, 0.0
1218, 0.0
1219, 0.0
1220, 0.0
1221, 0.0
1222, 0.0
1223, 0.0
1224, 0.0
1225, 0.0
1226, 0.0
1227, 0.0
1228, 0.0
1229, 0.0
1230, 0.0
1231, 0.0
1232, 0.0
1233, 0.0
1234, 0.0
1235, 0.0
1236, 0.0
1237, 0.0
1238, 0.0
1239, 0.0
1240, 0.0
1241, 0.0
1242, 0.0
1243, 0.0
1244, 0.0
1245, 0.0
1246, 0.0
1247, 0.0
1248, 0.0
1249, 0.0
1250, 0.0
1251, 0.0
1252, 0.0
1253, 0.0
1254, 0.0
1255, 0.0
1256, 0.0
1257, 0.0
1258, 0.0
1259, 0.0
1260, 0.0
1261, 0.0
1262, 0.0
1263, 0.0
1264, 0.0
1265, 0.0
1266, 0.0
1267, 0.0
1268, 0.0
1269, 0.0
1270, 0.0
1271, 0.0
1272, 0.0
1273, 0.0
1274, 0.0
1275, 0.0
1276, 0.0
1277, 0.0
1278, 0.0
1279, 0.0
1280, 0.0
1281, 0.0
1282, 0.0
1283, 0.0
1284, 0.0
1285, 0.0
1286, 0.0
1287, 0.0
1288, 0.0
1289, 0.0
1290, 0.0
1291, 0.0
1292, 0.0
1293, 0.0
1294, 0.0
1295, 0.0
1296, 0.0
1297, 0.0
1298, 0.0
1299, 0.0
1300, 0.0
1301, 0.0
1302, 0.0
1303, 0.0
1304, 0.0
1305, 0.0
1306, 0.0
1307, 0.0
1308, 0.0
1309, 0.0
1310, 0.0
1311, 0.0
1312, 0.0
1313, 0.0
1314, 0.0
1315, 0.0
1316, 0.0
1317, 0.0
1318, 0.0
1319, 0.0
1320, 0.0
1321, 0.0
1322, 0.0
1323, 0.0
1324, 0.0
1325, 0.0
1326, 0.0
1327, 0.0
1328, 0.0
1329, 0.0
1330, 0.0
1331, 0.0
1332, 0.0
1333, 0.0
1334, 0.0
1335, 0.0
1336, 0.0
1337, 0.0
1338, 0.0
1339, 0.0
1340, 0.0
1341, 0.0
1342, 0.0
1343, 0.0
1344, 0.0
1345, 0.0
1346, 0.0
1347, 0.0
1348, 0.0
1349, 0.0
1350, 0.0
1351, 0.0
1352, 0.0
1353, 0.0
1354, 0.0
1355, 0.0
1356, 0.0
1357, 0.0
1358, 0.0
1359, 0.0
1360, 0.0
1361, 0.0
1362, 0.0
1363, 0.0
1364, 0.0
1365, 0.0
1366, 0.0
1367, 0.0
1368, 0.0
1369, 0.0
1370, 0.0
1371, 0.0
1372, 0.0
1373, 0.0
1374, 0.0
1375, 0.0
1376, 0.0
1377, 0.0
1378, 0.0
1379, 0.0
1380, 0.0
1381, 0.0
1382, 0.0
1383, 0.0
1384, 0.0
1385, 0.0
1386, 0.0
1387, 0.0
1388, 0.0
1389, 0.0
1390, 0.0
1391, 0.0
1392, 0.0
1393, 0.0
1394, 0.0
1395, 0.0
1396, 0.0
1397, 0.0
1398, 0.0
1399, 0.0
1400, 0.0
1401, 0.0
1402, 0.0
1403, 0.0
1404, 0.0
1405, 0.0
1406, 0.0
1407, 0.0
1408, 0.0
1409, 0.0
1410, 0.0
1411, 0.0
1412, 0.0
1413, 0.0
1414, 0.0
1415, 0.0
1416, 0.0
1417, 0.0
1418, 0.0
1419, 0.0
1420, 0.0
1421, 0.0
1422, 0.0
1423, 0.0
1424, 0.0
1425, 0.0
1426, 0.0
1427, 0.0
1428, 0.0
1429, 0.0
1430, 0.0
1431, 0.0
1432, 0.0
1433, 0.0
1434, 0.0
1435, 0.0
1436, 0.0
1437, 0.0
1438, 0.0
1439, 0.0
1440, 0.0
1441, 0.0
1442, 0.0
1443, 0.0
1444, 0.0
1445, 0.0
1446, 0.0
1447, 0.0
1448, 0.0
1449, 0.0
1450, 0.0
1451, 0.0
1452, 0.0
1453, 0.0
1454, 0.0
1455, 0.0
1456, 0.0
1457, 0.0
1458, 0.0
1459, 0.0
1460, 0.0
1461, 0.0
1462, 0.0
1463, 0.0
1464, 0.0
1465, 0.0
1466, 0.0
1467, 0.0
1468, 0.0
1469, 0.0
1470, 0.0
1471, 0.0
1472, 0.0
1473, 0.0
1474, 0.0
1475, 0.0
1476, 0.0
1477, 0.0
1478, 0.0
1479, 0.0
1480, 0.0
1481, 0.0
1482, 0.0
1483, 0.0
1484, 0.0
1485, 0.0
1486, 0.0
1487, 0.0
1488, 0.0
1489, 0.0
1490, 0.0
1491, 0.0
1492, 0.0
1493, 0.0
1494, 0.0
1495, 0.0
1496, 0.0
1497, 0.0
1498, 0.0
1499, 0.0
1500, 0.0
1501, 0.0
1502, 0.0
1503, 0.0
1504, 0.0
1505, 0.0
1506, 0.0
1507, 0.0
1508, 0.0
1509, 0.0
1510, 0.0
1511, 0.0
1512, 0.0
1513, 0.0
1514, 0.0
1515, 0.0
1516, 0.0
1517, 0.0
1518, 0.0
1519, 0.0
1520, 0.0
1521, 0.0
1522, 0.0
1523, 0.0
1524, 0.0
1525, 0.0
1526, 0.0
1527, 0.0
1528, 0.0
1529, 0.0
1530, 0.0
1531, 0.0
1532, 0.0
1533, 0.0
1534, 0.0
1535, 0.0
1536, 0.0
1537, 0.0
1538, 0.0
1539, 0.0
1540, 0.0
1541, 0.0
1542, 0.0
1543, 0.0
1544, 0.0
1545, 0.0
1546, 0.0
1547, 0.0
1548, 0.0
1549, 0.0
1550, 0.0
1551, 0.0
1552, 0.0
1553, 0.0
1554, 0.0
1555, 0.0
1556, 0.0
1557, 0.0
1558, 0.0
1559, 0.0
1560, 0.0
1561, 0.0
1562, 0.0
1563, 0.0
1564, 0.0
1565, 0.0
1566, 0.0
1567, 0.0
1568, 0.0
1569, 0.0
1570, 0.0
1571, 0.0
1572, 0.0
1573, 0.0
1574, 0.0
1575, 0.0
1576, 0.0
1577, 0.0
1578, 0.0
1579, 0.0
1580, 0.0
1581, 0.0
1582, 0.0
1583, 0.0
1584, 0.0
1585, 0.0
1586, 0.0
1587, 0.0
1588, 0.0
1589, 0.0
1590, 0.0
1591, 0.0
1592, 0.0
1593, 0.0
1594, 0.0
1595, 0.0
1596, 0.0
1597, 0.0
1598, 0.0
1599, 0.0
