30, 0.0
31, 0.0
32, 0.0
33, 0.0
34, 0.0
35, 0.0
36, 0.0
37, 0.0
38, 0.0
39, 0.0
40, 0.0
41, 0.0
42, 0.0
43, 0.0
44, 0.0
45, 0.0
46, 0.0
47, 0.0
48, 0.0
49, 0.0
50.0, 1.0248265943980156e-05
51.0, 0.0003927696688216704
52.0, 0.001967982718781053
53.0, 0.002315089508352457
54.0, 0.0030208168853240493
55.0, 0.004498209636430749
56.0, 0.005554575492448167
57.0, 0.007178146850066793
58.0, 0.008970420513920104
59.0, 0.010250537411993934
60.0, 0.010969726943021263
61.0, 0.011227621428511744
62.0, 0.011004193310233617
63.0, 0.010051967244002511
64.0, 0.009495021041000312
65.0, 0.009098293961448033
66.0, 0.008506974501279302
67.0, 0.007575828279158744
68.0, 0.006425083659677174
69.0, 0.005158550482038818
70.0, 0.0054463811826953885
71.0, 0.004858835227772521
72.0, 0.003858106813806529
73.0, 0.0030230337306738297
74.0, 0.0031172208847025937
75.0, 0.002436982523135775
76.0, 0.0007419291128653977
77.0, 0.00020405770884140322
78.0, 0.0005195060467918536
79.0, 0.0010841177939774462
80.0, 0.0011729782451923975
81.0, 0.0007288325856833462
82.0, 0.0005546852181782763
83.0, 0.0008943828508708098
84.0, 0.0027318748369843156
85.0, 0.0044445060760424804
86.0, 0.006355999815049001
87.0, 0.008880373583714173
88.0, 0.01204254097206442
89.0, 0.015148345688874432
90.0, 0.018190369831061155
91.0, 0.021735683436572683
92.0, 0.027182938398205337
93.0, 0.033451992554955595
94.0, 0.03986295900770676
95.0, 0.049848996685759844
96.0, 0.06105543105371398
97.0, 0.07300961947067308
98.0, 0.08450770921161942
99.0, 0.09373754045027458
100.0, 0.09996862384551257
101.0, 0.10215006188058867
102.0, 0.10248176430847314
103.0, 0.10152289941305548
104.0, 0.09968935264139449
105.0, 0.09803484009867136
106.0, 0.09532336013216774
107.0, 0.09261920215142203
108.0, 0.09036406728105857
109.0, 0.0889311384029557
110.0, 0.088100721612537
111.0, 0.08736426662312304
112.0, 0.08562984762172532
113.0, 0.08500283841072172
114.0, 0.08377848729707417
115.0, 0.08151624607690654
116.0, 0.07930478471943878
117.0, 0.07731597804128797
118.0, 0.07544173812628126
119.0, 0.07356851030876298
120.0, 0.07242205873476375
121.0, 0.0716948392038611
122.0, 0.07127988765988437
123.0, 0.07069740842896426
124.0, 0.07065321598674155
125.0, 0.07071686908355188
126.0, 0.070556690648274
127.0, 0.07026230350592631
128.0, 0.069554757040534
129.0, 0.06852568097969597
130.0, 0.06755860005603587
131.0, 0.06924375202773846
132.0, 0.07041845244416944
133.0, 0.06952650766175904
134.0, 0.06862045466752796
135.0, 0.0687051392792599
136.0, 0.06905502969020849
137.0, 0.06812184660040578
138.0, 0.06909236688614671
139.0, 0.069503572559927
140.0, 0.06885330356830151
141.0, 0.06937169045418295
142.0, 0.06954666053174599
143.0, 0.06945276758463208
144.0, 0.06910300800952439
145.0, 0.0685802098381643
146.0, 0.06824387796838932
147.0, 0.06799025532348474
148.0, 0.06705753893311435
149.0, 0.06615703284804139
150.0, 0.06524603510831449
151.0, 0.06429810572842352
152.0, 0.06427697463321051
153.0, 0.06423084328187062
154.0, 0.06377373708277585
155.0, 0.06189681294206007
156.0, 0.06139421078461312
157.0, 0.06078111591828033
158.0, 0.059824714345054
159.0, 0.061147446512988535
160.0, 0.06133732514229894
161.0, 0.06149962309876755
162.0, 0.06288178904179398
163.0, 0.062342065770666595
164.0, 0.06157962004433374
165.0, 0.06103840973422133
166.0, 0.06197278719564268
167.0, 0.06165001882313564
168.0, 0.06140939328025345
169.0, 0.06192101272348281
170.0, 0.06132959039431018
171.0, 0.06109926357332202
172.0, 0.06076338584770717
173.0, 0.05938672915814477
174.0, 0.05817295563043997
175.0, 0.05765298350793299
176.0, 0.05769223522104728
177.0, 0.0561124979981981
178.0, 0.05527373967413159
179.0, 0.054435450920177444
180.0, 0.05301727226899442
181.0, 0.05247698398875021
182.0, 0.051397938690050986
183.0, 0.050022028717364594
184.0, 0.04917382800782107
185.0, 0.048409027713730776
186.0, 0.04754155917071683
187.0, 0.04652636176195838
188.0, 0.04563610298819119
189.0, 0.044576101186847204
190.0, 0.04323085096696896
191.0, 0.0414100919473954
192.0, 0.04073369568266158
193.0, 0.039665554105781674
194.0, 0.03823317930118637
195.0, 0.03699635447805321
196.0, 0.03592120903624819
197.0, 0.03499793866562093
198.0, 0.03422921157298082
199.0, 0.03346146855664145
200.0, 0.032434372603504465
201.0, 0.03126139266847471
202.0, 0.030057305768144738
203.0, 0.029093046764060618
204.0, 0.02802189312902344
205.0, 0.026903865335367518
206.0, 0.02616887923052698
207.0, 0.025857136493637287
208.0, 0.02524134347642862
209.0, 0.02402061257814854
210.0, 0.023610591089976565
211.0, 0.023000606452350608
212.0, 0.022195184895490244
213.0, 0.021158157717212023
214.0, 0.020795054157830298
215.0, 0.020072656371912367
216.0, 0.019091300700987076
217.0, 0.018807312979733648
218.0, 0.01803616437342324
219.0, 0.017150822368582886
220.0, 0.016293636666325675
221.0, 0.015266417775766414
222.0, 0.01521254324049729
223.0, 0.015155081299805386
224.0, 0.013831280176606184
225.0, 0.013214774743462844
226.0, 0.01322674984687794
227.0, 0.013559041795482701
228.0, 0.013110630381711851
229.0, 0.012590666011468613
230.0, 0.012080245297512683
231.0, 0.0116283835897115
232.0, 0.011550744900557052
233.0, 0.010746379949895468
234.0, 0.009803244979047873
235.0, 0.009316692526579816
236.0, 0.009366863541654967
237.0, 0.009345693143585262
238.0, 0.009121644359509155
239.0, 0.00840013075576105
240.0, 0.007910504255495613
241.0, 0.007611817718300339
242.0, 0.007385385105222854
243.0, 0.006095338208724091
244.0, 0.006136545640638403
245.0, 0.006279923348119105
246.0, 0.00560487901781517
247.0, 0.005266065775551073
248.0, 0.004547017669005601
249.0, 0.0038379783264510378
250.0, 0.003975094538660378
251.0, 0.0042274422288670925
252.0, 0.0039037131374394978
253.0, 0.0030783875444348884
254.0, 0.002879160671543891
255.0, 0.0019290881978388922
256.0, 0.0014425268891725858
257.0, 0.0020068638568898184
258.0, 0.0019854531381494982
259.0, 0.0015666934433579151
260.0, 0.0012352330823372521
261.0, 0.0016117588057891024
262.0, 0.0013901516171321061
263.0, 0.0012022570014118244
264.0, 0.0010372217850813617
265.0, 0.0006943414767928861
266.0, 0.0003515454602589952
267.0, 0.00043446995617747036
268.0, 0.0009452738794271482
269.0, 0.0007356013216480145
270.0, 0.00036566552667127727
271.0, 0.0002864142013240086
272.0, 0.0008282245888528612
273.0, 0.000607573232632803
274.0, 0.00030037547584296667
275.0, 0.00010503335506484418
276.0, 0.00035306060484769687
277.0, 0.000252425665461189
278.0, 0.00043450698375140475
279.0, 0.0007127704924817665
280.0, 0.00012160488598384248
281.0, 7.836963941051804e-05
282.0, 0.0004273858213943314
283.0, 0.0010352922053012505
284.0, 0.0008573662868396687
285.0, 0.000764080599592171
286.0, 0.0010331820903345182
287.0, 0.0019026250071601395
288.0, 0.0020122183074736673
289.0, 0.0025506818951381285
290.0, 0.003296416452347243
291.0, 0.003901805461199498
292.0, 0.004535583612052792
293.0, 0.005174886573024031
294.0, 0.005830880757426289
295.0, 0.006553798570185992
296.0, 0.007098907455943004
297.0, 0.007806983236854213
298.0, 0.008735786135745244
299.0, 0.009462602673338314
300.0, 0.010082134951573982
301.0, 0.01110397045589688
302.0, 0.012862986885192147
303.0, 0.014257102094592794
304.0, 0.01524886142822792
305.0, 0.016146140146259366
306.0, 0.017336456963955093
307.0, 0.018183876355376896
308.0, 0.01926031737339666
309.0, 0.020366468579853407
310.0, 0.020875407585276864
311.0, 0.02103083759962435
312.0, 0.021173557863813065
313.0, 0.021346813304210618
314.0, 0.02139803706030041
315.0, 0.021280069474820324
316.0, 0.021740845172315424
317.0, 0.02294328270076976
318.0, 0.021980638660087128
319.0, 0.022217596143330853
320.0, 0.02252559050118932
321.0, 0.021989572796718312
322.0, 0.0225377101149049
323.0, 0.023403873581592603
324.0, 0.024156099973392804
325.0, 0.024121377060908986
326.0, 0.024543776965724122
327.0, 0.02535400339063449
328.0, 0.02638623367481909
329.0, 0.02720950970817312
330.0, 0.028066279934206496
331.0, 0.028831085594672467
332.0, 0.02946749909330158
333.0, 0.029936826471350653
334.0, 0.03051433861081626
335.0, 0.031058775575478384
336.0, 0.03150599068665328
337.0, 0.03182683575711227
338.0, 0.031794146856106494
339.0, 0.03167412097071857
340.0, 0.0316567070762122
341.0, 0.03057229910144587
342.0, 0.029547594023730486
343.0, 0.028415936031924518
344.0, 0.02694562766846652
345.0, 0.02643587060826343
346.0, 0.025001146675253327
347.0, 0.023077810495850865
348.0, 0.021871856256891618
349.0, 0.020207172414874363
350.0, 0.019630732437850202
351.0, 0.01966821997677036
352.0, 0.017606186859215667
353.0, 0.01799963806482029
354.0, 0.01827253463883223
355.0, 0.01777655446188613
356.0, 0.0172438525444909
357.0, 0.017918178072064413
358.0, 0.018975912522351687
359.0, 0.020079540496524006
360.0, 0.02182693897932724
361.0, 0.023754052790522277
362.0, 0.025861057121713094
363.0, 0.028161215003430204
364.0, 0.03103039396887356
365.0, 0.034019237590824605
366.0, 0.037209521495458656
367.0, 0.04071841525177631
368.0, 0.04264677171302784
369.0, 0.044055171107448145
370.0, 0.044766337741659466
371.0, 0.04427191888868419
372.0, 0.04348891970519225
373.0, 0.04132121951614385
374.0, 0.03824501018107648
375.0, 0.0359142111151192
376.0, 0.03308812481009542
377.0, 0.030667991833014482
378.0, 0.028732529455529725
379.0, 0.02681740029866615
380.0, 0.02494472063384744
381.0, 0.02355979079502489
382.0, 0.022711080891205666
383.0, 0.021666032715120846
384.0, 0.021091075032771644
385.0, 0.020749977593398958
386.0, 0.02048774526171001
387.0, 0.01960073698715943
388.0, 0.019269431718472268
389.0, 0.019087173925692556
390.0, 0.0187846219684562
391.0, 0.018127380498812285
392.0, 0.018044401091408247
393.0, 0.017886819875793346
394.0, 0.0170440907890576
395.0, 0.0175179986277641
396.0, 0.017691436240441623
397.0, 0.01759048025856258
398.0, 0.01725662333408268
399.0, 0.017461708423488084
400.0, 0.017164359705474325
401.0, 0.016769474247952085
402.0, 0.017078108122206642
403.0, 0.0176073830170663
404.0, 0.01846457590033115
405.0, 0.01941467483891714
406.0, 0.019891258787027015
407.0, 0.02012565244677529
408.0, 0.02027247560087616
409.0, 0.02050040728842669
410.0, 0.021262142911489954
411.0, 0.022365241526355974
412.0, 0.023691268324211687
413.0, 0.025122536676504735
414.0, 0.026283870113806795
415.0, 0.02765381632460956
416.0, 0.028892761195953284
417.0, 0.0301446156555883
418.0, 0.03271408642026577
419.0, 0.0322769720298325
420.0, 0.032025204877725894
421.0, 0.032751708030701945
422.0, 0.031821191038026726
423.0, 0.03055776954427661
424.0, 0.028948239806346213
425.0, 0.027031972896574347
426.0, 0.025385096283773684
427.0, 0.02321203778879999
428.0, 0.021030834342744584
429.0, 0.019105952720705175
430.0, 0.01714560666439832
431.0, 0.016331762346724198
432.0, 0.015149150558788089
433.0, 0.01273330205898532
434.0, 0.012344929207973069
435.0, 0.011914250388800016
436.0, 0.011118385046980523
437.0, 0.009732820495551908
438.0, 0.009448407776546102
439.0, 0.00870220025215435
440.0, 0.007854165747395793
441.0, 0.007221901957799057
442.0, 0.006184577765494227
443.0, 0.00578755939667007
444.0, 0.0053234068609078295
445.0, 0.004060198546200173
446.0, 0.0037475706389871843
447.0, 0.0035332958487083142
448.0, 0.0034035711515173423
449.0, 0.003356135339169734
450.0, 0.0032643098303482498
451.0, 0.002681583727190396
452.0, 0.0019847472554022963
453.0, 0.0016655215286940817
454.0, 0.0017373154304089475
455.0, 0.0014079656958350198
456.0, 0.0011079388882121442
457.0, 0.0014793737411332346
458.0, 0.0011463254299076398
459.0, 0.0012734379567562815
460.0, 0.001482678271502801
461.0, 0.0011306381980281696
462.0, 0.0008777520160379952
463.0, 0.0009525455379596167
464.0, 0.0009946158020455085
465.0, 0.00041512224566208684
466.0, 0.0004728055176149574
467.0, 0.00048801459917832777
468.0, 0.00042903237977766557
469.0, 0.000314910470882508
470.0, 0.0006944422957608363
471.0, 0.0008978926119114795
472.0, 0.0007850895640220512
473.0, 0.00018728984788995496
474.0, 0.0005755507890415613
475.0, 0.0005692366705942908
476.0, 0.0004707406217521397
477.0, 0.0009567616580224603
478.0, 0.0004276232766034156
479.0, 0.0003538275519520595
480.0, 0.00050586239124122
481.0, 0.0003267255631070114
482.0, 0.0001896389117855336
483.0, 0.00022181878073143993
484.0, 0.00026543254666619345
485.0, 4.758586476920091e-05
486.0, 4.206772180446151e-05
487.0, 8.13014230016598e-05
488.0, 0.0002367319527808231
489.0, 0.0006431660794559915
490.0, 0.0003360903034629001
491.0, 0.00023648713478099592
492.0, 0.00026237483346645466
493.0, 0.0002129128378192799
494.0, 0.0002865686174666062
495.0, 0.0002820569018033734
496.0, 0.00019146160866592
497.0, 1.5743280062234215e-05
498.0, 0.0001314484338872338
499.0, 0.0001253433537234424
500.0, 0.00014715970195738098
501.0, 0.00041178007845775347
502.0, 0.00025058908664602993
503.0, 0.00015596721373518495
504.0, 0.00019542226220420626
505.0, 0.0004322139630665975
506.0, 0.00046103604138744925
507.0, 0.0005869664225195794
508.0, 0.0006955310712186172
509.0, 0.0006628965547236414
510.0, 0.0009184699570111236
511.0, 0.0007672577677624168
512.0, 0.00042580383417137595
513.0, 0.00010912381824382356
514.0, 0.00037661005324868594
515.0, 0.0005024170358984243
516.0, 0.000515394554725543
517.0, 0.00045062716333733963
518.0, 0.0006148360835734857
519.0, 0.0006695535538929173
520.0, 0.0006368999303098439
521.0, 0.0005529125423364603
522.0, 0.0007558725944178255
523.0, 0.0006275180984991304
524.0, 0.0005117133784077525
525.0, 0.0005796963108407239
526.0, 0.00046692219764731153
527.0, 0.00035466661775948317
528.0, 0.00038575216601406627
529.0, 0.0005801368214058168
530.0, 0.0005303143053011249
531.0, 0.0006227683281428327
532.0, 0.0006462135358079029
533.0, 0.0005452543089085161
534.0, 0.0004979502269309229
535.0, 0.00051229903617097
536.0, 0.00034920169953538214
537.0, 5.567709366431959e-05
538.0, 0.0001846304778521519
539.0, 0.00011849509753405162
540.0, 0.00014499277233793317
541.0, 0.00032979055379717863
542.0, 0.0006511939867800015
543.0, 0.00033081355055109745
544.0, 0.00011329546224056216
545.0, 0.00011376072741942963
546.0, 0.00027144402269498193
547.0, 0.00019298190977756524
548.0, 0.00010965203598582501
549.0, 8.901357349194536e-05
550.0, 0.00020466826431796758
551.0, 6.561502989631859e-05
552.0, 2.299133045132923e-05
553.0, 0.00015891937821821596
554.0, 0.0005532738606514226
555.0, 0.0005153423311230785
556.0, 0.0006253902858234548
557.0, 0.000601913814903127
558.0, 0.00011017030998076314
559.0, 0.00022651801292243492
560.0, 0.0005657703102573186
561.0, 0.0006516834033903449
562.0, 0.0001290139169426692
563.0, 8.736326674038583e-05
564.0, 0.00018828415451348189
565.0, 0.00024941184484855906
566.0, 0.00018042684885784659
567.0, 0.00022367882767449388
568.0, 0.00010433969902197541
569.0, 0.00010453469869392399
570.0, 0.0003050101375178949
571.0, 0.00042612520397179867
572.0, 0.00037928707233106243
573.0, 0.0003274411175826268
574.0, 0.0002774607685517202
575.0, 5.97098802804401e-05
576.0, 0.00045815848014496026
577.0, 0.0005378611965489296
578.0, 0.0002930297385514892
579.0, 0.00020360120503424507
580.0, 0.0004033986675998409
581.0, 0.0003589938824841055
582.0, 0.0001507243065227618
583.0, 3.2295224501888435e-05
584.0, 0.0002334063833131603
585.0, 0.00027735375153643994
586.0, 0.00022872837024880585
587.0, 0.00019693652613109256
588.0, 5.385518013576909e-05
589.0, 1.4093537061267434e-05
590.0, 9.078759622883757e-05
591.0, 0.00028229323396063746
592.0, 0.0004286171525575893
593.0, 0.000552110152581716
594.0, 0.0006868417681550725
595.0, 0.0008044359667391331
596.0, 0.0005675997286674263
597.0, 0.0007798107422973624
598.0, 0.0008073005538882256
599.0, 0.0005820588665609561
600.0, 0.0007265665576587118
601.0, 0.00083169809058847
602.0, 0.000896903093902523
603.0, 0.0009336366102079865
604.0, 0.0009701661414530079
605.0, 0.0011877184690402582
606.0, 0.0009467037563204743
607.0, 0.0006690668412522355
608.0, 0.0011027516826511504
609.0, 0.0007474465999085398
610.0, 0.0009136204836012089
611.0, 0.0013395487765691396
612.0, 0.0016905844475226398
613.0, 0.0011102016636141386
614.0, 0.001126022503005776
615.0, 0.0010811228773707129
616.0, 0.0006823589792486768
617.0, 0.000834220003956364
618.0, 0.0005764915437353377
619.0, 0.0004344613890484641
620.0, 0.0005551481851112379
621.0, 0.0007513991196057543
622.0, 0.0010009289858220302
623.0, 0.0010734484853909955
624.0, 0.0009076642524042261
625.0, 0.00047229571429860883
626.0, 0.0012272221200325887
627.0, 0.0010516960479829856
628.0, 0.00046893650813006253
629.0, 0.00043394989221011003
630.0, 0.0005516131310797928
631.0, 0.000411347910341093
632.0, 0.00023587835429217334
633.0, 0.00023423380211108375
634.0, 0.000715866914965969
635.0, 0.00038434816892515106
636.0, 0.00026056508310601543
637.0, 0.0006132542483409085
638.0, 0.00037476632628969753
639.0, 0.0008118749599138281
640.0, 0.0007685062893741999
641.0, 0.0003310336340118246
642.0, 0.0004822828048239835
643.0, 0.0006359860601249132
644.0, 0.0004526735110537608
645.0, 0.00013755922908550977
646.0, 4.03254221021305e-05
647.0, 0.0003820376412365106
648.0, 0.0008464748434620974
649.0, 0.0011885580565283175
650.0, 0.0012032529888569249
651.0, 0.0007830050634432314
652.0, 0.0004878787812989361
653.0, 0.0003931705248746512
654.0, 0.0004886043450449003
655.0, 0.0005738452713512049
656.0, 0.0006097969357119538
657.0, 0.0006707947518539806
658.0, 0.0008164713392221983
659.0, 0.001143278362411859
660.0, 0.0009324624161843506
661.0, 0.0010106359546007942
662.0, 0.001192521692725951
663.0, 0.001174640347293239
664.0, 0.0010943866668337075
665.0, 0.0010169757487072878
666.0, 0.001111495590691924
667.0, 0.0014035142554526246
668.0, 0.0012667777695371338
669.0, 0.0012961516628830806
670.0, 0.0013052772118185103
671.0, 0.0013193668647422101
672.0, 0.0016099427669168432
673.0, 0.0019520959457235297
674.0, 0.0019670202567777257
675.0, 0.0020474080196902222
676.0, 0.0028685182834195916
677.0, 0.0019122984472955205
678.0, 0.0021741991842538872
679.0, 0.0025314934854171536
680.0, 0.0022007267300103808
681.0, 0.003093920693583127
682.0, 0.0032033494458495798
683.0, 0.0030105013548520037
684.0, 0.0028771350536772973
685.0, 0.0034255276240423914
686.0, 0.00398878844393566
687.0, 0.003945099678541067
688.0, 0.0036773949434862514
689.0, 0.0040218631043032905
690.0, 0.004118231775697208
691.0, 0.0043136824441093805
692.0, 0.004341758739816012
693.0, 0.004075156539947795
694.0, 0.004766153654102832
695.0, 0.005401040870360858
696.0, 0.005920184534722218
697.0, 0.006165054716289795
698.0, 0.005636229273695429
699.0, 0.0064590374659170115
700.0, 0.006676342522207351
701.0, 0.0066191424675210615
702.0, 0.007362156683443747
703.0, 0.0077703020417440255
704.0, 0.00755211763824582
705.0, 0.007519937914102606
706.0, 0.008198786420535802
707.0, 0.008345292224488435
708.0, 0.008852874321517703
709.0, 0.009303640405448817
710.0, 0.0095953307593341
711.0, 0.009884089125461744
712.0, 0.009922338612566545
713.0, 0.010464702740994801
714.0, 0.01138915674919506
715.0, 0.012363414524190831
716.0, 0.011454560900565984
717.0, 0.012184256433724193
718.0, 0.012827252163614113
719.0, 0.012618839090913499
720.0, 0.0138687745676575
721.0, 0.013966494049060835
722.0, 0.014546878434462637
723.0, 0.015344769277612037
724.0, 0.014751800289646769
725.0, 0.016066362863170956
726.0, 0.01706455670840527
727.0, 0.017993354937276215
728.0, 0.019145433177586015
729.0, 0.01870831654197709
730.0, 0.01985761097875345
731.0, 0.020752108276509935
732.0, 0.021120150175218327
733.0, 0.023027117713926768
734.0, 0.023623871299645213
735.0, 0.02401973518560986
736.0, 0.024633427243444393
737.0, 0.02580919655515901
738.0, 0.027713721150196626
739.0, 0.028431965891755645
740.0, 0.029636706904558215
741.0, 0.03196530397370299
742.0, 0.032579814018958
743.0, 0.03349394706376277
744.0, 0.03535430154357122
745.0, 0.03786924099241976
746.0, 0.04008120389908351
747.0, 0.04225059379916358
748.0, 0.04413790066951533
749.0, 0.04645699368043725
750.0, 0.049949607919107
751.0, 0.05579351681873219
752.0, 0.06041525244982049
753.0, 0.06534563902655914
754.0, 0.07127542083722224
755.0, 0.0786054522024885
756.0, 0.08471456667611837
757.0, 0.09280850053821522
758.0, 0.10203021780130181
759.0, 0.11110194879915536
760.0, 0.12052158660920825
761.0, 0.12928083767189952
762.0, 0.13531445671034137
763.0, 0.13920893440578808
764.0, 0.1460016187671038
765.0, 0.1476254064763626
766.0, 0.14737788019083645
767.0, 0.14518320503760707
768.0, 0.14071933805142509
769.0, 0.14021469771985767
770.0, 0.13981452523479537
771.0, 0.13752216567964928
772.0, 0.1339154696700304
773.0, 0.13519240484338152
774.0, 0.133772657792539
775.0, 0.13468877648165425
776.0, 0.13806912290020468
777.0, 0.14281858295511943
778.0, 0.1462214838343097
779.0, 0.15228491296959235
780.0, 0.15891244905524804
781.0, 0.16571097725113645
782.0, 0.17601163691285468
783.0, 0.18603914401014138
784.0, 0.19455481314739184
785.0, 0.20180765079571772
786.0, 0.20860414170527597
787.0, 0.22000980560270134
788.0, 0.22843448906224473
789.0, 0.2381563875815456
790.0, 0.2507380347987543
791.0, 0.26292676777713075
792.0, 0.2791110187176648
793.0, 0.2995705455960937
794.0, 0.3219420041889785
795.0, 0.34350789887494076
796.0, 0.3874899208988172
797.0, 0.43579729662709915
798.0, 0.48286353310835056
799.0, 0.5351063792078321
800.0, 0.6270679382420166
801.0, 0.7149767956602995
802.0, 0.8088837632169432
803.0, 0.8980184100270708
804.0, 0.9667876261394468
805.0, 0.9935934161802477
806.0, 0.9978487747877482
807.0, 0.9841532274852847
808.0, 0.9556320209549055
809.0, 0.9149831918523919
810.0, 0.8621686506676527
811.0, 0.799985992838832
812.0, 0.7374155379495649
813.0, 0.6809380814527688
814.0, 0.59760792843847
815.0, 0.5407743401253969
816.0, 0.48215160641288657
817.0, 0.4208131782309085
818.0, 0.3793836210476099
819.0, 0.33524687278846943
820.0, 0.304576591539322
821.0, 0.2824070906136776
822.0, 0.2632528747968827
823.0, 0.24676391300879702
824.0, 0.23403417578286317
825.0, 0.22244043902578253
826.0, 0.21193316745398322
827.0, 0.20360578549569927
828.0, 0.19652253360807684
829.0, 0.18933790523357952
830.0, 0.18115839872134754
831.0, 0.17252582273252381
832.0, 0.16828401049709144
833.0, 0.1601202301385346
834.0, 0.15346244980244125
835.0, 0.1469703733131107
836.0, 0.1380858024929512
837.0, 0.13461447592200837
838.0, 0.12900661938812655
839.0, 0.12431265863995987
840.0, 0.12062208613980534
841.0, 0.1144292344999469
842.0, 0.11162597011119209
843.0, 0.10760388767869512
844.0, 0.10372401931882552
845.0, 0.10121702714671381
846.0, 0.09760541716366852
847.0, 0.0935648822259723
848.0, 0.08996280413194116
849.0, 0.08660709356476
850.0, 0.08275776546614229
851.0, 0.0795428492070935
852.0, 0.07614741634574146
853.0, 0.07286840734694368
854.0, 0.06961227297445961
855.0, 0.06537094878935439
856.0, 0.06152537046102864
857.0, 0.057165593465439424
858.0, 0.05327694803323701
859.0, 0.05084000638129579
860.0, 0.047717512579541994
861.0, 0.044797591427056326
862.0, 0.04227656063684314
863.0, 0.040054778040641816
864.0, 0.03779305517871982
865.0, 0.03595879562535894
866.0, 0.034292372646521185
867.0, 0.03281970438269378
868.0, 0.03155444279598269
869.0, 0.030501371742098538
870.0, 0.029609006255723994
871.0, 0.028804772004840454
872.0, 0.028067924830969093
873.0, 0.027376843749559503
874.0, 0.026659115308820792
875.0, 0.026167274732282822
876.0, 0.025452158155531618
877.0, 0.024647999114736297
878.0, 0.024311848808119357
879.0, 0.024073563410826553
880.0, 0.02338996831177532
881.0, 0.02279691909519957
882.0, 0.022403026200213696
883.0, 0.021336546040051592
884.0, 0.02114138541450932
885.0, 0.02047180420345469
886.0, 0.019676990545636288
887.0, 0.019178681771006935
888.0, 0.017972184043291175
889.0, 0.016908611016329612
890.0, 0.01670649165352626
891.0, 0.016976842273189904
892.0, 0.016726350710039986
893.0, 0.015703701160306855
894.0, 0.014993003045447121
895.0, 0.014500182720353527
896.0, 0.014054570825910082
897.0, 0.013323639494339835
898.0, 0.013656790593384292
899.0, 0.013060479230205098
900.0, 0.012466706779668685
901.0, 0.012471431220108558
902.0, 0.01159881912442424
903.0, 0.01206046914529952
904.0, 0.011913822971263643
905.0, 0.011372821530864913
906.0, 0.011184942702736563
907.0, 0.011738389143876583
908.0, 0.011793761793219826
909.0, 0.012109842109167445
910.0, 0.012455854734162075
911.0, 0.011941158837045423
912.0, 0.013347278303744086
913.0, 0.01403996420354262
914.0, 0.014911137018196375
915.0, 0.01612503472936228
916.0, 0.016709326378275845
917.0, 0.016766160686270865
918.0, 0.01678698312270934
919.0, 0.016596319218375517
920.0, 0.015895615353164458
921.0, 0.013970646020007235
922.0, 0.012299832160519575
923.0, 0.011082171734520498
924.0, 0.009960085442654342
925.0, 0.008558742029625687
926.0, 0.0076131070669365015
927.0, 0.0072775439269891435
928.0, 0.006979929673448599
929.0, 0.006365476786113203
930.0, 0.00518428546748417
931.0, 0.0044954434908285575
932.0, 0.004983149346925254
933.0, 0.005179833473296517
934.0, 0.004726470136304228
935.0, 0.0042788314973421825
936.0, 0.004664069622779358
937.0, 0.004082772792450625
938.0, 0.003617873719670721
939.0, 0.003904392422849115
940.0, 0.00474212803094552
941.0, 0.004181871122286169
942.0, 0.0036227047683993685
943.0, 0.003243418859149177
944.0, 0.0030444323871603968
945.0, 0.002828587401553561
946.0, 0.0034042339584388496
947.0, 0.0036019416843888403
948.0, 0.0035698236453688193
949.0, 0.003592563442942185
950.0, 0.0030616868025670385
951.0, 0.0024107514613761444
952.0, 0.002644428137288434
953.0, 0.002981162469810502
954.0, 0.002183505434102786
955.0, 0.002239631380356047
956.0, 0.002304453278474546
957.0, 0.0020881138524296346
958.0, 0.001971188725588411
959.0, 0.0026944728999065584
960.0, 0.0021172846118712773
961.0, 0.001970772651757288
962.0, 0.0016482600763402127
963.0, 0.0012400407624589668
964.0, 0.0014940056252008567
965.0, 0.001826507759418319
966.0, 0.002066262101849268
967.0, 0.002267760415712641
968.0, 0.0022138522504286276
969.0, 0.0012420551538600481
970.0, 0.0009227999129132179
971.0, 0.0010074744183161577
972.0, 0.0011997324981281793
973.0, 0.001227384510052184
974.0, 0.0008260969516787701
975.0, 0.0013161263845074688
976.0, 0.0013253973888603656
977.0, 0.0011146164532725468
978.0, 0.0010535738718761688
979.0, 0.0014363279880327117
980.0, 0.0015002677244858743
981.0, 0.0013230614963942006
982.0, 0.0010273578578065075
983.0, 0.000817197817416264
984.0, 0.001200977053401817
985.0, 0.0011464931998722146
986.0, 0.0009232994335909684
987.0, 0.0009391434133707282
988.0, 0.0013649597995209837
989.0, 0.001028308089755498
990.0, 0.0005957994664354208
991.0, 0.0005289365671687168
992.0, 0.0008660598233698202
993.0, 0.001343368916793897
994.0, 0.0004976599385501123
995.0, 0.0003414541882719734
996.0, 0.0006811131428714908
997.0, 0.0009787985625931606
998.0, 0.0006845294960714044
999.0, 0.000171215621476743
1000.0, 0.0007175031936353328
1001.0, 0.001126008305737909
1002.0, 0.0011010971431905745
1003.0, 0.0007178411859212879
1004.0, 0.0005410499142219994
1005.0, 0.0006825768905789694
1006.0, 0.000497300665414324
1007.0, 0.00015285105860193777
1008.0, 9.970293748183567e-05
1009.0, 0.00019241940772813523
1010.0, 0.00048551423140938226
1011.0, 0.0004224445354446176
1012.0, 0.0002324795753214565
1013.0, 0.00042011084421293606
1014.0, 0.0005340219460458784
1015.0, 0.00023753865983653573
1016.0, 0.0002337026431764713
1017.0, 0.00032697404505389936
1018.0, 2.5696816824631255e-05
1019.0, 0.00030289479267795686
1020.0, 0.00037724381837116194
1021.0, 0.0003714055193051629
1022.0, 0.0002641957392088328
1023.0, 4.8148682506617114e-05
1024.0, 0.0005918833404905071
1025.0, 0.00029959441671612984
1026.0, 0.0002006245106574214
1027.0, 0.00036120011355230704
1028.0, 0.0004262118371360882
1029.0, 7.2446349359331e-05
1030.0, 0.00034175535644601865
1031.0, 0.00038396181966861276
1032.0, 0.00024760423884445773
1033.0, 0.00027539840272565355
1034.0, 9.72995547382706e-05
1035.0, 0.00022714828561981452
1036.0, 0.00024598809320836127
1037.0, 0.0001442806037270895
1038.0, 8.342743802266622e-05
1039.0, 0.00037755168939409775
1040.0, 0.00040910702855181876
1041.0, 0.0003340225747134076
1042.0, 0.0002611147932860896
1043.0, 0.00024309563780827145
1044.0, 3.488064202093105e-05
1045.0, 0.00018622842150417223
1046.0, 0.000318853239451569
1047.0, 0.00030694843011473585
1048.0, 0.00018575542309349355
1049.0, 0.00046243588248533397
1050.0, 0.0006121131259524267
1051.0, 0.00047974741044180276
1052.0, 0.00030698492974811953
1053.0, 0.0002888999478996201
1054.0, 8.999550233195789e-05
1055.0, 0.0004191445443294841
1056.0, 0.0008736035124138964
1057.0, 0.0007966774191777245
1058.0, 7.780807477336172e-05
1059.0, 0.0002923528590133916
1060.0, 0.0003438122908348124
1061.0, 0.00035931449837533493
1062.0, 0.0005251198591514456
1063.0, 0.0007412336740696198
1064.0, 0.000262069597186216
1065.0, 0.00030276062007349516
1066.0, 0.0005898640232252517
1067.0, 0.0006048620155607183
1068.0, 0.0002700270599674434
1069.0, 0.00021415591425456336
1070.0, 6.345960292058182e-05
1071.0, 0.00020325890440043524
1072.0, 0.00032217908427570585
1073.0, 0.000315584880973336
1074.0, 0.0003296325254255262
1075.0, 0.00038715231344402766
1076.0, 0.0001720475497096531
1077.0, 2.510077050769628e-05
1078.0, 4.4787926294630724e-05
1079.0, 0.00014319129264241814
1080.0, 0.00033170587809984437
1081.0, 0.000520706429921898
1082.0, 0.0005875556770075314
1083.0, 0.0005072222626837364
1084.0, 0.0003465270067275805
1085.0, 0.0005193714328769353
1086.0, 0.00021681638914506398
1087.0, 3.884502585563934e-05
1088.0, 7.342900097921927e-05
1089.0, 0.00022281371698905258
1090.0, 0.00030145310035100195
1091.0, 0.00025640433408879185
1092.0, 0.0004659619041634411
1093.0, 0.0005956902138932225
1094.0, 0.0003920974813833167
1095.0, 0.00019630634778522937
1096.0, 0.0005124408799818792
1097.0, 0.0004989297492061505
1098.0, 0.0005851879216411825
1099.0, 0.0008932515821900935
1100.0, 0.0008442632051735543
1101.0, 0.0006838920672566727
1102.0, 0.00044875779221697316
1103.0, 0.0003493117440972364
1104.0, 0.00043732070508392055
1105.0, 0.0005956846732018196
1106.0, 0.0005290359445737
1107.0, 0.0006295012522343616
1108.0, 0.0008098809525190814
1109.0, 0.0008946053206947925
1110.0, 0.0007494347029022474
1111.0, 0.0010070032522637724
1112.0, 0.0010305163068612443
1113.0, 0.0010709166344492966
1114.0, 0.0011979690121487934
1115.0, 0.0013015216420955828
1116.0, 0.0007613546767647539
1117.0, 0.000823814111278521
1118.0, 0.0011460795727108797
1119.0, 0.0011764370550090798
1120.0, 0.0009309071602805502
1121.0, 0.0016099790109787794
1122.0, 0.001456205664185299
1123.0, 0.0020103578055174565
1124.0, 0.0020506927286375373
1125.0, 0.0015273867992652585
1126.0, 0.0016621159124469115
1127.0, 0.002128810424280085
1128.0, 0.0019086592561117235
1129.0, 0.0017769888803853549
1130.0, 0.0017825004528257767
1131.0, 0.0016572036535025115
1132.0, 0.0016408514515362249
1133.0, 0.0016269473845167597
1134.0, 0.0016482928059410138
1135.0, 0.001722484535892412
1136.0, 0.001802264349422297
1137.0, 0.0016641123298625862
1138.0, 0.0014961363453651203
1139.0, 0.001577186237222912
1140.0, 0.0015653933054103368
1141.0, 0.0013674930395123188
1142.0, 0.0012989687104064916
1143.0, 0.001959491980541812
1144.0, 0.002000637669906351
1145.0, 0.002182627760529038
1146.0, 0.002359502792521715
1147.0, 0.0019598664271228794
1148.0, 0.0017552840493976678
1149.0, 0.002205702029066536
1150.0, 0.002156933989767533
1151.0, 0.002065379616832595
1152.0, 0.002399785398675091
1153.0, 0.0023232835525230124
1154.0, 0.002414344723829795
1155.0, 0.00233385540164121
1156.0, 0.002167790154872534
1157.0, 0.0021130132157964237
1158.0, 0.002416288283957993
1159.0, 0.001884379649734987
1160.0, 0.002123263852842069
1161.0, 0.0021425007943899
1162.0, 0.0020552471552524967
1163.0, 0.00240254019120479
1164.0, 0.002439928525644303
1165.0, 0.0024908513716722248
1166.0, 0.0025763607951227677
1167.0, 0.0026529896162547583
1168.0, 0.0027215663713807104
1169.0, 0.0029132312614056593
1170.0, 0.0031113713741961328
1171.0, 0.002743626444838364
1172.0, 0.002447445128981496
1173.0, 0.0024433150055764843
1174.0, 0.002529402880683638
1175.0, 0.0028844228111768976
1176.0, 0.00277203724423372
1177.0, 0.0027999559469336437
1178.0, 0.0030201496593252265
1179.0, 0.003149547505617509
1180.0, 0.0024279446064096595
1181.0, 0.0027570471837843284
1182.0, 0.002800781714320954
1183.0, 0.0030547258751111904
1184.0, 0.0034851696186185143
1185.0, 0.0032322119142953703
1186.0, 0.0028378196807127658
1187.0, 0.0030117661260266352
1188.0, 0.003230259612023046
1189.0, 0.0032505342241809427
1190.0, 0.003091806789819939
1191.0, 0.003310924713789831
1192.0, 0.003301494924169585
1193.0, 0.003282328149427643
1194.0, 0.0034246538304844656
1195.0, 0.0037225116134604296
1196.0, 0.003925987654476136
1197.0, 0.0039837458592533416
1198.0, 0.0038649072187989814
1199.0, 0.0035724572767430684
1200.0, 0.003466498235849307
1201.0, 0.0038539708654467485
1202.0, 0.0038347400459847873
1203.0, 0.003510171699651955
1204.0, 0.003447679873979153
1205.0, 0.0034494280535229084
1206.0, 0.0034385020807856117
1207.0, 0.0037041609681361695
1208.0, 0.0034934358481092144
1209.0, 0.0037634143763844346
1210.0, 0.0038589892646251865
1211.0, 0.0037163316203536064
1212.0, 0.003596568252192604
1213.0, 0.003702152968761379
1214.0, 0.0035277544995183843
1215.0, 0.003282680229935244
1216.0, 0.0032218969144875054
1217.0, 0.0033603635755011336
1218.0, 0.003386226657277551
1219.0, 0.003463635677009168
1220.0, 0.004217005483348242
1221.0, 0.004202429053445419
1222.0, 0.0038845529971221725
1223.0, 0.0041181846779752215
1224.0, 0.0038474101339280088
1225.0, 0.003089041776208973
1226.0, 0.0035783272876503728
1227.0, 0.003879801662438618
1228.0, 0.0035734297189860425
1229.0, 0.003656455216850225
1230.0, 0.0034694145739825244
1231.0, 0.0034189454862744956
1232.0, 0.0034594054652385595
1233.0, 0.003392229044575453
1234.0, 0.0031592863839557486
1235.0, 0.003191238266475099
1236.0, 0.0034035029236126903
1237.0, 0.0032905394934336736
1238.0, 0.0030045920481887598
1239.0, 0.0030069958427759833
1240.0, 0.003652180408460259
1241.0, 0.0032049779423054038
1242.0, 0.003208723618380578
1243.0, 0.003241261514441945
1244.0, 0.0032162366264244686
1245.0, 0.003215326846127523
1246.0, 0.0034522268490114628
1247.0, 0.00281017093510522
1248.0, 0.0028330204246241417
1249.0, 0.0030783671743026824
1250.0, 0.003095580914888453
1251.0, 0.002792624040411846
1252.0, 0.003271629736892149
1253.0, 0.002811400495226166
1254.0, 0.0030098626701281716
1255.0, 0.003023538655819781
1256.0, 0.0028034149836757855
1257.0, 0.0030649550501076796
1258.0, 0.0029831563036611126
1259.0, 0.002916385477197342
1260.0, 0.002915356336369584
1261.0, 0.0030358634296119773
1262.0, 0.0030611304985010933
1263.0, 0.002393914556544853
1264.0, 0.0036295470181761168
1265.0, 0.0034814041304672243
1266.0, 0.003270061246651615
1267.0, 0.0029966645804382066
1268.0, 0.002520903753255874
1269.0, 0.003297372997998718
1270.0, 0.0026615997018277666
1271.0, 0.0024692764965259504
1272.0, 0.0026472951344301845
1273.0, 0.002738183916549013
1274.0, 0.002358256311839319
1275.0, 0.0027694010851847255
1276.0, 0.002975785388583897
1277.0, 0.002558880051578905
1278.0, 0.0024370160326194295
1279.0, 0.00274324771791433
1280.0, 0.0023942568024898987
1281.0, 0.00248835390712506
1282.0, 0.0022533087596305645
1283.0, 0.0019076110983843448
1284.0, 0.0019061361129786257
1285.0, 0.002257970569882893
1286.0, 0.0019354421113046767
1287.0, 0.0018725051595570898
1288.0, 0.0019809081908812587
1289.0, 0.001688978362770007
1290.0, 0.0013951897428874465
1291.0, 0.0016414292484606741
1292.0, 0.0017327443515502369
1293.0, 0.001542276276773887
1294.0, 0.0014809547292903812
1295.0, 0.0016854627313010395
1296.0, 0.0019224232061878209
1297.0, 0.0018703698486044781
1298.0, 0.0021451243581044116
1299.0, 0.0020781706895544837
1300.0, 0.0014876013522970059
1301.0, 0.0013035163001251806
1302.0, 0.0015661692850434436
1303.0, 0.0013269263928351383
1304.0, 0.0009491694438939832
1305.0, 0.0012207177000092663
1306.0, 0.0010065028627892557
1307.0, 0.0008424709594222098
1308.0, 0.001050521484349127
1309.0, 0.0011326468883320346
1310.0, 0.0014524113860732257
1311.0, 0.0011474000595168
1312.0, 0.000853503082837196
1313.0, 0.0010059783431523206
1314.0, 0.0013306793303325853
1315.0, 0.0004976656527433123
1316.0, 0.0009647611761066044
1317.0, 0.001310764928303241
1318.0, 0.0011454908908203533
1319.0, 0.0010057417710094758
1320.0, 0.0013797223052722043
1321.0, 0.0017144991651575226
1322.0, 0.001073966334412151
1323.0, 0.001075676686610123
1324.0, 0.000823838691896959
1325.0, 0.0006003567471983338
1326.0, 0.0008896428813492647
1327.0, 0.0008873536308063406
1328.0, 0.0008276436722006702
1329.0, 0.0007851203468998764
1330.0, 0.0007889233936065549
1331.0, 0.0007249180872882347
1332.0, 0.0005660697492412876
1333.0, 0.0008624023706151184
1334.0, 0.0009205159146894342
1335.0, 0.000915703508149709
1336.0, 0.0007931218958121301
1337.0, 0.0007077548951176768
1338.0, 0.0008689722395538254
1339.0, 0.001130331155984068
1340.0, 0.0008257431226331777
1341.0, 0.0007206147471973623
1342.0, 0.0008324595202641278
1343.0, 0.0007560620435891163
1344.0, 0.00021642550867517833
1345.0, 0.0005601673363202365
1346.0, 0.00023171131295043188
1347.0, 0.0002967528370004217
1348.0, 0.000575933465234735
1349.0, 0.0008578534685779654
1350.0, 0.001033171884448449
1351.0, 0.0010923386508710857
1352.0, 0.0010609719726089363
1353.0, 0.0006849702542934852
1354.0, 0.0005879817014877038
1355.0, 0.0005909086142489504
1356.0, 0.00014876003033702963
1357.0, 0.0001716450797412323
1358.0, 0.0004914837135929015
1359.0, 0.0009309715554720574
1360.0, 0.0008228797668306147
1361.0, 0.0003654385492127091
1362.0, 0.00030030608491193693
1363.0, 0.0007408223289379731
1364.0, 0.0005512215436127258
1365.0, 0.0005691737844824831
1366.0, 0.0005827201558037576
1367.0, 0.0004674319140427967
1368.0, 0.00028801838727746755
1369.0, 0.00030810356682583903
1370.0, 0.0004555649567313154
1371.0, 0.0002937675623124544
1372.0, 0.00010441691461994723
1373.0, 6.394068783175226e-05
1374.0, 0.00014760520973769236
1375.0, 5.960665841754662e-05
1376.0, 2.2238918419453508e-05
1377.0, 0.00015486293850437921
1378.0, 0.00021107502507279784
1379.0, 0.00027127353519350273
1380.0, 0.00038763256598743634
1381.0, 2.105754174346603e-05
1382.0, 0.0003663543228848401
1383.0, 0.001134328725801292
1384.0, 0.0007761465001950566
1385.0, 0.00028733355187241536
1386.0, 0.0007313233535497449
1387.0, 0.0006198807302175697
1388.0, 0.0008919979544158958
1389.0, 0.0008073676015128982
1390.0, 0.0005371748895142536
1391.0, 0.000263006356349094
1392.0, 0.00020329835225251888
1393.0, 0.0005811303653966834
1394.0, 0.0008520522469656659
1395.0, 0.00028441911812186673
1396.0, 0.0004155364942872679
1397.0, 0.0006366190878801575
1398.0, 0.0005740054448693577
1399.0, 0.0009081527967037786
1400.0, 0.0007567730808810162
1401.0, 0.00037655616691310086
1402.0, 0.00018236991455098208
1403.0, 0.00025008763125149055
1404.0, 0.00038830967975487667
1405.0, 0.0003648176398733232
1406.0, 0.0008523576054265626
1407.0, 0.0007182446867279142
1408.0, 0.0003933598287332781
1409.0, 0.0004314465615814669
1410.0, 0.0007464924134734781
1411.0, 0.0008294615198351841
1412.0, 0.0005363374858253128
1413.0, 0.0003075860180412595
1414.0, 0.000894891067664409
1415.0, 0.0010051996992552208
1416.0, 0.0007767655130309092
1417.0, 0.000798070954511921
1418.0, 0.0005967851725611198
1419.0, 0.00033181094467905084
1420.0, 0.00039491447427640505
1421.0, 0.00029137029625443493
1422.0, 0.00027202755584403886
1423.0, 0.0005082768207786447
1424.0, 0.0005921740622765743
1425.0, 0.00013742006973184218
1426.0, 0.0007519553890600907
1427.0, 0.0006773849652916871
1428.0, 0.0004927942830277221
1429.0, 0.0007345278358100796
1430.0, 0.001143330433091005
1431.0, 0.0006547580691094195
1432.0, 0.0006474309219211655
1433.0, 0.0006232675717469532
1434.0, 0.0007250269546713419
1435.0, 0.0006872966772070657
1436.0, 0.0003560398884523464
1437.0, 0.0008157938791200096
1438.0, 0.0002176791705546691
1439.0, 0.0006799856358513019
1440.0, 0.0006760694964738497
1441.0, 0.0007275716641738224
1442.0, 0.0011782328968791085
1443.0, 0.00066437585158313
1444.0, 0.0005391538666101385
1445.0, 0.0006298621775765264
1446.0, 0.0007540979631456504
1447.0, 0.0007851073368524248
1448.0, 0.0007762483898968486
1449.0, 0.0008491651094232162
1450.0, 0.0005991204867847511
1451.0, 0.0003990087702249451
1452.0, 0.0006114270418839618
1453.0, 0.00045292996429972874
1454.0, 0.0004251641544326363
1455.0, 0.0010298795812782727
1456.0, 0.0007405319678057133
1457.0, 0.0010014842357872768
1458.0, 0.0011495303640405364
1459.0, 0.0010677083614177713
1460.0, 0.0010784833850367062
1461.0, 0.0012198002936641055
1462.0, 0.001013091332330366
1463.0, 0.0003693018765383171
1464.0, 0.0010121959693110386
1465.0, 0.001046226089978207
1466.0, 0.0006175364330849573
1467.0, 0.0002990091486817226
1468.0, 0.0004823600866257992
1469.0, 0.0008032607615969726
1470.0, 0.00023789357431301003
1471.0, 0.0007619201017840977
1472.0, 0.0008400576611971003
1473.0, 0.0006002252144931771
1474.0, 0.0007268457367166949
1475.0, 0.0013986445727517446
1476.0, 0.0006036307958953125
1477.0, 0.0008571861773264479
1478.0, 0.0010588400430055081
1479.0, 0.0010065925150335117
1480.0, 0.0010864481009317916
1481.0, 0.0014327988315530377
1482.0, 0.0005092150844956648
1483.0, 0.00022085661360952846
1484.0, 0.000769164496856755
1485.0, 0.001166057751351142
1486.0, 0.0010435147092619456
1487.0, 0.0006850399470476222
1488.0, 0.0007123805876123105
1489.0, 0.0005374424363577142
1490.0, 0.0010810330739560987
1491.0, 0.000694602022214541
1492.0, 0.00025765710859163693
1493.0, 0.0005000071805681385
1494.0, 0.0012622578706648843
1495.0, 0.0012235169794365536
1496.0, 0.0002681197947024821
1497.0, 0.0012035519040335945
1498.0, 0.0010781105576723284
1499.0, 0.0006547464743975441
1500.0, 0.000695568092791017
1501.0, 0.0006883281111176617
1502.0, 0.0005730404744478417
1503.0, 0.0005942257551351338
1504.0, 0.0007507140518827299
1505.0, 0.0008039662423776264
1506.0, 0.0008202076689455281
1507.0, 0.0008276009372456486
1508.0, 0.0005261484054496425
1509.0, 0.00019379145982479512
1510.0, 0.0003418012969171286
1511.0, 0.0004450605207188355
1512.0, 0.0003496598820201313
1513.0, 0.0003958563091803615
1514.0, 0.00080935754033956
1515.0, 0.0005646185763491718
1516.0, 0.001162425179305154
1517.0, 0.0015338900436906258
1518.0, 0.000740797671980893
1519.0, 0.0006996132060144954
1520.0, 0.0012849105907520493
1521, 0.0
1522, 0.0
1523, 0.0
1524, 0.0
1525, 0.0
1526, 0.0
1527, 0.0
1528, 0.0
1529, 0.0
1530, 0.0
1531, 0.0
1532, 0.0
1533, 0.0
1534, 0.0
1535, 0.0
1536, 0.0
1537, 0.0
1538, 0.0
1539, 0.0
1540, 0.0
1541, 0.0
1542, 0.0
1543, 0.0
1544, 0.0
1545, 0.0
1546, 0.0
1547, 0.0
1548, 0.0
1549, 0.0
1550, 0.0
1551, 0.0
1552, 0.0
1553, 0.0
1554, 0.0
1555, 0.0
1556, 0.0
1557, 0.0
1558, 0.0
1559, 0.0
1560, 0.0
1561, 0.0
1562, 0.0
1563, 0.0
1564, 0.0
1565, 0.0
1566, 0.0
1567, 0.0
1568, 0.0
1569, 0.0
1570, 0.0
1571, 0.0
1572, 0.0
1573, 0.0
1574, 0.0
1575, 0.0
1576, 0.0
1577, 0.0
1578, 0.0
1579, 0.0
1580, 0.0
1581, 0.0
1582, 0.0
1583, 0.0
1584, 0.0
1585, 0.0
1586, 0.0
1587, 0.0
1588, 0.0
1589, 0.0
1590, 0.0
1591, 0.0
1592, 0.0
1593, 0.0
1594, 0.0
1595, 0.0
1596, 0.0
1597, 0.0
1598, 0.0
1599, 0.0
