30, 0.0
31, 0.0
32, 0.0
33, 0.0
34, 0.0
35, 0.0
36, 0.0
37, 0.0
38, 0.0
39, 0.0
40, 0.0
41, 0.0
42, 0.0
43, 0.0
44, 0.0
45, 0.0
46, 0.0
47, 0.0
48, 0.0
49, 0.0
50, 0.0
51, 0.0
52, 0.0
53, 0.0
54, 0.0
55, 0.0
56, 0.0
57, 0.0
58, 0.0
59, 0.0
60, 0.0
61, 0.0
62, 0.0
63, 0.0
64, 0.0
65, 0.0
66, 0.0
67, 0.0
68, 0.0
69, 0.0
70, 0.0
71, 0.0
72, 0.0
73, 0.0
74, 0.0
75, 0.0
76, 0.0
77, 0.0
78, 0.0
79, 0.0
80, 0.0
81, 0.0
82, 0.0
83, 0.0
84, 0.0
85, 0.0
86, 0.0
87, 0.0
88, 0.0
89, 0.0
90, 0.0
91, 0.0
92.0, 0.010333841197951582
93.0, 0.022833864696147708
94.0, 0.02159550392832397
95.0, 0.02175328697256924
96.0, 0.020386572744547665
97.0, 0.018938435427803386
98.0, 0.018931967064747146
99.0, 0.01945199801158801
100.0, 0.019743272020727853
101.0, 0.019788688540819055
102.0, 0.022532403749123502
103.0, 0.025172696584307788
104.0, 0.028913567034025207
105.0, 0.03485901056810745
106.0, 0.036976989447220894
107.0, 0.03936448475844054
108.0, 0.04022097039858257
109.0, 0.038888553835855585
110.0, 0.041250926575882786
111.0, 0.04513988845974318
112.0, 0.04468931559782945
113.0, 0.041997184850969246
114.0, 0.04985156056001095
115.0, 0.055603003917980474
116.0, 0.06170205573659081
117.0, 0.06967945690166938
118.0, 0.07933164187498701
119.0, 0.08924815031923047
120.0, 0.09583923808766005
121.0, 0.09662618450646532
122.0, 0.08902088864003922
123.0, 0.0647749900744387
124.0, 0.043652989893277566
125.0, 0.03156328075515122
126.0, 0.02529589296836248
127.0, 0.02211939045011817
128.0, 0.017367233834268008
129.0, 0.015839506663499783
130.0, 0.01756723248853536
131.0, 0.01368669415523293
132.0, 0.013995351523121806
133.0, 0.014821493592666575
134.0, 0.014061752548111322
135.0, 0.015024277263765717
136.0, 0.01880454422682865
137.0, 0.020158008585594297
138.0, 0.02001337951051727
139.0, 0.02308524916167766
140.0, 0.02497966340783687
141.0, 0.0254141632193423
142.0, 0.025014629754088802
143.0, 0.02479274924410281
144.0, 0.028155068946506902
145.0, 0.026608356125359126
146.0, 0.023630811060430326
147.0, 0.022229869308260777
148.0, 0.017331144086989023
149.0, 0.013991034062031884
150.0, 0.012180500981021795
151.0, 0.011088913437484655
152.0, 0.009980777160140742
153.0, 0.002956441174206993
154.0, 0.00012481298553260143
155.0, 8.495964909868876e-05
156.0, 0.0006094646286011497
157.0, 0.0010322705008445703
158.0, 0.001309040775547906
159.0, 0.0034459827431744727
160.0, 0.002672709021962024
161.0, 0.001030101006004062
162.0, 0.0047387854036261366
163.0, 0.0039039262118264082
164.0, 0.001089908410680015
165.0, 0.00032095019341267956
166.0, 0.0022041637007607115
167.0, 0.0006049622173421152
168.0, 0.00192129562787704
169.0, 0.0010631023790310756
170.0, 0.0017746898367071366
171.0, 0.0010261857381389935
172.0, 0.0009498179540378293
173.0, 0.005540380965016215
174.0, 0.010033832415786701
175.0, 0.011006201569012332
176.0, 0.014015928941933592
177.0, 0.021779198589114687
178.0, 0.03196711308862038
179.0, 0.05005507555082601
180.0, 0.075097434782646
181.0, 0.10211715922693528
182.0, 0.12669936178569918
183.0, 0.15236472354182987
184.0, 0.19178854990452038
185.0, 0.22682225226804573
186.0, 0.2476523697680819
187.0, 0.2894548281295414
188.0, 0.33767566973166824
189.0, 0.3997280289170777
190.0, 0.47444882882683304
191.0, 0.5382183979653756
192.0, 0.5090094492078676
193.0, 0.38584948272216973
194.0, 0.23946154621574636
195.0, 0.14535856257965546
196.0, 0.09234533955068115
197.0, 0.05915885586874048
198.0, 0.039869614005944035
199.0, 0.030996571908494638
200.0, 0.025058529487079127
201.0, 0.019180094841585595
202.0, 0.014598785210495168
203.0, 0.010952775434455888
204.0, 0.0067425805497814415
205.0, 0.00735538406714925
206.0, 0.0019578492184372195
207.0, 0.0023987254072004812
208.0, 0.002803056020376923
209.0, 0.0011718648213188288
210.0, 0.0007736954858838389
211.0, 0.0012027710710018858
212.0, 0.0004971362687676927
213.0, 0.00031746647594213816
214.0, 0.00027413333632698105
215.0, 0.0024519675701601797
216.0, 0.0030317094522749753
217.0, 0.0019312633655609605
218.0, 0.0021951060353373668
219.0, 0.002872259490105341
220.0, 0.002006137605173382
221.0, 0.0005153670711485751
222.0, 0.0013631316747464057
223.0, 0.003914997779090973
224.0, 0.005851268128466237
225.0, 0.006090746675303469
226.0, 0.004049878316684471
227.0, 0.004152707674976786
228.0, 0.003728966435492572
229.0, 0.0066203686094838425
230.0, 0.01373255005429727
231.0, 0.016502260057794725
232.0, 0.021500012883883236
233.0, 0.023880261867049682
234.0, 0.026595678720912355
235.0, 0.03777662003538608
236.0, 0.04796231243013928
237.0, 0.0587290160186379
238.0, 0.07215079890311757
239.0, 0.08972080075132757
240.0, 0.11297113506392617
241.0, 0.15280988587736924
242.0, 0.19743614912469915
243.0, 0.24467028608471872
244.0, 0.3031791595378167
245.0, 0.37223131700815604
246.0, 0.4344673659614948
247.0, 0.4992939776831262
248.0, 0.5808989321149474
249.0, 0.6816534147032665
250.0, 0.7750702645263793
251.0, 0.866248279831321
252.0, 0.9494957600790246
253.0, 0.9997578653465198
254.0, 0.9575125876008641
255.0, 0.8306506418951012
256.0, 0.6520389538797269
257.0, 0.4715110470696859
258.0, 0.3413252571681217
259.0, 0.257183000723842
260.0, 0.19965183942885417
261.0, 0.15748603775944964
262.0, 0.12749349279740876
263.0, 0.1105858885119053
264.0, 0.0893381026443223
265.0, 0.071263643501604
266.0, 0.06266306660086118
267.0, 0.055277846842150424
268.0, 0.04689914523234142
269.0, 0.04213008182246366
270.0, 0.03963615471014337
271.0, 0.034814238927177214
272.0, 0.028038471075627368
273.0, 0.024240044745963172
274.0, 0.02308301438208359
275.0, 0.021954957028364603
276.0, 0.017100281261648646
277.0, 0.010592094226149738
278.0, 0.006810511083312076
279.0, 0.005512900697036672
280.0, 0.005454121771872414
281.0, 0.006199584467660116
282.0, 0.0033755924171703132
283.0, 0.0027201541224791876
284.0, 0.003246214053403163
285.0, 0.00027241692047211117
286.0, 0.0018566883259559307
287.0, 0.003858633970420307
288.0, 0.0035143291699425965
289.0, 0.0015717084939987761
290.0, 0.0011597805573136883
291.0, 0.0006085506420512733
292.0, 0.00040213157477154114
293.0, 0.0006199940667985852
294.0, 0.0011568675197200983
295.0, 0.0015395604360375792
296.0, 0.001405427527698985
297.0, 0.000575983755135771
298.0, 0.00015927243132114334
299.0, 0.00048691965360098095
300.0, 0.00040266783240464705
301.0, 0.0014160734160028833
302.0, 0.0005225077133908489
303.0, 0.0017587899936000353
304.0, 0.0018095622400161077
305.0, 0.0019663745405167398
306.0, 0.0027629813402032903
307.0, 0.0037245617335657654
308.0, 0.003133089135698663
309.0, 0.004583985047821997
310.0, 0.0043260138119846706
311.0, 0.0016620603075655817
312.0, 0.0026406774141073124
313.0, 0.012339595409429575
314.0, 0.021675932787566337
315.0, 0.015534972630643396
316.0, 0.00634509719354485
317.0, 0.0033082124815106513
318.0, 0.0020541231207365724
319.0, 0.006800567803858266
320.0, 0.008690843673740711
321.0, 0.007621749496374812
322.0, 0.006829438629187078
323.0, 0.006881521538498998
324.0, 0.008084570169485487
325.0, 0.006819822198967136
326.0, 0.006239819447300104
327.0, 0.010477521999979167
328.0, 0.009609001664673515
329.0, 0.00797319787481174
330.0, 0.007466761254684549
331.0, 0.008580161272554761
332.0, 0.011080411601140849
333.0, 0.005585184898833215
334.0, 0.0024716036023971597
335.0, 0.002492181999781349
336.0, 0.0031096444999798648
337.0, 0.0031252742571257334
338.0, 0.0016532294399537947
339.0, 0.003612824431415496
340.0, 0.005513575911939681
341.0, 0.003357698883894079
342.0, 0.002282185272088066
343.0, 0.006126189586276677
344.0, 0.00943297431253369
345.0, 0.010732137711320294
346.0, 0.012684164424434534
347.0, 0.0191916038306785
348.0, 0.01838168810702372
349.0, 0.016351868170306445
350.0, 0.017028546038925355
351.0, 0.01801130763022314
352.0, 0.020786883542676767
353.0, 0.020864193345474152
354.0, 0.017753805130528724
355.0, 0.01496316542218299
356.0, 0.01644884762325075
357.0, 0.017221643801169625
358.0, 0.01813149979724569
359.0, 0.016605752888122136
360.0, 0.013049577029923317
361.0, 0.013354793737523808
362.0, 0.02005135007380131
363.0, 0.022764343982591844
364.0, 0.024331402300910826
365.0, 0.031440502221478456
366.0, 0.04345051055817092
367.0, 0.049176095142500424
368.0, 0.05107797198119627
369.0, 0.05384783855626546
370.0, 0.05974458816135969
371.0, 0.064896922143052
372.0, 0.07189633095619723
373.0, 0.0728787094718859
374.0, 0.0667404897712987
375.0, 0.05753972771710486
376.0, 0.04896069375986627
377.0, 0.04153366716490266
378.0, 0.03507910518360371
379.0, 0.02900994679232197
380.0, 0.023163008475622384
381.0, 0.019195773229521186
382.0, 0.012885542865677516
383.0, 0.010602126549606955
384.0, 0.011369304743818346
385.0, 0.007943668950478358
386.0, 0.0074356641833984985
387.0, 0.004870489495458664
388.0, 0.0036498790510051376
389.0, 0.00439393847408141
390.0, 0.0033139537653308175
391.0, 0.0016913076461934507
392.0, 0.00021204781528268531
393.0, 0.001283075651559183
394.0, 0.002818714948297771
395.0, 0.00025083157216734207
396.0, 4.095325172516984e-05
397.0, 0.0017475775119211196
398.0, 0.002012103225179076
399.0, 0.0003534740231459528
400.0, 0.0009251099814498272
401.0, 0.0014971001829347011
402.0, 0.0018396696647008954
403.0, 0.0014279249054089424
404.0, 0.000601234835363177
405.0, 0.0025491711161665246
406.0, 0.001789660729009319
407.0, 0.0006779363126265106
408.0, 0.00132832777150013
409.0, 0.0024609156354833605
410.0, 0.0009596862217698837
411.0, 0.0022224258174559693
412.0, 0.0009581103759045146
413.0, 0.0008735225842886319
414.0, 0.0005876035295562734
415.0, 0.0015359984327812097
416.0, 0.0020797715013271046
417.0, 0.0010478356722170722
418.0, 0.0013943422604220013
419.0, 0.0019192797688912543
420.0, 0.0012274389221246943
421.0, 0.0003859606671309287
422.0, 0.003611791059042333
423.0, 0.0048628919531388225
424.0, 0.0036886070292674066
425.0, 0.004940980952759073
426.0, 0.004953413888363653
427.0, 0.005278536539923833
428.0, 0.006668160124603454
429.0, 0.0084936907077892
430.0, 0.009450303868039253
431.0, 0.012252427122597474
432.0, 0.013317035524433876
433.0, 0.015519316452044882
434.0, 0.019174541443651556
435.0, 0.021219805068977197
436.0, 0.025533122385237635
437.0, 0.032995196278494156
438.0, 0.04001299442273664
439.0, 0.04565034701211881
440.0, 0.052723972707398925
441.0, 0.06360935875881886
442.0, 0.07325190511689147
443.0, 0.0868810737724924
444.0, 0.10191627594328816
445.0, 0.11413960717500006
446.0, 0.13583347915039487
447.0, 0.15127732321201443
448.0, 0.1624349138337126
449.0, 0.1693955897757339
450.0, 0.17077038016113869
451.0, 0.17309964356912272
452.0, 0.1639711128738203
453.0, 0.14858034853215502
454.0, 0.12819683186897277
455.0, 0.10616666484736126
456.0, 0.09487046714486688
457.0, 0.07958570958582728
458.0, 0.06584756796927532
459.0, 0.054506382501163575
460.0, 0.044801459986066196
461.0, 0.040312592168057486
462.0, 0.039314103940953825
463.0, 0.03574528394976714
464.0, 0.030752151755794124
465.0, 0.0263021716097311
466.0, 0.02197558435436503
467.0, 0.01704173817241422
468.0, 0.018048390903950117
469.0, 0.018382530019594667
470.0, 0.016002164586321723
471.0, 0.016111161885967052
472.0, 0.01655382201207552
473.0, 0.011708575768265709
474.0, 0.009814964929983796
475.0, 0.011523061941526087
476.0, 0.01071636414658957
477.0, 0.00909293316990239
478.0, 0.008357234668755372
479.0, 0.007363778260537537
480.0, 0.0058240840092933345
481.0, 0.004493973029818714
482.0, 0.0042087896548183585
483.0, 0.003594921450762904
484.0, 0.004350465886897202
485.0, 0.005145568132649816
486.0, 0.004125480857228888
487.0, 0.0017359168441180323
488.0, 0.002935141569020721
489.0, 0.004530847592100851
490.0, 0.00400674284867862
491.0, 0.0021226094833467534
492.0, 0.0015323914151979497
493.0, 0.0013249086398029071
494.0, 0.0013800942473964468
495.0, 0.0009598013488789587
496.0, 0.0011414498149420035
497.0, 0.0031947038175814085
498.0, 0.004798275750869406
499.0, 0.001557564209639476
500.0, 0.0004434420053946824
501.0, 0.0008190591630695879
502.0, 0.002435973784110086
503.0, 0.0012878403202007753
504.0, 0.0008949611467448923
505.0, 0.001664275114559306
506.0, 0.002169857890826961
507.0, 0.0027054031232795497
508.0, 0.0037270551358452365
509.0, 0.0035793243876575806
510.0, 0.004608952342075658
511.0, 0.00384663080230416
512.0, 0.002087635308516207
513.0, 0.0019477092520243636
514.0, 0.0012076903540705248
515.0, 0.003967045105244198
516.0, 0.0032444604518000737
517.0, 0.0020831289829679796
518.0, 0.0032626450728609805
519.0, 0.0020833139331369846
520.0, 0.003706096073827344
521.0, 0.0038202328353140118
522.0, 0.004264973406181591
523.0, 0.004557907073981501
524.0, 0.002832827918342721
525.0, 0.005022083069759784
526.0, 0.0044614306072113296
527.0, 0.0034279916910128516
528.0, 0.004945487278307281
529.0, 0.007599984090762654
530.0, 0.006585817177896894
531.0, 0.004564094586781045
532.0, 0.0012208922732824799
533.0, 0.0020752730043572896
534.0, 0.00531423681541803
535.0, 0.002601229206615168
536.0, 0.0024271079188620884
537.0, 0.004601546506733832
538.0, 0.004318511339080288
539.0, 0.0015568713804345721
540.0, 0.0009763450925746504
541.0, 0.0051108571937743714
542.0, 0.005180666586165403
543.0, 0.005838475623248675
544.0, 0.004140676128263155
545.0, 0.0014370941280771688
546.0, 0.005042454009811438
547.0, 0.003590730225502714
548.0, 0.0013871722610099859
549.0, 0.002705989288101148
550.0, 0.004051095660654653
551.0, 0.0017601462948399953
552.0, 0.0018577530126435069
553.0, 0.003052546762066801
554.0, 0.003529211297833541
555.0, 0.0017956322629955983
556.0, 0.0006031743657077537
557.0, 0.0005011053581105462
558.0, 0.0018099429046498788
559.0, 0.0033233999239664965
560.0, 0.0036353511662952044
561.0, 0.002658665530552014
562.0, 0.0008436780855762249
563.0, 0.0015266021813339933
564.0, 0.0033597852000869996
565.0, 0.0025016721941715997
566.0, 0.0030989751259401514
567.0, 0.004995415144448281
568.0, 0.0010469647428494122
569.0, 0.0023939010456471297
570.0, 0.002720434972735924
571.0, 0.0018392266814210578
572.0, 0.0013625592099373478
573.0, 0.0018980183280255067
574.0, 0.0027539980462764797
575.0, 0.001580027337318117
576.0, 0.0004822423980088682
577.0, 2.487726559993996e-05
578.0, 0.0011176724646332794
579.0, 0.0032855330893486363
580.0, 0.001843107699254752
581.0, 0.0023710063675739775
582.0, 0.004584655369863442
583.0, 0.003914531978665207
584.0, 0.00043037610773567466
585.0, 0.0007377789459060825
586.0, 0.004386963210561679
587.0, 0.004904038731216599
588.0, 0.005057880223914093
589.0, 0.004472525660211479
590.0, 0.0020711219005625173
591.0, 0.0008370300542102151
592.0, 0.0020127255971766267
593.0, 0.0028701643667613935
594.0, 0.003067000275280223
595.0, 0.003235533915067953
596.0, 0.0037576844495608194
597.0, 0.003966431540397425
598.0, 0.00027887060494365666
599.0, 0.00122243352469159
600.0, 0.00040363759757687707
601.0, 0.002065415845345996
602.0, 0.0009010987523559079
603.0, 0.0010792165294769742
604.0, 0.0007340200449837626
605.0, 0.000856623618839681
606.0, 0.0003837412651019667
607.0, 0.0014779739868780726
608.0, 0.0020968456312219913
609.0, 0.0015510880180046622
610.0, 0.0008004251888915803
611.0, 0.0005555335507259145
612.0, 0.001772672020576689
613.0, 0.003362311873825439
614.0, 0.0016701655911511126
615.0, 0.0006139758470110135
616.0, 0.0017124676741448724
617.0, 0.003323607381298968
618.0, 0.0033724831545526267
619.0, 0.0015055119906248328
620.0, 0.00033776880855161787
621.0, 0.00298811560316387
622.0, 0.0031302698688355866
623.0, 0.002246841196919359
624.0, 0.0027743415863030496
625.0, 0.004416839023588584
626.0, 0.005430152621388378
627.0, 0.004074389596235479
628.0, 0.002972344931603455
629.0, 0.001059019775298816
630.0, 0.0004099846176651097
631.0, 0.0023224496088976717
632.0, 0.0035515638468396915
633.0, 0.0037746463414649175
634.0, 0.0021705066842772095
635.0, 0.0021494086649894283
636.0, 0.003592890913192296
637.0, 0.0031761854608115874
638.0, 0.0013674256501005446
639.0, 0.0021207942316873014
640.0, 0.0026953737355392394
641.0, 0.002933571432506936
642.0, 0.004710735606554597
643.0, 0.006822103251052629
644.0, 0.0018887032980810412
645.0, 0.002329901763329505
646.0, 0.002773476528369379
647.0, 0.003132276920670436
648.0, 0.00399229031403752
649.0, 0.0033516123463864663
650.0, 0.0015848546345884086
651.0, 0.0018597179858685208
652.0, 0.00450332133122206
653.0, 0.004684922825813493
654.0, 0.0015397590862191103
655.0, 0.0005012629082545776
656.0, 0.0008607189440121645
657.0, 0.002205324287536024
658.0, 0.0016097671287919394
659.0, 0.0024137680209524773
660.0, 0.003519912903618631
661.0, 0.0007983290869752732
662.0, 0.00026231009990444943
663.0, 0.001179768749973216
664.0, 0.0018941617744998342
665.0, 0.0016582553874056882
666.0, 0.002248055605172438
667.0, 0.004602986965193612
668.0, 0.0021006444489805524
669.0, 0.0013909329144480033
670.0, 0.0024643038297077605
671.0, 0.003822112672746844
672.0, 0.0033898351989874458
673.0, 0.0021129999031331125
674.0, 0.00450604728928939
675.0, 0.0033436250567420644
676.0, 0.00397627206367934
677.0, 0.0028999090510969843
678.0, 0.002821558643000474
679.0, 0.0064283766339647145
680.0, 0.004884705215597435
681.0, 0.0013375547299353764
682.0, 0.0041414508009621235
683.0, 0.007149915193595335
684.0, 0.0076862530696296975
685.0, 0.007883580221454767
686.0, 0.008243105735847297
687.0, 0.006237765423993742
688.0, 0.00417841183418982
689.0, 0.006796579149146827
690.0, 0.008778054039182717
691.0, 0.00879377300646631
692.0, 0.013281897928025472
693.0, 0.011852072635164853
694.0, 0.011538857077394583
695.0, 0.011663803501292279
696.0, 0.01310547014530639
697.0, 0.015747720125137206
698.0, 0.016989121317169027
699.0, 0.015566214323978308
700.0, 0.015968734598617168
701.0, 0.016059806410446454
702.0, 0.017415033177966187
703.0, 0.018413782300960527
704.0, 0.017180723820903424
705.0, 0.01872632302674732
706.0, 0.022854098636074262
707.0, 0.02151713704860641
708.0, 0.021849907289470866
709.0, 0.021551225487844543
710.0, 0.017424392243665144
711.0, 0.01674912828643936
712.0, 0.015146772990037017
713.0, 0.0157934077097619
714.0, 0.012737734409122512
715.0, 0.00977423772846527
716.0, 0.010485952400543426
717.0, 0.009897669948449926
718.0, 0.00502182570523864
719.0, 0.00842205921373216
720.0, 0.006042471010007695
721.0, 0.00405374857022269
722.0, 0.005375259606919497
723.0, 0.004711500850111204
724.0, 0.003934458142400735
725.0, 0.0030137541980312273
726.0, 0.0036769424471750703
727.0, 0.0048536130371730464
728.0, 0.003701906337698857
729.0, 0.0016175692859246862
730.0, 0.002253392738623034
731.0, 0.0012301456531705365
732.0, 0.002149561006211037
733.0, 0.0017825008009907442
734.0, 0.0005980309895770668
735.0, 0.001835181263437023
736.0, 0.0025272501175549198
737.0, 0.0017570422634308898
738.0, 0.0019774010934543646
739.0, 0.0024893783900754468
740.0, 0.002936292090480683
741.0, 0.0023258687405949712
742.0, 0.0010881508947875548
743.0, 0.0009738497331505402
744.0, 0.0004555410735985452
745.0, 0.0028858792596994595
746.0, 0.00188164387734178
747.0, 0.0007211715950093799
748.0, 0.0008972666631383438
749.0, 0.0014771157789506143
750.0, 0.0003074654667992126
751.0, 0.002162057690838899
752.0, 0.003219634071960899
753.0, 0.0025611342539887047
754.0, 0.0011688390756955085
755.0, 0.0024380209574101134
756.0, 0.0061405315422454355
757.0, 0.004887261665893782
758.0, 0.0005134392836719607
759.0, 0.0002101660207051742
760.0, 0.00017034399858563404
761.0, 0.0016789169634373966
762.0, 0.0058374138722780446
763.0, 0.007026618016591335
764.0, 0.006620687624061191
765.0, 0.004731228868146616
766.0, 0.004542857610223314
767.0, 0.003909993360230267
768.0, 0.002616447963385288
769.0, 0.0031198564269139437
770.0, 0.0013373003011313647
771.0, 0.0014824871624326335
772.0, 0.0009789774521240756
773.0, 0.00011217374540635841
774.0, 0.001487553231349728
775.0, 0.004628604031469799
776.0, 0.00416263920548475
777.0, 0.002130870590898945
778.0, 0.005736845994624625
779.0, 0.004848732896997389
780.0, 0.004605723053409151
781.0, 0.0061948393704650126
782.0, 0.004748818650952972
783.0, 0.0020864140502568416
784.0, 0.0035698788064402946
785.0, 0.003391919558035694
786.0, 0.004301797749266638
787.0, 0.0034921263425020154
788.0, 0.0012869918979965588
789.0, 0.0007540937036781613
790.0, 0.001377331634400591
791.0, 0.005449516610519461
792.0, 0.0040814959884464585
793.0, 0.002480277667469842
794.0, 0.001490803070035114
795.0, 0.0001280207456079929
796.0, 0.0012211378949355679
797.0, 0.0047452684452673165
798.0, 0.0006534081015456552
799.0, 0.0035585214960572754
800.0, 0.004692761190122273
801.0, 0.004379013289008199
802.0, 0.0053800458041521415
803.0, 0.004015047991985536
804.0, 0.0003372884369205525
805.0, 0.0035177248159039935
806.0, 0.003629198559960591
807.0, 0.0026797674641291253
808.0, 0.0038555984390737106
809.0, 0.005074226296000514
810.0, 0.003530921842254496
811.0, 0.002286055525626287
812.0, 0.0023119358278574607
813.0, 0.0017191216073352336
814.0, 0.004211080492626938
815.0, 0.003778703891314541
816.0, 0.003966341511743801
817.0, 0.006335275263137222
818.0, 0.005155678741892879
819.0, 0.002814561688807283
820.0, 0.0025037448103520637
821.0, 0.0022991498018827337
822.0, 0.0024526232136166874
823.0, 0.004762783911279868
824.0, 0.0067898416787018296
825.0, 0.003067884904660438
826.0, 0.004944205348563986
827.0, 0.004322292526328931
828.0, 0.0018661491631762977
829.0, 0.002561549077482405
830.0, 0.005367645335672814
831.0, 0.005622477311497326
832.0, 0.00523626221556238
833.0, 0.005111715401701662
834.0, 0.005140917956970021
835.0, 0.005404101721382178
836.0, 0.008029459911960827
837.0, 0.014291141643533092
838.0, 0.01531024153947984
839.0, 0.0015526341622754977
840.0, 0.0025808631594250774
841.0, 0.003979450466585004
842.0, 0.00421684428361046
843.0, 0.005328259756809368
844.0, 0.0035236921499307667
845.0, 0.004390774749760574
846.0, 0.0046155684695526975
847.0, 0.004185003497358767
848.0, 0.0038125939538851106
849.0, 0.003753173231150963
850.0, 0.0038134493719697016
851.0, 0.0035167912579077074
852.0, 0.0046891624144277284
853.0, 0.00557386281705397
854.0, 0.0025023004376029134
855.0, 0.0018513511925052596
856.0, 0.0030111825099658636
857.0, 0.003927762276474574
858.0, 0.004438817757967167
859.0, 0.004868863108257568
860.0, 0.006215451039308197
861.0, 0.005232172761823716
862.0, 0.0014590376338521848
863.0, 0.003536115125573612
864.0, 0.005417376891696407
865.0, 0.005345648986992311
866.0, 0.0041682777392108615
867.0, 0.002713780680938306
868.0, 0.0025900265106593933
869.0, 0.004297480600185369
870.0, 0.0017091137481861107
871.0, 0.0022579196141901577
872.0, 0.003045820055917272
873.0, 0.0029489335673436403
874.0, 0.002625008514068489
875.0, 0.002539698536078158
876.0, 0.004776348880823873
877.0, 0.002325545390314148
878.0, 0.003128522138666465
879.0, 0.004139957856178041
880.0, 0.004112190866507756
881.0, 0.004762555727664057
882.0, 0.005755821490543428
883.0, 0.004382806235332852
884.0, 0.0033365597645686426
885.0, 0.0043035369842935375
886.0, 0.0043577860981737606
887.0, 0.003249090077461063
888.0, 0.0031902612451082794
889.0, 0.005162407405187089
890.0, 0.0063744161989198874
891.0, 0.003466709883551909
892.0, 0.002736712544759737
893.0, 0.005427599378297095
894.0, 0.0052403164406973415
895.0, 0.006630854011926857
896.0, 0.006901172873338063
897.0, 0.0038485660131535354
898.0, 0.004841560940440722
899.0, 0.003948097009350319
900.0, 0.003115187133618335
901.0, 0.0005823562181042766
902.0, 0.001558197345932557
903.0, 0.0027714724122515355
904.0, 0.0018226878305869062
905.0, 0.0026056141891953504
906.0, 0.0011748125344099556
907.0, 0.002334914663150461
908.0, 0.0043317228029180945
909.0, 0.0005818591033639521
910.0, 0.0008473907889703967
911.0, 0.0040483106438226335
912.0, 0.0041066511685861635
913.0, 0.0018574731409589876
914.0, 0.00304019913649288
915.0, 0.002227802093799516
916.0, 0.0034241302446255594
917.0, 0.005487600688193123
918.0, 0.0024033100185347207
919.0, 0.0012939563972206932
920.0, 0.00384756533887273
921.0, 0.005851478892279184
922.0, 0.004693549919414756
923.0, 0.0027621397680052183
924.0, 0.006253490102654959
925.0, 0.005954309229143895
926.0, 0.0024632906305116623
927.0, 0.0014688713071278402
928.0, 0.0021417268722523967
929.0, 0.0005400486222838772
930.0, 0.0020788600311060943
931.0, 0.0020515103326336007
932.0, 0.00285242676483138
933.0, 0.0026958160502292975
934.0, 0.0037771560816474703
935.0, 0.0036298144040906814
936.0, 0.002840251367986382
937.0, 0.004603073079558069
938.0, 0.002737938695880736
939.0, 0.004446035707422999
940.0, 0.001009215336910318
941.0, 0.0006148878764162058
942.0, 0.0029899298762510636
943.0, 0.0025144396272720354
944.0, 0.0010398965149590498
945.0, 0.0020648502305431575
946.0, 0.0002950317268608527
947.0, 0.0035350807746279047
948.0, 0.0035596879542667136
949.0, 0.003948613695536895
950.0, 0.0035488366123736354
951.0, 0.005325736018787833
952.0, 0.005633671200301969
953.0, 0.0005222806846118605
954.0, 0.0015768420844062597
955.0, 0.00463037916166402
956.0, 0.0009005624947228748
957.0, 0.003176504475389127
958.0, 0.004975159548290869
959.0, 0.003381671417847635
960.0, 0.0035492661590248663
961.0, 0.005162509176708754
962.0, 0.0033349656702541582
963.0, 0.0034895174686882836
964.0, 0.004337339808053235
965.0, 0.005209692019843305
966.0, 0.0032181681706206743
967.0, 0.0017164706549117582
968.0, 0.0011615721976236185
969.0, 0.0013851055162635594
970.0, 0.0040153327565314485
971.0, 0.0050537868558862015
972.0, 0.0028563293112562277
973.0, 0.0006409883574201474
974.0, 0.001784367916983476
975.0, 0.0028713758392974616
976.0, 0.004132170377630409
977.0, 0.005843340106267258
978.0, 0.0029889268396197906
979.0, 0.0028957370994567473
980.0, 0.0002928788677498302
981.0, 0.002808463424640169
982.0, 0.0019680987849502187
983.0, 0.002659943546006179
984.0, 0.0011591189168093283
985.0, 0.0017380579603611735
986.0, 0.005221415316275031
987.0, 0.0035421490025183506
988.0, 0.0015821924924031207
989.0, 0.005550160816814144
990.0, 0.0021426369445127144
991.0, 0.004081732802948707
992.0, 0.005789282829030884
993.0, 0.004598543268273896
994.0, 0.0027288917947529043
995.0, 0.0015632712434282842
996.0, 0.0016546004197785234
997.0, 0.004256918777389446
998.0, 0.002842284841273904
999.0, 0.0003250504114468509
1000.0, 0.0024121044480031337
1001.0, 0.002218027134863277
1002.0, 0.002764805399013515
1003.0, 0.004384255500943522
1004.0, 0.002622755301656687
1005.0, 0.0018599430575027838
1006.0, 0.0018150716021955416
1007.0, 0.005113670589203395
1008.0, 0.006046300898956859
1009.0, 0.004898874942837251
1010.0, 0.0037057672735267026
1011.0, 0.0027205318513959967
1012.0, 0.0016504189802415946
1013.0, 0.002950291825728198
1014.0, 0.006006656977000033
1015.0, 0.00528441971673079
1016.0, 0.005311168012612658
1017.0, 0.0026488564309899453
1018.0, 0.0018929092019261563
1019.0, 0.001967312991374681
1020.0, 0.0025667824822668125
1021.0, 0.0029539236338102927
1022.0, 0.00225997755178577
1023.0, 0.0030601600547411323
1024.0, 0.003914708121683306
1025.0, 0.002679298308598226
1026.0, 0.002350805699106555
1027.0, 0.0032325991766707397
1028.0, 0.005297333935679972
1029.0, 0.003667841724569857
1030.0, 0.0013857914954620058
1031.0, 0.002339144052731037
1032.0, 0.0005322122151198704
1033.0, 0.0017960814276921423
1034.0, 0.0019466680510725166
1035.0, 0.0005534912702874965
1036.0, 0.00018102609406547488
1037.0, 0.00392601454630513
1038.0, 0.005479828866802201
1039.0, 0.0022122643224520965
1040.0, 0.0015866865219773508
1041.0, 0.0027085766333236226
1042.0, 0.0028775574806629888
1043.0, 0.0010069215633849585
1044.0, 0.003088612045037662
1045.0, 0.0010537511419106498
1046.0, 0.002090432068215614
1047.0, 0.0033821475348164423
1048.0, 0.00214711293431917
1049.0, 0.0016480488780750127
1050.0, 0.0038463443703355437
1051.0, 0.005555822836276095
1052.0, 0.0058104620333529824
1053.0, 0.006289147320967058
1054.0, 0.004028322795588383
1055.0, 0.001604623752661254
1056.0, 0.003993702393900394
1057.0, 0.005949525967628056
1058.0, 0.004085957581286026
1059.0, 0.0017264511140358588
1060.0, 0.0013125433999272573
1061.0, 0.0006815129944677443
1062.0, 0.0011424812301706363
1063.0, 0.0014917513066162328
1064.0, 0.005101596963879743
1065.0, 0.0041190144513172725
1066.0, 0.004165361593688081
1067.0, 0.004436079712607148
1068.0, 0.0038266698840558663
1069.0, 0.0045129377614418955
1070.0, 0.001363132653318559
1071.0, 0.005147306077095624
1072.0, 0.008039562692625344
1073.0, 0.005965934668342856
1074.0, 0.0015172842156728897
1075.0, 0.0029659078828615537
1076.0, 0.004960164884582676
1077.0, 0.003872200897108888
1078.0, 0.004165559265297032
1079.0, 0.005467482505470978
1080.0, 0.0040004310571939705
1081.0, 0.0037596983514019532
1082.0, 0.003317469775688014
1083.0, 0.004227278478153927
1084.0, 0.002182144844917069
1085.0, 0.0013950977182554467
1086.0, 0.0023454871585301138
1087.0, 0.004691408470902988
1088.0, 0.00484280764158082
1089.0, 0.0004668259696294513
1090.0, 0.0019658089257138913
1091.0, 0.0011246102425523184
1092.0, 0.00520681208149613
1093.0, 0.004221220459039622
1094.0, 0.0017960442419434298
1095.0, 0.00020995842965478375
1096.0, 0.0023665988778305115
1097.0, 0.004649831222304325
1098.0, 0.0041203472668215144
1099.0, 0.0041313767493979464
1100.0, 0.004944984292133227
1101.0, 0.005117534971307637
1102.0, 0.00464161708622349
1103.0, 0.002569107570106674
1104.0, 0.00032822098577394755
1105.0, 0.0013826600640276035
1106.0, 0.003569015705651289
1107.0, 0.003369676609129715
1108.0, 0.0007798330914949012
1109.0, 0.0006516499028811475
1110.0, 0.0016512781667413355
1111, 0.0
1112, 0.0
1113, 0.0
1114, 0.0
1115, 0.0
1116, 0.0
1117, 0.0
1118, 0.0
1119, 0.0
1120, 0.0
1121, 0.0
1122, 0.0
1123, 0.0
1124, 0.0
1125, 0.0
1126, 0.0
1127, 0.0
1128, 0.0
1129, 0.0
1130, 0.0
1131, 0.0
1132, 0.0
1133, 0.0
1134, 0.0
1135, 0.0
1136, 0.0
1137, 0.0
1138, 0.0
1139, 0.0
1140, 0.0
1141, 0.0
1142, 0.0
1143, 0.0
1144, 0.0
1145, 0.0
1146, 0.0
1147, 0.0
1148, 0.0
1149, 0.0
1150, 0.0
1151, 0.0
1152, 0.0
1153, 0.0
1154, 0.0
1155, 0.0
1156, 0.0
1157, 0.0
1158, 0.0
1159, 0.0
1160, 0.0
1161, 0.0
1162, 0.0
1163, 0.0
1164, 0.0
1165, 0.0
1166, 0.0
1167, 0.0
1168, 0.0
1169, 0.0
1170, 0.0
1171, 0.0
1172, 0.0
1173, 0.0
1174, 0.0
1175, 0.0
1176, 0.0
1177, 0.0
1178, 0.0
1179, 0.0
1180, 0.0
1181, 0.0
1182, 0.0
1183, 0.0
1184, 0.0
1185, 0.0
1186, 0.0
1187, 0.0
1188, 0.0
1189, 0.0
1190, 0.0
1191, 0.0
1192, 0.0
1193, 0.0
1194, 0.0
1195, 0.0
1196, 0.0
1197, 0.0
1198, 0.0
1199, 0.0
1200, 0.0
1201, 0.0
1202, 0.0
1203, 0.0
1204, 0.0
1205, 0.0
1206, 0.0
1207, 0.0
1208, 0.0
1209, 0.0
1210, 0.0
1211, 0.0
1212, 0.0
1213, 0.0
1214, 0.0
1215, 0.0
1216, 0.0
1217, 0.0
1218, 0.0
1219, 0.0
1220, 0.0
1221, 0.0
1222, 0.0
1223, 0.0
1224, 0.0
1225, 0.0
1226, 0.0
1227, 0.0
1228, 0.0
1229, 0.0
1230, 0.0
1231, 0.0
1232, 0.0
1233, 0.0
1234, 0.0
1235, 0.0
1236, 0.0
1237, 0.0
1238, 0.0
1239, 0.0
1240, 0.0
1241, 0.0
1242, 0.0
1243, 0.0
1244, 0.0
1245, 0.0
1246, 0.0
1247, 0.0
1248, 0.0
1249, 0.0
1250, 0.0
1251, 0.0
1252, 0.0
1253, 0.0
1254, 0.0
1255, 0.0
1256, 0.0
1257, 0.0
1258, 0.0
1259, 0.0
1260, 0.0
1261, 0.0
1262, 0.0
1263, 0.0
1264, 0.0
1265, 0.0
1266, 0.0
1267, 0.0
1268, 0.0
1269, 0.0
1270, 0.0
1271, 0.0
1272, 0.0
1273, 0.0
1274, 0.0
1275, 0.0
1276, 0.0
1277, 0.0
1278, 0.0
1279, 0.0
1280, 0.0
1281, 0.0
1282, 0.0
1283, 0.0
1284, 0.0
1285, 0.0
1286, 0.0
1287, 0.0
1288, 0.0
1289, 0.0
1290, 0.0
1291, 0.0
1292, 0.0
1293, 0.0
1294, 0.0
1295, 0.0
1296, 0.0
1297, 0.0
1298, 0.0
1299, 0.0
1300, 0.0
1301, 0.0
1302, 0.0
1303, 0.0
1304, 0.0
1305, 0.0
1306, 0.0
1307, 0.0
1308, 0.0
1309, 0.0
1310, 0.0
1311, 0.0
1312, 0.0
1313, 0.0
1314, 0.0
1315, 0.0
1316, 0.0
1317, 0.0
1318, 0.0
1319, 0.0
1320, 0.0
1321, 0.0
1322, 0.0
1323, 0.0
1324, 0.0
1325, 0.0
1326, 0.0
1327, 0.0
1328, 0.0
1329, 0.0
1330, 0.0
1331, 0.0
1332, 0.0
1333, 0.0
1334, 0.0
1335, 0.0
1336, 0.0
1337, 0.0
1338, 0.0
1339, 0.0
1340, 0.0
1341, 0.0
1342, 0.0
1343, 0.0
1344, 0.0
1345, 0.0
1346, 0.0
1347, 0.0
1348, 0.0
1349, 0.0
1350, 0.0
1351, 0.0
1352, 0.0
1353, 0.0
1354, 0.0
1355, 0.0
1356, 0.0
1357, 0.0
1358, 0.0
1359, 0.0
1360, 0.0
1361, 0.0
1362, 0.0
1363, 0.0
1364, 0.0
1365, 0.0
1366, 0.0
1367, 0.0
1368, 0.0
1369, 0.0
1370, 0.0
1371, 0.0
1372, 0.0
1373, 0.0
1374, 0.0
1375, 0.0
1376, 0.0
1377, 0.0
1378, 0.0
1379, 0.0
1380, 0.0
1381, 0.0
1382, 0.0
1383, 0.0
1384, 0.0
1385, 0.0
1386, 0.0
1387, 0.0
1388, 0.0
1389, 0.0
1390, 0.0
1391, 0.0
1392, 0.0
1393, 0.0
1394, 0.0
1395, 0.0
1396, 0.0
1397, 0.0
1398, 0.0
1399, 0.0
1400, 0.0
1401, 0.0
1402, 0.0
1403, 0.0
1404, 0.0
1405, 0.0
1406, 0.0
1407, 0.0
1408, 0.0
1409, 0.0
1410, 0.0
1411, 0.0
1412, 0.0
1413, 0.0
1414, 0.0
1415, 0.0
1416, 0.0
1417, 0.0
1418, 0.0
1419, 0.0
1420, 0.0
1421, 0.0
1422, 0.0
1423, 0.0
1424, 0.0
1425, 0.0
1426, 0.0
1427, 0.0
1428, 0.0
1429, 0.0
1430, 0.0
1431, 0.0
1432, 0.0
1433, 0.0
1434, 0.0
1435, 0.0
1436, 0.0
1437, 0.0
1438, 0.0
1439, 0.0
1440, 0.0
1441, 0.0
1442, 0.0
1443, 0.0
1444, 0.0
1445, 0.0
1446, 0.0
1447, 0.0
1448, 0.0
1449, 0.0
1450, 0.0
1451, 0.0
1452, 0.0
1453, 0.0
1454, 0.0
1455, 0.0
1456, 0.0
1457, 0.0
1458, 0.0
1459, 0.0
1460, 0.0
1461, 0.0
1462, 0.0
1463, 0.0
1464, 0.0
1465, 0.0
1466, 0.0
1467, 0.0
1468, 0.0
1469, 0.0
1470, 0.0
1471, 0.0
1472, 0.0
1473, 0.0
1474, 0.0
1475, 0.0
1476, 0.0
1477, 0.0
1478, 0.0
1479, 0.0
1480, 0.0
1481, 0.0
1482, 0.0
1483, 0.0
1484, 0.0
1485, 0.0
1486, 0.0
1487, 0.0
1488, 0.0
1489, 0.0
1490, 0.0
1491, 0.0
1492, 0.0
1493, 0.0
1494, 0.0
1495, 0.0
1496, 0.0
1497, 0.0
1498, 0.0
1499, 0.0
1500, 0.0
1501, 0.0
1502, 0.0
1503, 0.0
1504, 0.0
1505, 0.0
1506, 0.0
1507, 0.0
1508, 0.0
1509, 0.0
1510, 0.0
1511, 0.0
1512, 0.0
1513, 0.0
1514, 0.0
1515, 0.0
1516, 0.0
1517, 0.0
1518, 0.0
1519, 0.0
1520, 0.0
1521, 0.0
1522, 0.0
1523, 0.0
1524, 0.0
1525, 0.0
1526, 0.0
1527, 0.0
1528, 0.0
1529, 0.0
1530, 0.0
1531, 0.0
1532, 0.0
1533, 0.0
1534, 0.0
1535, 0.0
1536, 0.0
1537, 0.0
1538, 0.0
1539, 0.0
1540, 0.0
1541, 0.0
1542, 0.0
1543, 0.0
1544, 0.0
1545, 0.0
1546, 0.0
1547, 0.0
1548, 0.0
1549, 0.0
1550, 0.0
1551, 0.0
1552, 0.0
1553, 0.0
1554, 0.0
1555, 0.0
1556, 0.0
1557, 0.0
1558, 0.0
1559, 0.0
1560, 0.0
1561, 0.0
1562, 0.0
1563, 0.0
1564, 0.0
1565, 0.0
1566, 0.0
1567, 0.0
1568, 0.0
1569, 0.0
1570, 0.0
1571, 0.0
1572, 0.0
1573, 0.0
1574, 0.0
1575, 0.0
1576, 0.0
1577, 0.0
1578, 0.0
1579, 0.0
1580, 0.0
1581, 0.0
1582, 0.0
1583, 0.0
1584, 0.0
1585, 0.0
1586, 0.0
1587, 0.0
1588, 0.0
1589, 0.0
1590, 0.0
1591, 0.0
1592, 0.0
1593, 0.0
1594, 0.0
1595, 0.0
1596, 0.0
1597, 0.0
1598, 0.0
1599, 0.0
