30, 0.0
31, 0.0
32, 0.0
33, 0.0
34, 0.0
35, 0.0
36, 0.0
37, 0.0
38, 0.0
39, 0.0
40, 0.0
41, 0.0
42, 0.0
43, 0.0
44, 0.0
45, 0.0
46, 0.0
47, 0.0
48, 0.0
49, 0.0
50, 0.0
51, 0.0
52, 0.0
53, 0.0
54, 0.0
55, 0.0
56, 0.0
57, 0.0
58, 0.0
59, 0.0
60, 0.0
61, 0.0
62, 0.0
63, 0.0
64, 0.0
65, 0.0
66, 0.0
67, 0.0
68, 0.0
69, 0.0
70, 0.0
71, 0.0
72, 0.0
73, 0.0
74, 0.0
75, 0.0
76, 0.0
77, 0.0
78, 0.0
79, 0.0
80, 0.0
81, 0.0
82, 0.0
83, 0.0
84, 0.0
85, 0.0
86, 0.0
87, 0.0
88, 0.0
89, 0.0
90, 0.0
91, 0.0
92, 0.0
93, 0.0
94, 0.0
95, 0.0
96, 0.0
97, 0.0
98, 0.0
99, 0.0
100, 0.0
101, 0.0
102, 0.0
103, 0.0
104, 0.0
105, 0.0
106, 0.0
107, 0.0
108, 0.0
109, 0.0
110, 0.0
111, 0.0
112, 0.0
113, 0.0
114, 0.0
115, 0.0
116, 0.0
117, 0.0
118, 0.0
119, 0.0
120, 0.0
121, 0.0
122, 0.0
123, 0.0
124, 0.0
125, 0.0
126, 0.0
127, 0.0
128, 0.0
129, 0.0
130, 0.0
131, 0.0
132, 0.0
133, 0.0
134, 0.0
135, 0.0
136, 0.0
137, 0.0
138, 0.0
139, 0.0
140, 0.0
141.0, 0.002342693401534936
142.0, 0.0028045109940890906
143.0, 0.003971997168218565
144.0, 0.0021566913062832167
145.0, 0.0004030533292323673
146.0, 0.0011383364611834506
147.0, 0.00029361216163806053
148.0, 0.001384991878532894
149.0, 0.0042419175924131814
150.0, 0.009274699304140469
151.0, 0.01587200223602816
152.0, 0.022542190546556796
153.0, 0.03203922158564467
154.0, 0.04364669926497901
155.0, 0.05602295467491066
156.0, 0.06904621396595616
157.0, 0.0821577880796793
158.0, 0.09495654398307492
159.0, 0.10717204144988492
160.0, 0.11907267504152332
161.0, 0.13324874124334113
162.0, 0.148034621919257
163.0, 0.16479458736216604
164.0, 0.18583600346853557
165.0, 0.20918112405698172
166.0, 0.2369940255082405
167.0, 0.2700903482580562
168.0, 0.3086705439610199
169.0, 0.35320748638312305
170.0, 0.4034117960262953
171.0, 0.4569517782892319
172.0, 0.5086901387495051
173.0, 0.5532285078618695
174.0, 0.5888183100397806
175.0, 0.6143688084704192
176.0, 0.6278230793478936
177.0, 0.6289266005757528
178.0, 0.6234796519224728
179.0, 0.612412081969033
180.0, 0.5986458148139516
181.0, 0.586840538980021
182.0, 0.581998188313855
183.0, 0.5883302441944157
184.0, 0.6013656459013581
185.0, 0.6244149407224922
186.0, 0.6634458050761948
187.0, 0.7094120504468784
188.0, 0.7642974096390694
189.0, 0.8227425102188627
190.0, 0.8706658177979627
191.0, 0.880926010161951
192.0, 0.8297039011637654
193.0, 0.7253666644884114
194.0, 0.5891343852076728
195.0, 0.4542800763125135
196.0, 0.3469719825552903
197.0, 0.26460615555357825
198.0, 0.2028502371134013
199.0, 0.1587822469824164
200.0, 0.12402765745309448
201.0, 0.0950776151010224
202.0, 0.07291943224282234
203.0, 0.0578708684882003
204.0, 0.04505988557665304
205.0, 0.03546002893991429
206.0, 0.025881433322607325
207.0, 0.017883127913061594
208.0, 0.014677386208723317
209.0, 0.009970483063945343
210.0, 0.005228465891659226
211.0, 0.001647456554481137
212.0, 0.0007918825154635536
213.0, 0.0031178721089241196
214.0, 0.004492690214616057
215.0, 0.0060526580459549185
216.0, 0.007667047563055115
217.0, 0.007853851758561807
218.0, 0.006308800335958129
219.0, 0.0057541973857548855
220.0, 0.005027790801310521
221.0, 0.0024948199381228447
222.0, 0.0007250031941419894
223.0, 0.00425777923087113
224.0, 0.008143207718259502
225.0, 0.012012709893692103
226.0, 0.016148631888280505
227.0, 0.023119699930498495
228.0, 0.0323569922863776
229.0, 0.04134030861718001
230.0, 0.04978803144702672
231.0, 0.061414231917864465
232.0, 0.0722073719238647
233.0, 0.0840663861190219
234.0, 0.09625869326416871
235.0, 0.10545968146596557
236.0, 0.11976165009773278
237.0, 0.1302642947807217
238.0, 0.1404206346660335
239.0, 0.15523179518185737
240.0, 0.16992525311969983
241.0, 0.1872339713359425
242.0, 0.20583865565009551
243.0, 0.22581520780086634
244.0, 0.24944108615090937
245.0, 0.2778942084245561
246.0, 0.30610096328041836
247.0, 0.33291048331477513
248.0, 0.35942233612295427
249.0, 0.38505144084799686
250.0, 0.4021195945221463
251.0, 0.41418100656832735
252.0, 0.4192574808354735
253.0, 0.41421262803948483
254.0, 0.4051767950867424
255.0, 0.3953958697169238
256.0, 0.3875783906499037
257.0, 0.3844832348402193
258.0, 0.3892581867674278
259.0, 0.4052948566029736
260.0, 0.4278706132361515
261.0, 0.4549042883272879
262.0, 0.48593977665669025
263.0, 0.5196570947148484
264.0, 0.5514140509059127
265.0, 0.5776103622210459
266.0, 0.5891876116295235
267.0, 0.5783205659741382
268.0, 0.5487861923930586
269.0, 0.5068026472535977
270.0, 0.4660085105019022
271.0, 0.4373547246769594
272.0, 0.42530663698035714
273.0, 0.4305129986839952
274.0, 0.4489228695231513
275.0, 0.478861636252265
276.0, 0.5186395210918193
277.0, 0.5570428751119293
278.0, 0.5862297454238139
279.0, 0.5855855654573386
280.0, 0.5469482202138244
281.0, 0.47730801139987866
282.0, 0.38932324560343373
283.0, 0.304701231058567
284.0, 0.2369603490843533
285.0, 0.1919647351446178
286.0, 0.1664677835036948
287.0, 0.16033533210755588
288.0, 0.16627078559229447
289.0, 0.18468455753055818
290.0, 0.21297991713739794
291.0, 0.2380486893086394
292.0, 0.26156147057792745
293.0, 0.2814701998640826
294.0, 0.29857340669202176
295.0, 0.31596754009163225
296.0, 0.3368897892897852
297.0, 0.363712848535323
298.0, 0.3955011855658509
299.0, 0.43171210483586586
300.0, 0.47271922881067585
301.0, 0.5188064107653869
302.0, 0.5706441214893682
303.0, 0.62960509657631
304.0, 0.6973123274194882
305.0, 0.778030005656013
306.0, 0.8679129516763342
307.0, 0.9429837460199247
308.0, 0.9896493072881876
309.0, 0.9932477993286561
310.0, 0.9298777151872105
311.0, 0.8053096016159113
312.0, 0.6470318151235824
313.0, 0.49116561313475304
314.0, 0.3640635855495635
315.0, 0.2687640734318615
316.0, 0.19975165940182957
317.0, 0.15072243525226264
318.0, 0.11520773277568906
319.0, 0.08857309685817598
320.0, 0.06917020586801641
321.0, 0.05358507158356526
322.0, 0.041748251002046814
323.0, 0.03307026738768702
324.0, 0.02579827415252903
325.0, 0.01947103575834272
326.0, 0.015249282188453842
327.0, 0.012000060417295198
328.0, 0.00856825773382056
329.0, 0.004850574598487134
330.0, 0.003824738402737552
331.0, 0.00189701065323763
332.0, 0.00022893347202712015
333.0, 0.0006416891676551144
334.0, 0.0014928072142041538
335.0, 0.0028531977831722207
336.0, 0.003313430223115163
337.0, 0.002976098396982769
338.0, 0.002957381799775857
339.0, 0.0028095780040718215
340.0, 0.002746022988038425
341.0, 0.003140663593485014
342.0, 0.003206898224914309
343.0, 0.0023491064041318214
344.0, 0.0019010383133958295
345.0, 0.0027362806396308203
346.0, 0.0024664923569482386
347.0, 0.001535145931733036
348.0, 0.0015524678359424588
349.0, 0.0006431415232472168
350.0, 0.00022681939468072952
351.0, 0.00018191152564153314
352.0, 5.673712973913149e-05
353.0, 0.0004168665084078084
354.0, 0.0013100158793469545
355.0, 0.0016536410761278893
356.0, 0.0020528282303284243
357.0, 0.0026236857372291147
358.0, 0.00279962816430408
359.0, 0.003459966844775833
360.0, 0.004271829123311515
361.0, 0.004833193196511676
362.0, 0.005280347524093071
363.0, 0.006041764129741529
364.0, 0.006158862827234901
365.0, 0.006732449697976641
366.0, 0.007272607083090632
367.0, 0.007584312113183169
368.0, 0.008297847191142621
369.0, 0.009120854506410613
370.0, 0.00937617225764072
371.0, 0.009901799638671823
372.0, 0.01068233777997902
373.0, 0.010602320074027284
374.0, 0.0117215714495627
375.0, 0.012187480971320162
376.0, 0.012479642431945215
377.0, 0.013168498236649517
378.0, 0.0137403598912501
379.0, 0.014092113628373782
380.0, 0.01439260060380829
381.0, 0.014853868122278457
382.0, 0.015433061505818208
383.0, 0.015953497010451977
384.0, 0.016502693302717183
385.0, 0.01694552254582584
386.0, 0.017069121623022928
387.0, 0.017200795205180888
388.0, 0.01767293184779372
389.0, 0.01774545559090293
390.0, 0.018313281091338843
391.0, 0.018793305281338428
392.0, 0.018842986616996352
393.0, 0.018611074098142676
394.0, 0.01848263680240401
395.0, 0.01786319497295059
396.0, 0.01739903910712105
397.0, 0.017205034940779088
398.0, 0.01689004310919014
399.0, 0.016507163138629394
400.0, 0.015980217869930674
401.0, 0.015598246994454347
402.0, 0.015192607244832661
403.0, 0.014566148744405713
404.0, 0.01444774086777563
405.0, 0.01376038937547436
406.0, 0.013153315528139172
407.0, 0.012882725400478506
408.0, 0.012462364376849559
409.0, 0.01181104942212835
410.0, 0.011234124758967326
411.0, 0.011085954060361267
412.0, 0.010723165963243445
413.0, 0.01003514164680546
414.0, 0.010161652181176909
415.0, 0.009759951752906634
416.0, 0.0092657615422014
417.0, 0.008928661559542047
418.0, 0.008754833341081864
419.0, 0.00865385329020194
420.0, 0.008241369559504582
421.0, 0.008044476826384534
422.0, 0.007911465455403494
423.0, 0.007721435096969077
424.0, 0.007596959139080253
425.0, 0.0074990447645856455
426.0, 0.007068637815313462
427.0, 0.006696946276955342
428.0, 0.0065633540607314645
429.0, 0.006551303640626156
430.0, 0.0064019084318820765
431.0, 0.006115051627949928
432.0, 0.005825061059993666
433.0, 0.005691369907868481
434.0, 0.005639275185771733
435.0, 0.005280174685085525
436.0, 0.005223122864808446
437.0, 0.005060021317359572
438.0, 0.004880184753711548
439.0, 0.004753286690421415
440.0, 0.004443290545780893
441.0, 0.00418167688914441
442.0, 0.004207596904074753
443.0, 0.004396865082733061
444.0, 0.004369993508493346
445.0, 0.003922756940543708
446.0, 0.003660478518689672
447.0, 0.0035380581662661755
448.0, 0.0032807222457426764
449.0, 0.0031546446440121364
450.0, 0.003291312905028651
451.0, 0.002972260813621407
452.0, 0.002779039183377786
453.0, 0.002478223212836765
454.0, 0.0023011822663877675
455.0, 0.0023720981700084795
456.0, 0.0022894447085446204
457.0, 0.0020853922067676865
458.0, 0.0020142176946270495
459.0, 0.0018427015408702466
460.0, 0.0016036476439344467
461.0, 0.0015673440236229767
462.0, 0.001456143492433349
463.0, 0.0014455228465072249
464.0, 0.0014444192296239023
465.0, 0.0013450669722187823
466.0, 0.0011120497608029718
467.0, 0.000793082007211396
468.0, 0.0008395590552210413
469.0, 0.0008348218599269086
470.0, 0.0007861394761627074
471.0, 0.0006558597293349587
472.0, 0.0003644986169724663
473.0, 0.00042841765745315523
474.0, 0.00017697541024003032
475.0, 9.493944713990601e-05
476.0, 0.0002233905535924278
477.0, 0.00023577862115352962
478.0, 0.0001183493708741458
479.0, 0.00013904613688184376
480.0, 6.21124292948123e-05
481.0, 4.509551793308573e-05
482.0, 5.601940142218974e-06
483.0, 2.1993084523703823e-05
484.0, 3.81873167041939e-05
485.0, 2.1426896666603714e-05
486.0, 0.00010186175300286676
487.0, 6.276111323534869e-05
488.0, 0.00014915575114524474
489.0, 2.496541757367887e-05
490.0, 0.00010030605630154487
491.0, 5.4568433623107104e-05
492.0, 9.368131296604301e-05
493.0, 0.00012085784675280897
494.0, 5.034308999203293e-05
495.0, 1.2157370090374193e-05
496.0, 5.833927428335555e-05
497.0, 0.00021744409946401755
498.0, 0.00011895137125797663
499.0, 0.00027084787872626716
500.0, 0.00015940207461019045
501.0, 0.0001977950170101704
502.0, 0.0002894635996814219
503.0, 0.0002965884172848553
504.0, 0.0002227345595322449
505.0, 6.0503861302479804e-05
506.0, 0.0003345808924492262
507.0, 0.00019276154935146108
508.0, 1.1424626489808621e-05
509.0, 3.5689406475645484e-05
510.0, 4.8924957952498936e-05
511.0, 0.000188812547555288
512.0, 0.0003868627568328059
513.0, 0.0006006370315108519
514.0, 0.0005931753532638204
515.0, 0.00042876430888099174
516.0, 0.00035107111570432633
517.0, 0.000467867960619526
518.0, 0.00047160467913970105
519.0, 0.0004661643461047361
520.0, 0.00041471494852756135
521.0, 0.0003763652237146903
522.0, 0.00048369917959817144
523.0, 0.00037189403284398215
524.0, 0.0005469027112172414
525.0, 0.0004359973882908794
526.0, 0.00019110538167664264
527.0, 0.00013454208663224118
528.0, 7.949925409643838e-05
529.0, 0.00023869577932740445
530.0, 0.00024361636477713433
531.0, 0.00030664566590419173
532.0, 0.00033137720594215476
533.0, 0.00014997139877457672
534.0, 1.4336378445995925e-05
535.0, 0.0001397617240227016
536.0, 0.00018134086497283595
537.0, 7.080724314600912e-05
538.0, 0.0003715600423384562
539.0, 0.000304948073288919
540.0, 9.002669418349199e-05
541.0, 7.866539217270081e-05
542.0, 0.0002977560430092847
543.0, 0.0003751110330096522
544.0, 0.0002889012415856473
545.0, 0.0003212978990333394
546.0, 0.0003907473324577933
547.0, 0.00019667250203662918
548.0, 0.00017150199622759408
549.0, 0.00027030965678807417
550.0, 0.00021558479236622849
551.0, 4.5956148147018374e-05
552.0, 0.0001952768634021646
553.0, 6.789094944265167e-05
554.0, 4.813411023924338e-05
555.0, 1.2736504913752748e-05
556.0, 4.147542024202239e-05
557.0, 0.00015341975747473895
558.0, 0.0002642826735922503
559.0, 0.00039670568142006856
560.0, 0.0005815884582327273
561.0, 0.0006899085205078447
562.0, 0.0006839719401026221
563.0, 0.0007367641526965335
564.0, 0.0006420348080204496
565.0, 0.00049262118394917
566.0, 0.000523470973927101
567.0, 0.0007087443265394014
568.0, 0.0007767577062426543
569.0, 0.000739006618281699
570.0, 0.0011752506541216725
571.0, 0.0012704670571896557
572.0, 0.0010697402375079348
573.0, 0.0010845170157670273
574.0, 0.0014596312201015024
575.0, 0.0017328055753290373
576.0, 0.001259755044372278
577.0, 0.001173455636563937
578.0, 0.0011974014836701693
579.0, 0.001199727059289813
580.0, 0.001341846005320856
581.0, 0.0014346699149857755
582.0, 0.0013026258198801132
583.0, 0.001499184381780755
584.0, 0.0015792684520780365
585.0, 0.0015662215963396522
586.0, 0.0015272075158044064
587.0, 0.00118538544567387
588.0, 0.0013480867394628606
589.0, 0.0012876581103609412
590.0, 0.001149659248805114
591.0, 0.0011952568998935401
592.0, 0.0013226852516014316
593.0, 0.0011515149259390693
594.0, 0.0010843233223740648
595.0, 0.0010602977106343402
596.0, 0.0010305528502954678
597.0, 0.000880602183267225
598.0, 0.0006807990741671961
599.0, 0.0007033183981831901
600.0, 0.0010730084169140223
601.0, 0.0010878853270053345
602.0, 0.0008554691991037247
603.0, 0.0007262037885252845
604.0, 0.000746443043649532
605.0, 0.000696497490125121
606.0, 0.0008722476399352327
607.0, 0.0008693201419044461
608.0, 0.0007333856384164533
609.0, 0.0008270754387355826
610.0, 0.0010182364279915136
611.0, 0.0009703946117710523
612.0, 0.0008239805244647419
613.0, 0.0006512599506141171
614.0, 0.0007876306473950508
615.0, 0.0007887494093750136
616.0, 0.0007768181013076388
617.0, 0.001016744225450625
618.0, 0.0008747672714281541
619.0, 0.0011057639764189581
620.0, 0.0011876347497342345
621.0, 0.0011467979643417646
622.0, 0.0010958514113633105
623.0, 0.0010907579986246113
624.0, 0.0011117893170469078
625.0, 0.0010819447195559138
626.0, 0.0010237021805590636
627.0, 0.0009012380739613138
628.0, 0.0007074351532372089
629.0, 0.000669912888726739
630.0, 0.0009953816356427709
631.0, 0.0005467589215142956
632.0, 0.0005110836817703601
633.0, 0.0007002097481173934
634.0, 0.0006778671312946515
635.0, 0.0005934718267955898
636.0, 0.0005983326410691338
637.0, 0.0003165282423366319
638.0, 0.0003158047655710591
639.0, 0.00037291051200885497
640.0, 0.00044155469696571353
641.0, 0.00040438647647003906
642.0, 0.00034552599248204
643.0, 0.0005133424340367006
644.0, 0.00019491761991413962
645.0, 0.00013154354037527244
646.0, 0.00010438146307640132
647.0, 0.0002339718990116552
648.0, 0.0003589676504722588
649.0, 0.00024225412039091635
650.0, 0.00016670650936017172
651.0, 5.547739935081803e-05
652.0, 0.0002367950150884686
653.0, 0.000254481207364745
654.0, 0.00019014830448954554
655.0, 0.0001905220160606782
656.0, 0.00011440321053373405
657.0, 0.0002718740141473595
658.0, 0.00021090623357062323
659.0, 0.0002628725772835732
660.0, 0.00019717279919837256
661.0, 4.2471366710047365e-05
662.0, 7.180453187483388e-05
663.0, 8.442453739782888e-05
664.0, 4.926708869058288e-05
665.0, 0.00016816047798961457
666.0, 4.0146228975563396e-05
667.0, 4.824661512681254e-05
668.0, 1.3083143362970536e-05
669.0, 4.152694125871497e-05
670.0, 8.294287098390744e-05
671.0, 0.00028898299738142633
672.0, 0.0002062254841306188
673.0, 0.0002237052481554593
674.0, 0.00023758530348766497
675.0, 0.00011340389933170638
676.0, 0.00010452230308815847
677.0, 0.00016233409244536544
678.0, 6.561406064828434e-05
679.0, 0.000189327136065567
680.0, 0.00021285034039012353
681.0, 1.9732846534137504e-05
682.0, 2.730317508800822e-05
683.0, 0.00016264788867543373
684.0, 0.00029785997917654435
685.0, 0.00024705601053143147
686.0, 0.0003843804374916091
687.0, 0.0004214938135173534
688.0, 0.00036489593155196546
689.0, 0.0004811223686056861
690.0, 0.0003596790413306126
691.0, 0.0005080947554513026
692.0, 0.0005664252574360526
693.0, 0.0005611074746018966
694.0, 0.0005175963027163348
695.0, 0.0004954721729045162
696.0, 0.0005611670482906223
697.0, 0.00043148378664699275
698.0, 0.0004554547587531066
699.0, 0.0004556956811882153
700.0, 0.0007198108249703545
701.0, 0.0008152199418211476
702.0, 0.0004656402381158402
703.0, 0.00042257170210458346
704.0, 0.000565720112737338
705.0, 0.0005932695770806407
706.0, 0.0006104595592464118
707.0, 0.0005058382218823339
708.0, 0.000404805115028931
709.0, 0.0004780540313377033
710.0, 0.000641734599782665
711.0, 0.0005877354068865673
712.0, 0.0006342793108997417
713.0, 0.0005024271083852633
714.0, 0.0004335208463238915
715.0, 0.0005512437351077843
716.0, 0.0006702602599596015
717.0, 0.0006952994877283707
718.0, 0.0007422542087028046
719.0, 0.0006797733313213418
720.0, 0.0006392530710790846
721.0, 0.000491822379167373
722.0, 0.0004345498497777121
723.0, 0.0007006788230850212
724.0, 0.0009377508359498929
725.0, 0.0006303388300282157
726.0, 0.0006269988400409951
727.0, 0.0004980896648241269
728.0, 0.0005153034909409214
729.0, 0.0006244602821834363
730.0, 0.0006294313621868101
731.0, 0.000579496500770719
732.0, 0.0005553476228447448
733.0, 0.000502924561435261
734.0, 0.0007121332907209606
735.0, 0.0006630969508179093
736.0, 0.00046937021428285317
737.0, 0.00047025592885515305
738.0, 0.0005409063622663068
739.0, 0.0003366730688168945
740.0, 0.00025219041850459644
741.0, 0.0002401969576892416
742.0, 0.00027931750025642576
743.0, 0.0004147707277777889
744.0, 0.00044734486372077043
745.0, 0.0002972912649513225
746.0, 0.0003216673079710477
747.0, 0.00026481393190985216
748.0, 0.00043264719337858065
749.0, 0.00042162887457499316
750.0, 0.00035220081325499145
751.0, 0.00032212821112571004
752.0, 0.00029869319357825146
753.0, 0.0003812342227654051
754.0, 0.00036465088787304153
755.0, 0.0002709445380531045
756.0, 0.00030864449422535385
757.0, 0.00019843918294481188
758.0, 0.00028561887404309795
759.0, 0.0005800839906976745
760.0, 0.0005316206155117881
761.0, 0.00026311166487446295
762.0, 0.00019483355393995632
763.0, 0.00030138327173911625
764.0, 0.00022816869137784452
765.0, 0.0001524367308451577
766.0, 0.00031962661098974723
767.0, 0.0004948393455616871
768.0, 0.00036356574740832993
769.0, 0.0004926091106820798
770.0, 0.0003076384869782213
771.0, 0.0001799631213215207
772.0, 0.00026525160791034434
773.0, 0.00036273917483278464
774.0, 0.000253664293531652
775.0, 8.842853691265861e-05
776.0, 0.0002568697449101545
777.0, 0.0002420417259264956
778.0, 0.0002867341025874769
779.0, 0.0003788381908033169
780.0, 0.0004027584323369732
781.0, 0.0003717806728770345
782.0, 0.00032370512118057613
783.0, 0.0002733724784681731
784.0, 0.0003193374349985948
785.0, 9.76619273159086e-05
786.0, 0.0001840245988579539
787.0, 0.0002411360599946985
788.0, 0.00021595320518720914
789.0, 0.00017240615441904092
790.0, 6.759681817136506e-05
791.0, 0.00023305916325447052
792.0, 0.00035033518728750946
793.0, 0.00016948019480371972
794.0, 0.00010998916883230878
795.0, 8.2490154708607e-05
796.0, 0.00011616788272464674
797.0, 0.0002291158670376553
798.0, 0.0002558120686483956
799.0, 0.0001837036751770473
800.0, 0.00012204527749344878
801.0, 0.0001925629953150596
802.0, 0.0001216538109803342
803.0, 0.00014183513561914519
804.0, 0.00012137691522193361
805.0, 3.106728721877014e-05
806.0, 7.194698557837566e-05
807.0, 2.9865048921402634e-05
808.0, 0.0001509693033797976
809.0, 0.00011816444387004071
810.0, 0.00010688203024209606
811.0, 0.00014248932341734633
812.0, 0.00018742322047889137
813.0, 0.0002534825117745193
814.0, 0.00023567216890066855
815.0, 2.6245541748727513e-05
816.0, 0.00021913934958502128
817.0, 6.814097518452236e-05
818.0, 0.00013391262703828629
819.0, 0.0003574827854992173
820.0, 0.000356153285045489
821.0, 0.00016987759428689107
822.0, 0.00015882754139587253
823.0, 0.00011923840674185114
824.0, 0.00020852735811744837
825.0, 0.0001179764128049272
826.0, 0.0002605999184172005
827.0, 0.00016768488697561172
828.0, 9.908995982549639e-05
829.0, 0.00024391184263560108
830.0, 0.00017643772131198921
831.0, 0.0002189218523855002
832.0, 0.00013329275137166264
833.0, 5.566957421507417e-05
834.0, 0.00018654762375685207
835.0, 0.00010254350640667766
836.0, 0.00014270733132725714
837.0, 5.1323304635066396e-05
838.0, 0.00016610880871053833
839.0, 0.0001394792471058069
840.0, 6.506028983571529e-05
841.0, 8.52705052694074e-05
842.0, 0.00013246606503339417
843.0, 0.0002143234720414642
844.0, 0.00016456587227373575
845.0, 8.251107271676192e-05
846.0, 0.00014874408946016532
847.0, 7.690689969483495e-05
848.0, 0.0001096035009801021
849.0, 2.111313118550307e-05
850.0, 1.7107838161349734e-05
851.0, 0.0001374025032542641
852.0, 0.00015084713991079992
853.0, 9.211851789444421e-05
854.0, 3.057020163336272e-05
855.0, 7.307660645175808e-05
856.0, 2.7139528908891794e-05
857.0, 0.00032970561468763506
858.0, 8.442771256375766e-05
859.0, 3.097020555320656e-05
860.0, 0.0002050727994924
861.0, 0.00030618122499342557
862.0, 0.0003201493500797625
863.0, 0.0003061376352946835
864.0, 0.0001686416212179172
865.0, 0.00017637836700897986
866.0, 0.00020624716166162566
867.0, 0.00013762104509751087
868.0, 7.94192966283141e-05
869.0, 0.000148944006307721
870.0, 0.00025131248187759
871.0, 0.00026675292110653283
872.0, 0.00020019371406802648
873.0, 0.00011028222814621054
874.0, 8.449842296673651e-05
875.0, 8.672106422054323e-05
876.0, 0.0002049799902536553
877.0, 0.0003321888229453137
878.0, 0.00026193077885425714
879.0, 5.1066738137921264e-05
880.0, 4.71484645467632e-05
881.0, 0.00026483111727634324
882.0, 0.00026411079668811025
883.0, 8.84484905985814e-05
884.0, 0.00016274085385861595
885.0, 0.00024664465835843403
886.0, 0.00014583399698109867
887.0, 0.0001016074295019998
888.0, 0.00016600520906272231
889.0, 0.00018069870701509946
890.0, 0.00018558462068149614
891.0, 0.0002107659572187609
892.0, 0.00023808052634401655
893.0, 5.1621619863328586e-05
894.0, 3.6491621271231936e-05
895.0, 7.36918600789078e-05
896.0, 8.85104923010581e-05
897.0, 4.298071828666663e-05
898.0, 0.00024232479930633808
899.0, 0.00031567462213583466
900.0, 0.00025148748527733264
901.0, 0.00028542971720388235
902.0, 0.00015978239559582858
903.0, 4.6180013276047926e-05
904.0, 0.0002569925417774885
905.0, 0.00034448489193497314
906.0, 0.00025726119068251237
907.0, 0.000284993170594601
908.0, 0.00034670406596615445
909.0, 0.0003463037339093972
910.0, 0.00037147622761086227
911.0, 0.00018841904330170518
912.0, 0.00023112384179677664
913.0, 0.0003165749500267127
914.0, 0.00013470885070530667
915.0, 0.00010453317208649487
916.0, 0.00011588637517124793
917.0, 0.0002316730848295352
918.0, 0.00014738433440825897
919.0, 0.0003557117797085367
920.0, 0.00032282347146614913
921.0, 5.595973420924539e-05
922.0, 0.00019889279777463687
923.0, 0.0003418210968171124
924.0, 0.00028468810893525416
925.0, 4.5273534274822285e-05
926.0, 3.759871653053425e-05
927.0, 7.33190862248419e-05
928.0, 0.00018664316506960282
929.0, 0.00016415662915428495
930.0, 0.00021578239398284822
931.0, 0.0003195226532938121
932.0, 0.0003160583988618215
933.0, 0.0003002041338541266
934.0, 0.00036996842078748974
935.0, 0.00034816892199172206
936.0, 0.00018519219644371062
937.0, 0.00010161199124555252
938.0, 2.6158887348139244e-05
939.0, 0.0002213405916731187
940.0, 0.0002683981094516905
941.0, 0.00025521861520415637
942.0, 0.00022369133575592733
943.0, 0.00020202630267915199
944.0, 0.00024191874315807196
945.0, 0.00024333056168239218
946.0, 0.00023374355652454768
947.0, 0.0003184655283582011
948.0, 0.00011016302297738414
949.0, 0.0002530819222968274
950.0, 0.00044792842084290024
951.0, 0.0001943057906951158
952.0, 0.00013488884399439697
953.0, 0.00011710110656336344
954.0, 7.737938370181502e-05
955.0, 0.00012146899795093076
956.0, 8.110933378591397e-05
957.0, 2.0416767925991513e-05
958.0, 0.00010262633523896683
959.0, 6.50284443808922e-05
960.0, 0.00019133292513015697
961.0, 0.00022887930499043436
962.0, 9.45935454765697e-05
963.0, 0.00012287944756835865
964.0, 0.00019397551726949963
965.0, 0.0002113177771934912
966.0, 0.0002674639142936735
967.0, 0.00021690790111064863
968.0, 4.7193764981360355e-05
969.0, 0.00013127422741327313
970.0, 2.151157984918948e-05
971.0, 0.00013592221249693033
972.0, 0.00027546684470476337
973.0, 0.00025927566514482605
974.0, 0.0002176970025522882
975.0, 0.00018733473300196869
976.0, 0.00019674625607011677
977.0, 0.0002626583815419443
978.0, 0.00017943481908113066
979.0, 0.00014667236234949658
980.0, 3.842835432068785e-05
981.0, 0.00011975360196939461
982.0, 0.00022246640944606274
983.0, 0.00022957432963409484
984.0, 0.00021844177925520622
985.0, 0.00010407833975240033
986.0, 8.336209911351658e-05
987.0, 0.00017930273991137788
988.0, 0.00010142351684900741
989.0, 0.00021612363370749927
990.0, 0.0001841006557212981
991.0, 8.094952479438758e-05
992.0, 0.0003190602944977971
993.0, 0.00027482462334267507
994.0, 0.0002458526526503076
995.0, 0.00015047611334012187
996.0, 0.00021881082563965072
997.0, 0.00023081523479019607
998.0, 0.00010564888570149987
999.0, 8.939993377162372e-05
1000.0, 0.0003424820969735651
1001.0, 0.0002637728733551017
1002.0, 2.410889319120733e-05
1003.0, 5.666818408177809e-05
1004.0, 9.968158907948347e-05
1005.0, 0.00011756248069565662
1006.0, 0.00011658790319356363
1007.0, 0.0002448649937482772
1008.0, 0.00035547408160266965
1009.0, 0.00021594773540494698
1010.0, 0.00013171225471354
1011.0, 0.0002724561170331822
1012.0, 5.647348907188518e-05
1013.0, 0.00015521502459367947
1014.0, 0.0001295010710877445
1015.0, 0.0002861589720306405
1016.0, 0.00013606840004775196
1017.0, 0.00015576001588946014
1018.0, 0.00023870399435188978
1019.0, 0.00015228883442813536
1020.0, 0.0001248857977932622
1021.0, 0.00020300166253963488
1022.0, 0.0002284791316999524
1023.0, 0.00014804840303395283
1024.0, 5.334392520205788e-05
1025.0, 0.00033265165200853386
1026.0, 0.0003698027325211837
1027.0, 0.0002638308684255751
1028.0, 0.00013520693101277487
1029.0, 5.6659200058501484e-05
1030.0, 0.00018125850436806403
1031.0, 0.00022676829760883175
1032.0, 0.00010592681335244535
1033.0, 0.00023292664575955369
1034.0, 5.8199221648899324e-05
1035.0, 5.8348471816283564e-05
1036.0, 8.01132901876353e-05
1037.0, 4.193173568860692e-05
1038.0, 0.00017101051513612547
1039.0, 0.000425208705927361
1040.0, 0.00013101609196167267
1041.0, 0.00010992513465370049
1042.0, 0.00022441554386375953
1043.0, 0.00015216336134908176
1044.0, 0.00020192349178198426
1045.0, 0.0003178170327347175
1046.0, 4.879795180289199e-05
1047.0, 0.00025127423748664326
1048.0, 0.00030725254397189156
1049.0, 0.0001396052989630397
1050.0, 0.0003742021864266057
1051.0, 0.0001232389722883925
1052.0, 0.00013292869048480067
1053.0, 8.923235101754999e-05
1054.0, 8.616219978599968e-05
1055.0, 0.00022451940763998403
1056.0, 0.00025875987932206135
1057.0, 0.00025386508193074857
1058.0, 0.00015669421597798856
1059.0, 5.677054589100262e-05
1060.0, 0.00026713457337274954
1061.0, 0.00013056949789642272
1062.0, 3.180188139171508e-05
1063.0, 0.0002847570532355348
1064.0, 0.00018321099202325074
1065.0, 8.542120111540057e-05
1066.0, 0.00022800356238706983
1067.0, 0.0003757784952414318
1068.0, 0.00031746995540184506
1069.0, 0.00027595130739512945
1070.0, 0.0003908740057195801
1071.0, 0.00030443642104017803
1072.0, 0.000313842272681057
1073.0, 0.0004725890009037044
1074.0, 0.00031445658112227445
1075.0, 0.00018539104252639042
1076.0, 0.000193195176813216
1077.0, 8.91083984152211e-05
1078.0, 0.00026702350889213326
1079.0, 0.000454563633716062
1080.0, 0.00038122136871536586
1081.0, 0.0001427322075710174
1082.0, 6.705478587495078e-05
1083.0, 0.0001979539824172469
1084.0, 0.000178497418999898
1085.0, 0.00024384664450008395
1086.0, 0.00017222630077682777
1087.0, 0.00013546311779782602
1088.0, 4.6539407021675786e-05
1089.0, 0.00010445725315579045
1090.0, 0.0003719245512643491
1091.0, 7.182223095148223e-05
1092.0, 7.095572338196559e-05
1093.0, 0.00015623727122997648
1094.0, 0.0002022046776967715
1095.0, 0.00024679664670235034
1096.0, 0.00032375423148884165
1097.0, 0.00030872903318679234
1098.0, 9.054501807364293e-05
1099.0, 0.0003788609761365499
1100.0, 0.0003855567882633651
1101.0, 5.6485693893469104e-05
1102.0, 0.00032142736003763225
1103.0, 0.0003295521008342248
1104.0, 0.00012693400377864806
1105.0, 0.00022667853057905241
1106.0, 0.0002498584439607884
1107.0, 0.00010778828561922851
1108.0, 0.00018983395416560282
1109.0, 0.0002804286373444603
1110.0, 0.0003512813581245187
1111.0, 0.00031650723996536496
1112.0, 0.00026951209387932496
1113.0, 9.7709718632927e-05
1114.0, 4.774524961963901e-05
1115.0, 0.0001838722382843585
1116.0, 0.00010835530720417879
1117.0, 0.00014418259379556306
1118.0, 0.0003069958725987744
1119.0, 0.00012475023649983932
1120.0, 3.846202682833628e-05
1121.0, 8.916473013910428e-05
1122.0, 0.00015898063762297143
1123.0, 0.0001878015194531924
1124.0, 0.00014200856247155493
1125.0, 0.00016224007146196888
1126.0, 0.00027142690444354324
1127.0, 0.00019936769236267256
1128.0, 9.806217408844297e-05
1129.0, 6.649185300176964e-05
1130.0, 0.00014899354956782624
1131.0, 0.00013633770616807312
1132.0, 0.0002893027946825022
1133.0, 0.00024413750075370563
1134.0, 0.0001042175726515073
1135.0, 6.267128465791034e-05
1136.0, 4.1688103870998985e-05
1137.0, 0.00011004711455419574
1138.0, 0.00019314989422259172
1139.0, 0.00017197036921306146
1140.0, 8.199855897840868e-05
1141.0, 0.00013670913737508523
1142.0, 4.9490403762131194e-05
1143.0, 6.176517516408875e-05
1144.0, 0.00010873073404656596
1145.0, 0.000179167100607519
1146.0, 0.00027166002516242944
1147.0, 5.183772615917488e-05
1148.0, 7.217946483379829e-05
1149.0, 0.00023606999490389003
1150.0, 0.00022088296147387845
1151.0, 0.0003020225763740931
1152.0, 0.00035732139739757407
1153.0, 0.00030455825652454896
1154.0, 0.00021169497392969198
1155.0, 0.0001366553229846819
1156.0, 0.00013352635598552016
1157.0, 0.0001767897344895089
1158.0, 0.00010458605764438524
1159.0, 5.926080560733247e-05
1160.0, 0.00018833537297998618
1161.0, 0.00010600094092079885
1162.0, 6.052515568822646e-05
1163.0, 5.4003353519269594e-05
1164.0, 3.703876030407196e-05
1165.0, 0.00031128977267112746
1166.0, 0.00020171702661272252
1167.0, 8.638648575502493e-05
1168.0, 9.375269554415852e-05
1169.0, 0.00022382407311222433
1170.0, 0.00017946259221184003
1171.0, 8.475537047393943e-05
1172.0, 0.00018744065315230856
1173.0, 0.0002049220861257321
1174.0, 0.0001073910397562581
1175.0, 0.00014554850957431773
1176.0, 0.00018241553222921587
1177.0, 0.0001903680322576069
1178.0, 0.0001181681869601385
1179.0, 4.766897369222363e-05
1180.0, 0.00015026689924676557
1181.0, 1.4140691137064758e-05
1182.0, 0.00012014944296842203
1183.0, 0.00018907208292667907
1184.0, 0.0001399641209080436
1185.0, 0.00015602271469591464
1186.0, 0.0001754350249870335
1187.0, 0.00015925746369278572
1188.0, 0.00028335144832085347
1189.0, 0.00020833707642521632
1190.0, 0.00012634588894715903
1191.0, 8.557942601124743e-05
1192.0, 2.0618735108820893e-05
1193.0, 5.649435590647609e-05
1194.0, 8.728184049647664e-05
1195.0, 0.00011582843742914876
1196.0, 0.00013021999023621436
1197.0, 0.00018343047791112162
1198.0, 0.0001296808250776517
1199.0, 5.816702904583171e-05
1200.0, 1.909222483593238e-05
1201.0, 6.909773784728343e-05
1202.0, 8.962088648404807e-05
1203.0, 1.5022335465134884e-05
1204.0, 6.909472616204518e-05
1205.0, 4.760179530272515e-05
1206.0, 1.3021325845122541e-05
1207.0, 0.00018769058959976895
1208.0, 0.0002876942256734356
1209.0, 0.00024111235489944805
1210.0, 0.0001702071907586252
1211.0, 0.0001652414869060123
1212.0, 0.00012014417898291159
1213.0, 9.912497284117744e-05
1214.0, 0.0002140141636742315
1215.0, 0.0001250697325725773
1216.0, 0.0001528310293716417
1217.0, 0.0002435847778406599
1218.0, 0.00017639944165261432
1219.0, 0.00026181014360630167
1220.0, 9.253150407810718e-05
1221.0, 3.1716020316879024e-05
1222.0, 0.00024531527245567956
1223.0, 0.0003361398184290773
1224.0, 6.313000187840592e-05
1225.0, 3.579011242756866e-05
1226.0, 0.00018584463098497773
1227.0, 0.00018678628900193136
1228.0, 0.00010390299152792495
1229.0, 4.795856218069194e-05
1230.0, 7.423792664270838e-05
1231.0, 0.00016139960148911237
1232.0, 0.00014880339640087418
1233.0, 0.00010013150988608642
1234.0, 0.00016041301676657983
1235.0, 0.00017287045496704797
1236.0, 7.397293777427861e-06
1237.0, 2.9446721264075262e-05
1238.0, 0.00018304636172522868
1239.0, 0.00020981357561258114
1240.0, 0.00011495217435345625
1241.0, 0.00012418321306814327
1242.0, 0.0001189552155867464
1243.0, 0.00017931109343767966
1244.0, 0.00027494123012420003
1245.0, 0.00016636268037732173
1246.0, 0.00019982258832259648
1247.0, 1.4163864975756215e-05
1248.0, 0.00015499630473903638
1249.0, 0.00024579362329021513
1250.0, 0.00011950098288826696
1251.0, 0.00023673949578279595
1252.0, 0.00020201212190380606
1253.0, 9.614804070534295e-05
1254.0, 0.00016697049119112034
1255.0, 0.0001985287961929546
1256.0, 0.00014428272610700156
1257.0, 9.851586744263643e-05
1258.0, 8.233621823896022e-05
1259.0, 0.0001476488734758929
1260.0, 0.00027192907507117634
1261.0, 0.00029863537150768725
1262.0, 0.0003192121200201266
1263.0, 0.0003089415800839356
1264.0, 0.00022186658149439949
1265.0, 0.0002658058758221953
1266.0, 0.00019848760953209546
1267.0, 0.0003003351447212817
1268.0, 0.00018004028470656544
1269.0, 0.00029897982948373024
1270.0, 0.0001234734658951183
1271.0, 0.0003386312961705466
1272.0, 0.00014938130090286938
1273.0, 5.2570582125256805e-05
1274.0, 0.000287759253292751
1275.0, 0.0003111471176290442
1276.0, 0.00023833320544566815
1277.0, 0.000266261780046701
1278.0, 0.00026873722649237993
1279.0, 0.00018948365683371993
1280.0, 6.90617605080418e-05
1281.0, 0.00019778908692544132
1282.0, 0.00016393278816707253
1283.0, 1.6295710998624707e-05
1284.0, 0.00029059158284943764
1285.0, 0.00040421497205355355
1286.0, 7.44642053510245e-05
1287.0, 1.5645758789092923e-05
1288, 0.0
1289, 0.0
1290, 0.0
1291, 0.0
1292, 0.0
1293, 0.0
1294, 0.0
1295, 0.0
1296, 0.0
1297, 0.0
1298, 0.0
1299, 0.0
1300, 0.0
1301, 0.0
1302, 0.0
1303, 0.0
1304, 0.0
1305, 0.0
1306, 0.0
1307, 0.0
1308, 0.0
1309, 0.0
1310, 0.0
1311, 0.0
1312, 0.0
1313, 0.0
1314, 0.0
1315, 0.0
1316, 0.0
1317, 0.0
1318, 0.0
1319, 0.0
1320, 0.0
1321, 0.0
1322, 0.0
1323, 0.0
1324, 0.0
1325, 0.0
1326, 0.0
1327, 0.0
1328, 0.0
1329, 0.0
1330, 0.0
1331, 0.0
1332, 0.0
1333, 0.0
1334, 0.0
1335, 0.0
1336, 0.0
1337, 0.0
1338, 0.0
1339, 0.0
1340, 0.0
1341, 0.0
1342, 0.0
1343, 0.0
1344, 0.0
1345, 0.0
1346, 0.0
1347, 0.0
1348, 0.0
1349, 0.0
1350, 0.0
1351, 0.0
1352, 0.0
1353, 0.0
1354, 0.0
1355, 0.0
1356, 0.0
1357, 0.0
1358, 0.0
1359, 0.0
1360, 0.0
1361, 0.0
1362, 0.0
1363, 0.0
1364, 0.0
1365, 0.0
1366, 0.0
1367, 0.0
1368, 0.0
1369, 0.0
1370, 0.0
1371, 0.0
1372, 0.0
1373, 0.0
1374, 0.0
1375, 0.0
1376, 0.0
1377, 0.0
1378, 0.0
1379, 0.0
1380, 0.0
1381, 0.0
1382, 0.0
1383, 0.0
1384, 0.0
1385, 0.0
1386, 0.0
1387, 0.0
1388, 0.0
1389, 0.0
1390, 0.0
1391, 0.0
1392, 0.0
1393, 0.0
1394, 0.0
1395, 0.0
1396, 0.0
1397, 0.0
1398, 0.0
1399, 0.0
1400, 0.0
1401, 0.0
1402, 0.0
1403, 0.0
1404, 0.0
1405, 0.0
1406, 0.0
1407, 0.0
1408, 0.0
1409, 0.0
1410, 0.0
1411, 0.0
1412, 0.0
1413, 0.0
1414, 0.0
1415, 0.0
1416, 0.0
1417, 0.0
1418, 0.0
1419, 0.0
1420, 0.0
1421, 0.0
1422, 0.0
1423, 0.0
1424, 0.0
1425, 0.0
1426, 0.0
1427, 0.0
1428, 0.0
1429, 0.0
1430, 0.0
1431, 0.0
1432, 0.0
1433, 0.0
1434, 0.0
1435, 0.0
1436, 0.0
1437, 0.0
1438, 0.0
1439, 0.0
1440, 0.0
1441, 0.0
1442, 0.0
1443, 0.0
1444, 0.0
1445, 0.0
1446, 0.0
1447, 0.0
1448, 0.0
1449, 0.0
1450, 0.0
1451, 0.0
1452, 0.0
1453, 0.0
1454, 0.0
1455, 0.0
1456, 0.0
1457, 0.0
1458, 0.0
1459, 0.0
1460, 0.0
1461, 0.0
1462, 0.0
1463, 0.0
1464, 0.0
1465, 0.0
1466, 0.0
1467, 0.0
1468, 0.0
1469, 0.0
1470, 0.0
1471, 0.0
1472, 0.0
1473, 0.0
1474, 0.0
1475, 0.0
1476, 0.0
1477, 0.0
1478, 0.0
1479, 0.0
1480, 0.0
1481, 0.0
1482, 0.0
1483, 0.0
1484, 0.0
1485, 0.0
1486, 0.0
1487, 0.0
1488, 0.0
1489, 0.0
1490, 0.0
1491, 0.0
1492, 0.0
1493, 0.0
1494, 0.0
1495, 0.0
1496, 0.0
1497, 0.0
1498, 0.0
1499, 0.0
1500, 0.0
1501, 0.0
1502, 0.0
1503, 0.0
1504, 0.0
1505, 0.0
1506, 0.0
1507, 0.0
1508, 0.0
1509, 0.0
1510, 0.0
1511, 0.0
1512, 0.0
1513, 0.0
1514, 0.0
1515, 0.0
1516, 0.0
1517, 0.0
1518, 0.0
1519, 0.0
1520, 0.0
1521, 0.0
1522, 0.0
1523, 0.0
1524, 0.0
1525, 0.0
1526, 0.0
1527, 0.0
1528, 0.0
1529, 0.0
1530, 0.0
1531, 0.0
1532, 0.0
1533, 0.0
1534, 0.0
1535, 0.0
1536, 0.0
1537, 0.0
1538, 0.0
1539, 0.0
1540, 0.0
1541, 0.0
1542, 0.0
1543, 0.0
1544, 0.0
1545, 0.0
1546, 0.0
1547, 0.0
1548, 0.0
1549, 0.0
1550, 0.0
1551, 0.0
1552, 0.0
1553, 0.0
1554, 0.0
1555, 0.0
1556, 0.0
1557, 0.0
1558, 0.0
1559, 0.0
1560, 0.0
1561, 0.0
1562, 0.0
1563, 0.0
1564, 0.0
1565, 0.0
1566, 0.0
1567, 0.0
1568, 0.0
1569, 0.0
1570, 0.0
1571, 0.0
1572, 0.0
1573, 0.0
1574, 0.0
1575, 0.0
1576, 0.0
1577, 0.0
1578, 0.0
1579, 0.0
1580, 0.0
1581, 0.0
1582, 0.0
1583, 0.0
1584, 0.0
1585, 0.0
1586, 0.0
1587, 0.0
1588, 0.0
1589, 0.0
1590, 0.0
1591, 0.0
1592, 0.0
1593, 0.0
1594, 0.0
1595, 0.0
1596, 0.0
1597, 0.0
1598, 0.0
1599, 0.0
