30, 0.0
31, 0.0
32, 0.0
33, 0.0
34, 0.0
35, 0.0
36, 0.0
37, 0.0
38, 0.0
39, 0.0
40, 0.0
41, 0.0
42, 0.0
43, 0.0
44, 0.0
45, 0.0
46, 0.0
47, 0.0
48, 0.0
49, 0.0
50, 0.0
51, 0.0
52, 0.0
53, 0.0
54, 0.0
55, 0.0
56, 0.0
57, 0.0
58, 0.0
59, 0.0
60, 0.0
61, 0.0
62, 0.0
63, 0.0
64, 0.0
65, 0.0
66, 0.0
67, 0.0
68, 0.0
69, 0.0
70, 0.0
71, 0.0
72, 0.0
73, 0.0
74, 0.0
75, 0.0
76, 0.0
77, 0.0
78, 0.0
79, 0.0
80, 0.0
81, 0.0
82, 0.0
83, 0.0
84, 0.0
85, 0.0
86, 0.0
87, 0.0
88, 0.0
89, 0.0
90, 0.0
91.0, 0.0008791630287591208
92.0, 0.0037580700362822416
93.0, 0.0065450606025928525
94.0, 0.005818530834934471
95.0, 0.0029413949760260815
96.0, 0.002215155920324941
97.0, 0.0023017424033013353
98.0, 0.0016456498486479192
99.0, 0.0016485053051111444
100.0, 0.001830552095210114
101.0, 0.002046697922898487
102.0, 0.002258186948088333
103.0, 0.002622744167143637
104.0, 0.0046629514254724926
105.0, 0.007607434855868602
106.0, 0.010139368571338927
107.0, 0.01055704727521221
108.0, 0.012471625055770891
109.0, 0.015301100383967332
110.0, 0.017176221598886106
111.0, 0.01646752461999399
112.0, 0.014704240370419255
113.0, 0.011313196091876133
114.0, 0.006462007395581368
115.0, 0.0022755473740347235
116.0, 0.00030441387956755585
117.0, 0.0008463542628897481
118.0, 0.0009992752149109929
119.0, 0.0010408330275878009
120.0, 0.00067899096061102
121.0, 0.0003214176855412244
122.0, 0.0019206356177742438
123.0, 0.003916363099356071
124.0, 0.006663970107041872
125.0, 0.009736600704573233
126.0, 0.013005033330766391
127.0, 0.016544451954860432
128.0, 0.02084756686165078
129.0, 0.02509132864245188
130.0, 0.029739488349112872
131.0, 0.035244201793596705
132.0, 0.04069228746378249
133.0, 0.045655042358956135
134.0, 0.04847043819980414
135.0, 0.047667535712999254
136.0, 0.04298220391993044
137.0, 0.037321792297281255
138.0, 0.03241001174382067
139.0, 0.029602220787914756
140.0, 0.029443161486819767
141.0, 0.031148666299869846
142.0, 0.0341577198876227
143.0, 0.038223553464948684
144.0, 0.04327652959617072
145.0, 0.04834499710101023
146.0, 0.05124995445942109
147.0, 0.0511617778837864
148.0, 0.047731843600831964
149.0, 0.04114842999704233
150.0, 0.033437426463679185
151.0, 0.025669163042282155
152.0, 0.01880872676628479
153.0, 0.013845133330047086
154.0, 0.009887165880433427
155.0, 0.006794161626566092
156.0, 0.004549647576432701
157.0, 0.002941243573941405
158.0, 0.001839649513220637
159.0, 0.0009242705172254197
160.0, 0.00023113203002752923
161.0, 8.198331096594935e-05
162.0, 0.000150867382769898
163.0, 8.024296364221402e-05
164.0, 5.391564381711597e-05
165.0, 0.00021042158862492717
166.0, 0.0004376408317805418
167.0, 0.0009133417202963906
168.0, 0.0014202847012615867
169.0, 0.0019513693512706353
170.0, 0.0027443333530125366
171.0, 0.00366796956894759
172.0, 0.004683864956111941
173.0, 0.005812336388491453
174.0, 0.007009438732268565
175.0, 0.008172387740677222
176.0, 0.009774660180920793
177.0, 0.011521042924955925
178.0, 0.01345907114553526
179.0, 0.016268154964023927
180.0, 0.019012820066725344
181.0, 0.02131104472561563
182.0, 0.02290233376993023
183.0, 0.023412285161210963
184.0, 0.022181565733118438
185.0, 0.01985770556608794
186.0, 0.016948718395161027
187.0, 0.013834834284344137
188.0, 0.010811616398033795
189.0, 0.008499447785609463
190.0, 0.006689659525035175
191.0, 0.00523273012486584
192.0, 0.004347245639483489
193.0, 0.0038935621943216227
194.0, 0.00358906895212596
195.0, 0.003439614602741664
196.0, 0.0036171881546223387
197.0, 0.004013084621483497
198.0, 0.004282058931987399
199.0, 0.004714616386462723
200.0, 0.005498288852697144
201.0, 0.006001055866321918
202.0, 0.007095989658604599
203.0, 0.008358804356435968
204.0, 0.00967967465954337
205.0, 0.011488865638461711
206.0, 0.013447564540438514
207.0, 0.01562124387486096
208.0, 0.01805326894578959
209.0, 0.020710203796573592
210.0, 0.02343614656385774
211.0, 0.02587000475547952
212.0, 0.027709480445660302
213.0, 0.028528616188591545
214.0, 0.02792533839135249
215.0, 0.026305749440388035
216.0, 0.02364621507699634
217.0, 0.020539828043203628
218.0, 0.01750883238494412
219.0, 0.014558699852510607
220.0, 0.012266914281822045
221.0, 0.010298120726966082
222.0, 0.008435872891718373
223.0, 0.006841277479471144
224.0, 0.005550252718446128
225.0, 0.004566818435471797
226.0, 0.0038409986232254773
227.0, 0.0032579071434097975
228.0, 0.0025169924268452696
229.0, 0.002002265797361616
230.0, 0.0016815913952138196
231.0, 0.0013758630176107036
232.0, 0.000912655251346552
233.0, 0.000798838006560902
234.0, 0.0006857293563898075
235.0, 0.0005133262759738227
236.0, 0.00042542305111033176
237.0, 0.0004003088804985212
238.0, 0.00022498167391602234
239.0, 9.877980217381187e-05
240.0, 0.00015626482154728458
241.0, 0.0003660816794206521
242.0, 0.0001446679366270681
243.0, 0.0001318145392634506
244.0, 0.00023450919274303682
245.0, 0.00012212223695220849
246.0, 6.074959791014752e-05
247.0, 0.00014037887109135514
248.0, 0.00017808570463953314
249.0, 0.00011337229550521601
250.0, 9.751183481723187e-05
251.0, 5.3744990443304465e-05
252.0, 4.600901826500909e-06
253.0, 5.562298785807019e-05
254.0, 9.410369238113024e-05
255.0, 2.359539380526281e-05
256.0, 8.430748114013247e-06
257.0, 0.0001254563968461512
258.0, 0.000210917926981462
259.0, 0.00011263597392768943
260.0, 3.8329781069224426e-05
261.0, 2.5085163209026786e-05
262.0, 6.77977078173999e-05
263.0, 6.434331810428879e-05
264.0, 5.1654028203445436e-05
265.0, 0.00010414370403007532
266.0, 0.00012577335427296652
267.0, 0.00010070693931294402
268.0, 2.662039853275651e-05
269.0, 0.00021192695915112306
270.0, 7.7733218698373e-05
271.0, 3.101001777589154e-05
272.0, 6.770350430136716e-05
273.0, 1.8748466917233654e-05
274.0, 3.203047282756586e-05
275.0, 3.498291476630518e-05
276.0, 2.4297314308659298e-05
277.0, 0.00012709691721614344
278.0, 0.00026108160134900475
279.0, 0.0002688267005390563
280.0, 0.0001314760016526633
281.0, 2.4763546548661435e-05
282.0, 5.0002261499678946e-05
283.0, 3.3352376740063816e-05
284.0, 9.931023779907294e-06
285.0, 0.00010283907120787146
286.0, 0.00021956070721029086
287.0, 0.0003789006731858938
288.0, 0.0006027627786343608
289.0, 0.0006564544489651722
290.0, 0.0005693979339377835
291.0, 0.0005015750758713245
292.0, 0.0006019470734944453
293.0, 0.00071533011454949
294.0, 0.0006648107399575934
295.0, 0.0007194909494740424
296.0, 0.0011048951162711085
297.0, 0.0011464909689734917
298.0, 0.0012508539419220216
299.0, 0.0014312843549557745
300.0, 0.0015997771389365644
301.0, 0.0017141897967555518
302.0, 0.00200055510110568
303.0, 0.002249254743867973
304.0, 0.0024210218759151106
305.0, 0.002604410219186302
306.0, 0.002929784943845716
307.0, 0.003190680741850438
308.0, 0.0035681988622954623
309.0, 0.004034124368217607
310.0, 0.0044535744113367364
311.0, 0.004669394048754645
312.0, 0.005053291700649743
313.0, 0.005362084971412886
314.0, 0.005600577739943134
315.0, 0.005779868507793306
316.0, 0.005585306597831348
317.0, 0.005455281761421721
318.0, 0.005339698692274813
319.0, 0.005068112324289196
320.0, 0.004613433396683263
321.0, 0.004340254033829905
322.0, 0.003958017439743968
323.0, 0.0034522133508654534
324.0, 0.0031090586100232073
325.0, 0.003190542669425669
326.0, 0.0025630292651117274
327.0, 0.002147181446016608
328.0, 0.0019736633577573082
329.0, 0.0017714144113176273
330.0, 0.0015090986662107337
331.0, 0.0014475319914630084
332.0, 0.0013012584062708742
333.0, 0.0011023079068528977
334.0, 0.0009884976326021457
335.0, 0.0009649684885164708
336.0, 0.0009220616276449548
337.0, 0.0007600563447209847
338.0, 0.000611747846066636
339.0, 0.0005419200334580936
340.0, 0.000445716945651731
341.0, 0.0006448973843919016
342.0, 0.0005527085189336897
343.0, 0.0003888442904932844
344.0, 0.0004409923437606647
345.0, 0.0003516455704011885
346.0, 0.00018738632631381047
347.0, 0.00018371391240631907
348.0, 0.00018480640737432365
349.0, 1.3260557460880058e-05
350.0, 8.253197154656652e-05
351.0, 8.307266667815327e-05
352.0, 2.5118846022245535e-05
353.0, 5.565602593420328e-05
354.0, 4.511724261140005e-05
355.0, 0.00017277514424439853
356.0, 0.00010462293547891165
357.0, 5.529792811924105e-06
358.0, 6.352586666116402e-05
359.0, 0.0001578691542759853
360.0, 2.1546328445714497e-05
361.0, 0.00023626720370276664
362.0, 0.0003034622004831703
363.0, 0.00012065257503720637
364.0, 2.888632764547861e-05
365.0, 7.609353310105213e-05
366.0, 6.850829403592537e-05
367.0, 8.837128433810644e-05
368.0, 6.258138737339243e-05
369.0, 0.00023973975674493504
370.0, 8.460006278688894e-05
371.0, 0.00011120098116456459
372.0, 0.00017051035764573772
373.0, 0.0001847246902970782
374.0, 0.00020844356801294917
375.0, 0.0001767670750994377
376.0, 0.00033774890411817043
377.0, 0.00045219557120714703
378.0, 0.000434319346179096
379.0, 0.0003988677432665988
380.0, 0.0005597008266076828
381.0, 0.0007140885590073658
382.0, 0.0007549903313350616
383.0, 0.0007840297598798848
384.0, 0.0009418092715373154
385.0, 0.0010694177797693752
386.0, 0.0012696887172338473
387.0, 0.001400138151960137
388.0, 0.0014901263456058677
389.0, 0.0016921276044338386
390.0, 0.002055737767138095
391.0, 0.0022527255349024844
392.0, 0.0024434053109283244
393.0, 0.0027069028935542546
394.0, 0.003078565889353562
395.0, 0.003691434643700015
396.0, 0.004182383484223646
397.0, 0.00484499374828755
398.0, 0.005620682104612073
399.0, 0.006446754287137868
400.0, 0.007651403729620951
401.0, 0.00868407142115479
402.0, 0.009747361338128016
403.0, 0.010920239617492795
404.0, 0.012285114985729506
405.0, 0.014055274367796593
406.0, 0.016210063123599766
407.0, 0.018852239986649224
408.0, 0.022190156213732496
409.0, 0.026415230145056638
410.0, 0.0316602251392456
411.0, 0.03814041696266426
412.0, 0.04602984851292174
413.0, 0.055166000512803154
414.0, 0.06448650146358015
415.0, 0.07234593145591288
416.0, 0.07588112581511697
417.0, 0.0723820585366268
418.0, 0.06283286117574854
419.0, 0.05006290486671129
420.0, 0.03788469368695968
421.0, 0.02834171890942997
422.0, 0.020867875350946176
423.0, 0.01536419748823328
424.0, 0.01150164960129915
425.0, 0.008771671284125539
426.0, 0.006859818428051835
427.0, 0.005347549580954179
428.0, 0.004083010955379173
429.0, 0.0031555468829576674
430.0, 0.002550870428610317
431.0, 0.0019492727444846447
432.0, 0.0014853140584088354
433.0, 0.001217111005961378
434.0, 0.001045694464844937
435.0, 0.0008345567362393041
436.0, 0.000577016798418398
437.0, 0.0005387573140898643
438.0, 0.00038921840375024275
439.0, 0.00017076980964714927
440.0, 5.187621872687804e-05
441.0, 6.711521705057383e-05
442.0, 0.00011790219347265934
443.0, 6.47605695693181e-06
444.0, 1.62262267610927e-05
445.0, 4.514142900190852e-05
446.0, 5.4539502030926414e-05
447.0, 2.265109445769081e-05
448.0, 0.00018845914031646635
449.0, 0.0002528957705031928
450.0, 0.0002879954871707188
451.0, 0.00036305699651601977
452.0, 0.0003801272940228215
453.0, 0.00046355524665548677
454.0, 0.000576140759618464
455.0, 0.0008018728447542396
456.0, 0.0010399978395620288
457.0, 0.0011446681649297191
458.0, 0.0014007184354153063
459.0, 0.001384535389627764
460.0, 0.0015876644321297186
461.0, 0.0018501490847784346
462.0, 0.001968575901098084
463.0, 0.002280972333397132
464.0, 0.002414695615273731
465.0, 0.0027718282509028754
466.0, 0.003185535252813498
467.0, 0.003604570106548539
468.0, 0.004232794568518323
469.0, 0.004735574706637314
470.0, 0.005482208317322549
471.0, 0.006295356516432124
472.0, 0.007156186632674057
473.0, 0.008183909177767661
474.0, 0.009363471870850815
475.0, 0.011058930623772001
476.0, 0.012913093735829417
477.0, 0.015061089140109288
478.0, 0.017656595441148965
479.0, 0.020507154212330854
480.0, 0.02375143701520247
481.0, 0.02720226922982397
482.0, 0.030977561589939563
483.0, 0.035359768708861754
484.0, 0.04065365291006072
485.0, 0.04696569805376308
486.0, 0.05442849308779316
487.0, 0.06320119234801787
488.0, 0.0736555375540165
489.0, 0.08614107065903889
490.0, 0.10059062396386509
491.0, 0.11693891551713921
492.0, 0.1336702086566399
493.0, 0.1500257198435982
494.0, 0.16261987105677903
495.0, 0.16732835091977277
496.0, 0.16352145440276764
497.0, 0.15078285433710725
498.0, 0.13155240183895542
499.0, 0.11026297913933895
500.0, 0.09030513293393042
501.0, 0.07312408873922047
502.0, 0.059183017763307394
503.0, 0.048083404060988384
504.0, 0.03917616958419231
505.0, 0.03218981331411952
506.0, 0.026856908253635667
507.0, 0.022575563216470373
508.0, 0.019220679925179784
509.0, 0.0161809308913864
510.0, 0.0137842939074498
511.0, 0.012051241976970675
512.0, 0.010520128601765452
513.0, 0.00898432417687939
514.0, 0.007917787682171185
515.0, 0.00699564889658579
516.0, 0.00604965286150498
517.0, 0.005187198640997659
518.0, 0.004521981601820008
519.0, 0.003805684414433622
520.0, 0.0032628674490475496
521.0, 0.002859052256132877
522.0, 0.00245459040218604
523.0, 0.0020349680292201396
524.0, 0.001709855175973471
525.0, 0.0014131138854737199
526.0, 0.0012518617512021664
527.0, 0.0010340880790319482
528.0, 0.0008014769646402218
529.0, 0.00065964533161275
530.0, 0.0004364107273889782
531.0, 0.0002432315716485547
532.0, 7.448348001662391e-05
533.0, 1.3796522738541684e-05
534.0, 9.109157994452029e-05
535.0, 0.00025813945066263807
536.0, 0.0002584197651873101
537.0, 9.667999142620089e-05
538.0, 8.301632101951756e-05
539.0, 0.0002987890491637313
540.0, 0.00044244305105428997
541.0, 0.0002198460071092023
542.0, 0.00020785197267431089
543.0, 0.000263040128714756
544.0, 0.0002804032750958404
545.0, 0.00015158354876294373
546.0, 7.617991499028504e-05
547.0, 0.00016134310011266337
548.0, 0.00014308359255552782
549.0, 0.00018045683946304347
550.0, 0.00039941056593624524
551.0, 0.000617582963453636
552.0, 0.0006549345807167204
553.0, 0.0007425586899759976
554.0, 0.0010807631910231962
555.0, 0.0011312112972322534
556.0, 0.0013438326960153136
557.0, 0.0016120804934722055
558.0, 0.0016879980202352473
559.0, 0.0020627064961792705
560.0, 0.002144672347640631
561.0, 0.002299765816949926
562.0, 0.002517981618337484
563.0, 0.0027659482274870442
564.0, 0.0030609125737867324
565.0, 0.003250828842038137
566.0, 0.003628227174320871
567.0, 0.003971597799389772
568.0, 0.004466746760307682
569.0, 0.004926288703750407
570.0, 0.005113418085077433
571.0, 0.005530601532637219
572.0, 0.005961368840583311
573.0, 0.006461420609116305
574.0, 0.006848856568102922
575.0, 0.007196087910465825
576.0, 0.007728626058860153
577.0, 0.008268265742920246
578.0, 0.008494353674241567
579.0, 0.008989660977857377
580.0, 0.009495730468611326
581.0, 0.00990767872838804
582.0, 0.010382968495835582
583.0, 0.010763723870181041
584.0, 0.011159182590132115
585.0, 0.011604211710279106
586.0, 0.012054610189538583
587.0, 0.012433843133915549
588.0, 0.012736530682144172
589.0, 0.013117284895679218
590.0, 0.013680916492872857
591.0, 0.01416303707738318
592.0, 0.014464310476083465
593.0, 0.014693273769039488
594.0, 0.015068899570256812
595.0, 0.01564394982875815
596.0, 0.01619129444140621
597.0, 0.01676563971332371
598.0, 0.01722972252525001
599.0, 0.017650697857334745
600.0, 0.018242076925503507
601.0, 0.01922453060904992
602.0, 0.020368102948720913
603.0, 0.021398458106060052
604.0, 0.02240003170769049
605.0, 0.02364001366937497
606.0, 0.02511926677486809
607.0, 0.0264966781378165
608.0, 0.028225865707623882
609.0, 0.030354322055476418
610.0, 0.032405106873444826
611.0, 0.034587664920440464
612.0, 0.03706097065049053
613.0, 0.039749883231097384
614.0, 0.043082169293433455
615.0, 0.04636712762782959
616.0, 0.04962879536095213
617.0, 0.05315816723762726
618.0, 0.05661303332504478
619.0, 0.059366035946147415
620.0, 0.06154142009115582
621.0, 0.06274608801929545
622.0, 0.06255043217096387
623.0, 0.060681779964514286
624.0, 0.05734622667905996
625.0, 0.05279183272598505
626.0, 0.047059955805147144
627.0, 0.04087756330780424
628.0, 0.03489194044503075
629.0, 0.029593781730267353
630.0, 0.024916586747285998
631.0, 0.020735823935955227
632.0, 0.017112694459016062
633.0, 0.013942925850626422
634.0, 0.011592244757778244
635.0, 0.009643685775617137
636.0, 0.00798240629429372
637.0, 0.006671208915399877
638.0, 0.005606014456406379
639.0, 0.0044602116049785884
640.0, 0.0038749674877887673
641.0, 0.0031276386304661917
642.0, 0.002461900291417426
643.0, 0.0020135039313512585
644.0, 0.0016137122713128116
645.0, 0.0013321175873696567
646.0, 0.0010200689686478115
647.0, 0.0009354771566132699
648.0, 0.0006405222730959525
649.0, 0.0004272195984284067
650.0, 0.00038985147357987793
651.0, 0.00015393103482060904
652.0, 2.7040185832659365e-05
653.0, 8.081050765253586e-05
654.0, 2.721672944087321e-05
655.0, 5.377484536607052e-05
656.0, 0.0001348376973758548
657.0, 9.265109337508557e-05
658.0, 3.935627553216224e-05
659.0, 0.0001448455453591271
660.0, 0.00017200286495708692
661.0, 0.0001462131193179251
662.0, 0.00013541452125203986
663.0, 0.0001298358262680522
664.0, 5.1213249214594523e-05
665.0, 4.15856373374792e-05
666.0, 4.739135519072203e-05
667.0, 0.00011474474693253343
668.0, 0.000265809674547544
669.0, 0.00030091180544581037
670.0, 0.00037946788802338684
671.0, 0.0004803814144917071
672.0, 0.000524315060712582
673.0, 0.0004467982741886845
674.0, 0.0005483315525588547
675.0, 0.0005710380213782472
676.0, 0.00043559259560080945
677.0, 0.00033890290638445054
678.0, 0.0002820940563744178
679.0, 0.0003719090130587291
680.0, 0.0004739383497703095
681.0, 0.00041220003838372555
682.0, 0.0004064789713900367
683.0, 0.0005062947808817037
684.0, 0.0005105615983143569
685.0, 0.00039448615653107585
686.0, 0.00036800776465780046
687.0, 0.0004752000611409139
688.0, 0.0004919160058574775
689.0, 0.0004969852832274535
690.0, 0.0005023040343917656
691.0, 0.0004176944464231682
692.0, 0.0005678328590119974
693.0, 0.0005924155975529261
694.0, 0.0004989123481208794
695.0, 0.00042800870536943724
696.0, 0.00044421786138752246
697.0, 0.0005070718811097068
698.0, 0.0005343705104744323
699.0, 0.0005238434732381433
700.0, 0.00044414949853409694
701.0, 0.0006188212233611374
702.0, 0.0005709033628788293
703.0, 0.00034969755956256853
704.0, 0.0002973438509163014
705.0, 0.0003904752615444056
706.0, 0.0002875602523383633
707.0, 0.00030140569367535477
708.0, 0.0003089542962396718
709.0, 0.00022567770036233597
710.0, 0.00026749084181223597
711.0, 0.00038336549205619867
712.0, 0.00024361305318050118
713.0, 0.0001535197531852344
714.0, 0.00020879938034995855
715.0, 0.00018446214043537967
716.0, 0.0001919671971230765
717.0, 0.00017570550779706821
718.0, 6.883767064365785e-05
719.0, 7.144592168208142e-05
720.0, 6.751285450658227e-05
721.0, 6.336021433033923e-05
722.0, 0.00010734587876568448
723.0, 7.200203656217106e-05
724.0, 1.2634631599049658e-05
725.0, 0.00010456986356624197
726.0, 0.0001496526773627301
727.0, 5.480726848378107e-05
728.0, 7.317229097934417e-05
729.0, 0.00017348650562047326
730.0, 0.0001943564380208133
731.0, 0.00016217824350910664
732.0, 0.00015997808157115878
733.0, 0.0002555744776442743
734.0, 0.0001931659558201426
735.0, 0.0001616410352305396
736.0, 0.00017937392094733142
737.0, 0.00023641980654285862
738.0, 0.0002967299228288023
739.0, 0.00032809198750389915
740.0, 0.0003153605693995697
741.0, 0.0002662155465137619
742.0, 0.00033437295465438694
743.0, 0.00038572481525169335
744.0, 0.00038568971803916885
745.0, 0.00032359458235269115
746.0, 0.00033848705928005
747.0, 0.0004475597639124968
748.0, 0.0004000597955669148
749.0, 0.0004013468711406804
750.0, 0.00047145331004243816
751.0, 0.000555990565699995
752.0, 0.0005052326714709667
753.0, 0.0004242759730884861
754.0, 0.0005027205078902302
755.0, 0.0006405361124186974
756.0, 0.00047923371880499325
757.0, 0.0004322707738094648
758.0, 0.0004730887946056198
759.0, 0.00039540121472317693
760.0, 0.0002812370920937339
761.0, 0.0002651003637205607
762.0, 0.00028630400082689403
763.0, 0.00034068732022829917
764.0, 0.0002975644335931579
765.0, 0.0003172476948868395
766.0, 0.00022194607796967875
767.0, 0.00022016954563153538
768.0, 0.0002959878718903654
769.0, 0.00024286663980689144
770.0, 0.00019387763754400285
771.0, 0.0001284654229094558
772.0, 7.79484602292376e-05
773.0, 9.070974329523004e-05
774.0, 6.951221237183433e-05
775.0, 6.094526170549173e-05
776.0, 2.1402633921832937e-05
777.0, 0.00011125136639938137
778.0, 9.987343784083707e-05
779.0, 6.057424078901075e-05
780.0, 6.991027653800399e-05
781.0, 5.0562958902028346e-05
782.0, 3.619915704791461e-05
783.0, 1.4949100114439471e-05
784.0, 7.812907891807147e-05
785.0, 2.9879229225435918e-05
786.0, 0.00011176861147051211
787.0, 9.420174834030322e-05
788.0, 5.989353778929042e-05
789.0, 2.298061563571159e-05
790.0, 0.00010226968242884769
791.0, 0.00018323518499080928
792.0, 0.00013312121034291798
793.0, 0.00013588832497558428
794.0, 0.00013972478079097298
795.0, 0.00021031541240311316
796.0, 0.00023710040116180008
797.0, 0.00037094704839344436
798.0, 0.00044547577979313856
799.0, 0.0003578217239601874
800.0, 0.0003175658989280625
801.0, 0.0003085678937999818
802.0, 0.0003150624099684193
803.0, 0.00035694370180276724
804.0, 0.00036972258357066007
805.0, 0.00044455174022868494
806.0, 0.00042010762631852495
807.0, 0.0003686777252964181
808.0, 0.0005459535191308087
809.0, 0.0005453391669753354
810.0, 0.0004073327033868032
811.0, 0.0005307832900407754
812.0, 0.0005935470817942391
813.0, 0.0006556025949406824
814.0, 0.0006889346061815974
815.0, 0.0006512292408127264
816.0, 0.0005968330393260022
817.0, 0.0005571173231452279
818.0, 0.0006366313270365291
819.0, 0.0006625510175620572
820.0, 0.0007179855147852011
821.0, 0.0007641445721311421
822.0, 0.0007304002372014749
823.0, 0.000656089419385112
824.0, 0.0006524498137786622
825.0, 0.000775056937742482
826.0, 0.0007612798757012831
827.0, 0.0005706235891318869
828.0, 0.0006434756056137953
829.0, 0.0007440590723674504
830.0, 0.0006960099758212623
831.0, 0.0006714415088867601
832.0, 0.0007161083624625759
833.0, 0.0006616905214238334
834.0, 0.0007283053536752462
835.0, 0.0007117289073280808
836.0, 0.0006698455414923389
837.0, 0.0005050717219876379
838.0, 0.0005050407835469447
839.0, 0.0005243819483699391
840.0, 0.00043820341105849884
841.0, 0.0004875300566901041
842.0, 0.00037917391632224015
843.0, 0.0004954699339105629
844.0, 0.0004595459558222714
845.0, 0.0003659667342713834
846.0, 0.0004932281151915452
847.0, 0.0005799650436418149
848.0, 0.0005197153958111124
849.0, 0.000579300752628752
850.0, 0.0007284775281775635
851.0, 0.0007518204287741727
852.0, 0.0007786610994713801
853.0, 0.000834466754991615
854.0, 0.0007149450881634622
855.0, 0.0007477417992494716
856.0, 0.0008123603654415635
857.0, 0.0006459798930172338
858.0, 0.0007222839703998348
859.0, 0.0007876940672863851
860.0, 0.0007886781251252702
861.0, 0.0007914857378870914
862.0, 0.000799993758295087
863.0, 0.0008168066575257545
864.0, 0.0007618739161893473
865.0, 0.0007081645356497506
866.0, 0.0007541796221153115
867.0, 0.0007580126678436596
868.0, 0.0008442242313204396
869.0, 0.0009361616741768448
870.0, 0.0009410890297662787
871.0, 0.0008691215982680877
872.0, 0.0008920843949156641
873.0, 0.0009048280277918026
874.0, 0.0008129036076055568
875.0, 0.0007525806845870332
876.0, 0.0006789391901016105
877.0, 0.0008132482285164554
878.0, 0.0007306952707902638
879.0, 0.0007196586554107767
880.0, 0.000672940231652017
881.0, 0.0006407934709694785
882.0, 0.0007462764697718345
883.0, 0.0007601086581091327
884.0, 0.0005487671089281065
885.0, 0.0005489830475579944
886.0, 0.0004288701318484564
887.0, 0.0005545987810018349
888.0, 0.0003942227845824436
889.0, 0.0003085215287139549
890.0, 0.0003838559388827009
891.0, 0.0004190256424215153
892.0, 0.0003740770059652602
893.0, 0.00032150154579310274
894.0, 0.00016401948374897868
895.0, 7.21910687832522e-05
896.0, 0.0001745754030509002
897.0, 0.0001587864976978091
898.0, 4.2212822287412506e-05
899.0, 7.378199283575453e-05
900.0, 0.00013810232730429337
901.0, 0.00010044043626214226
902.0, 6.051557756614219e-06
903.0, 6.375280970355256e-05
904.0, 0.00015588048476063883
905.0, 0.00021492693854571692
906.0, 0.0002332657861617523
907.0, 0.00022514860450262018
908.0, 0.0002045178796696546
909.0, 0.00011202453846019273
910.0, 2.8214147722981913e-05
911.0, 3.677432604990689e-05
912.0, 6.480056315797046e-05
913.0, 6.280578368298124e-05
914.0, 9.050444138793843e-05
915.0, 7.878863860218608e-05
916.0, 2.3537762633228827e-05
917.0, 1.358525353119306e-05
918.0, 5.7303329656978375e-06
919.0, 2.0489200061284203e-05
920.0, 3.132910044377696e-05
921.0, 7.288491770646211e-05
922.0, 0.00010371856869168849
923.0, 6.67202732524524e-05
924.0, 2.2967278813206252e-05
925.0, 5.456653699822209e-06
926.0, 0.00011499698108029401
927.0, 0.00022671665283569058
928.0, 0.00028823451586591
929.0, 0.0002714230049271177
930.0, 0.00019826288112577647
931.0, 0.0002416372769186771
932.0, 0.00023234894807471463
933.0, 0.00012247954944259913
934.0, 0.0002295678754537525
935.0, 0.00025680441380590915
936.0, 0.00031860558082835575
937.0, 0.0004094559096361185
938.0, 0.00047594684566680306
939.0, 0.0004829968290345599
940.0, 0.00035111415613057036
941.0, 0.0003151001383061194
942.0, 0.00042689084927976124
943.0, 0.0004763761656339351
944.0, 0.00046760864083923666
945.0, 0.0005391797642153713
946.0, 0.0006144371067094398
947.0, 0.0005900019441122881
948.0, 0.00047032583615945353
949.0, 0.00035962771195250894
950.0, 0.0004048044166808004
951.0, 0.0006000819800016765
952.0, 0.0006133330717920716
953.0, 0.0006449112041051737
954.0, 0.0007535710988111922
955.0, 0.0008061580161446435
956.0, 0.0007959481080998261
957.0, 0.0008620947639600865
958.0, 0.0009261636599592532
959.0, 0.001036017112750854
960.0, 0.001148128477764198
961.0, 0.0011521697118357722
962.0, 0.0013173807915155898
963.0, 0.0015108866154652438
964.0, 0.0015228486762923227
965.0, 0.001692687578550333
966.0, 0.0019441509808913286
967.0, 0.002032761595491936
968.0, 0.002153347614738652
969.0, 0.002442036115584636
970.0, 0.0026728177482385727
971.0, 0.002795562381194587
972.0, 0.003005108238929064
973.0, 0.0033121186170475807
974.0, 0.0037134057047021767
975.0, 0.004150991342682811
976.0, 0.0045589143917482994
977.0, 0.00507556568997695
978.0, 0.005491639943785708
979.0, 0.005956441648097899
980.0, 0.006638941405516154
981.0, 0.007266224488775791
982.0, 0.008022955267137597
983.0, 0.008942202687380866
984.0, 0.009930323762674262
985.0, 0.011089241668193856
986.0, 0.012369525563808076
987.0, 0.013972565375657312
988.0, 0.01603478194483602
989.0, 0.01846959978360914
990.0, 0.021020370243649743
991.0, 0.023494695240511176
992.0, 0.026096668384300126
993.0, 0.02920130760440939
994.0, 0.03271584020393981
995.0, 0.0377086050576371
996.0, 0.045839725664191124
997.0, 0.05757164014802834
998.0, 0.07199616882612819
999.0, 0.08709601013824082
1000.0, 0.10195226511858238
1001.0, 0.11950157851305936
1002.0, 0.1440593958315542
1003.0, 0.17813228046320795
1004.0, 0.22509901090518805
1005.0, 0.2912840030473152
1006.0, 0.38527697384822895
1007.0, 0.5209844423163584
1008.0, 0.7103140616711783
1009.0, 0.9166450136547776
1010.0, 0.99955104151344
1011.0, 0.8827152331105738
1012.0, 0.6421954197947585
1013.0, 0.416425273181666
1014.0, 0.264472230389506
1015.0, 0.1724253364820124
1016.0, 0.11775436774599589
1017.0, 0.08440138040526397
1018.0, 0.06315829168341121
1019.0, 0.0491507936497283
1020.0, 0.039083038868113096
1021.0, 0.03156022372995972
1022.0, 0.026133004015853712
1023.0, 0.022090091422481084
1024.0, 0.01874731330615884
1025.0, 0.015985430966949855
1026.0, 0.013935954148880056
1027.0, 0.012162437627572218
1028.0, 0.010661844869768372
1029.0, 0.009278188147866614
1030.0, 0.008194869611758445
1031.0, 0.007257078718881898
1032.0, 0.0064071403751384155
1033.0, 0.005726091005950278
1034.0, 0.005010971980775151
1035.0, 0.004438765734350723
1036.0, 0.004101697755180156
1037.0, 0.003731518538079953
1038.0, 0.0033693967012637317
1039.0, 0.002964198930022146
1040.0, 0.0027259620212730933
1041.0, 0.0024191752892621246
1042.0, 0.0019471875892368123
1043.0, 0.0019510690494442054
1044.0, 0.001839270100740193
1045.0, 0.001617935393961274
1046.0, 0.0015353058206299833
1047.0, 0.0013201816304739598
1048.0, 0.0009814901180093167
1049.0, 0.000959048311236414
1050.0, 0.00107196317201553
1051.0, 0.0008042544524470242
1052.0, 0.0007518896785820896
1053.0, 0.0007736243975704255
1054.0, 0.0006393198397310377
1055.0, 0.0005044381790300257
1056.0, 0.00045242697969930787
1057.0, 0.00046469860233890997
1058.0, 0.00041070575797524575
1059.0, 0.00029930249074206736
1060.0, 0.00023191106095442698
1061.0, 0.00029653125772009174
1062.0, 0.0003868930380712558
1063.0, 0.0003181458886373391
1064.0, 0.00025324530757411356
1065.0, 0.00031278057461015077
1066.0, 0.00038833481560482413
1067.0, 0.0001668110489417327
1068.0, 5.4663373569702294e-05
1069.0, 4.002093067730183e-05
1070.0, 2.6554694084863765e-05
1071.0, 8.935579653598111e-05
1072.0, 7.95419806440054e-05
1073.0, 0.00021877353927016096
1074.0, 0.00016438459168628073
1075.0, 7.644153665485728e-05
1076.0, 8.042129502683514e-05
1077.0, 0.00020170343504971825
1078.0, 0.00031432095510490655
1079.0, 0.0002179516462267445
1080.0, 0.00018337021602166218
1081.0, 0.00010791591159178325
1082.0, 0.00010317800583013559
1083.0, 0.00022243724971984552
1084.0, 0.00018413714014848794
1085.0, 3.9995377626833014e-05
1086.0, 4.0842520061158254e-05
1087.0, 6.905017329638572e-05
1088.0, 1.3607708086574415e-05
1089.0, 1.5667534201728437e-05
1090.0, 2.4722459869322593e-05
1091.0, 2.6706596710692683e-05
1092.0, 0.00026500341581970726
1093.0, 0.00032009523468677804
1094.0, 0.00038224766219649783
1095.0, 0.00047362158571332525
1096.0, 0.0005006339123706136
1097.0, 0.0005856075669496109
1098.0, 0.0006597966131289324
1099.0, 0.0006370916178166575
1100.0, 0.0007150866803543974
1101.0, 0.0008187512027920629
1102.0, 0.0008714093610884504
1103.0, 0.001010606780255461
1104.0, 0.0010182600936986448
1105.0, 0.0010930702537969735
1106.0, 0.001257686414494085
1107.0, 0.0012634904657876655
1108.0, 0.0013861638360259142
1109.0, 0.0013773598676987669
1110.0, 0.001518288279399204
1111.0, 0.0015794962276371623
1112.0, 0.0017502051607868716
1113.0, 0.0018253033888435094
1114.0, 0.0018697542787729413
1115.0, 0.0019760460457154904
1116.0, 0.00213117477935692
1117.0, 0.0022781412522545146
1118.0, 0.0024223477540351317
1119.0, 0.00253257798885859
1120.0, 0.002588993730562722
1121.0, 0.00291511193745064
1122.0, 0.003200182865859788
1123.0, 0.003486701121382265
1124.0, 0.003911681646922406
1125.0, 0.004140794698760354
1126.0, 0.0044577231804563185
1127.0, 0.005075077815970557
1128.0, 0.005791506196379847
1129.0, 0.006682451900388315
1130.0, 0.007617911748484466
1131.0, 0.008701856843131229
1132.0, 0.01003750740666316
1133.0, 0.01170629884182477
1134.0, 0.013708883853204663
1135.0, 0.015716782328830812
1136.0, 0.01833303136856267
1137.0, 0.021276019229459982
1138.0, 0.024609048245566298
1139.0, 0.028169079103260244
1140.0, 0.03179247851402901
1141.0, 0.035262611253472485
1142.0, 0.03780805326027437
1143.0, 0.039000196199561174
1144.0, 0.03872853799875197
1145.0, 0.03644618564639333
1146.0, 0.03247025735687759
1147.0, 0.027924199314354036
1148.0, 0.02339343498557631
1149.0, 0.019304352807894255
1150.0, 0.015908463194247296
1151.0, 0.01280304150590005
1152.0, 0.010525705606991696
1153.0, 0.008638744375111177
1154.0, 0.007238744266536144
1155.0, 0.006061574786525479
1156.0, 0.004898836567715263
1157.0, 0.004343322689624386
1158.0, 0.003829033596006614
1159.0, 0.0031495564326087105
1160.0, 0.002827177122380487
1161.0, 0.002631588374523089
1162.0, 0.0023171579618830704
1163.0, 0.002085742986849031
1164.0, 0.0019459948195400432
1165.0, 0.0017344036096936584
1166.0, 0.0015781871450077703
1167.0, 0.001432205986061406
1168.0, 0.0012964525985718603
1169.0, 0.001197051269622936
1170.0, 0.0012040380369254089
1171.0, 0.0012119868516231578
1172.0, 0.001200995017981136
1173.0, 0.000977607025675643
1174.0, 0.0009403786396438548
1175.0, 0.0008996548537361191
1176.0, 0.000845129338450462
1177.0, 0.0008167929055462191
1178.0, 0.0008208131712079305
1179.0, 0.0007592048511790583
1180.0, 0.0006963509467567187
1181.0, 0.0006503071155611008
1182.0, 0.0005879223353747414
1183.0, 0.0005140586742752769
1184.0, 0.00044242246047232204
1185.0, 0.00043651444576840346
1186.0, 0.00044159642944000465
1187.0, 0.0004436385241606466
1188.0, 0.00038697054696484775
1189.0, 0.00026801703979558925
1190.0, 0.00032276248631933976
1191.0, 0.0001542040221861639
1192.0, 0.00011332153982910283
1193.0, 0.00022507189309157828
1194.0, 0.00019624801072202954
1195.0, 2.884084223999017e-05
1196.0, 9.66497949489779e-05
1197.0, 5.555910007287359e-05
1198.0, 3.1501991086110995e-05
1199.0, 5.373356814081561e-05
1200.0, 6.759538346653322e-05
1201.0, 5.859997384512578e-05
1202.0, 2.4620003665745108e-05
1203.0, 6.859868956718768e-05
1204.0, 2.961290137705794e-05
1205.0, 0.00011311973950470001
1206.0, 0.00015414497289540852
1207.0, 0.00014420893835372732
1208.0, 0.00010206149227328019
1209.0, 0.00013735938343124797
1210.0, 3.141298854171022e-05
1211.0, 0.00017815973637679106
1212.0, 8.216006021027409e-05
1213.0, 0.0001584928659648203
1214.0, 0.00023352807007116625
1215.0, 0.00024560599002262094
1216.0, 0.0003472692901174614
1217.0, 0.00032175715442118514
1218.0, 0.0003055065717571557
1219.0, 0.0003771860684290172
1220.0, 0.0004318497867533004
1221.0, 0.00044354842981389833
1222.0, 0.0005201080996480285
1223.0, 0.0005625259112455666
1224.0, 0.00041886337860032926
1225.0, 0.00036448120807182626
1226.0, 0.0004343595615466652
1227.0, 0.0003507836888542482
1228.0, 0.0004755180277544532
1229.0, 0.0005300242762443602
1230.0, 0.0005062189919715904
1231.0, 0.000501633494584803
1232.0, 0.00047172509814078704
1233.0, 0.0005451781609755308
1234.0, 0.0005024991922404888
1235.0, 0.00044086537111368105
1236.0, 0.0004782106777473919
1237.0, 0.0005816987330549506
1238.0, 0.0005745733289978808
1239.0, 0.0005453635964419252
1240.0, 0.0004476438730284894
1241.0, 0.0004593160126400184
1242.0, 0.0005039043304064415
1243.0, 0.00041049563222044427
1244.0, 0.00029037291430120647
1245.0, 0.0002926698609915925
1246.0, 0.00040421685611585
1247.0, 0.00041416145270122153
1248.0, 0.00035551501812754475
1249.0, 0.0003748347832570964
1250.0, 0.00038063752698167555
1251.0, 0.0002285715129129617
1252.0, 0.000289111290589228
1253.0, 0.0002189385998928215
1254.0, 0.0002387491614406004
1255.0, 0.0002127833599656088
1256.0, 0.00014555521443311583
1257.0, 0.00016509844257966153
1258.0, 0.00021788386161621456
1259.0, 0.00021431727488190083
1260.0, 6.958809480840353e-05
1261.0, 2.6293203867502046e-05
1262.0, 0.00021025571549065607
1263.0, 4.781788933690804e-05
1264.0, 0.00010094876926556048
1265.0, 1.1899744003076103e-05
1266.0, 2.6931489589444564e-05
1267.0, 2.5512791232466616e-05
1268.0, 5.511989062232363e-05
1269.0, 0.0001752487037978063
1270.0, 8.905340322532923e-05
1271.0, 2.2765732359386822e-05
1272.0, 6.0274384949165635e-05
1273.0, 5.376863790029258e-05
1274.0, 4.709793483427815e-05
1275.0, 7.551341514019463e-05
1276.0, 0.00014997480145250328
1277.0, 0.00016071178756117072
1278.0, 0.000289252488544601
1279.0, 0.0001757118548951378
1280.0, 3.1280919636158524e-05
1281.0, 9.658849626126242e-05
1282.0, 0.00020115572655885822
1283.0, 0.00013061635739300287
1284.0, 1.6800736016583846e-05
1285, 0.0
1286, 0.0
1287, 0.0
1288, 0.0
1289, 0.0
1290, 0.0
1291, 0.0
1292, 0.0
1293, 0.0
1294, 0.0
1295, 0.0
1296, 0.0
1297, 0.0
1298, 0.0
1299, 0.0
1300, 0.0
1301, 0.0
1302, 0.0
1303, 0.0
1304, 0.0
1305, 0.0
1306, 0.0
1307, 0.0
1308, 0.0
1309, 0.0
1310, 0.0
1311, 0.0
1312, 0.0
1313, 0.0
1314, 0.0
1315, 0.0
1316, 0.0
1317, 0.0
1318, 0.0
1319, 0.0
1320, 0.0
1321, 0.0
1322, 0.0
1323, 0.0
1324, 0.0
1325, 0.0
1326, 0.0
1327, 0.0
1328, 0.0
1329, 0.0
1330, 0.0
1331, 0.0
1332, 0.0
1333, 0.0
1334, 0.0
1335, 0.0
1336, 0.0
1337, 0.0
1338, 0.0
1339, 0.0
1340, 0.0
1341, 0.0
1342, 0.0
1343, 0.0
1344, 0.0
1345, 0.0
1346, 0.0
1347, 0.0
1348, 0.0
1349, 0.0
1350, 0.0
1351, 0.0
1352, 0.0
1353, 0.0
1354, 0.0
1355, 0.0
1356, 0.0
1357, 0.0
1358, 0.0
1359, 0.0
1360, 0.0
1361, 0.0
1362, 0.0
1363, 0.0
1364, 0.0
1365, 0.0
1366, 0.0
1367, 0.0
1368, 0.0
1369, 0.0
1370, 0.0
1371, 0.0
1372, 0.0
1373, 0.0
1374, 0.0
1375, 0.0
1376, 0.0
1377, 0.0
1378, 0.0
1379, 0.0
1380, 0.0
1381, 0.0
1382, 0.0
1383, 0.0
1384, 0.0
1385, 0.0
1386, 0.0
1387, 0.0
1388, 0.0
1389, 0.0
1390, 0.0
1391, 0.0
1392, 0.0
1393, 0.0
1394, 0.0
1395, 0.0
1396, 0.0
1397, 0.0
1398, 0.0
1399, 0.0
1400, 0.0
1401, 0.0
1402, 0.0
1403, 0.0
1404, 0.0
1405, 0.0
1406, 0.0
1407, 0.0
1408, 0.0
1409, 0.0
1410, 0.0
1411, 0.0
1412, 0.0
1413, 0.0
1414, 0.0
1415, 0.0
1416, 0.0
1417, 0.0
1418, 0.0
1419, 0.0
1420, 0.0
1421, 0.0
1422, 0.0
1423, 0.0
1424, 0.0
1425, 0.0
1426, 0.0
1427, 0.0
1428, 0.0
1429, 0.0
1430, 0.0
1431, 0.0
1432, 0.0
1433, 0.0
1434, 0.0
1435, 0.0
1436, 0.0
1437, 0.0
1438, 0.0
1439, 0.0
1440, 0.0
1441, 0.0
1442, 0.0
1443, 0.0
1444, 0.0
1445, 0.0
1446, 0.0
1447, 0.0
1448, 0.0
1449, 0.0
1450, 0.0
1451, 0.0
1452, 0.0
1453, 0.0
1454, 0.0
1455, 0.0
1456, 0.0
1457, 0.0
1458, 0.0
1459, 0.0
1460, 0.0
1461, 0.0
1462, 0.0
1463, 0.0
1464, 0.0
1465, 0.0
1466, 0.0
1467, 0.0
1468, 0.0
1469, 0.0
1470, 0.0
1471, 0.0
1472, 0.0
1473, 0.0
1474, 0.0
1475, 0.0
1476, 0.0
1477, 0.0
1478, 0.0
1479, 0.0
1480, 0.0
1481, 0.0
1482, 0.0
1483, 0.0
1484, 0.0
1485, 0.0
1486, 0.0
1487, 0.0
1488, 0.0
1489, 0.0
1490, 0.0
1491, 0.0
1492, 0.0
1493, 0.0
1494, 0.0
1495, 0.0
1496, 0.0
1497, 0.0
1498, 0.0
1499, 0.0
1500, 0.0
1501, 0.0
1502, 0.0
1503, 0.0
1504, 0.0
1505, 0.0
1506, 0.0
1507, 0.0
1508, 0.0
1509, 0.0
1510, 0.0
1511, 0.0
1512, 0.0
1513, 0.0
1514, 0.0
1515, 0.0
1516, 0.0
1517, 0.0
1518, 0.0
1519, 0.0
1520, 0.0
1521, 0.0
1522, 0.0
1523, 0.0
1524, 0.0
1525, 0.0
1526, 0.0
1527, 0.0
1528, 0.0
1529, 0.0
1530, 0.0
1531, 0.0
1532, 0.0
1533, 0.0
1534, 0.0
1535, 0.0
1536, 0.0
1537, 0.0
1538, 0.0
1539, 0.0
1540, 0.0
1541, 0.0
1542, 0.0
1543, 0.0
1544, 0.0
1545, 0.0
1546, 0.0
1547, 0.0
1548, 0.0
1549, 0.0
1550, 0.0
1551, 0.0
1552, 0.0
1553, 0.0
1554, 0.0
1555, 0.0
1556, 0.0
1557, 0.0
1558, 0.0
1559, 0.0
1560, 0.0
1561, 0.0
1562, 0.0
1563, 0.0
1564, 0.0
1565, 0.0
1566, 0.0
1567, 0.0
1568, 0.0
1569, 0.0
1570, 0.0
1571, 0.0
1572, 0.0
1573, 0.0
1574, 0.0
1575, 0.0
1576, 0.0
1577, 0.0
1578, 0.0
1579, 0.0
1580, 0.0
1581, 0.0
1582, 0.0
1583, 0.0
1584, 0.0
1585, 0.0
1586, 0.0
1587, 0.0
1588, 0.0
1589, 0.0
1590, 0.0
1591, 0.0
1592, 0.0
1593, 0.0
1594, 0.0
1595, 0.0
1596, 0.0
1597, 0.0
1598, 0.0
1599, 0.0
