30, 0.0
31, 0.0
32, 0.0
33, 0.0
34, 0.0
35, 0.0
36, 0.0
37, 0.0
38, 0.0
39, 0.0
40, 0.0
41, 0.0
42, 0.0
43, 0.0
44, 0.0
45, 0.0
46, 0.0
47, 0.0
48, 0.0
49, 0.0
50, 0.0
51, 0.0
52, 0.0
53, 0.0
54, 0.0
55, 0.0
56, 0.0
57, 0.0
58, 0.0
59, 0.0
60, 0.0
61, 0.0
62, 0.0
63, 0.0
64, 0.0
65, 0.0
66, 0.0
67, 0.0
68, 0.0
69, 0.0
70, 0.0
71, 0.0
72, 0.0
73, 0.0
74, 0.0
75, 0.0
76, 0.0
77, 0.0
78, 0.0
79, 0.0
80, 0.0
81.0, 4.523123859739575e-07
82.0, 3.007749594866277e-06
83.0, 1.4261906064479976e-05
84.0, 2.9436800327239316e-05
85.0, 4.69909845712385e-05
86.0, 0.0014312346584511794
87.0, 0.002027467334562005
88.0, 0.0022192469459419973
89.0, 0.0029566510981200583
90.0, 0.002709487553345295
91.0, 0.002716041824472534
92.0, 0.003414599499568549
93.0, 0.003943903065316613
94.0, 0.0039842642173203175
95.0, 0.0038440414535733554
96.0, 0.004077164452571599
97.0, 0.003884451514785632
98.0, 0.004265645940441283
99.0, 0.005412920040069574
100.0, 0.0056970965643338735
101.0, 0.00688156647639582
102.0, 0.008681203463819353
103.0, 0.010894310030017236
104.0, 0.013882907174297143
105.0, 0.018405851637562188
106.0, 0.024109732753854297
107.0, 0.026479430144653395
108.0, 0.025916905314535117
109.0, 0.023009486948868323
110.0, 0.017668525648626116
111.0, 0.012770557670920826
112.0, 0.009632076112688312
113.0, 0.008204281788327052
114.0, 0.007837462454459874
115.0, 0.008887103754446355
116.0, 0.010223095518551606
117.0, 0.011204652660290913
118.0, 0.00987394405858473
119.0, 0.009941435289438569
120.0, 0.010671906841408792
121.0, 0.009549617270697502
122.0, 0.008881160884231435
123.0, 0.008141636785033348
124.0, 0.007151892869613813
125.0, 0.007226903442927156
126.0, 0.007473744689514633
127.0, 0.007937526305073616
128.0, 0.008766075648771129
129.0, 0.010610344172384704
130.0, 0.011343215593897758
131.0, 0.0106893991344877
132.0, 0.011050657470751025
133.0, 0.010485419150180447
134.0, 0.010248311656324074
135.0, 0.011711000435422347
136.0, 0.012855419457881214
137.0, 0.014950133383636051
138.0, 0.017756375705524036
139.0, 0.0196233212112832
140.0, 0.02204729956819981
141.0, 0.02397655418822549
142.0, 0.024758981515079923
143.0, 0.025058765190775212
144.0, 0.023639775879782013
145.0, 0.02105307990517514
146.0, 0.018383880424740984
147.0, 0.015115091324521088
148.0, 0.012059825830660289
149.0, 0.009503910793070504
150.0, 0.00815432688566706
151.0, 0.007187481578290821
152.0, 0.006705832354858267
153.0, 0.006960349784200771
154.0, 0.006536428972111669
155.0, 0.00628952097961024
156.0, 0.006237061186713467
157.0, 0.00596127496750047
158.0, 0.006374011583559986
159.0, 0.0065740424248706825
160.0, 0.006027342959014189
161.0, 0.007435510451835256
162.0, 0.00825945109075851
163.0, 0.00895009159636792
164.0, 0.010580527400087027
165.0, 0.011726841567819318
166.0, 0.01323717329561941
167.0, 0.01525312247198441
168.0, 0.01677506476558197
169.0, 0.019214423422996875
170.0, 0.022448862735906353
171.0, 0.026540123016854506
172.0, 0.03247315240947257
173.0, 0.03916805429606942
174.0, 0.04687236554877523
175.0, 0.05704747556157695
176.0, 0.0652518302036216
177.0, 0.07450620113793205
178.0, 0.08583340768964691
179.0, 0.08802897058224242
180.0, 0.08599307127357803
181.0, 0.08037119938667671
182.0, 0.07125266272021508
183.0, 0.061395021325477216
184.0, 0.05111581299444922
185.0, 0.04098201701256078
186.0, 0.034001489829361936
187.0, 0.02843751444483098
188.0, 0.023576715920758176
189.0, 0.019104936013295003
190.0, 0.01598241560244124
191.0, 0.01423897263553255
192.0, 0.012980468343256725
193.0, 0.010488742056342369
194.0, 0.009093289085031434
195.0, 0.008227998122834604
196.0, 0.00773504618866953
197.0, 0.007208340507556592
198.0, 0.006968509699801272
199.0, 0.00676192060710966
200.0, 0.00641374092352464
201.0, 0.006510145537953222
202.0, 0.006301506625733438
203.0, 0.006018210415249791
204.0, 0.006244345386341632
205.0, 0.005663136303981811
206.0, 0.005050238640210609
207.0, 0.004618001069684601
208.0, 0.004618977472841301
209.0, 0.00501439494666201
210.0, 0.0048530110108516485
211.0, 0.003305576270447307
212.0, 0.003497680126279254
213.0, 0.0031385235142059997
214.0, 0.0023887959815213633
215.0, 0.001771012860729002
216.0, 0.0015038965157895409
217.0, 0.0014127633456755267
218.0, 0.0014160177278495997
219.0, 0.0011188894828510776
220.0, 0.0009475255168501366
221.0, 0.0009849480440892672
222.0, 0.0013241088275842867
223.0, 0.0004402574305962818
224.0, 0.0006028745559405848
225.0, 0.0010918972794180272
226.0, 0.00023969628324398628
227.0, 6.726135327147652e-05
228.0, 0.00015578160363166464
229.0, 0.0003913507117135898
230.0, 0.0005574053666927712
231.0, 0.000897010518963182
232.0, 0.0009878797197738955
233.0, 0.0005405975751267957
234.0, 0.00018963329195124826
235.0, 5.933793522564645e-05
236.0, 0.00010077625175186271
237.0, 0.00025664280405569666
238.0, 0.00010027654847193074
239.0, 6.845743520186977e-05
240.0, 0.00022426234771784508
241.0, 0.0005486304557690445
242.0, 0.00029007770206953507
243.0, 0.0002792501465952472
244.0, 0.0008786317097539205
245.0, 0.0006152473811044253
246.0, 0.000392343873521619
247.0, 0.00031687731575519035
248.0, 0.0005498213566076332
249.0, 0.0011408287305766838
250.0, 0.0009515984693006889
251.0, 0.00025503319958498287
252.0, 0.00022735784022042386
253.0, 0.00013780936612673952
254.0, 0.00012867814978213411
255.0, 0.00022915244649371227
256.0, 0.0002450233944592808
257.0, 0.00031085412239422654
258.0, 0.0004912204590101266
259.0, 0.0008520768948751429
260.0, 0.0006512130665358703
261.0, 0.000488569906439261
262.0, 0.00042963481813265984
263.0, 0.0005908978206294782
264.0, 0.0005074455928015598
265.0, 0.0004567617140331424
266.0, 0.00043062781824434776
267.0, 0.00015649246768670235
268.0, 0.0002584389248118823
269.0, 0.0005238524068779026
270.0, 0.0008479392805963806
271.0, 0.0007301022838006489
272.0, 0.0004345382992201549
273.0, 0.00027445520043901245
274.0, 0.0005961545324864311
275.0, 0.000488454457414224
276.0, 0.0005641059402854123
277.0, 0.0006710983112564259
278.0, 0.0003642549186647115
279.0, 0.0004297855036194408
280.0, 0.0004687995088288212
281.0, 0.0003930496069026463
282.0, 0.00017228867855259949
283.0, 0.00039450447822467856
284.0, 0.0007616842143316415
285.0, 0.0011204146114620146
286.0, 0.0009556949165753601
287.0, 0.0005221885859774515
288.0, 0.00015232906228232032
289.0, 0.00021482344903617353
290.0, 0.0006027016092920188
291.0, 0.00048424701690789825
292.0, 0.00012496382652967444
293.0, 0.00023114418573910912
294.0, 0.0002265768388372045
295.0, 0.0003180189984727073
296.0, 0.0004887440503946699
297.0, 0.00043476607514439093
298.0, 0.0003741269087904134
299.0, 0.00046070246360843366
300.0, 0.0007250292220147993
301.0, 0.00039323668725926874
302.0, 0.0007190636603581089
303.0, 0.0012733885934833624
304.0, 0.0016985405557627337
305.0, 0.0011136590349153795
306.0, 0.0005469239550661277
307.0, 0.0002623098087699777
308.0, 0.0007277771388529479
309.0, 0.0005702728465627415
310.0, 0.0005686868591235233
311.0, 0.0006776246421871177
312.0, 0.0003420352460446637
313.0, 0.00038800797473840474
314.0, 0.00034807224947436304
315.0, 0.00012017134777555216
316.0, 7.258590765322768e-05
317.0, 0.0003747879856578913
318.0, 0.0006357709102309202
319.0, 0.0006297970066393465
320.0, 0.0007529111198470492
321.0, 0.001331915549063471
322.0, 0.0017000049344157583
323.0, 0.0010712430994168135
324.0, 0.0003919681738321745
325.0, 0.000749379588452314
326.0, 0.0013015939176643666
327.0, 0.00015602588980792185
328.0, 0.0009966574811949985
329.0, 0.0013863961118111864
330.0, 0.001174282516475249
331.0, 0.0012706547561478865
332.0, 0.0006501237468859778
333.0, 0.00040120248209330747
334.0, 0.0007833328390043622
335.0, 0.0009988530179218665
336.0, 0.0005366285877064539
337.0, 0.00023999291696672972
338.0, 0.0005546763865683855
339.0, 0.0002939686250511984
340.0, 0.00041871747402381703
341.0, 0.0006197305782572989
342.0, 0.0005968951861993177
343.0, 0.0009327534093928728
344.0, 0.000808050338862375
345.0, 0.000536306977152782
346.0, 0.000684922248871954
347.0, 0.0011815050403446575
348.0, 0.0013030086780307997
349.0, 0.0011762956572716134
350.0, 0.0013773952860556794
351.0, 0.0017919873007909554
352.0, 0.001687852113356513
353.0, 0.0011242138185165783
354.0, 0.0012194667032886064
355.0, 0.0006765752449721432
356.0, 0.0005949657493034448
357.0, 0.0013126715914138763
358.0, 0.0018849308894113587
359.0, 0.0011551825576167577
360.0, 0.0008324743094332131
361.0, 0.0019125194452437495
362.0, 0.002272927529634323
363.0, 0.0020482855266554037
364.0, 0.0015556634599832278
365.0, 0.0010806706056758766
366.0, 0.0011637063966524425
367.0, 0.0018667032075182267
368.0, 0.0025634777970438114
369.0, 0.002300862321024234
370.0, 0.003292986925965001
371.0, 0.0027991315767586632
372.0, 0.0015290218183084832
373.0, 0.001571847483227428
374.0, 0.003550124376820432
375.0, 0.0034589722473880734
376.0, 0.0017967552917014292
377.0, 0.0024779160763278153
378.0, 0.0027283443791588746
379.0, 0.002769569690285433
380.0, 0.002854504963578628
381.0, 0.004066517758250564
382.0, 0.0028173031183220017
383.0, 0.0020644198284962972
384.0, 0.0028188858799305903
385.0, 0.003567847790708796
386.0, 0.004160017509743254
387.0, 0.004150784484534462
388.0, 0.0033734912327988914
389.0, 0.003976068594772846
390.0, 0.004970194901598625
391.0, 0.005396699108784522
392.0, 0.004500165980566034
393.0, 0.005781098365262732
394.0, 0.0065084823778496104
395.0, 0.007526326762544318
396.0, 0.0097931605803458
397.0, 0.008807614768226248
398.0, 0.00925494263026227
399.0, 0.010488497497623026
400.0, 0.011358799087819775
401.0, 0.014043157824063431
402.0, 0.01685045624943544
403.0, 0.019902676771385262
404.0, 0.02373388530786195
405.0, 0.028747246228631833
406.0, 0.035845042258144784
407.0, 0.04542369457895351
408.0, 0.05842452709799211
409.0, 0.0776290873945779
410.0, 0.10001719938638422
411.0, 0.12308946748034633
412.0, 0.13996050824772502
413.0, 0.14370043777794891
414.0, 0.13459218267182216
415.0, 0.11387656070343795
416.0, 0.08733239777208247
417.0, 0.06774719235725866
418.0, 0.051686852595960744
419.0, 0.03853406419277843
420.0, 0.030838269368864583
421.0, 0.024454390067960134
422.0, 0.019627439711290315
423.0, 0.016498865591930603
424.0, 0.015022511321750302
425.0, 0.012124108607971485
426.0, 0.01020114291754628
427.0, 0.010218362499904075
428.0, 0.009045940732620468
429.0, 0.007129508388742897
430.0, 0.005542616662305074
431.0, 0.004973086881429618
432.0, 0.005888773267648432
433.0, 0.005863523793066136
434.0, 0.005138396468235056
435.0, 0.003915829479060909
436.0, 0.003965867643970055
437.0, 0.004038784055876186
438.0, 0.003858841454817259
439.0, 0.0032008584274112765
440.0, 0.0030199550396569487
441.0, 0.003231357518472092
442.0, 0.003350895247986519
443.0, 0.0029114060582499154
444.0, 0.0025961036866359167
445.0, 0.002502484622933971
446.0, 0.0025388749597789
447.0, 0.002607102490117587
448.0, 0.002457245431981652
449.0, 0.0018831556293510891
450.0, 0.0013193288879361088
451.0, 0.0013007720185278457
452.0, 0.002190801010579298
453.0, 0.0015260114942422499
454.0, 0.0005845144554523299
455.0, 0.0011676423041067896
456.0, 0.0017251369183170285
457.0, 0.0013480164736507927
458.0, 0.0007685050157892153
459.0, 0.0010895981367220187
460.0, 0.0007692410882812483
461.0, 0.001363002767994925
462.0, 0.001784934917835027
463.0, 0.00023051848965349698
464.0, 0.0004535236870180328
465.0, 0.0012233981622268152
466.0, 0.0018318079244886963
467.0, 0.0012614531254118932
468.0, 0.0015695123998392885
469.0, 0.0016528089712796947
470.0, 0.0015593339290972384
471.0, 0.0014854095238635795
472.0, 0.002517558909191694
473.0, 0.0026429659414401803
474.0, 0.002377322499603398
475.0, 0.002813939776945301
476.0, 0.00231964719979645
477.0, 0.0021718495184406147
478.0, 0.0022824060327140123
479.0, 0.0023562515084448576
480.0, 0.0030537184385985867
481.0, 0.0038786713421562467
482.0, 0.004766778245510526
483.0, 0.005674506453648044
484.0, 0.006896935267453522
485.0, 0.008291496169330198
486.0, 0.00994896589943844
487.0, 0.012040166794818164
488.0, 0.014182933422243487
489.0, 0.016789767662190373
490.0, 0.01939612982222013
491.0, 0.02124664237982875
492.0, 0.021296238280557402
493.0, 0.020538074658778015
494.0, 0.018791963864986272
495.0, 0.015689898416018283
496.0, 0.013371866628341231
497.0, 0.011361872011146289
498.0, 0.009516415684147673
499.0, 0.007676273922848439
500.0, 0.0065483277909527335
501.0, 0.005714336499892243
502.0, 0.004908737147901038
503.0, 0.0038235201556805058
504.0, 0.004178485628439432
505.0, 0.003561503233222033
506.0, 0.0026078519423057083
507.0, 0.002075629103962778
508.0, 0.0009402405168794539
509.0, 0.0007335085681453394
510.0, 0.0014195142057609076
511.0, 0.0029104420211052747
512.0, 0.0014470591624545916
513.0, 0.001472227786416447
514.0, 0.001573452126275217
515.0, 0.0005747469817741367
516.0, 0.0007911293408746991
517.0, 0.0017397801658805149
518.0, 0.0019766931596807294
519.0, 0.0005656627298772339
520.0, 0.0007307906964862418
521.0, 0.0006209396409022366
522.0, 0.0007151054850422756
523.0, 0.0012282087383350539
524.0, 0.000887145116882791
525.0, 0.0008841645019637387
526.0, 0.0011622970519273592
527.0, 0.001580810373169737
528.0, 0.0011058325408693308
529.0, 0.0011650733573903786
530.0, 0.0014801675836494561
531.0, 0.0018164939118864663
532.0, 0.0014176019342086884
533.0, 0.001126477933925757
534.0, 0.0009201280296723634
535.0, 0.0007873054979566947
536.0, 0.0007089396362543175
537.0, 0.0012426759361716156
538.0, 0.0015285350421084378
539.0, 0.001380375048304609
540.0, 0.0010352748410721768
541.0, 0.0018384295610943085
542.0, 0.0014354336761214664
543.0, 0.0001390176667585891
544.0, 0.0003897558702880157
545.0, 0.0003761891769038333
546.0, 0.0002427407063545886
547.0, 0.00018314721116615364
548.0, 0.0005835911903437161
549.0, 0.0010944419324170184
550.0, 0.001132677069367647
551.0, 0.0009740829779972248
552.0, 0.0011951502319209315
553.0, 0.0010333996192042588
554.0, 0.0009960341345307377
555.0, 0.001210162843772083
556.0, 0.0017997840068565366
557.0, 0.002156802378178176
558.0, 0.0019653644784657187
559.0, 0.0017533871737292184
560.0, 0.00204754622739975
561.0, 0.002929635230165439
562.0, 0.001834625673655734
563.0, 0.0007619475251893803
564.0, 0.001161345272105077
565.0, 0.002743200781851307
566.0, 0.0019333994520569417
567.0, 0.0012579895638154728
568.0, 0.00187962938919851
569.0, 0.0024215914243175323
570.0, 0.0022756517842827785
571.0, 0.0021074019369146757
572.0, 0.0021801280590074703
573.0, 0.002553722637683209
574.0, 0.002509872085989934
575.0, 0.002579228383568589
576.0, 0.002567395765924209
577.0, 0.0014385445174533657
578.0, 0.002323469246556476
579.0, 0.002612390916339346
580.0, 0.0021353597354908174
581.0, 0.0014210543241903986
582.0, 0.0026576915512653548
583.0, 0.00266849456565854
584.0, 0.0022237441344032842
585.0, 0.002828959133309902
586.0, 0.002398277636846264
587.0, 0.0026685130175979686
588.0, 0.0030072540362818256
589.0, 0.002761898627092012
590.0, 0.0026778564912145132
591.0, 0.002709471852495758
592.0, 0.0026793278586384655
593.0, 0.0024740152459547696
594.0, 0.0021533388078831457
595.0, 0.0022714700545844874
596.0, 0.0020625306377031077
597.0, 0.001438805573304175
598.0, 0.0017181727168684552
599.0, 0.0015944408153954486
600.0, 0.001209904470993097
601.0, 0.0009392025894882578
602.0, 0.0018317814311551996
603.0, 0.0021011071068165305
604.0, 0.002231211717035886
605.0, 0.0024915537858224437
606.0, 0.0032573424337903776
607.0, 0.003116084573263651
608.0, 0.003115911466200196
609.0, 0.0029161511470023847
610.0, 0.00203100065175355
611.0, 0.0023515091952061246
612.0, 0.0023790969469204516
613.0, 0.002887169427526537
614.0, 0.00428543209096942
615.0, 0.004127935880322515
616.0, 0.004332425970051323
617.0, 0.004514158507947339
618.0, 0.004618907802997927
619.0, 0.005376791684969779
620.0, 0.004990375941734966
621.0, 0.0052384281320535225
622.0, 0.005751280579456856
623.0, 0.003911484449407257
624.0, 0.0046488545299877455
625.0, 0.003926516117509973
626.0, 0.002593011504541485
627.0, 0.003118759356958301
628.0, 0.002988757052219883
629.0, 0.002395407080736498
630.0, 0.002282820777576262
631.0, 0.0034554234282592132
632.0, 0.0012307253706495247
633.0, 0.0007030994784091424
634.0, 0.0006121636089184859
635.0, 0.000306911701743063
636.0, 0.000860472369728005
637.0, 0.0004450379438868171
638.0, 0.000626737863385257
639.0, 0.0016516138747617556
640.0, 0.0024515419448265037
641.0, 0.0013667792626069252
642.0, 0.0012368243041983706
643.0, 0.0019526050726514066
644.0, 0.0023427463898372273
645.0, 0.002133616430702645
646.0, 0.0017714146319916882
647.0, 0.0013453951161058037
648.0, 0.0009571805165410307
649.0, 0.0016345422185540955
650.0, 0.002340316516441503
651.0, 0.0027553113950671655
652.0, 0.0026577140024586733
653.0, 0.0018398268030654606
654.0, 0.0020915844657692453
655.0, 0.002174015463358129
656.0, 0.001846619403715485
657.0, 0.0016183769169994613
658.0, 0.0024148818568364644
659.0, 0.0020776372607369965
660.0, 0.0012600076205942327
661.0, 0.0015530380245181426
662.0, 0.0017125540468596314
663.0, 0.0017304980305554484
664.0, 0.0014601703679671815
665.0, 0.0009232600399810355
666.0, 0.002233710803737605
667.0, 0.0018812374423709732
668.0, 0.00210703791709253
669.0, 0.0034072321579756734
670.0, 0.0031541713199320655
671.0, 0.002104895847331014
672.0, 0.0019421205227240464
673.0, 0.0022447246072180476
674.0, 0.0012721129144660443
675.0, 0.0005708175516485036
676.0, 0.0006209381109668645
677.0, 0.0007990990243043456
678.0, 0.0004366568750657347
679.0, 0.0015562795867177684
680.0, 0.0010391108971574085
681.0, 0.0009090081080722834
682.0, 0.0021112175462262702
683.0, 0.003326171399414031
684.0, 0.0014853249886505452
685.0, 0.0005402450234162262
686.0, 0.0008120521531461037
687.0, 0.0004370072685399068
688.0, 0.0009498364427200482
689.0, 0.0008904341914623675
690.0, 0.0006645290463258063
691.0, 0.0009168951052468815
692.0, 0.0012514687099144668
693.0, 0.0014242729765684386
694.0, 0.0010573758510829582
695.0, 0.0002443827605763091
696.0, 0.0008939662570861114
697.0, 0.0007366987608179297
698.0, 0.000790768891853296
699.0, 0.0011062666093512043
700.0, 0.0011282378568483065
701.0, 0.00034918502620305807
702.0, 0.0001319897437494641
703.0, 0.0002572033035919832
704.0, 0.00037813528558370245
705.0, 0.0018924814376656846
706.0, 0.001126564471411805
707.0, 0.0003913296959563926
708.0, 0.0008747928181362977
709.0, 0.0021226915199281204
710.0, 0.001049544753571965
711.0, 0.000976897798414304
712.0, 0.0015594013847750662
713.0, 0.0005246891995292331
714.0, 0.0009343242613945837
715.0, 0.0013197008207958996
716.0, 0.0013208071603094792
717.0, 0.0007988047734655043
718.0, 0.0013154282824525416
719.0, 0.0007974881718282009
720.0, 0.0004765883108877155
721.0, 0.000748121976172853
722.0, 0.0011344778440678526
723.0, 0.0015350475409975455
724.0, 0.000993547438004381
725.0, 0.0003777743759582702
726.0, 0.001192268258502094
727.0, 0.001108718296267056
728.0, 0.0008188991267325828
729.0, 0.0012343449141840198
730.0, 0.002499957035118898
731.0, 0.0015049275067476919
732.0, 0.0009720590332050767
733.0, 0.0005474032931993205
734.0, 0.00037893701699790003
735.0, 0.0010273092291213089
736.0, 0.0008282116887759119
737.0, 0.001365967021245422
738.0, 0.002062381349673447
739.0, 0.00218968037928637
740.0, 0.0011613927245071754
741.0, 0.0014990177368256511
742.0, 0.0019331089428866683
743.0, 0.001771857800702062
744.0, 0.0004940616211224559
745.0, 0.0013852550430943006
746.0, 0.0010024558867935934
747.0, 0.0003540495110766605
748.0, 0.0013222172605211416
749.0, 0.0009023335496826167
750.0, 0.0016861344134508785
751.0, 0.00166538563647832
752.0, 0.00032580499719166714
753.0, 0.0006552512334876536
754.0, 0.0005442951464293809
755.0, 0.0006117804110056489
756.0, 0.0008908722537338432
757.0, 0.0012201240773124066
758.0, 0.0006309851935638275
759.0, 0.0014048669835801024
760.0, 0.0015183194307885131
761.0, 0.00015802029779923886
762.0, 0.0014029768126682268
763.0, 0.0006693855400526712
764.0, 0.00010374426846737678
765.0, 0.0003165817958425438
766.0, 0.0013966358685812146
767.0, 0.0007341935718541285
768.0, 0.0004381185326670654
769.0, 0.0006188648362610911
770.0, 0.0011329739834600278
771.0, 0.0008018550727117965
772.0, 0.00042149090717163014
773.0, 0.0006348356263844497
774.0, 0.0011596709310639846
775.0, 0.0009176753287995238
776.0, 0.0010194259472093808
777.0, 0.001296149435568944
778.0, 0.0014536688946513291
779.0, 0.0013800599863819044
780.0, 0.002307827514814382
781.0, 0.0023031858772792372
782.0, 0.0022794479387047446
783.0, 0.002342878302635944
784.0, 0.0020535281667471536
785.0, 0.002111557461911357
786.0, 0.001959158177280461
787.0, 0.0015525379837550526
788.0, 0.00100311497453047
789.0, 0.0013038567512579442
790.0, 0.0009608033540419812
791.0, 0.0008275600676469559
792.0, 0.0009496947544525338
793.0, 0.0008099424443918831
794.0, 0.001820038936908293
795.0, 0.0014435340199821457
796.0, 0.001045509172615552
797.0, 0.0016013848779305086
798.0, 0.0006874628373549478
799.0, 0.0009139153727743257
800.0, 0.0006815436227698594
801.0, 0.00014796400070900392
802.0, 0.0005881980806917014
803.0, 0.0022165079849189376
804.0, 0.0019901057314237747
805.0, 0.0016898402341714623
806.0, 0.0024490907981162785
807.0, 0.002232296806365839
808.0, 0.001407129814050616
809.0, 0.0007967946155028718
810.0, 0.0007523938446287518
811.0, 0.0014994053220485945
812.0, 0.00044355293903865824
813.0, 0.000675612757209963
814.0, 0.0012867256344912363
815.0, 0.0015651704268163712
816.0, 0.001081932868902957
817.0, 0.0016061356475942851
818.0, 0.0016348261085848347
819.0, 0.001138332327484099
820.0, 0.0005119379748911062
821.0, 0.0007978581112676978
822.0, 0.0005048477852890035
823.0, 0.0001653827845828316
824.0, 5.857470502332291e-05
825.0, 0.0002208348422642573
826.0, 0.0006437655188223225
827.0, 0.0007699463687253422
828.0, 0.0009211970471075736
829.0, 0.0014468122132239437
830.0, 0.0016298573348123573
831.0, 0.0009617659151312459
832.0, 0.0008596108178591266
833.0, 0.0013001993610842425
834.0, 0.0010812956613126022
835.0, 0.000792067960047431
836.0, 0.0016552788235508504
837.0, 0.0022224420431948976
838.0, 0.0016712104220841144
839.0, 0.0020362327502462894
840.0, 0.002286425543316848
841.0, 0.0021761881549243237
842.0, 0.0018288560760734965
843.0, 0.001535562800158114
844.0, 0.0018346352707049613
845.0, 0.0017910586810232225
846.0, 0.001987932058357093
847.0, 0.0024778099853940564
848.0, 0.002435973813858137
849.0, 0.0022034670482077687
850.0, 0.002196075631684274
851.0, 0.0022004094743101692
852.0, 0.0019207506522142645
853.0, 0.001012811894418636
854.0, 0.0017229214158765867
855.0, 0.0023373717450887363
856.0, 0.0022492687252434547
857.0, 0.001330662095408936
858.0, 0.0014490039133668005
859.0, 0.0018620386706301696
860.0, 0.002423411851103728
861.0, 0.002578070279986869
862.0, 0.0004327659462889913
863.0, 0.001643120368640735
864.0, 0.0020592204309377096
865.0, 0.0016775954236225472
866.0, 0.0013245166631165436
867.0, 0.002547660860397924
868.0, 0.0020043460441235973
869.0, 0.0011649821709172942
870.0, 0.0007475778542147969
871.0, 0.0011694098915696089
872.0, 0.0003500344304060698
873.0, 0.00031009602149667764
874.0, 0.0003183329071067888
875.0, 4.03579735625632e-05
876.0, 0.00017437305276893285
877.0, 0.0008853249569266015
878.0, 0.0016280217894590347
879.0, 0.0016347521861396416
880.0, 0.00041673832669406356
881.0, 0.00036727100577149067
882.0, 0.0008542157333508115
883.0, 0.0007563919119740066
884.0, 0.0003598041010441452
885.0, 0.0008288735652813494
886.0, 0.0011041833581789556
887.0, 0.0010373289580596166
888.0, 0.0010562063291117798
889.0, 0.001222847068412965
890.0, 0.0009189904880553757
891.0, 0.0010416772387219911
892.0, 0.0008197576653663837
893.0, 0.0007372006197418146
894.0, 0.00109985157643836
895.0, 0.0004574130774402874
896.0, 0.000127679512751684
897.0, 0.0008456628931168609
898.0, 0.0017598174803669805
899.0, 0.0014540171174623286
900.0, 0.0014628185859510273
901.0, 0.000884016153675758
902.0, 0.0006021773876661821
903.0, 0.0009313264909814739
904.0, 0.0017161096265286455
905.0, 0.0018831417798524104
906.0, 0.002000778631270513
907.0, 0.002191572919643805
908.0, 0.00230546742467448
909.0, 0.0014642001499980079
910.0, 0.0011306505258988373
911.0, 0.0013367562639990354
912.0, 0.0017152946572511548
913.0, 0.0018630094596931866
914.0, 0.0016204381322800785
915.0, 0.0019532716047667518
916.0, 0.001416891756379059
917.0, 0.0009166162913679143
918.0, 0.0021701441405899747
919.0, 0.002148973353114752
920.0, 0.0014702353151847636
921.0, 0.0012167257418043457
922.0, 0.0014252720469144374
923.0, 0.0012076569143376077
924.0, 0.0011318961794189234
925.0, 0.0013510973529963042
926.0, 0.0014431849824109153
927.0, 0.0013993907128440363
928.0, 0.002058585285396696
929.0, 0.0019983117326461864
930.0, 0.002158390344772216
931.0, 0.0024410814110281003
932.0, 0.0025932985864361518
933.0, 0.002118364546318851
934.0, 0.003099507213934635
935.0, 0.0023256831159382805
936.0, 0.0017726696110955547
937.0, 0.0038716345023937023
938.0, 0.0038221516902198064
939.0, 0.0025970850133213226
940.0, 0.0026511330104175513
941.0, 0.0032774781236613606
942.0, 0.002382782153302338
943.0, 0.0016653090345444736
944.0, 0.0019812690878822817
945.0, 0.002577418638838039
946.0, 0.002742750168351818
947.0, 0.0016838204662745866
948.0, 0.0019208403567174252
949.0, 0.001848099614547821
950.0, 0.0021301144871783127
951.0, 0.0029050083620414825
952.0, 0.003523714932420862
953.0, 0.0014675300582504065
954.0, 0.0020330866679004063
955.0, 0.002880681896793574
956.0, 0.0026581283730404874
957.0, 0.003464232590663375
958.0, 0.002389157459475882
959.0, 0.002327026337329359
960.0, 0.0022102638189525647
961.0, 0.0012551239999136054
962.0, 0.0018029456346544612
963.0, 0.0020314519214435453
964.0, 0.0028571746223636056
965.0, 0.0035067409788073056
966.0, 0.0032362365869578026
967.0, 0.003913524294096902
968.0, 0.004446112270837021
969.0, 0.0048770298529450355
970.0, 0.004715820414898643
971.0, 0.003580033798349345
972.0, 0.004056850044650449
973.0, 0.005080324616627049
974.0, 0.005654321623191855
975.0, 0.006241291600267031
976.0, 0.007762280362940092
977.0, 0.006074908439201374
978.0, 0.0076025217064014695
979.0, 0.007933953163704034
980.0, 0.0070181215468916695
981.0, 0.007618167071326133
982.0, 0.010580258044548084
983.0, 0.00923546262202123
984.0, 0.009566308659927355
985.0, 0.012239745567830208
986.0, 0.013360589213110523
987.0, 0.015182262620416756
988.0, 0.01796177777318889
989.0, 0.01976364095802294
990.0, 0.02044415569345505
991.0, 0.021865869783803605
992.0, 0.023807125769896666
993.0, 0.0253721435349927
994.0, 0.02748607273503279
995.0, 0.03096630227220488
996.0, 0.03656615556763152
997.0, 0.04352195873451175
998.0, 0.049411042710596535
999.0, 0.061645758521808966
1000.0, 0.08119632170800399
1001.0, 0.09851542303853283
1002.0, 0.13657264609982792
1003.0, 0.19786153658645708
1004.0, 0.3008770640349345
1005.0, 0.46631805478005794
1006.0, 0.7245287817109739
1007.0, 0.9363726396257712
1008.0, 0.956543230852056
1009.0, 0.7985925926510429
1010.0, 0.5347194061327418
1011.0, 0.3260404067717845
1012.0, 0.21345658497661565
1013.0, 0.14352365550997379
1014.0, 0.10069212533335452
1015.0, 0.07395183660831704
1016.0, 0.05812654920290743
1017.0, 0.04774638883119614
1018.0, 0.039513693605699694
1019.0, 0.03349479912083624
1020.0, 0.029280593457950897
1021.0, 0.025135955172075432
1022.0, 0.021190723031934384
1023.0, 0.01836175944108126
1024.0, 0.016172847485405144
1025.0, 0.01458264501358549
1026.0, 0.014722139862931067
1027.0, 0.012900969461232382
1028.0, 0.011786108046605591
1029.0, 0.010903093852763184
1030.0, 0.009801833079976424
1031.0, 0.008465264007410584
1032.0, 0.007938899996757069
1033.0, 0.007896946297148835
1034.0, 0.007653729840485407
1035.0, 0.006815191995823739
1036.0, 0.005477709115802564
1037.0, 0.006442567748456113
1038.0, 0.006347379546983206
1039.0, 0.006857864399752479
1040.0, 0.007487566922073495
1041.0, 0.004165746463602667
1042.0, 0.0038303589882166342
1043.0, 0.004505012417268317
1044.0, 0.004641566898023661
1045.0, 0.003804530826213347
1046.0, 0.0029296328072486136
1047.0, 0.0028183576136907207
1048.0, 0.003730962260009919
1049.0, 0.0033793395483124045
1050.0, 0.002299290068470098
1051.0, 0.003895275210059807
1052.0, 0.0035144534891346705
1053.0, 0.003462444352893658
1054.0, 0.003379178584993494
1055.0, 0.003177952009473764
1056.0, 0.0029922365639655467
1057.0, 0.0026851129899621265
1058.0, 0.0027147347761620495
1059.0, 0.002938722277259603
1060.0, 0.003232045754037464
1061.0, 0.0035139128069672306
1062.0, 0.004303933384105832
1063.0, 0.0035861959859684244
1064.0, 0.003822167370218101
1065.0, 0.00434618479946033
1066.0, 0.0036184185153852293
1067.0, 0.005503829183490165
1068.0, 0.003110540964145063
1069.0, 0.0017750483853940758
1070.0, 0.0023168025876609643
1071.0, 0.0035765379750614204
1072.0, 0.0018544676247181677
1073.0, 0.0036586003713359205
1074.0, 0.004176674909619313
1075.0, 0.003622849991821414
1076.0, 0.003136900090708214
1077.0, 0.003032304616431878
1078.0, 0.003526535698648102
1079.0, 0.003016345535392081
1080.0, 0.002812848903015722
1081.0, 0.003386403745984708
1082.0, 0.002222544527111897
1083.0, 0.0027875306006751835
1084.0, 0.0027631910677046395
1085.0, 0.002900207424504376
1086.0, 0.0034195196621672266
1087.0, 0.003394882843365739
1088.0, 0.003744350116618051
1089.0, 0.0034899282347856555
1090.0, 0.0030271442447125318
1091.0, 0.002833168276030719
1092.0, 0.0033387647833730306
1093.0, 0.0023306319838174235
1094.0, 0.003313272369009939
1095.0, 0.0035288082561263385
1096.0, 0.0031572313515561977
1097.0, 0.003764580639034204
1098.0, 0.002931446878932816
1099.0, 0.003085177819480778
1100.0, 0.0030815156021090557
1101.0, 0.003182729824692588
1102.0, 0.0037925552649913383
1103.0, 0.0036064666629378257
1104.0, 0.004293686975539556
1105.0, 0.003991372298462123
1106.0, 0.004338015250046904
1107.0, 0.005819040629795736
1108.0, 0.00411461173033046
1109.0, 0.005267017312317657
1110.0, 0.005957690024165922
1111.0, 0.006240198791828776
1112.0, 0.006668805172232778
1113.0, 0.00809213613456207
1114.0, 0.008840071191956672
1115.0, 0.008681908400710345
1116.0, 0.0089301254046142
1117.0, 0.009228690311129903
1118.0, 0.008061585541002583
1119.0, 0.006747471049453408
1120.0, 0.006429319067504332
1121.0, 0.008242213724850584
1122.0, 0.009615297383316453
1123.0, 0.007821595288044277
1124.0, 0.00777357368134633
1125.0, 0.006349042623279961
1126.0, 0.0058010333160071585
1127.0, 0.0055039308977748395
1128.0, 0.004878280969920233
1129.0, 0.004920771672098244
1130.0, 0.004042868506032045
1131.0, 0.003204351783944536
1132.0, 0.0028351591719165555
1133.0, 0.003143443400641983
1134.0, 0.004092450829078994
1135.0, 0.005529563432719903
1136.0, 0.0033779181982707593
1137.0, 0.003965736163205794
1138.0, 0.005395318102544315
1139.0, 0.0023501836289197358
1140.0, 0.0023071586562966686
1141.0, 0.003155259912102885
1142.0, 0.0032425157740524424
1143.0, 0.0025281413074773056
1144.0, 0.0016136468974816275
1145.0, 0.0016848216482755077
1146.0, 0.0009347131113566708
1147.0, 0.0011766241921935758
1148.0, 0.0010725410732443244
1149.0, 0.0003071552168787739
1150.0, 0.0003395438472324062
1151.0, 0.000707620296918101
1152.0, 0.0010462706415909093
1153.0, 0.001689478535603262
1154.0, 0.001773501525194905
1155.0, 0.00034095975266507496
1156.0, 0.0013271047593409104
1157.0, 0.0009759519555847662
1158.0, 0.0007305619356939249
1159.0, 0.0008140479959589147
1160.0, 0.0011674388663055325
1161.0, 0.001817512270517591
1162.0, 0.0016581685900087398
1163.0, 0.001786989250542799
1164.0, 0.001559981861428165
1165.0, 0.0010516850608911056
1166.0, 0.0012103371027378216
1167.0, 0.0015999464306488437
1168.0, 0.0005884898981080484
1169.0, 0.000870407252930661
1170.0, 0.0013846866708557522
1171.0, 0.0002764844100123603
1172.0, 0.00030811838565060744
1173.0, 0.00011283025933523225
1174.0, 0.0003434999978842475
1175.0, 0.0004360575655182987
1176.0, 0.0001681561179215033
1177.0, 0.00023626048764430698
1178.0, 0.001259482265714053
1179.0, 0.0008199628035609984
1180.0, 0.0007937407661371404
1181.0, 0.001237053966936415
1182.0, 0.001134770589610281
1183.0, 0.0015037059597413182
1184.0, 0.0016974750452398541
1185.0, 0.0014352842638581974
1186.0, 0.0011552114493375014
1187.0, 0.001196201260741614
1188.0, 0.001242323665806939
1189.0, 0.0007843138495984851
1190.0, 0.0005106521506589177
1191.0, 0.0013944863862896117
1192.0, 0.0022367543565451416
1193.0, 0.0006207549699177489
1194.0, 0.0005486898703417318
1195.0, 0.0011191908875548176
1196.0, 0.0012201240201322092
1197.0, 0.0011514204800128264
1198.0, 0.0016260245522617752
1199.0, 0.0033259537622088984
1200.0, 0.0029928050691169165
1201.0, 0.0028297884303053206
1202.0, 0.003081229971613179
1203.0, 0.0033527951169900396
1204.0, 0.0029427623756404686
1205.0, 0.003007879272128833
1206.0, 0.002738257175536198
1207.0, 0.0024638045281289815
1208.0, 0.0020057401824099606
1209.0, 0.0014497062921063246
1210.0, 0.0019814554405830887
1211.0, 0.0020133380303232677
1212.0, 0.0023305779525851717
1213.0, 0.0019820990442595966
1214.0, 0.0013171330368858436
1215.0, 0.0015385027798290067
1216.0, 0.00020428130933978844
1217.0, 0.002940225951306279
1218.0, 0.003068543753417161
1219.0, 0.0019877210058957292
1220.0, 0.002014267807833812
1221.0, 0.0024552982932476534
1222.0, 0.0013092144628551678
1223.0, 0.0011714690633750193
1224.0, 0.0014555284950889887
1225.0, 0.0013804409020771002
1226.0, 0.000629923338664022
1227.0, 0.00220268528283183
1228.0, 0.002637139235367575
1229.0, 0.0021481018130043304
1230.0, 0.0014789035188414168
1231.0, 0.0012288864931227017
1232.0, 0.0015002821741952191
1233.0, 0.0032479016663750256
1234.0, 0.0020884026462510267
1235.0, 0.0011359313759124938
1236.0, 0.0018064355471364253
1237.0, 0.0034801401561274595
1238.0, 0.0013272084973589152
1239.0, 0.002164344779153334
1240.0, 0.0033366365444717438
1241.0, 0.003114744829833854
1242.0, 0.0016413170209860096
1243.0, 0.0009422365987801468
1244.0, 0.001761716693904455
1245.0, 0.0025197622524620084
1246.0, 0.0029812040612307686
1247.0, 0.0021852976272461124
1248.0, 0.0007409040167700236
1249.0, 0.0032953595725075512
1250.0, 0.0021767867415544064
1251.0, 0.0014344659909665272
1252.0, 0.0016421438498373164
1253.0, 0.0020814221553216235
1254.0, 0.0015761994136890486
1255.0, 0.0006380298239184394
1256.0, 0.0011886218259520845
1257.0, 0.002003976725044126
1258.0, 0.0023906725700069895
1259.0, 0.0022101159086729094
1260.0, 0.0019508618282427408
1261.0, 0.0023465886741459007
1262.0, 0.002779096191079289
1263.0, 0.002739655484242034
1264.0, 0.0020748043299775834
1265.0, 0.00111921148353119
1266.0, 0.0009747643914361457
1267.0, 0.0014535073075686207
1268.0, 0.002736814494522514
1269.0, 0.002041796690305355
1270.0, 0.0014762784982778531
1271.0, 0.0038354518248477397
1272.0, 0.0011019062431234417
1273.0, 0.002289201063017264
1274.0, 0.0029709587565036667
1275.0, 0.0030398058131108157
1276.0, 0.0030540184281902744
1277.0, 0.003495862764237985
1278.0, 0.0027200394016104533
1279.0, 0.0027764053489915176
1280.0, 0.0028030872490440867
1281.0, 0.002148890298486907
1282.0, 0.001331941246986794
1283.0, 0.0024546860087359245
1284.0, 0.0014148302250403658
1285.0, 0.001476550709779783
1286.0, 0.002304207410753745
1287.0, 0.0025750506999423907
1288.0, 0.0014040062517476754
1289.0, 4.4843581637416864e-05
1290.0, 0.001556175092611073
1291.0, 0.0012215708383834895
1292.0, 0.0013500978507142542
1293.0, 0.0019142207603244084
1294.0, 0.0016358682338324616
1295.0, 0.0012457697819377293
1296.0, 0.0018487341751584844
1297.0, 0.0016944524025424858
1298.0, 0.0017243616806011325
1299.0, 0.0018180254963441962
1300.0, 0.000985917499831277
1301.0, 0.0007758948149048636
1302.0, 0.0002563364344424773
1303.0, 0.0003873673771708045
1304.0, 0.0008236575740156377
1305.0, 0.0009435169162522593
1306.0, 0.0003013216386699264
1307.0, 0.0005560354605781183
1308.0, 0.00017723225320071413
1309.0, 0.0009820076535636125
1310.0, 0.0012426498401558093
1311.0, 0.00033682704913422375
1312.0, 0.0008531020504879466
1313.0, 0.0005696460285919174
1314.0, 0.002899628105353099
1315.0, 0.0020457996849652118
1316.0, 0.0005906019176963346
1317.0, 0.0012450740604847503
1318.0, 0.0003788219284710681
1319.0, 0.001443210467134456
1320.0, 0.0012537980534466182
1321.0, 0.000553453786713394
1322.0, 0.0005671372480308477
1323.0, 0.0016399351846441447
1324.0, 0.0014273657080760567
1325.0, 0.003011834036849366
1326.0, 0.0022841712097972605
1327.0, 0.0015598965530592495
1328.0, 0.0012136363761467677
1329.0, 0.0008909520374024815
1330.0, 0.0020188179901124946
1331.0, 0.0027715958608836378
1332.0, 0.0012342746895304736
1333.0, 0.0009804398067541
1334.0, 0.001531029423215415
1335.0, 0.0006400162773080912
1336.0, 0.000284243082222833
1337.0, 0.00048677393071836617
1338.0, 0.00021702969398614252
1339.0, 8.255553046947803e-06
1340.0, 0.00047934671096490903
1341.0, 0.00160442384750375
1342.0, 0.0009683369293846017
1343.0, 0.0002304945234810213
1344.0, 0.00160090184824916
1345.0, 0.0016366526382693752
1346.0, 0.000890112527823169
1347.0, 0.0019885096951506925
1348.0, 0.0014163148795623703
1349.0, 0.0012892845133712309
1350.0, 0.0027659607929305195
1351.0, 0.002680087487855966
1352.0, 0.001182346942320506
1353.0, 0.0010784355129070532
1354.0, 0.0037994883279603413
1355.0, 0.0010164552696509325
1356.0, 0.0016082378283010298
1357.0, 0.002911146204757319
1358.0, 0.0025998311046447364
1359.0, 0.001087555529166645
1360.0, 0.005036557308083864
1361.0, 0.0036860598087948898
1362.0, 0.0038021418788325156
1363.0, 0.004869453979175139
1364.0, 0.005169320471204906
1365.0, 0.0035790393982756013
1366.0, 0.0025549205657794806
1367.0, 0.003911649581227991
1368.0, 0.003848274293328918
1369.0, 0.0026880209042633614
1370.0, 0.0016071271654445596
1371.0, 0.0016600032077836316
1372.0, 0.0024183666374934763
1373.0, 0.0028453902437307233
1374.0, 0.0019017391595256795
1375.0, 0.002234867021460665
1376.0, 0.003106430844036314
1377.0, 0.002379789086316537
1378.0, 0.0004235364289844538
1379.0, 0.002722932005663007
1380.0, 0.002958289100172285
1381.0, 0.0026570972767503633
1382.0, 0.002739549324599249
1383.0, 0.003227733996015473
1384.0, 0.0032473266842376358
1385.0, 0.002347934256968285
1386.0, 0.0014877811161171917
1387.0, 0.002115572543091492
1388.0, 0.002592136756644729
1389.0, 0.0018310553965666541
1390.0, 0.0022672759440291275
1391.0, 0.0009224099213898353
1392.0, 0.0004737102162878429
1393.0, 0.0004302910684409402
1394.0, 0.0004656774777701692
1395.0, 0.0006723225898303049
1396.0, 0.0015123560712894312
1397.0, 0.0010596514743270572
1398.0, 0.002817917327426224
1399.0, 0.0033386897394706095
1400.0, 0.002770099270129638
1401.0, 0.002603436226396712
1402.0, 0.004076639049900235
1403.0, 0.0033261688287727674
1404.0, 0.0032609120216252475
1405.0, 0.003626082836155857
1406.0, 0.0033470021053354595
1407.0, 0.002814829878353681
1408.0, 0.003347238321669988
1409.0, 0.0038709483352395405
1410.0, 0.0015342186030812405
1411.0, 0.003946817490010244
1412.0, 0.004046038510144795
1413.0, 0.002519713373462405
1414.0, 0.0035358085004877893
1415.0, 0.0032870633799547445
1416.0, 0.0032798830230797078
1417.0, 0.0037220952326330325
1418.0, 0.004674995759839657
1419.0, 0.005338902824093459
1420.0, 0.005117119362398495
1421.0, 0.004536347858007064
1422.0, 0.0034787595959004866
1423.0, 0.004302756605871741
1424.0, 0.004742929609603583
1425.0, 0.00423796862303342
1426.0, 0.0036913201261227994
1427.0, 0.004546045834714708
1428.0, 0.00346725882226268
1429.0, 0.003727957211363923
1430.0, 0.0034767047481881834
1431.0, 0.004189250454924595
1432.0, 0.005064281473008459
1433.0, 0.004079013742331742
1434.0, 0.0039013842006949176
1435.0, 0.005542793427892829
1436.0, 0.00590684110152433
1437.0, 0.005167364299061532
1438.0, 0.00448274496526846
1439.0, 0.0048515957299755065
1440.0, 0.005933561464309267
1441.0, 0.004869255722862523
1442.0, 0.004537876436675049
1443.0, 0.005338716242121097
1444.0, 0.005249103262436657
1445.0, 0.0042253493297338945
1446.0, 0.005264218957532166
1447.0, 0.0066062543718253645
1448.0, 0.005895460904585983
1449.0, 0.005137959783625028
1450.0, 0.006117401460576712
1451.0, 0.007747481590094061
1452.0, 0.00780028392805347
1453.0, 0.007992769744745599
1454.0, 0.00828774732764377
1455.0, 0.008332230916282855
1456.0, 0.008484981006183936
1457.0, 0.008379515624799716
1458.0, 0.008048220660950907
1459.0, 0.008592848384205631
1460.0, 0.0075388424638955015
1461.0, 0.005360816603631202
1462.0, 0.004070765776208464
1463.0, 0.005608893518630344
1464.0, 0.007043447256608677
1465.0, 0.003862596268404443
1466.0, 0.005308445831236975
1467.0, 0.0046236013068860155
1468.0, 0.0035498942691153403
1469.0, 0.002579126595948983
1470.0, 0.003203158976338366
1471.0, 0.004417790007853609
1472.0, 0.00015629572758629339
1473.0, 0.003277333558238984
1474.0, 0.0033746187178947005
1475.0, 0.002432698043029554
1476.0, 0.0027598677289233232
1477.0, 0.0042433420646724885
1478.0, 0.004528183580435642
1479.0, 0.0031990505153993883
1480.0, 0.006857568774631319
1481.0, 0.0035256171073682887
1482.0, 0.003289318122382764
1483.0, 0.004983725916232794
1484.0, 0.004333020454727544
1485.0, 0.005054498559048764
1486.0, 0.002329727124157145
1487.0, 0.005206727089828026
1488.0, 0.00547124063321262
1489.0, 0.00432100588930469
1490.0, 0.0037383160630613038
1491.0, 0.0038642397154842376
1492.0, 0.0038485424184344875
1493.0, 0.003571112647817318
1494.0, 0.003773559765127764
1495.0, 0.004130816403202646
1496.0, 0.0033101196040545705
1497.0, 0.001799183075929239
1498.0, 0.002918034860158865
1499.0, 0.0021087077553914404
1500.0, 0.0018570180812344376
1501.0, 0.002160376222097503
1502.0, 0.0016893097842201746
1503.0, 0.0014390997115387594
1504.0, 0.002720239716634234
1505.0, 0.002245990244610653
1506.0, 0.002246462059428577
1507.0, 0.0017736845870779852
1508.0, 0.0018844227514491988
1509.0, 0.0024482554915539727
1510.0, 0.002815032790569585
1511.0, 0.002546992619875988
1512.0, 0.002715795785862842
1513.0, 0.0013276558006585664
1514.0, 0.00046964766852752464
1515.0, 0.002209621142373136
1516.0, 0.003538753776877364
1517.0, 0.0027179183365026852
1518.0, 0.004318952515405931
1519.0, 0.0028734735155296724
1520.0, 0.0010310141955614054
1521.0, 0.00019143403567781377
1522, 0.0
1523, 0.0
1524, 0.0
1525, 0.0
1526, 0.0
1527, 0.0
1528, 0.0
1529, 0.0
1530, 0.0
1531, 0.0
1532, 0.0
1533, 0.0
1534, 0.0
1535, 0.0
1536, 0.0
1537, 0.0
1538, 0.0
1539, 0.0
1540, 0.0
1541, 0.0
1542, 0.0
1543, 0.0
1544, 0.0
1545, 0.0
1546, 0.0
1547, 0.0
1548, 0.0
1549, 0.0
1550, 0.0
1551, 0.0
1552, 0.0
1553, 0.0
1554, 0.0
1555, 0.0
1556, 0.0
1557, 0.0
1558, 0.0
1559, 0.0
1560, 0.0
1561, 0.0
1562, 0.0
1563, 0.0
1564, 0.0
1565, 0.0
1566, 0.0
1567, 0.0
1568, 0.0
1569, 0.0
1570, 0.0
1571, 0.0
1572, 0.0
1573, 0.0
1574, 0.0
1575, 0.0
1576, 0.0
1577, 0.0
1578, 0.0
1579, 0.0
1580, 0.0
1581, 0.0
1582, 0.0
1583, 0.0
1584, 0.0
1585, 0.0
1586, 0.0
1587, 0.0
1588, 0.0
1589, 0.0
1590, 0.0
1591, 0.0
1592, 0.0
1593, 0.0
1594, 0.0
1595, 0.0
1596, 0.0
1597, 0.0
1598, 0.0
1599, 0.0
