30, 0.0
31, 0.0
32, 0.0
33, 0.0
34, 0.0
35, 0.0
36, 0.0
37, 0.0
38, 0.0
39, 0.0
40, 0.0
41, 0.0
42, 0.0
43, 0.0
44, 0.0
45, 0.0
46, 0.0
47, 0.0
48, 0.0
49, 0.0
50, 0.0
51, 0.0
52, 0.0
53, 0.0
54, 0.0
55, 0.0
56, 0.0
57, 0.0
58, 0.0
59, 0.0
60, 0.0
61, 0.0
62, 0.0
63, 0.0
64, 0.0
65, 0.0
66, 0.0
67, 0.0
68, 0.0
69, 0.0
70, 0.0
71, 0.0
72, 0.0
73, 0.0
74, 0.0
75, 0.0
76, 0.0
77, 0.0
78, 0.0
79, 0.0
80, 0.0
81, 0.0
82, 0.0
83, 0.0
84, 0.0
85, 0.0
86, 0.0
87, 0.0
88, 0.0
89, 0.0
90, 0.0
91, 0.0
92, 0.0
93, 0.0
94, 0.0
95, 0.0
96, 0.0
97, 0.0
98, 0.0
99, 0.0
100, 0.0
101, 0.0
102, 0.0
103, 0.0
104, 0.0
105, 0.0
106, 0.0
107, 0.0
108, 0.0
109, 0.0
110.0, 0.00047290625639078993
111.0, 0.005645785295580041
112.0, 0.014280344271197282
113.0, 0.025150036756705914
114.0, 0.0377190566322823
115.0, 0.04957441525032041
116.0, 0.053081577908617866
117.0, 0.04819531445239975
118.0, 0.037899299326976076
119.0, 0.027387965527769044
120.0, 0.018640303102424986
121.0, 0.011848711741375272
122.0, 0.00677806579795919
123.0, 0.0032454222820355004
124.0, 0.0006292852280790506
125.0, 0.0008970002659591226
126.0, 0.0006515620039845092
127.0, 0.0002695582217512731
128.0, 0.0006180727879675078
129.0, 0.0005340793671356936
130.0, 0.00019059622438552477
131.0, 0.001202077382641914
132.0, 0.0036873304848356807
133.0, 0.007361539281694568
134.0, 0.013180432757492914
135.0, 0.0204710326784434
136.0, 0.025196723720990667
137.0, 0.0230135016342093
138.0, 0.016143505970012687
139.0, 0.008380731983303608
140.0, 0.002129745642861674
141.0, 0.00031236193293487994
142.0, 0.001284403471370299
143.0, 0.0015610125521114098
144.0, 0.00023439305728748417
145.0, 7.370253693447361e-05
146.0, 0.0011518626728246
147.0, 0.003327846292764529
148.0, 0.005117449446331959
149.0, 0.007686991745135243
150.0, 0.012144810854491045
151.0, 0.018768198996544548
152.0, 0.02784283328018977
153.0, 0.04074758598186634
154.0, 0.05434304688426844
155.0, 0.0567041639210889
156.0, 0.04517873798647303
157.0, 0.027961099158386085
158.0, 0.01550576180719203
159.0, 0.008847357764794207
160.0, 0.0062089443429857345
161.0, 0.005074663612448156
162.0, 0.004517716180707483
163.0, 0.0048136910760687365
164.0, 0.006457696106014525
165.0, 0.00950631372798641
166.0, 0.012157450358920319
167.0, 0.0170457166955969
168.0, 0.022646762679252707
169.0, 0.02729156223766676
170.0, 0.032667686048654714
171.0, 0.03958729508586259
172.0, 0.048761864802324806
173.0, 0.05902962837283421
174.0, 0.06935115757978814
175.0, 0.08336640158922143
176.0, 0.10218972981620196
177.0, 0.12496269651015006
178.0, 0.1469844563069688
179.0, 0.15603819638248223
180.0, 0.14807108521947096
181.0, 0.13348969961163182
182.0, 0.12380875238628733
183.0, 0.12297863696072378
184.0, 0.12698335964109764
185.0, 0.13641308174263458
186.0, 0.14778437906003436
187.0, 0.1580176967088581
188.0, 0.17555418226083966
189.0, 0.19539166907099462
190.0, 0.21359125951128105
191.0, 0.22956042197896184
192.0, 0.24543116169612603
193.0, 0.26013167958561684
194.0, 0.2684827579949828
195.0, 0.2688539774610459
196.0, 0.26360689626113326
197.0, 0.2648019161606035
198.0, 0.2805547878684332
199.0, 0.3069006822984868
200.0, 0.3383594074647413
201.0, 0.38426678046457746
202.0, 0.43944755745744396
203.0, 0.4919492083055701
204.0, 0.5213512797654065
205.0, 0.5025058936629072
206.0, 0.45449351414986117
207.0, 0.40890507524767933
208.0, 0.38309479276078934
209.0, 0.37894629017227377
210.0, 0.39390216040922943
211.0, 0.4219146722153431
212.0, 0.46091893048114757
213.0, 0.5106636101139109
214.0, 0.5682461265458113
215.0, 0.636782724865343
216.0, 0.7130193290542901
217.0, 0.7953881525015786
218.0, 0.8807468654774909
219.0, 0.9532228573133651
220.0, 0.9943367085242433
221.0, 0.9936201871725844
222.0, 0.9447508627170251
223.0, 0.853765072043395
224.0, 0.7363615456604377
225.0, 0.6133617468705291
226.0, 0.5017697567622874
227.0, 0.4077670786474985
228.0, 0.33027649245346696
229.0, 0.27123107580030037
230.0, 0.22366098048440822
231.0, 0.1838330947565357
232.0, 0.15493686972351203
233.0, 0.13269705197899812
234.0, 0.11454727094742456
235.0, 0.09984339062665298
236.0, 0.08880445382107406
237.0, 0.08267633405732558
238.0, 0.07903024349500241
239.0, 0.07467428082346865
240.0, 0.06996599176705195
241.0, 0.07248713706477253
242.0, 0.07673371829630067
243.0, 0.07820910718120865
244.0, 0.0753545478978601
245.0, 0.06904067648533808
246.0, 0.058965334389526176
247.0, 0.04788268340103201
248.0, 0.03742576796324054
249.0, 0.028203264536971136
250.0, 0.020669541890651896
251.0, 0.01615821131021548
252.0, 0.012586638195365128
253.0, 0.009512530843010718
254.0, 0.00746181308038222
255.0, 0.005814619831510461
256.0, 0.003037577866220484
257.0, 0.0012862571405721447
258.0, 0.0009977490908095095
259.0, 0.0001739086815415118
260.0, 0.0006563792494888772
261.0, 0.001491731268970095
262.0, 0.0024295978865583726
263.0, 0.002886702687367781
264.0, 0.0026923210908426803
265.0, 0.002699949416722221
266.0, 0.002831503026232986
267.0, 0.002603957220415015
268.0, 0.0018292238716562576
269.0, 0.0009853544955092108
270.0, 0.0011233943884658157
271.0, 0.0005791708037482936
272.0, 0.0007195395831553253
273.0, 0.0010515839088432565
274.0, 0.002949202841664681
275.0, 0.003914105419089155
276.0, 0.004608030554529448
277.0, 0.0064005194936057495
278.0, 0.008661483471881412
279.0, 0.010143821256194199
280.0, 0.011998523827228652
281.0, 0.014750398996149312
282.0, 0.018203967454851287
283.0, 0.02306036081317754
284.0, 0.02887735450414488
285.0, 0.035599548624519584
286.0, 0.043441012019734014
287.0, 0.05257918840301532
288.0, 0.061804150414160416
289.0, 0.0691098874990219
290.0, 0.07419756580532288
291.0, 0.07806063064426956
292.0, 0.08099585813956121
293.0, 0.08210299659746648
294.0, 0.08459692561571104
295.0, 0.090434751168321
296.0, 0.09907382677293697
297.0, 0.1081808717431664
298.0, 0.12129501214610698
299.0, 0.13795266030581554
300.0, 0.15758323335580937
301.0, 0.18126645359841376
302.0, 0.21279879509125443
303.0, 0.2535764277792211
304.0, 0.30060017346166495
305.0, 0.34685343562773674
306.0, 0.38282324346485624
307.0, 0.39160564991261193
308.0, 0.3711806427970037
309.0, 0.330407119206713
310.0, 0.28257038426357806
311.0, 0.24565404989843448
312.0, 0.21984765445203577
313.0, 0.20740792647512604
314.0, 0.20554640800718196
315.0, 0.20313709242953124
316.0, 0.18799702153719125
317.0, 0.1607647932319349
318.0, 0.1287886681195116
319.0, 0.09995119449064756
320.0, 0.07844412626520363
321.0, 0.06409140979275833
322.0, 0.05303863333856806
323.0, 0.04469769447411177
324.0, 0.0381774734538623
325.0, 0.03191997649583715
326.0, 0.027377913898678045
327.0, 0.02337471535694541
328.0, 0.019442478491756586
329.0, 0.01626198804981706
330.0, 0.014955181683588415
331.0, 0.012899553381393753
332.0, 0.01136938604870078
333.0, 0.010264230404076275
334.0, 0.008968736107798254
335.0, 0.007567543329026786
336.0, 0.006449695191791085
337.0, 0.005552849572058084
338.0, 0.004881883575515384
339.0, 0.0044653440392003075
340.0, 0.003959302046492707
341.0, 0.0031473614132827973
342.0, 0.0027083467114315386
343.0, 0.0026923880116371665
344.0, 0.002480269588118462
345.0, 0.002201811781528574
346.0, 0.002238545659974138
347.0, 0.0018362979725432204
348.0, 0.001247259687937093
349.0, 0.0010938596056156156
350.0, 0.00045697765853378784
351.0, 0.0004813307739013452
352.0, 0.0004996542727428377
353.0, 0.0003550195847682919
354.0, 0.0003753846122102567
355.0, 0.00012037190594834005
356.0, 0.000782350372254751
357.0, 0.0008667602133425195
358.0, 0.00021015566448159896
359.0, 0.0001079145288837789
360.0, 0.0001300786102321986
361.0, 0.00030743304105222474
362.0, 0.0005768035526303166
363.0, 0.00045773130048259075
364.0, 0.0004330369859656822
365.0, 0.00013632981107352063
366.0, 2.120080482940727e-05
367.0, 0.00035411914697234864
368.0, 0.0008995975983249025
369.0, 0.0009267692445622583
370.0, 0.00039400043124770745
371.0, 0.00019511380445228537
372.0, 0.0002295428792774407
373.0, 0.00026258515272041316
374.0, 0.00031702510674752723
375.0, 4.212979181188009e-05
376.0, 0.0003974151275068366
377.0, 0.000762335382047676
378.0, 0.0011370404549424105
379.0, 0.0013622478585771814
380.0, 0.0008166637914191545
381.0, 0.000896417503203322
382.0, 0.001742967921991919
383.0, 0.002492345435308757
384.0, 0.002518205048780861
385.0, 0.003016995698352578
386.0, 0.0036450998040308768
387.0, 0.004971099381584677
388.0, 0.007204253682984571
389.0, 0.00957017378128705
390.0, 0.010193996083733158
391.0, 0.012137053157934705
392.0, 0.015148472330507213
393.0, 0.018072583339359582
394.0, 0.020180000001729433
395.0, 0.021982284938481297
396.0, 0.022430604959695885
397.0, 0.02219053434913975
398.0, 0.021127200202204925
399.0, 0.019295009297074533
400.0, 0.019643736704579057
401.0, 0.020556288219703896
402.0, 0.02259637412473788
403.0, 0.026154590678136917
404.0, 0.03113717748580988
405.0, 0.03652964808642307
406.0, 0.04308117050371793
407.0, 0.046474224387610306
408.0, 0.04438623018040484
409.0, 0.037110112828707444
410.0, 0.027259283972122846
411.0, 0.019213310035930003
412.0, 0.012208115113942198
413.0, 0.006968519744262065
414.0, 0.004332329373240138
415.0, 0.003080083323009333
416.0, 0.0021240613221815965
417.0, 0.001296375528711505
418.0, 0.0010326033927801092
419.0, 0.0010194961649348123
420.0, 0.0007193354957608885
421.0, 0.0016058173463955902
422.0, 0.00266946482068588
423.0, 0.004134265032827515
424.0, 0.006174795770651312
425.0, 0.008245648559045
426.0, 0.009836624479781089
427.0, 0.010933303712280582
428.0, 0.011982611227435302
429.0, 0.012718486367007838
430.0, 0.012773929935701192
431.0, 0.012742817020783306
432.0, 0.014239859296314133
433.0, 0.014915798853552993
434.0, 0.016484952028890876
435.0, 0.020001375699923527
436.0, 0.02286126881833973
437.0, 0.027160138542369497
438.0, 0.03261968712788616
439.0, 0.039580911043663784
440.0, 0.04787865209965343
441.0, 0.0564746607360877
442.0, 0.06475875301924512
443.0, 0.06748797409300107
444.0, 0.06370918757794268
445.0, 0.05415357764720133
446.0, 0.04067087611035471
447.0, 0.028806454245978583
448.0, 0.020787112071687215
449.0, 0.016080681456889456
450.0, 0.013545213694138549
451.0, 0.012125461804993728
452.0, 0.010991752506731243
453.0, 0.009480648803993099
454.0, 0.009097692108338065
455.0, 0.009707486097060066
456.0, 0.010736089326902247
457.0, 0.0121872508272772
458.0, 0.01409148127369646
459.0, 0.016289692921285466
460.0, 0.018546396505508263
461.0, 0.022191044179617897
462.0, 0.028636508656254056
463.0, 0.034899102777111314
464.0, 0.04340944813828208
465.0, 0.05355743032707124
466.0, 0.06319792050238628
467.0, 0.0677093550392339
468.0, 0.0622442308364014
469.0, 0.04956455006127188
470.0, 0.03259353033756418
471.0, 0.01907716031867039
472.0, 0.01067294462798858
473.0, 0.004378648334762812
474.0, 0.000976777104213436
475.0, 0.0014992268634967595
476.0, 0.0032691069247728923
477.0, 0.003966659688315285
478.0, 0.003920963689556139
479.0, 0.004302936852326205
480.0, 0.004143848993378593
481.0, 0.003929740534762546
482.0, 0.0030368944738557906
483.0, 0.0011963203973656851
484.0, 0.0010262337230033214
485.0, 0.003390957699944577
486.0, 0.00755782088761988
487.0, 0.01280055725669902
488.0, 0.018477115712841937
489.0, 0.02381582277325368
490.0, 0.02756944655605631
491.0, 0.029766600030903957
492.0, 0.034348964953947986
493.0, 0.04060636157222076
494.0, 0.047862750886904254
495.0, 0.05678639333222682
496.0, 0.06707757102875066
497.0, 0.08097376485740204
498.0, 0.09684636738610217
499.0, 0.11607447927866527
500.0, 0.14111171071164685
501.0, 0.1722694155998012
502.0, 0.20886790360174798
503.0, 0.2509493280771306
504.0, 0.28846870763526267
505.0, 0.30910764311894917
506.0, 0.303788671191934
507.0, 0.26435211631253985
508.0, 0.21675650849346972
509.0, 0.17922549654282033
510.0, 0.15863367044713725
511.0, 0.15532767493722716
512.0, 0.1659037805319015
513.0, 0.1866501890124823
514.0, 0.2153384623746999
515.0, 0.24412576366337513
516.0, 0.26621820323125733
517.0, 0.2738071408049665
518.0, 0.2565953575409212
519.0, 0.22171651020829122
520.0, 0.18110764881640623
521.0, 0.1435117517408095
522.0, 0.11263352885763618
523.0, 0.08947411390899687
524.0, 0.07652865837223373
525.0, 0.06625847993241792
526.0, 0.059086181595354594
527.0, 0.05484505594060369
528.0, 0.05269574188822668
529.0, 0.05199407955203435
530.0, 0.052714519857587475
531.0, 0.05520543345078739
532.0, 0.05899403222415789
533.0, 0.06447218692620484
534.0, 0.07184018777631516
535.0, 0.07993915768111745
536.0, 0.08944928687692817
537.0, 0.10028011067252005
538.0, 0.10876002209249203
539.0, 0.11276083853461111
540.0, 0.11111095585503737
541.0, 0.10015456436770159
542.0, 0.08693707190183303
543.0, 0.07214110824510166
544.0, 0.05593796384606846
545.0, 0.04119434619537377
546.0, 0.0308482894925688
547.0, 0.021790495624466277
548.0, 0.01680626974303351
549.0, 0.013301680185070977
550.0, 0.010698100362038295
551.0, 0.009113936058833049
552.0, 0.00802313532551355
553.0, 0.007758312871615195
554.0, 0.00894557861417532
555.0, 0.010359412688019697
556.0, 0.012015560830157033
557.0, 0.014694545815515533
558.0, 0.018958457000551245
559.0, 0.0256684437501768
560.0, 0.0344565276307381
561.0, 0.045341440898558356
562.0, 0.0598189726139975
563.0, 0.07724417022182498
564.0, 0.09410581724583604
565.0, 0.1091998110439252
566.0, 0.12340654700212368
567.0, 0.13577154879676967
568.0, 0.15025511954284787
569.0, 0.17080019290531073
570.0, 0.19520398267078143
571.0, 0.22407036902499403
572.0, 0.2583120351847462
573.0, 0.3004507029386345
574.0, 0.35418985833413996
575.0, 0.4219485023382462
576.0, 0.5046542256353345
577.0, 0.606065755305224
578.0, 0.7097366998908322
579.0, 0.7948517566496781
580.0, 0.8277063490774033
581.0, 0.7820184431188084
582.0, 0.6671350744289326
583.0, 0.5286511294674558
584.0, 0.39679719440918865
585.0, 0.29265669783210796
586.0, 0.21744851300691156
587.0, 0.16392911409151906
588.0, 0.12793209513405088
589.0, 0.10022482163884765
590.0, 0.08010610673614457
591.0, 0.06350094289017898
592.0, 0.0501991005903142
593.0, 0.0410523537897212
594.0, 0.03447831332876021
595.0, 0.027505328684769237
596.0, 0.022296693523769204
597.0, 0.01784956662271879
598.0, 0.014333680396960096
599.0, 0.011877283455094692
600.0, 0.009357923079021249
601.0, 0.007006743418574574
602.0, 0.005611281135775621
603.0, 0.004087700994456694
604.0, 0.002475654528384762
605.0, 0.0013110380139537683
606.0, 0.0005755502889508378
607.0, 0.0005411975360303896
608.0, 0.0006487538338657875
609.0, 0.0011843386966932127
610.0, 0.0010421461546679602
611.0, 0.0008080298300417314
612.0, 0.0019790526400209406
613.0, 0.002130638917499759
614.0, 0.0015542014287856078
615.0, 0.0011224033145843437
616.0, 0.0007268125609431911
617.0, 0.0005712599572774821
618.0, 0.0005894924034875668
619.0, 0.0002117388230546415
620.0, 0.0005524261035124258
621.0, 0.0020888734206922586
622.0, 0.0030953671376918973
623.0, 0.003556301222691585
624.0, 0.004018590346891891
625.0, 0.004106684059478442
626.0, 0.005029246157511415
627.0, 0.006812855570791728
628.0, 0.009036852570932586
629.0, 0.010546574705017736
630.0, 0.012381163089613439
631.0, 0.01582689474906548
632.0, 0.018118157526034046
633.0, 0.020685827279510335
634.0, 0.023941984111207532
635.0, 0.02657091091140586
636.0, 0.027887151469818506
637.0, 0.028248953815829942
638.0, 0.027091301322945547
639.0, 0.021400149151747677
640.0, 0.01696988797815765
641.0, 0.012779377246161515
642.0, 0.008960648193521298
643.0, 0.006253191523072717
644.0, 0.00442123734874241
645.0, 0.003517191595178357
646.0, 0.002007075824464693
647.0, 0.0010348375239897206
648.0, 0.0004156041154242082
649.0, 0.00022323200664610272
650.0, 0.0003151863654126797
651.0, 0.00031018596217216414
652.0, 0.00043435015393003784
653.0, 0.00015223783263361863
654.0, 0.0003320600577429988
655.0, 0.0006329643146284719
656.0, 0.0005284425856663612
657.0, 0.00022531203017602173
658.0, 0.0008338286671682089
659.0, 0.0006671331625708991
660.0, 0.00015027045670481148
661.0, 3.9419831755691784e-05
662.0, 0.0002439403618852963
663.0, 0.0005011686089048843
664.0, 0.0005002104628143196
665.0, 0.00047907441376315803
666.0, 0.0006009221646051598
667.0, 0.0006785588031437784
668.0, 0.00044260926934862853
669.0, 0.0003742882698776713
670.0, 0.00010750545128076438
671.0, 0.00034882056365333983
672.0, 0.00022621981634960383
673.0, 0.0007830474025182349
674.0, 0.0006905742495951221
675.0, 0.00031277894780209093
676.0, 0.000314484234661578
677.0, 0.0005507029423402769
678.0, 0.0009188170956165644
679.0, 0.0011564542969752854
680.0, 0.0009604402693313592
681.0, 0.001080287794399777
682.0, 0.0013773777025498357
683.0, 0.0013546422304721057
684.0, 0.0012952250850778685
685.0, 0.0015334460395904639
686.0, 0.0018037020152656394
687.0, 0.001471926753262883
688.0, 0.0017860554662394257
689.0, 0.002474699900619407
690.0, 0.0024721949413039485
691.0, 0.002188690909768379
692.0, 0.002429356906831545
693.0, 0.00267141311734112
694.0, 0.0031080329819425214
695.0, 0.0031402907202814604
696.0, 0.002402124963562059
697.0, 0.002634630840826914
698.0, 0.005271235281084986
699.0, 0.004052902044991261
700.0, 0.0030110462911492218
701.0, 0.0032570300123698948
702.0, 0.003978119500175801
703.0, 0.004287458398643278
704.0, 0.004219272985245778
705.0, 0.0048905565110146055
706.0, 0.004519025438387355
707.0, 0.004672893392691642
708.0, 0.005008597020550014
709.0, 0.004774785447516197
710.0, 0.0044140213519866574
711.0, 0.004517429538122104
712.0, 0.00431005279381349
713.0, 0.004285891434607206
714.0, 0.003772015055006372
715.0, 0.003911712269544108
716.0, 0.003864831107538202
717.0, 0.0035037482486122706
718.0, 0.0038776102648900496
719.0, 0.003531064467146629
720.0, 0.004361876945399516
721.0, 0.0051222687368062125
722.0, 0.005005205696101076
723.0, 0.0049896769376260785
724.0, 0.005482114556599524
725.0, 0.005823292200358333
726.0, 0.006643201306704646
727.0, 0.007905930769590407
728.0, 0.008195502753782084
729.0, 0.009281389417341506
730.0, 0.011202710671456164
731.0, 0.013791408526999348
732.0, 0.016863401672949706
733.0, 0.01975549858224697
734.0, 0.02396907093554483
735.0, 0.027038870131691206
736.0, 0.029723155892004097
737.0, 0.03331192708950766
738.0, 0.037653721065052395
739.0, 0.042475109920855035
740.0, 0.048559336002102826
741.0, 0.05627070807243018
742.0, 0.06395598890070293
743.0, 0.07505446139918819
744.0, 0.08835940763565264
745.0, 0.10246664927224636
746.0, 0.11781110799834812
747.0, 0.13264533674580695
748.0, 0.14032292531100898
749.0, 0.14092866595113887
750.0, 0.12998534603444878
751.0, 0.1112422661378002
752.0, 0.08935756950194133
753.0, 0.06796915825865976
754.0, 0.05086746083830435
755.0, 0.03930243695516772
756.0, 0.029432333369186766
757.0, 0.023510187434645773
758.0, 0.019013940549213234
759.0, 0.015067421643581347
760.0, 0.011953375192226643
761.0, 0.009718872124885387
762.0, 0.008506592501618275
763.0, 0.006858963993727251
764.0, 0.005781567626151615
765.0, 0.005245124689990679
766.0, 0.004313352135488272
767.0, 0.0029689749705341154
768.0, 0.002286368785062768
769.0, 0.002547226019138386
770.0, 0.0018456147642663878
771.0, 0.0015453160286356686
772.0, 0.001038628572377387
773.0, 0.0011698523673981118
774.0, 0.000696458998300429
775.0, 7.583865333935083e-05
776.0, 0.00011841617249367146
777.0, 0.000454753312184194
778.0, 0.00043255375183399194
779.0, 0.00017490923223549483
780.0, 0.0001325532473170237
781.0, 0.0004921067126404059
782.0, 0.00040266335147089383
783.0, 4.759466381050556e-05
784.0, 0.00030688419912586087
785.0, 9.607413931166526e-05
786.0, 0.0004103490973166339
787.0, 0.0013085166750059622
788.0, 0.0013894693110915737
789.0, 0.001651568339694658
790.0, 0.002011269860928658
791.0, 0.0021643539470792535
792.0, 0.0032003167770181056
793.0, 0.003712607282291333
794.0, 0.0047102480375958815
795.0, 0.006033604860832057
796.0, 0.0073227674953952535
797.0, 0.008922467013272121
798.0, 0.010565990702284424
799.0, 0.011955482091896206
800.0, 0.013640144819368495
801.0, 0.015212947846208195
802.0, 0.018344887927838435
803.0, 0.02182373382320079
804.0, 0.024898714867988243
805.0, 0.02842682110213631
806.0, 0.03281631474491288
807.0, 0.03773813585937888
808.0, 0.04333654758955483
809.0, 0.04978852208568854
810.0, 0.05525321450773907
811.0, 0.05821761789227708
812.0, 0.0589660187124812
813.0, 0.05457844869245831
814.0, 0.04626657170769364
815.0, 0.038165571674451136
816.0, 0.02944136853497218
817.0, 0.023349667335636624
818.0, 0.017383418257239953
819.0, 0.012974730643770202
820.0, 0.009578230980474106
821.0, 0.00777455717347141
822.0, 0.006745682802135202
823.0, 0.005058627605015687
824.0, 0.004518830225841488
825.0, 0.003625712761073349
826.0, 0.00260944802394293
827.0, 0.0017936882115592112
828.0, 0.0016715858744881782
829.0, 0.001320250020032009
830.0, 0.000715768161579906
831.0, 0.0004916745010038824
832.0, 0.000457329940574295
833.0, 0.0002762850382729371
834.0, 0.00012954877351259176
835.0, 0.00029986195382577195
836.0, 9.524235997021282e-05
837.0, 0.0001616475699434531
838.0, 7.940173306800592e-05
839.0, 3.926465570073691e-05
840.0, 0.00020368300361435314
841.0, 0.0004891048447241429
842.0, 0.0005176917115002299
843.0, 0.00010019136844769147
844.0, 7.96672933736592e-05
845.0, 0.00018638792543912615
846.0, 0.0002988511369426461
847.0, 0.00034468034865012525
848.0, 0.00013035592993499958
849.0, 4.447207573391345e-05
850.0, 0.00017729853916731151
851.0, 0.00019688392222144165
852.0, 6.732323949009627e-05
853.0, 4.320148703159434e-05
854.0, 0.00010730508510037457
855.0, 0.0006525619252090223
856.0, 0.0011623145738651206
857.0, 0.0007318953138888901
858.0, 0.0008420885827848395
859.0, 0.001058891702289416
860.0, 0.0014226631205780953
861.0, 0.0015735003337403657
862.0, 0.0023965307678245062
863.0, 0.0031298247008007744
864.0, 0.0035979513065405506
865.0, 0.004357639292848288
866.0, 0.004738180896173897
867.0, 0.004450180138450918
868.0, 0.005224804095034086
869.0, 0.006450503160381742
870.0, 0.007003761353192594
871.0, 0.00786903792598696
872.0, 0.011146012355043883
873.0, 0.014407440426289015
874.0, 0.013927890153004656
875.0, 0.01406137236127337
876.0, 0.014060793902501674
877.0, 0.014824261220486813
878.0, 0.015122191881659112
879.0, 0.014862284226130626
880.0, 0.014413713671662283
881.0, 0.013541947624478808
882.0, 0.013039770457083362
883.0, 0.013770615781687584
884.0, 0.014250570218135927
885.0, 0.015895435520594123
886.0, 0.01883421728243181
887.0, 0.01975622748632815
888.0, 0.02087853125747509
889.0, 0.02159961893141847
890.0, 0.021748883726902136
891.0, 0.022185840846186182
892.0, 0.022326641306668144
893.0, 0.021617288739045667
894.0, 0.021007057586195192
895.0, 0.021465647175836128
896.0, 0.021458318055480662
897.0, 0.021159669864210025
898.0, 0.02012292531880109
899.0, 0.01815730446778858
900.0, 0.016097402086060288
901.0, 0.014388387259143645
902.0, 0.011807925583956358
903.0, 0.00959432846104545
904.0, 0.007930443868684542
905.0, 0.005848148272792142
906.0, 0.0043851077892499025
907.0, 0.00359133196239667
908.0, 0.0028804710377549163
909.0, 0.00209697420332086
910.0, 0.0015345531684829233
911.0, 0.000981902393896563
912.0, 0.0002951772160065154
913.0, 0.00041684168164005185
914.0, 0.0002511196902842439
915.0, 7.891789033776633e-05
916.0, 0.0004064819512735254
917.0, 0.00037887100882600354
918.0, 0.0006313162048443832
919.0, 0.0014185612778743952
920.0, 0.004077558428189306
921.0, 0.0006098517777504242
922.0, 0.00017880094492702463
923.0, 0.00024244500698461567
924.0, 0.00023961022899968986
925.0, 7.271559940064396e-05
926.0, 4.466310780115862e-05
927.0, 0.00010051082100463233
928.0, 0.00025545473149502564
929.0, 0.00015560196985847752
930.0, 0.0007901933186168236
931.0, 0.0005175673761395294
932.0, 0.0006966098011047116
933.0, 0.00034769051330131514
934.0, 0.00016114647343235504
935.0, 8.605704512549559e-05
936.0, 0.00017361291950784502
937.0, 0.00037928797836552224
938.0, 0.00022372758910798462
939.0, 0.0003295481244641945
940.0, 0.0005124082450595733
941.0, 0.00042355418283303157
942.0, 0.0006227424538190453
943.0, 0.0010929976850397867
944.0, 0.0015250077322040117
945.0, 0.002256802158527678
946.0, 0.0028740939023729935
947.0, 0.0029532228136317034
948.0, 0.003250594510064422
949.0, 0.004494069989400528
950.0, 0.00515282841602795
951.0, 0.004982587946417153
952.0, 0.005826322864547036
953.0, 0.005675533783545246
954.0, 0.00609100838341589
955.0, 0.0073613975869229855
956.0, 0.008000149804516488
957.0, 0.007873679757195077
958.0, 0.008072464692950069
959.0, 0.008344040641770521
960.0, 0.00783117193468013
961.0, 0.00818834196048135
962.0, 0.009408070695940695
963.0, 0.009806782540632839
964.0, 0.011115920475498985
965.0, 0.012441368433856657
966.0, 0.013548725570386867
967.0, 0.014094773354436424
968.0, 0.014336720995130493
969.0, 0.014368527073361975
970.0, 0.012705581625846353
971.0, 0.011608402301196306
972.0, 0.009440605691826231
973.0, 0.008142750386992073
974.0, 0.007049228520969393
975.0, 0.005160457287371093
976.0, 0.004038251420948565
977.0, 0.0033805841862360937
978.0, 0.0023348246059255676
979.0, 0.0015812869371083552
980.0, 0.001498545229418347
981.0, 0.0015300744349743657
982.0, 0.001152420569621205
983.0, 0.0010083353565060933
984.0, 0.0013135752659072311
985.0, 0.0012660259006635898
986.0, 0.0010434320297369889
987.0, 0.001441005424795603
988.0, 0.0021269509711339877
989.0, 0.0025946900429599743
990.0, 0.003229554283651121
991.0, 0.003914874951585918
992.0, 0.004395815014616409
993.0, 0.005518887746213509
994.0, 0.0059952288377426565
995.0, 0.006702430644768423
996.0, 0.00777740801489731
997.0, 0.008872933620703034
998.0, 0.009798844772709045
999.0, 0.010130415275540235
1000.0, 0.0099205026578086
1001.0, 0.009702208630030639
1002.0, 0.009477070516994798
1003.0, 0.009191763602420447
1004.0, 0.009638963572256283
1005.0, 0.009264553101361052
1006.0, 0.009549435896865088
1007.0, 0.010175880846184112
1008.0, 0.011773517044165573
1009.0, 0.013133613649677394
1010.0, 0.015084443203525269
1011.0, 0.017991561277041268
1012.0, 0.020599349493263214
1013.0, 0.02334717579228305
1014.0, 0.026411594925576144
1015.0, 0.028313835080636094
1016.0, 0.027167296133367536
1017.0, 0.025940793048787544
1018.0, 0.022976798365549767
1019.0, 0.019088303766191587
1020.0, 0.01639252644689463
1021.0, 0.014441142989685482
1022.0, 0.012842044324954486
1023.0, 0.011716961264062638
1024.0, 0.01079714811517848
1025.0, 0.010492776897118245
1026.0, 0.011072519452847146
1027.0, 0.011489994936073212
1028.0, 0.011605258676293998
1029.0, 0.011583450990076035
1030.0, 0.011465750992621645
1031.0, 0.010767368003389215
1032.0, 0.009512891718937896
1033.0, 0.007927380561767517
1034.0, 0.0062671444102044525
1035.0, 0.004960930150636025
1036.0, 0.004022359436157591
1037.0, 0.0029907012057007296
1038.0, 0.0028351287141844986
1039.0, 0.0018210501265958081
1040.0, 0.0009586455827921081
1041.0, 0.0014857563904266975
1042.0, 0.0015546140256259648
1043.0, 0.0012288395685963592
1044.0, 0.0009602072620901282
1045.0, 0.0007878871072003577
1046.0, 0.0008704178185966305
1047.0, 0.001108282757173027
1048.0, 0.001134223321044441
1049.0, 0.0011190111145787402
1050.0, 0.0013856629588895862
1051.0, 0.0014446476654064629
1052.0, 0.0011396814066098478
1053.0, 0.00127795975870974
1054.0, 0.0010795747507190653
1055.0, 0.0010086805430106476
1056.0, 0.0013275993197915455
1057.0, 0.0013127071409805543
1058.0, 0.0010789891478169115
1059.0, 0.0008742873981979596
1060.0, 0.0009220108920907109
1061.0, 0.0008761829836171118
1062.0, 7.801609694656763e-05
1063.0, 0.00021078155151775966
1064.0, 0.0007709972839646902
1065.0, 0.00017369825784927905
1066.0, 8.875654817926988e-05
1067.0, 9.986521324899777e-05
1068.0, 9.782638991693318e-05
1069.0, 0.00016663256377769906
1070.0, 0.000233756925223504
1071.0, 0.0001149845710175323
1072.0, 0.00010317569200055449
1073.0, 0.00020288953540323855
1074.0, 0.0004671876289651985
1075.0, 0.00021035269060740505
1076.0, 0.00035764902896133716
1077.0, 0.0002091733906875171
1078.0, 3.923267958330831e-05
1079.0, 0.0005010850495890356
1080.0, 0.00037209636086271214
1081.0, 5.406290504052868e-05
1082.0, 0.00016436008799934517
1083.0, 8.468722749544956e-05
1084.0, 0.00011597977818160742
1085.0, 0.00010639946888374721
1086.0, 0.00011827664547390988
1087.0, 0.0003078164052119972
1088.0, 0.00014779244756012936
1089.0, 5.858271978502634e-05
1090.0, 0.0002745529573525883
1091.0, 0.0003834698733773383
1092.0, 2.0440011818729373e-05
1093.0, 0.00011573126183735908
1094.0, 0.0003142163341530004
1095.0, 0.00011192035417608982
1096.0, 0.00010155670563373955
1097.0, 0.0001397896633589874
1098.0, 0.00019466123059555464
1099.0, 0.00017955941753817545
1100.0, 3.169544301005938e-05
1101.0, 0.00014547211781203468
1102.0, 0.0001800678347035834
1103.0, 9.545451134548856e-06
1104.0, 0.0005683219892103663
1105.0, 0.000630239991338244
1106.0, 0.00030453771990169047
1107.0, 0.000665595313201127
1108.0, 0.0006388675337460626
1109.0, 0.0008874254915192075
1110.0, 0.0005070580020061395
1111.0, 0.0005143038693892895
1112.0, 0.0010215428361015119
1113.0, 0.001294430127065337
1114.0, 0.001538808483369714
1115.0, 0.0017505313619913848
1116.0, 0.0017776283539724961
1117.0, 0.0023730025630963186
1118.0, 0.0026808285969664525
1119.0, 0.0027989497070839467
1120.0, 0.0033010251965460953
1121.0, 0.004297675434882696
1122.0, 0.004130684456033702
1123.0, 0.004558861175046996
1124.0, 0.005160470302082454
1125.0, 0.006067909448517862
1126.0, 0.006041732455871478
1127.0, 0.006240388138349335
1128.0, 0.006500458278011335
1129.0, 0.00626563314023138
1130.0, 0.006296223192320972
1131.0, 0.006301881809997681
1132.0, 0.006793147858545763
1133.0, 0.0072674921645780625
1134.0, 0.007273240940518251
1135.0, 0.007422399324563439
1136.0, 0.008501341863632076
1137.0, 0.009193659299153504
1138.0, 0.00993713238263505
1139.0, 0.011810735139318186
1140.0, 0.01337616028749426
1141.0, 0.015470470961633597
1142.0, 0.017854046196861137
1143.0, 0.021120193705635205
1144.0, 0.02526432853099852
1145.0, 0.029013852719447408
1146.0, 0.03300949435465206
1147.0, 0.038372524590463565
1148.0, 0.04410911006798836
1149.0, 0.04997196215851849
1150.0, 0.05710789809423799
1151.0, 0.06599710688798352
1152.0, 0.0764249588723522
1153.0, 0.08938480036787752
1154.0, 0.09965745718724842
1155.0, 0.11361860873447463
1156.0, 0.1244807285341391
1157.0, 0.13016725429203724
1158.0, 0.12740066403615452
1159.0, 0.1165175559478722
1160.0, 0.10023690164417652
1161.0, 0.08283699809709157
1162.0, 0.0689275577433886
1163.0, 0.05986950039381961
1164.0, 0.05355530115402217
1165.0, 0.04898722489993447
1166.0, 0.047296187084455335
1167.0, 0.04600047818115607
1168.0, 0.04545772350082606
1169.0, 0.04340788347998697
1170.0, 0.04113257483275402
1171.0, 0.036963493355345226
1172.0, 0.03269428687298681
1173.0, 0.027804544899652204
1174.0, 0.023360820101771075
1175.0, 0.020216523666596157
1176.0, 0.01767716481701218
1177.0, 0.015017310140799042
1178.0, 0.012425856907320558
1179.0, 0.010339672085178254
1180.0, 0.008834327946950018
1181.0, 0.007733603347728834
1182.0, 0.007007919610274417
1183.0, 0.006474360456098707
1184.0, 0.005449808719444453
1185.0, 0.004740557782425023
1186.0, 0.00477575174837983
1187.0, 0.003635771531352433
1188.0, 0.003358467939720428
1189.0, 0.003352493872706793
1190.0, 0.002804444033296553
1191.0, 0.0023198320315493525
1192.0, 0.002057393169217684
1193.0, 0.0019922110270019933
1194.0, 0.0015502333837252062
1195.0, 0.0013063720444742377
1196.0, 0.0013173144685234546
1197.0, 0.0013268796670447885
1198.0, 0.001057880274780917
1199.0, 0.0011203055449442963
1200.0, 0.001958859362855657
1201.0, 0.0016638892533271962
1202.0, 0.0006139124967967059
1203.0, 0.0007258332440383296
1204.0, 0.0007473000153307937
1205.0, 0.0006757492380908918
1206.0, 0.0005880390003557969
1207.0, 0.0006584447106961438
1208.0, 0.0003872331203118708
1209.0, 0.00030760884044329716
1210.0, 0.0004674026477941652
1211.0, 0.0005748480448267892
1212.0, 0.0005200220758177118
1213.0, 0.0005633902159577456
1214.0, 0.001095866285235912
1215.0, 0.0006608666720359803
1216.0, 0.00040539012981980534
1217.0, 0.00024563190466491064
1218.0, 0.00018190330643010844
1219.0, 0.0002580213623715129
1220.0, 0.00046312509852875725
1221.0, 0.0007489249624207735
1222.0, 0.0003860976780950019
1223.0, 0.0001408899797892608
1224.0, 0.00021176961404255378
1225.0, 0.0003479692374438756
1226.0, 0.0004121746047858161
1227.0, 0.00023352631846368745
1228.0, 0.00038319059458553374
1229.0, 0.00035593772727136354
1230.0, 4.475227762910906e-05
1231.0, 0.0005606849446702355
1232.0, 0.00022911618427731825
1233.0, 7.146619850260088e-05
1234.0, 0.00023795206575776345
1235.0, 0.00039038255818026204
1236.0, 0.00030402711080928596
1237.0, 7.227366814571961e-05
1238.0, 2.2244299350961275e-05
1239.0, 0.00014671546951379433
1240.0, 7.096404529608694e-05
1241.0, 0.0003111462790450571
1242.0, 0.00010204562718475014
1243.0, 0.00012349161920088272
1244.0, 0.00018657664681651177
1245.0, 0.00023120754119558144
1246.0, 0.00011778308246996866
1247.0, 0.00019172934467254915
1248.0, 0.0002898028987441999
1249.0, 0.0007142245926952146
1250.0, 0.0005479180225201793
1251.0, 0.00045022660057017163
1252.0, 0.00039585284455146287
1253.0, 0.0003901214434424752
1254.0, 4.5023416243804994e-05
1255.0, 0.0002747707670135318
1256.0, 3.9410544434001256e-05
1257.0, 0.00017817390712709575
1258.0, 0.00017694663619878293
1259.0, 0.00046196568007849834
1260.0, 0.00042774624007501646
1261.0, 0.00013895271198861536
1262.0, 0.000430179921185402
1263.0, 0.0005202061612904143
1264.0, 0.00017469158468193724
1265.0, 0.0003924479093650058
1266.0, 0.0003594888735954184
1267.0, 0.00022370863728829782
1268.0, 0.0004829070176433744
1269.0, 0.0005639710363348009
1270.0, 0.0005826076897749315
1271.0, 0.0009961227453006017
1272.0, 0.0009282887294875539
1273.0, 0.0003551362786364276
1274.0, 0.00031487882717774225
1275.0, 0.00030476761276787627
1276.0, 0.0008570176723199058
1277.0, 0.0010334383117332636
1278.0, 0.00034344523905586565
1279.0, 0.0005447905744116207
1280.0, 0.00047941937216424866
1281.0, 1.02842417401657e-05
1282.0, 0.00013701867707154071
1283.0, 0.00022939241592489145
1284.0, 0.0011074609706516426
1285.0, 0.0009157844817466153
1286.0, 0.00019887236144472032
1287.0, 2.647754643125871e-07
1288, 0.0
1289, 0.0
1290, 0.0
1291, 0.0
1292, 0.0
1293, 0.0
1294, 0.0
1295, 0.0
1296, 0.0
1297, 0.0
1298, 0.0
1299, 0.0
1300, 0.0
1301, 0.0
1302, 0.0
1303, 0.0
1304, 0.0
1305, 0.0
1306, 0.0
1307, 0.0
1308, 0.0
1309, 0.0
1310, 0.0
1311, 0.0
1312, 0.0
1313, 0.0
1314, 0.0
1315, 0.0
1316, 0.0
1317, 0.0
1318, 0.0
1319, 0.0
1320, 0.0
1321, 0.0
1322, 0.0
1323, 0.0
1324, 0.0
1325, 0.0
1326, 0.0
1327, 0.0
1328, 0.0
1329, 0.0
1330, 0.0
1331, 0.0
1332, 0.0
1333, 0.0
1334, 0.0
1335, 0.0
1336, 0.0
1337, 0.0
1338, 0.0
1339, 0.0
1340, 0.0
1341, 0.0
1342, 0.0
1343, 0.0
1344, 0.0
1345, 0.0
1346, 0.0
1347, 0.0
1348, 0.0
1349, 0.0
1350, 0.0
1351, 0.0
1352, 0.0
1353, 0.0
1354, 0.0
1355, 0.0
1356, 0.0
1357, 0.0
1358, 0.0
1359, 0.0
1360, 0.0
1361, 0.0
1362, 0.0
1363, 0.0
1364, 0.0
1365, 0.0
1366, 0.0
1367, 0.0
1368, 0.0
1369, 0.0
1370, 0.0
1371, 0.0
1372, 0.0
1373, 0.0
1374, 0.0
1375, 0.0
1376, 0.0
1377, 0.0
1378, 0.0
1379, 0.0
1380, 0.0
1381, 0.0
1382, 0.0
1383, 0.0
1384, 0.0
1385, 0.0
1386, 0.0
1387, 0.0
1388, 0.0
1389, 0.0
1390, 0.0
1391, 0.0
1392, 0.0
1393, 0.0
1394, 0.0
1395, 0.0
1396, 0.0
1397, 0.0
1398, 0.0
1399, 0.0
1400, 0.0
1401, 0.0
1402, 0.0
1403, 0.0
1404, 0.0
1405, 0.0
1406, 0.0
1407, 0.0
1408, 0.0
1409, 0.0
1410, 0.0
1411, 0.0
1412, 0.0
1413, 0.0
1414, 0.0
1415, 0.0
1416, 0.0
1417, 0.0
1418, 0.0
1419, 0.0
1420, 0.0
1421, 0.0
1422, 0.0
1423, 0.0
1424, 0.0
1425, 0.0
1426, 0.0
1427, 0.0
1428, 0.0
1429, 0.0
1430, 0.0
1431, 0.0
1432, 0.0
1433, 0.0
1434, 0.0
1435, 0.0
1436, 0.0
1437, 0.0
1438, 0.0
1439, 0.0
1440, 0.0
1441, 0.0
1442, 0.0
1443, 0.0
1444, 0.0
1445, 0.0
1446, 0.0
1447, 0.0
1448, 0.0
1449, 0.0
1450, 0.0
1451, 0.0
1452, 0.0
1453, 0.0
1454, 0.0
1455, 0.0
1456, 0.0
1457, 0.0
1458, 0.0
1459, 0.0
1460, 0.0
1461, 0.0
1462, 0.0
1463, 0.0
1464, 0.0
1465, 0.0
1466, 0.0
1467, 0.0
1468, 0.0
1469, 0.0
1470, 0.0
1471, 0.0
1472, 0.0
1473, 0.0
1474, 0.0
1475, 0.0
1476, 0.0
1477, 0.0
1478, 0.0
1479, 0.0
1480, 0.0
1481, 0.0
1482, 0.0
1483, 0.0
1484, 0.0
1485, 0.0
1486, 0.0
1487, 0.0
1488, 0.0
1489, 0.0
1490, 0.0
1491, 0.0
1492, 0.0
1493, 0.0
1494, 0.0
1495, 0.0
1496, 0.0
1497, 0.0
1498, 0.0
1499, 0.0
1500, 0.0
1501, 0.0
1502, 0.0
1503, 0.0
1504, 0.0
1505, 0.0
1506, 0.0
1507, 0.0
1508, 0.0
1509, 0.0
1510, 0.0
1511, 0.0
1512, 0.0
1513, 0.0
1514, 0.0
1515, 0.0
1516, 0.0
1517, 0.0
1518, 0.0
1519, 0.0
1520, 0.0
1521, 0.0
1522, 0.0
1523, 0.0
1524, 0.0
1525, 0.0
1526, 0.0
1527, 0.0
1528, 0.0
1529, 0.0
1530, 0.0
1531, 0.0
1532, 0.0
1533, 0.0
1534, 0.0
1535, 0.0
1536, 0.0
1537, 0.0
1538, 0.0
1539, 0.0
1540, 0.0
1541, 0.0
1542, 0.0
1543, 0.0
1544, 0.0
1545, 0.0
1546, 0.0
1547, 0.0
1548, 0.0
1549, 0.0
1550, 0.0
1551, 0.0
1552, 0.0
1553, 0.0
1554, 0.0
1555, 0.0
1556, 0.0
1557, 0.0
1558, 0.0
1559, 0.0
1560, 0.0
1561, 0.0
1562, 0.0
1563, 0.0
1564, 0.0
1565, 0.0
1566, 0.0
1567, 0.0
1568, 0.0
1569, 0.0
1570, 0.0
1571, 0.0
1572, 0.0
1573, 0.0
1574, 0.0
1575, 0.0
1576, 0.0
1577, 0.0
1578, 0.0
1579, 0.0
1580, 0.0
1581, 0.0
1582, 0.0
1583, 0.0
1584, 0.0
1585, 0.0
1586, 0.0
1587, 0.0
1588, 0.0
1589, 0.0
1590, 0.0
1591, 0.0
1592, 0.0
1593, 0.0
1594, 0.0
1595, 0.0
1596, 0.0
1597, 0.0
1598, 0.0
1599, 0.0
