30, 0.0
31, 0.0
32, 0.0
33, 0.0
34, 0.0
35, 0.0
36, 0.0
37, 0.0
38, 0.0
39, 0.0
40, 0.0
41, 0.0
42, 0.0
43, 0.0
44, 0.0
45, 0.0
46, 0.0
47, 0.0
48, 0.0
49, 0.0
50, 0.0
51, 0.0
52, 0.0
53, 0.0
54, 0.0
55, 0.0
56, 0.0
57, 0.0
58, 0.0
59, 0.0
60, 0.0
61, 0.0
62, 0.0
63, 0.0
64, 0.0
65, 0.0
66, 0.0
67, 0.0
68, 0.0
69, 0.0
70, 0.0
71, 0.0
72, 0.0
73, 0.0
74, 0.0
75, 0.0
76, 0.0
77, 0.0
78, 0.0
79, 0.0
80, 0.0
81, 0.0
82, 0.0
83, 0.0
84, 0.0
85, 0.0
86, 0.0
87, 0.0
88, 0.0
89, 0.0
90, 0.0
91, 0.0
92, 0.0
93, 0.0
94, 0.0
95, 0.0
96, 0.0
97, 0.0
98, 0.0
99, 0.0
100, 0.0
101, 0.0
102, 0.0
103, 0.0
104, 0.0
105, 0.0
106, 0.0
107, 0.0
108, 0.0
109, 0.0
110, 0.0
111, 0.0
112, 0.0
113, 0.0
114, 0.0
115, 0.0
116, 0.0
117, 0.0
118, 0.0
119, 0.0
120, 0.0
121, 0.0
122, 0.0
123, 0.0
124, 0.0
125, 0.0
126, 0.0
127, 0.0
128, 0.0
129, 0.0
130, 0.0
131, 0.0
132, 0.0
133, 0.0
134, 0.0
135.0, 0.0006104094758073813
136.0, 0.0012564452080437204
137.0, 0.0007092466771583897
138.0, 0.0005471077539676589
139.0, 0.0007599397248394048
140.0, 0.00205038698789966
141.0, 0.0030686617923506615
142.0, 0.002066554256514494
143.0, 0.00603975840414086
144.0, 0.008207656694505025
145.0, 0.007544645506499606
146.0, 0.008765751088028224
147.0, 0.008423458106252514
148.0, 0.00862277075278042
149.0, 0.008912878447860685
150.0, 0.008391099526142039
151.0, 0.011085677433378165
152.0, 0.013413847963417843
153.0, 0.01698961867630273
154.0, 0.022347016806121656
155.0, 0.02385425861471787
156.0, 0.02686243004426765
157.0, 0.034080111437655984
158.0, 0.04326766185280291
159.0, 0.04822458941049968
160.0, 0.05834350159179862
161.0, 0.07290470730411645
162.0, 0.08825886734049333
163.0, 0.10239217936631001
164.0, 0.12174635997587073
165.0, 0.14752862423385657
166.0, 0.17840512879258943
167.0, 0.21200199845206685
168.0, 0.24412259937955452
169.0, 0.2829279390235357
170.0, 0.32860452079370334
171.0, 0.3775261137319143
172.0, 0.42497668295345936
173.0, 0.48315768402052506
174.0, 0.5435033069288322
175.0, 0.6021381749291641
176.0, 0.6623935616597223
177.0, 0.7272699837989189
178.0, 0.794213778282359
179.0, 0.8556071554862703
180.0, 0.9062089203676372
181.0, 0.9517766904066489
182.0, 0.9833258962556306
183.0, 0.9984004067274909
184.0, 0.9953513175345013
185.0, 0.9711554940734638
186.0, 0.9256840739703709
187.0, 0.8657560850434017
188.0, 0.7991120111100601
189.0, 0.7303818680629702
190.0, 0.6536176653703615
191.0, 0.5797740408547862
192.0, 0.5134949229973756
193.0, 0.45360488051576325
194.0, 0.4020374898861942
195.0, 0.35842629829732764
196.0, 0.31786144996622484
197.0, 0.28038975379907627
198.0, 0.25492968168552194
199.0, 0.22915366471210724
200.0, 0.204644111928988
201.0, 0.18443672398756983
202.0, 0.1684790738125388
203.0, 0.15108813909790778
204.0, 0.14107249637208086
205.0, 0.13198078148279363
206.0, 0.11831194765849817
207.0, 0.11089333882911107
208.0, 0.10133550117871727
209.0, 0.09273241607114896
210.0, 0.08716348509519314
211.0, 0.0832717796694979
212.0, 0.07768856033632988
213.0, 0.0716254891999419
214.0, 0.06640781842118093
215.0, 0.06247426716800291
216.0, 0.05849411478930894
217.0, 0.05293958383099668
218.0, 0.05040443038825687
219.0, 0.051119098766823697
220.0, 0.04792622460754258
221.0, 0.04660800961647962
222.0, 0.04578319294219553
223.0, 0.04494791682737284
224.0, 0.044634364068550564
225.0, 0.045044192567452346
226.0, 0.04581778372524336
227.0, 0.04792646871494129
228.0, 0.05148156112294642
229.0, 0.05375652445628945
230.0, 0.05381680591090009
231.0, 0.056780139754780065
232.0, 0.060781742115544865
233.0, 0.05889622628732289
234.0, 0.06591235428678854
235.0, 0.06849819314621496
236.0, 0.06929049112870551
237.0, 0.07423126789755656
238.0, 0.07961580822048314
239.0, 0.08233170794426292
240.0, 0.08478148965450044
241.0, 0.08801859755247515
242.0, 0.09050848435807843
243.0, 0.09050991137639576
244.0, 0.09431662226448766
245.0, 0.09793114580842371
246.0, 0.09735432189488569
247.0, 0.09892053780413626
248.0, 0.10159426087810099
249.0, 0.10528925880053394
250.0, 0.10936463692878404
251.0, 0.11256575174141899
252.0, 0.11430595193948684
253.0, 0.11825846778199069
254.0, 0.11956177182134045
255.0, 0.115686004837119
256.0, 0.11614107089415003
257.0, 0.11521711032573656
258.0, 0.11131344763945003
259.0, 0.10408404797669082
260.0, 0.0937872096177771
261.0, 0.08868213818819765
262.0, 0.082410477789106
263.0, 0.07290676910210019
264.0, 0.06143494346390535
265.0, 0.05367851391134739
266.0, 0.04737083359784403
267.0, 0.03911467630850922
268.0, 0.031993901001821506
269.0, 0.031081880113854064
270.0, 0.024613876171926036
271.0, 0.019568360770875693
272.0, 0.016678862326610328
273.0, 0.014090139648554437
274.0, 0.011465289715034275
275.0, 0.008978032937508859
276.0, 0.006931307725724191
277.0, 0.00561026809331187
278.0, 0.004673667335970268
279.0, 0.0011577119734821322
280.0, 0.0009047150888517751
281.0, 0.0008177852421683974
282.0, 0.0005495603858273274
283.0, 0.0006665254888777157
284.0, 0.000457028850313922
285.0, 0.0009761500762317781
286.0, 0.0006602509539180699
287.0, 0.0013221441623425482
288.0, 0.0012839542174632582
289.0, 0.0005239730812475359
290.0, 0.000880730415689578
291.0, 0.0011139552736499961
292.0, 0.00116933881003057
293.0, 0.000619155417722421
294.0, 0.00044602115429365425
295.0, 0.0005740189485918343
296.0, 0.0009801656604687557
297.0, 0.0007432416174219876
298.0, 0.0005563785598693685
299.0, 0.0007244959757025727
300.0, 0.0007172505356029374
301.0, 0.00011312262732128894
302.0, 0.0010786271346033256
303.0, 0.00045980799188211573
304.0, 0.002307189532630898
305.0, 0.004681447079878127
306.0, 0.004899533369365907
307.0, 0.005263716912207755
308.0, 0.009500918108830537
309.0, 0.010754141709240701
310.0, 0.008107813108339346
311.0, 0.01432977239577522
312.0, 0.017209804132659854
313.0, 0.018225168609578124
314.0, 0.020381901423219523
315.0, 0.024195979032091672
316.0, 0.026124971364264192
317.0, 0.03131071118674407
318.0, 0.03741389098287656
319.0, 0.04097823798554136
320.0, 0.040290331268349536
321.0, 0.046318701732274425
322.0, 0.05080370660642014
323.0, 0.05295916483185343
324.0, 0.054351291991755035
325.0, 0.054560154154588286
326.0, 0.0551431761503247
327.0, 0.05379212902607018
328.0, 0.05214980022858179
329.0, 0.052280162966685306
330.0, 0.05004788601732712
331.0, 0.05076600557415633
332.0, 0.05067302763040683
333.0, 0.04887143944949845
334.0, 0.047546186287873354
335.0, 0.0455590800870902
336.0, 0.044580101868611645
337.0, 0.042101235028282974
338.0, 0.038888541195303966
339.0, 0.03999820945383737
340.0, 0.03625021847884692
341.0, 0.03229793208272913
342.0, 0.02972327310795991
343.0, 0.027457131987945794
344.0, 0.024381466565116312
345.0, 0.02399552673587221
346.0, 0.022308772851909756
347.0, 0.020510279209029914
348.0, 0.022099147641508082
349.0, 0.02052629831691976
350.0, 0.02073344230978334
351.0, 0.020417229962776708
352.0, 0.019532948673429865
353.0, 0.020832899023246972
354.0, 0.020385798453331945
355.0, 0.023313509339793145
356.0, 0.02357803503327156
357.0, 0.0217037361383697
358.0, 0.02598034130559208
359.0, 0.02816687073554923
360.0, 0.02843473147848092
361.0, 0.028911229419755477
362.0, 0.02972676700404942
363.0, 0.02853533522045013
364.0, 0.030044569702040228
365.0, 0.03319599643965637
366.0, 0.034614628215063115
367.0, 0.03374092790196263
368.0, 0.036374149559106644
369.0, 0.03753894979063218
370.0, 0.03793261074724822
371.0, 0.039030736080988455
372.0, 0.04154826864686849
373.0, 0.04290971873465655
374.0, 0.04386950667151693
375.0, 0.04284867891748454
376.0, 0.041532921752602286
377.0, 0.043085375136672446
378.0, 0.04471144082066231
379.0, 0.04253470163566356
380.0, 0.04232785527645639
381.0, 0.0444958772789997
382.0, 0.04418380960882806
383.0, 0.042206196924346816
384.0, 0.04100891400471588
385.0, 0.03945857564416733
386.0, 0.037549572313079475
387.0, 0.03677917157506213
388.0, 0.03602622287646298
389.0, 0.032144524876905854
390.0, 0.028465482550254422
391.0, 0.026854983128327473
392.0, 0.025162455514298986
393.0, 0.02226084751253336
394.0, 0.01964286289260933
395.0, 0.015835448606371642
396.0, 0.011340122500466652
397.0, 0.010218920642335112
398.0, 0.00658694091372039
399.0, 0.004655341231556172
400.0, 0.005039084200274013
401.0, 0.00574641424376226
402.0, 0.002232183262382237
403.0, 0.002555505040180284
404.0, 0.0017513218626176268
405.0, 0.0015675398130354575
406.0, 0.0009352437979204724
407.0, 0.0008143749784092881
408.0, 0.001053155737044751
409.0, 0.0007223731978169822
410.0, 0.0010265124659070287
411.0, 0.0005116242962225667
412.0, 0.001015518719538298
413.0, 0.0008459552255212647
414.0, 0.0013128418886292701
415.0, 0.002794139940926905
416.0, 0.004569879650658426
417.0, 0.0032308340548014743
418.0, 0.006592214578521888
419.0, 0.009375680863018102
420.0, 0.012377673732317787
421.0, 0.01669952775788952
422.0, 0.018376676093772727
423.0, 0.02240675244360153
424.0, 0.02836462029581182
425.0, 0.033310343915785384
426.0, 0.0361998469349957
427.0, 0.040748401700558656
428.0, 0.04730813953154438
429.0, 0.052298234929132735
430.0, 0.05510012930838488
431.0, 0.05799812464573838
432.0, 0.06355065798472444
433.0, 0.06668010334094276
434.0, 0.06921953202348516
435.0, 0.07070012083913571
436.0, 0.07122932903008865
437.0, 0.07321491181975966
438.0, 0.06900843755325521
439.0, 0.0655753773312702
440.0, 0.062313725912877295
441.0, 0.057255394440395145
442.0, 0.05150230217065837
443.0, 0.046303454924362844
444.0, 0.0408862973252211
445.0, 0.034515159846856464
446.0, 0.028783158725318784
447.0, 0.026592280571939603
448.0, 0.021331466767276073
449.0, 0.01917440613497204
450.0, 0.017055799833234346
451.0, 0.013424976664440914
452.0, 0.01117886464561902
453.0, 0.00683927481839472
454.0, 0.006157525284560853
455.0, 0.0054410679629986304
456.0, 0.0026295538093577603
457.0, 0.0006442503928665302
458.0, 0.001003806208633607
459.0, 0.001970514344212008
460.0, 0.003886790655300921
461.0, 0.0027841755913080406
462.0, 0.0010640086457045473
463.0, 0.0036542281990527077
464.0, 0.0054680814245872825
465.0, 0.006083088114373224
466.0, 0.006596673761156383
467.0, 0.008401949607609868
468.0, 0.00969175542702033
469.0, 0.01289803123301399
470.0, 0.018794575119395914
471.0, 0.024853259210875712
472.0, 0.029749684095220198
473.0, 0.03717879795103703
474.0, 0.045548944077932155
475.0, 0.053154331778010294
476.0, 0.06240023522827156
477.0, 0.07231900815965023
478.0, 0.07583405370706406
479.0, 0.08247276278156797
480.0, 0.09313221353544723
481.0, 0.10232534129975895
482.0, 0.10655215329496791
483.0, 0.10769726393014083
484.0, 0.11132118104783673
485.0, 0.1172410401674925
486.0, 0.12229449294714202
487.0, 0.12775248006035422
488.0, 0.13788279421625713
489.0, 0.1519823876303522
490.0, 0.1650654143881837
491.0, 0.18264014479043106
492.0, 0.20317103862244124
493.0, 0.22356175558919852
494.0, 0.2511627835548081
495.0, 0.2805055478692315
496.0, 0.3128484277822279
497.0, 0.34303148835271696
498.0, 0.3713130670589865
499.0, 0.40755656399133766
500.0, 0.43532094887498607
501.0, 0.468953279385209
502.0, 0.4989924934186032
503.0, 0.5192144520400473
504.0, 0.5354555263579912
505.0, 0.5443304860560036
506.0, 0.5475848863774125
507.0, 0.542831881269366
508.0, 0.5278983762259747
509.0, 0.5028744388282801
510.0, 0.47076805692374935
511.0, 0.4386836503751248
512.0, 0.3988065845058221
513.0, 0.3534182874081002
514.0, 0.3135413605242869
515.0, 0.2860999490854285
516.0, 0.24476732752259078
517.0, 0.21152653904415367
518.0, 0.18724337719956258
519.0, 0.16581062157923995
520.0, 0.14380298615497206
521.0, 0.13016800846258525
522.0, 0.11859032782030848
523.0, 0.104058078940991
524.0, 0.09085958458886492
525.0, 0.08472532376841284
526.0, 0.07738918831075331
527.0, 0.07238554148043583
528.0, 0.06903584319137551
529.0, 0.06648478977584421
530.0, 0.06377876532048957
531.0, 0.05899632803103647
532.0, 0.057437082261901896
533.0, 0.05890503632970409
534.0, 0.05665917701073736
535.0, 0.050783954527112256
536.0, 0.04744253052080113
537.0, 0.04525424647141406
538.0, 0.043509903405084135
539.0, 0.041321066412440925
540.0, 0.03733437459330086
541.0, 0.03192522775155424
542.0, 0.028909080805114427
543.0, 0.025165932266016336
544.0, 0.02358640215768237
545.0, 0.022212573738242942
546.0, 0.019481458449452992
547.0, 0.016806664859748643
548.0, 0.020466224452462118
549.0, 0.020031166980228592
550.0, 0.020781903741257456
551.0, 0.020937939635987987
552.0, 0.0172840904659292
553.0, 0.017330860463517665
554.0, 0.015107747353267581
555.0, 0.013414447563138927
556.0, 0.012693109730825497
557.0, 0.012091847018147386
558.0, 0.011379949017546192
559.0, 0.009822609253358216
560.0, 0.009259356450612793
561.0, 0.008692272495253893
562.0, 0.007105274414476979
563.0, 0.005037509234244942
564.0, 0.005619591980678306
565.0, 0.004278004704234688
566.0, 0.002396257331737182
567.0, 0.0008592102320378163
568.0, 0.0008045633087436731
569.0, 0.0010598301411414341
570.0, 0.002721424148961743
571.0, 0.0007214936172587967
572.0, 0.0004224649581468722
573.0, 0.0005578904160341943
574.0, 0.003962269533767046
575.0, 0.0021192441949530413
576.0, 0.0021945454883852827
577.0, 0.0030232693406675223
578.0, 0.0023879586142160716
579.0, 0.0006860182067580754
580.0, 0.0012546664762585098
581.0, 0.00039292378653397954
582.0, 0.0012229599759428671
583.0, 0.0015201530233738274
584.0, 0.0009406866698881392
585.0, 0.00027300204344026945
586.0, 0.0017233500321295714
587.0, 0.0037792937357678633
588.0, 0.0011598912491719569
589.0, 0.0008135819829776964
590.0, 0.00046514704615134014
591.0, 0.0017750464125532682
592.0, 0.002519376621116551
593.0, 0.002301964782748428
594.0, 0.0015238245948157273
595.0, 0.0016387652270416142
596.0, 0.0006260643358513443
597.0, 0.0017943668732127238
598.0, 0.0013107221483192367
599.0, 0.0006719429698665621
600.0, 0.0022625000738234593
601.0, 0.002195868289080165
602.0, 0.0010419968738920762
603.0, 0.00239110691598274
604.0, 0.001740886840780304
605.0, 0.0016123151987603689
606.0, 0.0029231755636139646
607.0, 0.004159742331359335
608.0, 0.0030839021934883025
609.0, 0.0009631777257297235
610.0, 0.0017788975615066682
611.0, 0.0046847283094397256
612.0, 0.005125495313060498
613.0, 0.0034355981734388854
614.0, 0.0017041901181504677
615.0, 0.0030634815202167263
616.0, 0.004550205685930403
617.0, 0.0062103120402546294
618.0, 0.007042368248146542
619.0, 0.005854553510875073
620.0, 0.0034517240944046132
621.0, 0.0035672256353599585
622.0, 0.004992863346659046
623.0, 0.004879876075428192
624.0, 0.005090127253352426
625.0, 0.0058513341020195375
626.0, 0.003869549105368206
627.0, 0.004759211396668384
628.0, 0.005350909818408254
629.0, 0.006348986355246425
630.0, 0.007625668354403554
631.0, 0.007403984115174263
632.0, 0.004680400308487073
633.0, 0.005226286895689984
634.0, 0.00624145318066145
635.0, 0.006518266574792836
636.0, 0.0051300587495618985
637.0, 0.0029396710600258957
638.0, 0.003727829201883268
639.0, 0.006607812429522323
640.0, 0.005745563157479118
641.0, 0.003467487367612371
642.0, 0.0045638265841705765
643.0, 0.007867918048748283
644.0, 0.003116532689361886
645.0, 0.0053066163770081635
646.0, 0.007696106942518483
647.0, 0.0076780761574235445
648.0, 0.005167428963040863
649.0, 0.0023616836464249408
650.0, 0.003306636025763427
651.0, 0.005147486750272808
652.0, 0.004483644670101779
653.0, 0.004557082317332211
654.0, 0.006810483059604485
655.0, 0.008404841806769987
656.0, 0.007064085839719901
657.0, 0.004645206451211702
658.0, 0.002705346192941036
659.0, 0.0038594178795559406
660.0, 0.006506172546952703
661.0, 0.0070439795086303415
662.0, 0.007016643819522766
663.0, 0.005132730707373494
664.0, 0.0067323063316659295
665.0, 0.008263811031455124
666.0, 0.007758049645656454
667.0, 0.007012638279205141
668.0, 0.007530636526627084
669.0, 0.009729793449833773
670.0, 0.012098442912671231
671.0, 0.01220989829739461
672.0, 0.012830812815042994
673.0, 0.016298931698269598
674.0, 0.015021573301003377
675.0, 0.01757190494311199
676.0, 0.017017461248918234
677.0, 0.014317007590200711
678.0, 0.013820097733159073
679.0, 0.016410847280025592
680.0, 0.01631610777599736
681.0, 0.022235884425613278
682.0, 0.02315506598100366
683.0, 0.022383882720838872
684.0, 0.02154214783738742
685.0, 0.018878884270883835
686.0, 0.01743395100866779
687.0, 0.01605767032332162
688.0, 0.015611027535528938
689.0, 0.015343203877702105
690.0, 0.015121474880759593
691.0, 0.015608950291231995
692.0, 0.017286598761740858
693.0, 0.02111328889445233
694.0, 0.02350720303975747
695.0, 0.029210728194297163
696.0, 0.03454590293173816
697.0, 0.03576630487733202
698.0, 0.03876896187385112
699.0, 0.04410595708530471
700.0, 0.0444024374651518
701.0, 0.04821274201077611
702.0, 0.05248864433405185
703.0, 0.05440381642668245
704.0, 0.058638612871609874
705.0, 0.05838623517175012
706.0, 0.060940943081235224
707.0, 0.057856957613354354
708.0, 0.052590722978193075
709.0, 0.0480280897926966
710.0, 0.04201604503059291
711.0, 0.03708178881846973
712.0, 0.027270646295334655
713.0, 0.021685643632098395
714.0, 0.017425110173124456
715.0, 0.012290436716577797
716.0, 0.009129339312367453
717.0, 0.009040685400714272
718.0, 0.010298501881364264
719.0, 0.008839778543202175
720.0, 0.006243841097183317
721.0, 0.004286965170356219
722.0, 0.00400777831321518
723.0, 0.006892092627186006
724.0, 0.004323441441276466
725.0, 0.0024592434431309003
726.0, 0.003718789389816669
727.0, 0.005488313550845223
728.0, 0.006062057053879641
729.0, 0.005905619276497722
730.0, 0.0026855181625213323
731.0, 0.0014229519931978174
732.0, 0.0037047454534062728
733.0, 0.005055164656457823
734.0, 0.004357445383383437
735.0, 0.003675433489341489
736.0, 0.003043097727295367
737.0, 0.0018517616766622156
738.0, 0.002874851563286962
739.0, 0.004074319329286897
740.0, 0.004650245085508961
741.0, 0.0032740059933646496
742.0, 0.0004919644749445712
743.0, 0.0017587506325711809
744.0, 0.0010299005304008758
745.0, 0.002297785783240684
746.0, 0.0028025621963735426
747.0, 0.0024532785334758452
748.0, 0.004717777710228301
749.0, 0.007062494256944099
750.0, 0.002528082128847632
751.0, 0.0024926443457611892
752.0, 0.001973753668701542
753.0, 0.0006720327490965594
754.0, 0.001208914899126976
755.0, 0.0013509916533671075
756.0, 0.0033040848104748674
757.0, 0.001782819877273402
758.0, 0.0029301097216242406
759.0, 0.0018352690918690322
760.0, 0.0015294607434926974
761.0, 0.00026483250792252555
762.0, 0.002458503810224752
763.0, 0.0004743773242003962
764.0, 0.0012274660758399604
765.0, 0.0028884364534460766
766.0, 0.0016185178875568476
767.0, 0.0007209412935210688
768.0, 0.002075327313671326
769.0, 0.0010587766178147518
770.0, 0.0023163160895334108
771.0, 0.0010258312676639306
772.0, 0.0015139780905394414
773.0, 0.0009428743403424305
774.0, 0.001852266256641462
775.0, 0.00221334621421621
776.0, 0.00042354159111110553
777.0, 0.0013715181192999644
778.0, 0.0007149767059632538
779.0, 0.0011274078725790112
780.0, 0.001060709018991729
781.0, 0.0005568334663547566
782.0, 0.0026084167021237455
783.0, 0.0011770258112205523
784.0, 0.001167849751401305
785.0, 0.002309857589876639
786.0, 0.0020482644946772186
787.0, 0.0012499921916149504
788.0, 0.002698606694340011
789.0, 0.0023828675761489735
790.0, 0.0017003112804568825
791.0, 0.0016562550336502026
792.0, 0.003073888224440574
793.0, 0.0032933723686445326
794.0, 0.002013522188512147
795.0, 0.003765086755933438
796.0, 0.0033287395602929213
797.0, 0.0014388082859011792
798.0, 0.004435653928797348
799.0, 0.00800808870539003
800.0, 0.0059020663477461245
801.0, 0.004686239663229576
802.0, 0.000712384935318089
803.0, 0.0072745544874403935
804.0, 0.006472320411766825
805.0, 0.005197030437967549
806.0, 0.00668395315001173
807.0, 0.009215713443364314
808.0, 0.010934994353123648
809.0, 0.012020685295283093
810.0, 0.012772252024492396
811.0, 0.018855877570309987
812.0, 0.02100896690386328
813.0, 0.01996288899637903
814.0, 0.022609529139361782
815.0, 0.030242464152254785
816.0, 0.033532950748271464
817.0, 0.03489828981267406
818.0, 0.035063645158660964
819.0, 0.03721939680565853
820.0, 0.04023878539606912
821.0, 0.041585784464343245
822.0, 0.04095108260013213
823.0, 0.03890358273014757
824.0, 0.03436747272050744
825.0, 0.02956303045243478
826.0, 0.029624621292040725
827.0, 0.02930636234869269
828.0, 0.026242141612768357
829.0, 0.02482816811708375
830.0, 0.02126104529853979
831.0, 0.019927084041730235
832.0, 0.017102518697428706
833.0, 0.018553807296864656
834.0, 0.017988087362844976
835.0, 0.014219294394077106
836.0, 0.016171213177265654
837.0, 0.01818946291656404
838.0, 0.016291319011888176
839.0, 0.01444579967835774
840.0, 0.01028382949602517
841.0, 0.005935350557475001
842.0, 0.004362646654842233
843.0, 0.0044759159605381816
844.0, 0.001922960409811507
845.0, 0.0008960702779535356
846.0, 0.0014475293686360292
847.0, 0.0007119084142894499
848.0, 0.001872772827815434
849.0, 0.0052260981377035285
850.0, 0.00553831961160177
851.0, 0.0013312969103793434
852.0, 0.002408109219358662
853.0, 0.0018500979673797889
854.0, 0.0014047006066198844
855.0, 0.0008920369485288053
856.0, 0.002751005308598016
857.0, 0.0017723237560926788
858.0, 0.0024057947236281988
859.0, 0.0029060806676512747
860.0, 0.0018228689563972865
861.0, 0.005218475543600258
862.0, 0.007413848490356096
863.0, 0.006096798489737343
864.0, 0.006621607490134948
865.0, 0.0112137966215987
866.0, 0.011116693760515006
867.0, 0.011572328574439674
868.0, 0.012903322015200586
869.0, 0.01668346453330203
870.0, 0.0191555513856277
871.0, 0.020546455738061336
872.0, 0.025690760624213757
873.0, 0.02916863759859897
874.0, 0.03290352359200072
875.0, 0.040290881040612264
876.0, 0.04791479299902811
877.0, 0.05706437357078859
878.0, 0.06748665532841654
879.0, 0.07790206773568284
880.0, 0.09157781935235831
881.0, 0.10917156361321807
882.0, 0.12019828579415374
883.0, 0.12771061215169077
884.0, 0.14295116463417865
885.0, 0.16070551250558526
886.0, 0.17301647813861393
887.0, 0.1841826422512966
888.0, 0.19143446318855648
889.0, 0.18980262802367387
890.0, 0.1894427403688081
891.0, 0.1839761515347223
892.0, 0.17693625814388783
893.0, 0.1718536486689363
894.0, 0.16489339463302546
895.0, 0.1545163297179366
896.0, 0.15847911612821816
897.0, 0.15832115988074996
898.0, 0.1575369721223521
899.0, 0.15936143897660113
900.0, 0.16340714852140784
901.0, 0.16836686314184834
902.0, 0.1732645017677801
903.0, 0.17718107803007388
904.0, 0.1819776038221906
905.0, 0.18229786560468492
906.0, 0.180976829924392
907.0, 0.17840654115912205
908.0, 0.17584258397246072
909.0, 0.17423800725638872
910.0, 0.16935036072036072
911.0, 0.1619131985336502
912.0, 0.16118519608074985
913.0, 0.16104405215091228
914.0, 0.159285111153778
915.0, 0.1590065287565003
916.0, 0.16241973904456747
917.0, 0.1654753914482211
918.0, 0.1625062925467262
919.0, 0.15920934163462183
920.0, 0.15951831275596176
921.0, 0.15312131622339956
922.0, 0.143475735869931
923.0, 0.13473414839692524
924.0, 0.1294895728697925
925.0, 0.12507023786359647
926.0, 0.10757127811864199
927.0, 0.10038685267755497
928.0, 0.08923483529715055
929.0, 0.0816448477190363
930.0, 0.0783327576689904
931.0, 0.07492063836219917
932.0, 0.06852474923376685
933.0, 0.0601187294694805
934.0, 0.05649356379476617
935.0, 0.04956474539768063
936.0, 0.04408588963380954
937.0, 0.038799698917688794
938.0, 0.03280504935093595
939.0, 0.030217357862344845
940.0, 0.030544766917191175
941.0, 0.026274760993220042
942.0, 0.024682146176319756
943.0, 0.021258280291673034
944.0, 0.01749289994071736
945.0, 0.014636631847776546
946.0, 0.01928546785536749
947.0, 0.019987931491935083
948.0, 0.012476655837838914
949.0, 0.013861108419490918
950.0, 0.01570453243661924
951.0, 0.01324792806950586
952.0, 0.013097749486218002
953.0, 0.011732716478941965
954.0, 0.00946000556913812
955.0, 0.010419953203330872
956.0, 0.012736521557579792
957.0, 0.01147921447633525
958.0, 0.012735155453095656
959.0, 0.01094424631432448
960.0, 0.0101897084980736
961.0, 0.009367599143234642
962.0, 0.009994742913570253
963.0, 0.010682624974840602
964.0, 0.00824565980783694
965.0, 0.005548921005577692
966.0, 0.009238322336098646
967.0, 0.006503397676515707
968.0, 0.008539613982806532
969.0, 0.009381344221981459
970.0, 0.008008939051394917
971.0, 0.00790374070343637
972.0, 0.00738899739129248
973.0, 0.0045795851851818704
974.0, 0.0052288051344961265
975.0, 0.004403925037838042
976.0, 0.0060342207554742655
977.0, 0.0048368731437047705
978.0, 0.0051118784976115356
979.0, 0.005142517001643333
980.0, 0.004550327206891788
981.0, 0.004469615606035723
982.0, 0.003145570282172443
983.0, 0.005685547293299553
984.0, 0.005491611494452055
985.0, 0.0038329397927512215
986.0, 0.0023712393431064454
987.0, 0.0017037583896634054
988.0, 0.002703538887555192
989.0, 0.0017203582461516017
990.0, 0.005270810880570703
991.0, 0.003880029131394239
992.0, 0.002554137944313128
993.0, 0.0009371918787484757
994.0, 0.0009469363906709137
995.0, 0.0025828716388830073
996.0, 0.0033702474014224377
997.0, 0.0016598334025417544
998.0, 0.001092121408999234
999.0, 0.0008489642177655957
1000.0, 0.0009540073682981261
1001.0, 0.0003072238464558385
1002.0, 0.0010665868879228698
1003.0, 0.00037925053303079683
1004.0, 0.0009823566091440722
1005.0, 0.00041839508448004135
1006.0, 0.0010008137258908912
1007.0, 0.0005532583791128014
1008.0, 0.0010858759277637686
1009.0, 0.0006264521092472313
1010.0, 0.0027924110052813585
1011.0, 0.001587358192078893
1012.0, 0.003282837573263499
1013.0, 0.002152123706469303
1014.0, 0.0011552023559964427
1015.0, 0.0006545853569453176
1016.0, 0.001063243281937148
1017.0, 0.001190833910774567
1018.0, 0.0015213194376795043
1019.0, 0.0004072948759339057
1020.0, 0.0021695828831324363
1021.0, 0.0010378309904912257
1022.0, 0.0011191061472966561
1023.0, 0.0005858550277212144
1024.0, 0.0007165638522618014
1025.0, 0.0016524526628002606
1026.0, 0.003395909261726885
1027.0, 0.0008153669719725084
1028.0, 0.003161054443385188
1029.0, 0.00570083146863387
1030.0, 0.004125132906886955
1031.0, 0.002336234339795249
1032.0, 0.0030859957556852607
1033.0, 0.0038542030494440036
1034.0, 0.002778523746228251
1035.0, 0.0039371624137140016
1036.0, 0.005970950618060444
1037.0, 0.007424648218568885
1038.0, 0.006541419661910967
1039.0, 0.007769499226053364
1040.0, 0.008361547018808384
1041.0, 0.011135421343277082
1042.0, 0.01675137163633156
1043.0, 0.01981204602884297
1044.0, 0.03580469268649811
1045.0, 0.053104006251255984
1046.0, 0.07866030495932405
1047.0, 0.11184139845011903
1048.0, 0.1477209270072323
1049.0, 0.18492864474553933
1050.0, 0.2196477423072273
1051.0, 0.25203504340300675
1052.0, 0.2886142608715376
1053.0, 0.3250569188761261
1054.0, 0.3562739943644308
1055.0, 0.36075602413425384
1056.0, 0.3194818171024892
1057.0, 0.25476696471096855
1058.0, 0.19079822205316463
1059.0, 0.1322266666291458
1060.0, 0.08387167072937787
1061.0, 0.054279076424641234
1062.0, 0.033793591387718765
1063.0, 0.022823534686470928
1064.0, 0.019633743611808738
1065.0, 0.013101380527834003
1066.0, 0.009525844329697273
1067.0, 0.012198813594565533
1068.0, 0.010980954453039694
1069.0, 0.008601382917950382
1070.0, 0.011023601586977365
1071.0, 0.008542965028257736
1072.0, 0.007564294146870663
1073.0, 0.004859760806922058
1074.0, 0.00833750550174838
1075.0, 0.009335106991307036
1076.0, 0.010047584832236695
1077.0, 0.009262715662509644
1078.0, 0.007872805279949815
1079.0, 0.009394510699212918
1080.0, 0.010778355636542447
1081.0, 0.00821833514760495
1082.0, 0.009322622733011997
1083.0, 0.007020301377170688
1084.0, 0.007922008218940457
1085.0, 0.006725742018283939
1086.0, 0.006278078948387304
1087.0, 0.004051619014271391
1088.0, 0.003475423383467106
1089.0, 0.005559143704859293
1090.0, 0.0029686794490244284
1091.0, 0.004757709663151688
1092.0, 0.005039942453356424
1093.0, 0.006193529545641731
1094.0, 0.007294230605753984
1095.0, 0.006536886459032774
1096.0, 0.005169706284407049
1097.0, 0.004669979045469408
1098.0, 0.0037402026524327534
1099.0, 0.0023551237874378135
1100.0, 0.0034977693658335917
1101.0, 0.004461357069318101
1102.0, 0.0041668521682712845
1103.0, 0.0019352803836151806
1104.0, 0.002251370993540163
1105.0, 0.004223720157923676
1106.0, 0.0038839025050757424
1107.0, 0.003406523219783168
1108.0, 0.004106944582215228
1109.0, 0.004063741308374587
1110.0, 0.004025467171173944
1111.0, 0.004398124530062129
1112.0, 0.0002674146465971866
1113.0, 0.0004617501884859492
1114.0, 0.0011856999370038162
1115.0, 0.003712786116507913
1116.0, 0.003476912078631651
1117.0, 0.0012843527027756822
1118.0, 0.0003312044810516645
1119.0, 0.00042247140120566575
1120.0, 0.002320068573148202
1121.0, 0.0052666667324241965
1122.0, 0.003874932853305653
1123.0, 0.0028551828076835983
1124.0, 0.0017802556117010925
1125.0, 0.0006612983653952525
1126.0, 0.001863531850448384
1127.0, 0.001415114089854216
1128.0, 0.0008180210468252237
1129.0, 0.001728897192153429
1130.0, 0.001923515631621929
1131.0, 0.0012814955762866064
1132.0, 0.003909111209821975
1133.0, 0.004277295011963722
1134.0, 0.0054160023557700545
1135.0, 0.0026007390508393973
1136.0, 0.0031805442588767278
1137.0, 0.0035072814192444266
1138.0, 0.004022961862727123
1139.0, 0.004319490600713094
1140.0, 0.0022693771996190773
1141.0, 0.0023512410736170677
1142.0, 0.005863529727489906
1143.0, 0.003958219487761892
1144.0, 0.003471724035822138
1145.0, 0.0024693882817589234
1146.0, 0.0037740192767654894
1147.0, 0.003975951003471347
1148.0, 0.0023201051461209576
1149.0, 0.002095393091219329
1150.0, 0.0025133644957550725
1151.0, 0.0025783667310615914
1152.0, 0.00518323754801137
1153.0, 0.004697159460911373
1154.0, 0.0008757792318685385
1155.0, 0.0021055605001147333
1156.0, 0.003948472692263782
1157.0, 0.0038401197660930695
1158.0, 0.0028578211431977835
1159.0, 0.004345960783909681
1160.0, 0.00432029936329803
1161.0, 0.002088904464793021
1162.0, 0.001907255799232115
1163.0, 0.0019188943862521843
1164.0, 0.0017473944681515388
1165.0, 0.0010524822344485606
1166.0, 0.004063877611058746
1167.0, 0.004850268069945998
1168.0, 0.0027960203275860817
1169.0, 0.0022539328448281906
1170.0, 0.0025560184557933737
1171.0, 0.005419097393824596
1172.0, 0.004746057083940605
1173.0, 0.000675211419787506
1174.0, 0.0019690399448030423
1175.0, 0.001428755919637699
1176.0, 0.001788094702265986
1177.0, 0.006286126415172815
1178.0, 0.0059103586531316
1179.0, 0.004984230977190921
1180.0, 0.004481422305277397
1181.0, 0.0031283372888254676
1182.0, 0.0015934174136373724
1183.0, 0.0023778446043215156
1184.0, 0.0035352779828629393
1185.0, 0.0023970110423858857
1186.0, 0.004203540026837533
1187.0, 0.0028180371489249147
1188.0, 0.001731385236106516
1189.0, 0.0016682130906777114
1190.0, 0.0012037195346582626
1191.0, 0.004022793826437586
1192.0, 0.003289296393001855
1193.0, 0.0006387905254077533
1194.0, 0.00038561666876693406
1195.0, 0.0006427188254166743
1196.0, 0.0007922674408890665
1197.0, 0.0022675248469118396
1198.0, 0.004584885348090208
1199.0, 0.0008388956066387804
1200.0, 0.0012110234651192264
1201.0, 0.002368562096160688
1202.0, 0.0008268408692824674
1203.0, 0.0019759285012434565
1204.0, 0.002303951118147253
1205.0, 0.0011493113957478315
1206.0, 0.0035959392569928396
1207.0, 0.004210381576753514
1208.0, 0.000647934871934778
1209.0, 0.0023456831809244415
1210.0, 0.0004590578364244834
1211.0, 0.0018263715738944183
1212.0, 0.0012061583751452583
1213.0, 0.002338917067036857
1214.0, 0.0012279921592946424
1215.0, 0.0022763359596463402
1216.0, 0.0011827248253658586
1217.0, 0.0016086795517095286
1218.0, 0.0037845926252421187
1219.0, 0.0012147614477657173
1220.0, 0.0028595995695085597
1221.0, 0.0014779960113695321
1222.0, 0.0017118058524360404
1223.0, 0.0020446278909860083
1224.0, 0.0020686775942388904
1225.0, 0.0023392327319421303
1226.0, 0.0022968504293480537
1227.0, 0.002537116842795104
1228.0, 0.0018521957129023167
1229.0, 0.002369274505720374
1230.0, 0.00249817715012422
1231.0, 0.003387573808416134
1232.0, 0.0022592848194362978
1233.0, 0.0002742339020965123
1234.0, 0.0014581295369841085
1235.0, 0.005401353940725955
1236.0, 0.003606247823606215
1237.0, 0.0022764017499703054
1238.0, 0.0010141167730537992
1239.0, 0.0014335490228906537
1240.0, 0.002605916527648627
1241.0, 0.0013266668109441389
1242.0, 0.0015092878307348075
1243.0, 0.0027449876960348174
1244.0, 0.0024278783322826654
1245.0, 0.002644837312890396
1246.0, 0.002590498928949933
1247.0, 0.0013918739609692682
1248.0, 0.0009719458653642494
1249.0, 0.003316050979483116
1250.0, 0.003703467630682206
1251.0, 0.003237340852168415
1252.0, 0.0030636814058073386
1253.0, 0.004010984261159633
1254.0, 0.0026144368482220333
1255.0, 0.0022295548521471145
1256.0, 0.0038060447729847914
1257.0, 0.004387621263639855
1258.0, 0.005585117505370937
1259.0, 0.005939728000655694
1260.0, 0.0011651111508221657
1261.0, 0.0010642837189228094
1262.0, 0.002643558667360236
1263.0, 0.0008665484768853405
1264.0, 0.0038990995693187177
1265.0, 0.004046871341101004
1266.0, 0.0041499180280129225
1267.0, 0.006571187318731012
1268.0, 0.005576877869545788
1269.0, 0.005062573125267992
1270.0, 0.004897130725210504
1271.0, 0.002093314515876395
1272.0, 0.0004564914024061841
1273.0, 0.0023067221981690833
1274.0, 0.0023720195879960047
1275.0, 0.0004156582758095433
1276.0, 0.0009774729382065628
1277.0, 0.0040748839452715135
1278.0, 0.007072735719172063
1279.0, 0.0021400887616705496
1280.0, 0.0033789606825004514
1281.0, 0.003457667354751642
1282.0, 0.004864420388789876
1283.0, 0.004100919652090949
1284.0, 0.0036680949051675115
1285.0, 0.0040062041365965875
1286.0, 0.002605406230714172
1287.0, 0.0016862114224588628
1288.0, 0.003076662916961306
1289.0, 0.005832727095253696
1290.0, 0.0022832389658291596
1291.0, 0.005070710517702014
1292.0, 0.002055169526273493
1293.0, 0.0017372829797302316
1294.0, 0.004526118820268297
1295.0, 0.004211018220175553
1296.0, 0.0028724448377943053
1297.0, 0.0016200439505643198
1298.0, 0.00216248892416123
1299.0, 0.0017175339019911836
1300.0, 0.0028739812416039355
1301.0, 0.005266507933374431
1302.0, 0.0034020914299983255
1303.0, 0.002233277025890184
1304.0, 0.0011705215876406853
1305.0, 0.004836605127708275
1306.0, 0.005086928204298018
1307.0, 0.005045530604202585
1308.0, 0.006401602367852888
1309.0, 0.0008929421359784761
1310, 0.0
1311, 0.0
1312, 0.0
1313, 0.0
1314, 0.0
1315, 0.0
1316, 0.0
1317, 0.0
1318, 0.0
1319, 0.0
1320, 0.0
1321, 0.0
1322, 0.0
1323, 0.0
1324, 0.0
1325, 0.0
1326, 0.0
1327, 0.0
1328, 0.0
1329, 0.0
1330, 0.0
1331, 0.0
1332, 0.0
1333, 0.0
1334, 0.0
1335, 0.0
1336, 0.0
1337, 0.0
1338, 0.0
1339, 0.0
1340, 0.0
1341, 0.0
1342, 0.0
1343, 0.0
1344, 0.0
1345, 0.0
1346, 0.0
1347, 0.0
1348, 0.0
1349, 0.0
1350, 0.0
1351, 0.0
1352, 0.0
1353, 0.0
1354, 0.0
1355, 0.0
1356, 0.0
1357, 0.0
1358, 0.0
1359, 0.0
1360, 0.0
1361, 0.0
1362, 0.0
1363, 0.0
1364, 0.0
1365, 0.0
1366, 0.0
1367, 0.0
1368, 0.0
1369, 0.0
1370, 0.0
1371, 0.0
1372, 0.0
1373, 0.0
1374, 0.0
1375, 0.0
1376, 0.0
1377, 0.0
1378, 0.0
1379, 0.0
1380, 0.0
1381, 0.0
1382, 0.0
1383, 0.0
1384, 0.0
1385, 0.0
1386, 0.0
1387, 0.0
1388, 0.0
1389, 0.0
1390, 0.0
1391, 0.0
1392, 0.0
1393, 0.0
1394, 0.0
1395, 0.0
1396, 0.0
1397, 0.0
1398, 0.0
1399, 0.0
1400, 0.0
1401, 0.0
1402, 0.0
1403, 0.0
1404, 0.0
1405, 0.0
1406, 0.0
1407, 0.0
1408, 0.0
1409, 0.0
1410, 0.0
1411, 0.0
1412, 0.0
1413, 0.0
1414, 0.0
1415, 0.0
1416, 0.0
1417, 0.0
1418, 0.0
1419, 0.0
1420, 0.0
1421, 0.0
1422, 0.0
1423, 0.0
1424, 0.0
1425, 0.0
1426, 0.0
1427, 0.0
1428, 0.0
1429, 0.0
1430, 0.0
1431, 0.0
1432, 0.0
1433, 0.0
1434, 0.0
1435, 0.0
1436, 0.0
1437, 0.0
1438, 0.0
1439, 0.0
1440, 0.0
1441, 0.0
1442, 0.0
1443, 0.0
1444, 0.0
1445, 0.0
1446, 0.0
1447, 0.0
1448, 0.0
1449, 0.0
1450, 0.0
1451, 0.0
1452, 0.0
1453, 0.0
1454, 0.0
1455, 0.0
1456, 0.0
1457, 0.0
1458, 0.0
1459, 0.0
1460, 0.0
1461, 0.0
1462, 0.0
1463, 0.0
1464, 0.0
1465, 0.0
1466, 0.0
1467, 0.0
1468, 0.0
1469, 0.0
1470, 0.0
1471, 0.0
1472, 0.0
1473, 0.0
1474, 0.0
1475, 0.0
1476, 0.0
1477, 0.0
1478, 0.0
1479, 0.0
1480, 0.0
1481, 0.0
1482, 0.0
1483, 0.0
1484, 0.0
1485, 0.0
1486, 0.0
1487, 0.0
1488, 0.0
1489, 0.0
1490, 0.0
1491, 0.0
1492, 0.0
1493, 0.0
1494, 0.0
1495, 0.0
1496, 0.0
1497, 0.0
1498, 0.0
1499, 0.0
1500, 0.0
1501, 0.0
1502, 0.0
1503, 0.0
1504, 0.0
1505, 0.0
1506, 0.0
1507, 0.0
1508, 0.0
1509, 0.0
1510, 0.0
1511, 0.0
1512, 0.0
1513, 0.0
1514, 0.0
1515, 0.0
1516, 0.0
1517, 0.0
1518, 0.0
1519, 0.0
1520, 0.0
1521, 0.0
1522, 0.0
1523, 0.0
1524, 0.0
1525, 0.0
1526, 0.0
1527, 0.0
1528, 0.0
1529, 0.0
1530, 0.0
1531, 0.0
1532, 0.0
1533, 0.0
1534, 0.0
1535, 0.0
1536, 0.0
1537, 0.0
1538, 0.0
1539, 0.0
1540, 0.0
1541, 0.0
1542, 0.0
1543, 0.0
1544, 0.0
1545, 0.0
1546, 0.0
1547, 0.0
1548, 0.0
1549, 0.0
1550, 0.0
1551, 0.0
1552, 0.0
1553, 0.0
1554, 0.0
1555, 0.0
1556, 0.0
1557, 0.0
1558, 0.0
1559, 0.0
1560, 0.0
1561, 0.0
1562, 0.0
1563, 0.0
1564, 0.0
1565, 0.0
1566, 0.0
1567, 0.0
1568, 0.0
1569, 0.0
1570, 0.0
1571, 0.0
1572, 0.0
1573, 0.0
1574, 0.0
1575, 0.0
1576, 0.0
1577, 0.0
1578, 0.0
1579, 0.0
1580, 0.0
1581, 0.0
1582, 0.0
1583, 0.0
1584, 0.0
1585, 0.0
1586, 0.0
1587, 0.0
1588, 0.0
1589, 0.0
1590, 0.0
1591, 0.0
1592, 0.0
1593, 0.0
1594, 0.0
1595, 0.0
1596, 0.0
1597, 0.0
1598, 0.0
1599, 0.0
