30, 0.0
31, 0.0
32, 0.0
33, 0.0
34, 0.0
35, 0.0
36, 0.0
37, 0.0
38, 0.0
39, 0.0
40, 0.0
41, 0.0
42, 0.0
43, 0.0
44, 0.0
45, 0.0
46, 0.0
47, 0.0
48, 0.0
49, 0.0
50, 0.0
51, 0.0
52, 0.0
53, 0.0
54, 0.0
55, 0.0
56, 0.0
57, 0.0
58, 0.0
59, 0.0
60, 0.0
61, 0.0
62, 0.0
63, 0.0
64, 0.0
65, 0.0
66, 0.0
67, 0.0
68, 0.0
69, 0.0
70, 0.0
71, 0.0
72, 0.0
73, 0.0
74, 0.0
75, 0.0
76, 0.0
77, 0.0
78, 0.0
79, 0.0
80, 0.0
81, 0.0
82, 0.0
83, 0.0
84, 0.0
85, 0.0
86, 0.0
87, 0.0
88, 0.0
89, 0.0
90, 0.0
91, 0.0
92.0, 7.917717707402378e-06
93.0, 0.000424639702307407
94.0, 0.000937832559717519
95.0, 0.0012743870557624444
96.0, 0.0008345965530170191
97.0, 0.0006178585531385255
98.0, 0.001029367917467526
99.0, 0.0021491044312732955
100.0, 0.0029296290765381833
101.0, 0.002972862572072506
102.0, 0.0034261995235586873
103.0, 0.00603707945890063
104.0, 0.008153414682897512
105.0, 0.011336691346273315
106.0, 0.015651673357143053
107.0, 0.01917304276802951
108.0, 0.019501443458867705
109.0, 0.019565877064848303
110.0, 0.022100128223858866
111.0, 0.024400804677784393
112.0, 0.02584973676704142
113.0, 0.02725092956344401
114.0, 0.033086497224634186
115.0, 0.03957805600926331
116.0, 0.04519979728497278
117.0, 0.04884400440506245
118.0, 0.049994429793958996
119.0, 0.04889947744906671
120.0, 0.04762683828623185
121.0, 0.0524866977126379
122.0, 0.053312330319777106
123.0, 0.05319229986333198
124.0, 0.053242651322763644
125.0, 0.055956289646013076
126.0, 0.058247503081798845
127.0, 0.06098583620381967
128.0, 0.06589840108154907
129.0, 0.07138829062235845
130.0, 0.0780834205979736
131.0, 0.08559193510120432
132.0, 0.08772653876813566
133.0, 0.09102237472243235
134.0, 0.09409466020460858
135.0, 0.0954662605122205
136.0, 0.10065804937909306
137.0, 0.10201615293468921
138.0, 0.0998760570257223
139.0, 0.09898319200714352
140.0, 0.0951390741370572
141.0, 0.08939003283401196
142.0, 0.08201055226010681
143.0, 0.07400971591060088
144.0, 0.06740935300349148
145.0, 0.06147444925415528
146.0, 0.05450923991758097
147.0, 0.049980799149339526
148.0, 0.04492443404303307
149.0, 0.038698987664691264
150.0, 0.03460354227876678
151.0, 0.03235357479297724
152.0, 0.03023691010023575
153.0, 0.02624215839861584
154.0, 0.027725589574671847
155.0, 0.026613792204494002
156.0, 0.02316325507884953
157.0, 0.023453599058097983
158.0, 0.024107240242544178
159.0, 0.024113334480647473
160.0, 0.02281393905945488
161.0, 0.024781273801326192
162.0, 0.026238333305460226
163.0, 0.02718567089278347
164.0, 0.027614987751506687
165.0, 0.02900945110633408
166.0, 0.03031219694813676
167.0, 0.03153760586415427
168.0, 0.03592929704198739
169.0, 0.03887772900498852
170.0, 0.04145170102746653
171.0, 0.044619222286863346
172.0, 0.051891052379833214
173.0, 0.05759249325551932
174.0, 0.06210161060333644
175.0, 0.06839528816492682
176.0, 0.07670372527818349
177.0, 0.08562099341627666
178.0, 0.09474317761833084
179.0, 0.10805929839399317
180.0, 0.12115189728931618
181.0, 0.1344186820479676
182.0, 0.1485041060731238
183.0, 0.16699412433888428
184.0, 0.18174188794220092
185.0, 0.19233489326226744
186.0, 0.20316798243732
187.0, 0.21445332710346918
188.0, 0.22242143388911786
189.0, 0.22448321440377872
190.0, 0.2277458531513109
191.0, 0.22687858238520472
192.0, 0.2224450821321775
193.0, 0.21490986358939113
194.0, 0.2064489429477377
195.0, 0.19594887731766764
196.0, 0.1840689322873207
197.0, 0.17801593890546566
198.0, 0.1729668898408215
199.0, 0.16977193329816065
200.0, 0.16933727132175244
201.0, 0.16862722157122034
202.0, 0.1683276351276917
203.0, 0.16837876769261395
204.0, 0.1686656827616089
205.0, 0.17128778237443276
206.0, 0.17537873965881545
207.0, 0.17924692141022774
208.0, 0.16909216256723458
209.0, 0.15933804641050667
210.0, 0.14787305133758194
211.0, 0.1327769388239342
212.0, 0.11593035140816302
213.0, 0.10241312122371253
214.0, 0.0908962078561012
215.0, 0.07808197921815163
216.0, 0.07080470092741424
217.0, 0.06469062061526959
218.0, 0.05879056025661971
219.0, 0.05368235822945586
220.0, 0.05067872901421353
221.0, 0.04750453996374278
222.0, 0.04245327600585326
223.0, 0.04090884053683967
224.0, 0.03897581120602832
225.0, 0.03695296487244862
226.0, 0.03572736450705444
227.0, 0.03354383680833011
228.0, 0.032289972839230845
229.0, 0.03191141346986423
230.0, 0.029082247501769378
231.0, 0.02808171040858032
232.0, 0.027972105578519684
233.0, 0.02827543604049847
234.0, 0.02865267791951567
235.0, 0.03163149040657107
236.0, 0.03530143906139709
237.0, 0.036350719194429275
238.0, 0.03516876303477583
239.0, 0.03733449822773076
240.0, 0.042505430725425154
241.0, 0.04460017596094016
242.0, 0.04958306526269301
243.0, 0.0539097630414509
244.0, 0.056010162197963134
245.0, 0.0603380351103854
246.0, 0.0648359475238026
247.0, 0.06838707085575953
248.0, 0.06941799110072087
249.0, 0.07155242548017628
250.0, 0.07062196576127128
251.0, 0.06738183724917612
252.0, 0.06527081883547105
253.0, 0.06122889741195219
254.0, 0.057048820753137594
255.0, 0.05320598398220574
256.0, 0.04896578786377429
257.0, 0.046741520524226435
258.0, 0.04484155003929779
259.0, 0.041993206309995174
260.0, 0.03965757176097819
261.0, 0.0383708649824517
262.0, 0.03688875208446972
263.0, 0.03271053622446597
264.0, 0.0325628506635025
265.0, 0.031934379190555084
266.0, 0.030314703005548373
267.0, 0.028888942432690225
268.0, 0.028209273374379965
269.0, 0.02759675742305674
270.0, 0.026782670707460078
271.0, 0.0262230559802087
272.0, 0.02625911864944624
273.0, 0.026400658064032564
274.0, 0.026155607090656657
275.0, 0.0268439938164192
276.0, 0.028717212837969113
277.0, 0.030782223923765725
278.0, 0.03065142690745472
279.0, 0.03120334516616845
280.0, 0.03345002263491368
281.0, 0.03690251609477687
282.0, 0.037326280694818324
283.0, 0.03940026335597153
284.0, 0.041697987518052274
285.0, 0.04353273311580641
286.0, 0.0446202488160347
287.0, 0.04574885411138721
288.0, 0.046439702334278035
289.0, 0.04611175030271405
290.0, 0.04449020846816033
291.0, 0.044627979969786
292.0, 0.045042882035186325
293.0, 0.04185638135090327
294.0, 0.03851008532609051
295.0, 0.035835187478230196
296.0, 0.034016760089567444
297.0, 0.03316500224211638
298.0, 0.03398221367845316
299.0, 0.035273143557387185
300.0, 0.0366857669884184
301.0, 0.04054647960695702
302.0, 0.044868683786558235
303.0, 0.049672723374095305
304.0, 0.05503295676252181
305.0, 0.06070659776245261
306.0, 0.06794005476082157
307.0, 0.07434421651139894
308.0, 0.07532809422738668
309.0, 0.07219753652825596
310.0, 0.06758206948871327
311.0, 0.06184003312972243
312.0, 0.05486214820482285
313.0, 0.045382517164013245
314.0, 0.0365234232435744
315.0, 0.02903403785272316
316.0, 0.021001937435076334
317.0, 0.01590648240417288
318.0, 0.012199757426183108
319.0, 0.009037968144924436
320.0, 0.004992147885367655
321.0, 0.0026157281574865437
322.0, 0.001254211033022363
323.0, 0.00027676874749632714
324.0, 0.0010071125574420752
325.0, 0.002072903899616652
326.0, 0.0028400831086591513
327.0, 0.0020885038841939323
328.0, 0.0032738321475500112
329.0, 0.004399486518541913
330.0, 0.004980823213959909
331.0, 0.004328641896567878
332.0, 0.004851569711398135
333.0, 0.005624108393943045
334.0, 0.0061209286522517226
335.0, 0.004368168283352566
336.0, 0.0047786903817850996
337.0, 0.0052527345445075235
338.0, 0.004666858131239283
339.0, 0.00467125020817076
340.0, 0.004267453344540024
341.0, 0.0038935771463891843
342.0, 0.003988738935069923
343.0, 0.004023685931940932
344.0, 0.0041937129706616
345.0, 0.004476416866327481
346.0, 0.004835310278829231
347.0, 0.004586747550034765
348.0, 0.004263151895034213
349.0, 0.003951517440208879
350.0, 0.0037282227669253707
351.0, 0.003224371382547356
352.0, 0.002776148442293629
353.0, 0.002463273552801854
354.0, 0.002312892411188376
355.0, 0.002243744624850992
356.0, 0.002153715138343559
357.0, 0.001987032621461589
358.0, 0.0015842720474272078
359.0, 0.0007319358394635442
360.0, 0.00010655226736561807
361.0, 0.00013360491507525
362.0, 0.0007964326118174757
363.0, 0.0011659987213873534
364.0, 0.0016175814122098054
365.0, 0.002521242236759743
366.0, 0.0025737799101047706
367.0, 0.003300382943457629
368.0, 0.004695140876318536
369.0, 0.006757475905651711
370.0, 0.006955637370816843
371.0, 0.008078554368338233
372.0, 0.009549105050581425
373.0, 0.009528389115999387
374.0, 0.010826504206333057
375.0, 0.012492120127219291
376.0, 0.01417905819276889
377.0, 0.015211382540737088
378.0, 0.01657527699798163
379.0, 0.018370128909065052
380.0, 0.020456245317718266
381.0, 0.021899886232211854
382.0, 0.02467662569821359
383.0, 0.026766123255790947
384.0, 0.027686564331833446
385.0, 0.030495027785831953
386.0, 0.0333041702418485
387.0, 0.0363391432570752
388.0, 0.03958361404055727
389.0, 0.04013009712319859
390.0, 0.04089937302012979
391.0, 0.04257442263549645
392.0, 0.045709210231738295
393.0, 0.04639408757261171
394.0, 0.047034507642267874
395.0, 0.047561249141878356
396.0, 0.04789036652169719
397.0, 0.049522283288227345
398.0, 0.04849722338679624
399.0, 0.04688456982761296
400.0, 0.047969077818552294
401.0, 0.047668439156113976
402.0, 0.046278144757321074
403.0, 0.04498140863967469
404.0, 0.046137484626888596
405.0, 0.04538671074770097
406.0, 0.043453147955986544
407.0, 0.041541101626956595
408.0, 0.04264331787448738
409.0, 0.042523797848395016
410.0, 0.04240991953911303
411.0, 0.04232894953799395
412.0, 0.041581237149086084
413.0, 0.040884111565817435
414.0, 0.041645734782081674
415.0, 0.0437171597720653
416.0, 0.04472589287762126
417.0, 0.04474581401547231
418.0, 0.04489376788473156
419.0, 0.04569579721002936
420.0, 0.04817465160523437
421.0, 0.05009696654373859
422.0, 0.05181785875101485
423.0, 0.053611300917411654
424.0, 0.056624992976908435
425.0, 0.06097767517409432
426.0, 0.0652517907573219
427.0, 0.06905050888187167
428.0, 0.07603451070751255
429.0, 0.08157137298961184
430.0, 0.0864470959530306
431.0, 0.09134917190079679
432.0, 0.10054738436160447
433.0, 0.10923727457261907
434.0, 0.11634137520043109
435.0, 0.12118432289214104
436.0, 0.12843788438581755
437.0, 0.13263137850107404
438.0, 0.13622703719254345
439.0, 0.14117414493023528
440.0, 0.14102827576218827
441.0, 0.14068705759268613
442.0, 0.14029258318807544
443.0, 0.13997995356351461
444.0, 0.14212476467060675
445.0, 0.14102855299186898
446.0, 0.13886079781867508
447.0, 0.13800383531342153
448.0, 0.1334012572873066
449.0, 0.12704204955069998
450.0, 0.12072544585103405
451.0, 0.11660216081676869
452.0, 0.11155271707917934
453.0, 0.10564008366201126
454.0, 0.09913542134686842
455.0, 0.09237347312739565
456.0, 0.0884929612876991
457.0, 0.08378074340955763
458.0, 0.07922122364353752
459.0, 0.07647660015596551
460.0, 0.07222667001691635
461.0, 0.06913276022068757
462.0, 0.06677156372491533
463.0, 0.06430821688187056
464.0, 0.061286028312902356
465.0, 0.05824494297150798
466.0, 0.05612432407729963
467.0, 0.05641835552157871
468.0, 0.055188770632441736
469.0, 0.0532519983313578
470.0, 0.05193509841676702
471.0, 0.05336777759814756
472.0, 0.05072898494708758
473.0, 0.05023967341806652
474.0, 0.050658421227830805
475.0, 0.04918287665732093
476.0, 0.048739411938022933
477.0, 0.04828119861009984
478.0, 0.048027819971198954
479.0, 0.048486475353871177
480.0, 0.047400398926024004
481.0, 0.04684449659208838
482.0, 0.04692330233972285
483.0, 0.04758346677631765
484.0, 0.04671729617866905
485.0, 0.04675355223636968
486.0, 0.04688965948364359
487.0, 0.045569258127139016
488.0, 0.044706035379163775
489.0, 0.04425733045004407
490.0, 0.043982696051366295
491.0, 0.043522293488202766
492.0, 0.042799192658665844
493.0, 0.04199730476664415
494.0, 0.041176671529017966
495.0, 0.04040851943835166
496.0, 0.03894866343329397
497.0, 0.03724327745849794
498.0, 0.03552589049660781
499.0, 0.034082069225884706
500.0, 0.03273066181358386
501.0, 0.030898295814780485
502.0, 0.02898341389384064
503.0, 0.02749814272581107
504.0, 0.025303353255990185
505.0, 0.02371823598343073
506.0, 0.022487758116217577
507.0, 0.021299460451622655
508.0, 0.020146538647474725
509.0, 0.01870418239892491
510.0, 0.017434679865397807
511.0, 0.016790821317512847
512.0, 0.01597960431698448
513.0, 0.014802673015496821
514.0, 0.013984783513613422
515.0, 0.014085963015115745
516.0, 0.012430332003185718
517.0, 0.011540298476284846
518.0, 0.010996684846640006
519.0, 0.010429607411706735
520.0, 0.008737707729923548
521.0, 0.008955795743317166
522.0, 0.009070861583175724
523.0, 0.007924998809278739
524.0, 0.007411720758236589
525.0, 0.007181682199836939
526.0, 0.006740037014417955
527.0, 0.006046627059975707
528.0, 0.007216484611125233
529.0, 0.006714039503925196
530.0, 0.0062542753519356595
531.0, 0.006433195384419297
532.0, 0.006077616145850038
533.0, 0.005090712799169963
534.0, 0.004891868200090999
535.0, 0.0055421668272096014
536.0, 0.0047117348954073945
537.0, 0.0052408631894344795
538.0, 0.005505743108915418
539.0, 0.005276068253222995
540.0, 0.005463096582381304
541.0, 0.005547175501955081
542.0, 0.005837417069752258
543.0, 0.006015555281453669
544.0, 0.0049369829516159825
545.0, 0.006564965202409501
546.0, 0.0069513811027837385
547.0, 0.006490757308323254
548.0, 0.007476860654219063
549.0, 0.007976611027894494
550.0, 0.00797265116919788
551.0, 0.007742853182600197
552.0, 0.007763208713182896
553.0, 0.008731631960871275
554.0, 0.008896602181383908
555.0, 0.008964137263284318
556.0, 0.009985175245885436
557.0, 0.011742929242628443
558.0, 0.011861346238288687
559.0, 0.011436732099935622
560.0, 0.011561682258224555
561.0, 0.010739567046557623
562.0, 0.012083491113591218
563.0, 0.013221150458037335
564.0, 0.012662791157340633
565.0, 0.013998938915990133
566.0, 0.014286452740774079
567.0, 0.014351113405654396
568.0, 0.014727160809498395
569.0, 0.016137851093492868
570.0, 0.017328315304616378
571.0, 0.017781805336700485
572.0, 0.017561027790646014
573.0, 0.017902410950197473
574.0, 0.01970043134119877
575.0, 0.020878393644758728
576.0, 0.021210615106729884
577.0, 0.021665090779721976
578.0, 0.0216393648426145
579.0, 0.022379403477797755
580.0, 0.023755672365072828
581.0, 0.025074437439943226
582.0, 0.025085712460962244
583.0, 0.02669611988537602
584.0, 0.028252363845940345
585.0, 0.02702285033482282
586.0, 0.029073537444636366
587.0, 0.030936991489371433
588.0, 0.0318181728459273
589.0, 0.03119538184662679
590.0, 0.03446060275578546
591.0, 0.03603895272554548
592.0, 0.036246469819799176
593.0, 0.03572075258281076
594.0, 0.038693815904561446
595.0, 0.04148079391166351
596.0, 0.04366357936671418
597.0, 0.045208803476877175
598.0, 0.04692045377219185
599.0, 0.05016582512382598
600.0, 0.052710225757139365
601.0, 0.05431301098812003
602.0, 0.05613357706115927
603.0, 0.059165763687319954
604.0, 0.060760317040723336
605.0, 0.061901293938031086
606.0, 0.06528704702572251
607.0, 0.06615373147012489
608.0, 0.06686073223945417
609.0, 0.06774107856465264
610.0, 0.06899977943615007
611.0, 0.06997781022214918
612.0, 0.07104813343021141
613.0, 0.0723036378610225
614.0, 0.07380501927998837
615.0, 0.0754467279601852
616.0, 0.07694859317492143
617.0, 0.07891785826138345
618.0, 0.08148820499743573
619.0, 0.08377148900129094
620.0, 0.08633731529305598
621.0, 0.08958734570052779
622.0, 0.09376450984015007
623.0, 0.09926572771982821
624.0, 0.10466203087031607
625.0, 0.1128265484395723
626.0, 0.12145620749295194
627.0, 0.12585423079887828
628.0, 0.14024776240587394
629.0, 0.15143404923730677
630.0, 0.16258536107822105
631.0, 0.17756977791051792
632.0, 0.19530998696905133
633.0, 0.2113794475082897
634.0, 0.23187051779641027
635.0, 0.2591355739741907
636.0, 0.28244473814704346
637.0, 0.3217365394440314
638.0, 0.36122946977421133
639.0, 0.40110961681685126
640.0, 0.46170596761582966
641.0, 0.5305916019356781
642.0, 0.5993829372608078
643.0, 0.6696425013125595
644.0, 0.7471512840160621
645.0, 0.8257568854440916
646.0, 0.8955485127801737
647.0, 0.9543893575981502
648.0, 0.9999051145411685
649.0, 0.9965163481543348
650.0, 0.9848951672498926
651.0, 0.9509580026440405
652.0, 0.8899051664131691
653.0, 0.8269315024306203
654.0, 0.7419373005188963
655.0, 0.6631895660484486
656.0, 0.5936012731011848
657.0, 0.5133567869006105
658.0, 0.4545048907195058
659.0, 0.4053619383644693
660.0, 0.36058713570722406
661.0, 0.31413049631285445
662.0, 0.27913486755159345
663.0, 0.25156553992801844
664.0, 0.22674548215503634
665.0, 0.20104518767396629
666.0, 0.1825685768634492
667.0, 0.16523477435996298
668.0, 0.14886818577669256
669.0, 0.1342633384220721
670.0, 0.12559381575882794
671.0, 0.1167574016933102
672.0, 0.10834503428179613
673.0, 0.10062711965905609
674.0, 0.09389719916748629
675.0, 0.08706764975358533
676.0, 0.08187209880743254
677.0, 0.0776129705278184
678.0, 0.07331281513046826
679.0, 0.0681428337747746
680.0, 0.06492780288235023
681.0, 0.06159420656559806
682.0, 0.057516115417011834
683.0, 0.056110029296112945
684.0, 0.05475030319572279
685.0, 0.05243039977072808
686.0, 0.04968020661726865
687.0, 0.04850096650916956
688.0, 0.04549553770391072
689.0, 0.04399357955691241
690.0, 0.043265757503741765
691.0, 0.04203710304924034
692.0, 0.04027249839565071
693.0, 0.037842392912897004
694.0, 0.037001278147153864
695.0, 0.03814936491574455
696.0, 0.03553403242004641
697.0, 0.0348282041827501
698.0, 0.034366959103472705
699.0, 0.03369221688141615
700.0, 0.03279221069917638
701.0, 0.03140597827238774
702.0, 0.030757214979880484
703.0, 0.02997486514576453
704.0, 0.0280721841805134
705.0, 0.028331886043360174
706.0, 0.028584381998736502
707.0, 0.02830634239943289
708.0, 0.02719386596447683
709.0, 0.025116730174395016
710.0, 0.025077501554057073
711.0, 0.025086623797064486
712.0, 0.02461326313917432
713.0, 0.023515277652592734
714.0, 0.02392163651371876
715.0, 0.022712779666456174
716.0, 0.021330401153823286
717.0, 0.021144104437842343
718.0, 0.01992844669684654
719.0, 0.019985057392662542
720.0, 0.01969115444509425
721.0, 0.01857144373616508
722.0, 0.017418861623380577
723.0, 0.016871293506132208
724.0, 0.016457655249155653
725.0, 0.016134109337607675
726.0, 0.01593861425213397
727.0, 0.016182296178368676
728.0, 0.015842413387745342
729.0, 0.014822797614966294
730.0, 0.013397985967089516
731.0, 0.013667935012551114
732.0, 0.013075658873321147
733.0, 0.011707309864375903
734.0, 0.010465138366095712
735.0, 0.011356930155836456
736.0, 0.010076829391553547
737.0, 0.009382939635890061
738.0, 0.008924675090762427
739.0, 0.008278774379209604
740.0, 0.009078862647312207
741.0, 0.008460535465718799
742.0, 0.007418407905268246
743.0, 0.006757429586112012
744.0, 0.007765054683684687
745.0, 0.006857695292485499
746.0, 0.006568673496702202
747.0, 0.006234500023065314
748.0, 0.00459993476310893
749.0, 0.00456857507219394
750.0, 0.004148934452745777
751.0, 0.004221861848978802
752.0, 0.004823616744231103
753.0, 0.0037519083491625318
754.0, 0.003314802863863858
755.0, 0.0026445081061253844
756.0, 0.0017655859226813088
757.0, 0.0010179969324898442
758.0, 0.002104303098432875
759.0, 0.0018916964796515429
760.0, 0.0018201586926348446
761.0, 0.002537107903609963
762.0, 0.0013976416390926625
763.0, 0.0016828126646149899
764.0, 0.0014153102851332112
765.0, 0.0006059629730356723
766.0, 0.0003149466201569707
767.0, 0.0002538568372298119
768.0, 0.00041479722159989496
769.0, 0.000753941606154219
770.0, 0.0011046771504077102
771.0, 0.00047344989371376345
772.0, 0.0004800815256582009
773.0, 0.0003361974854715096
774.0, 3.865529690487501e-05
775.0, 0.00011850306998647292
776.0, 0.0002373303636140139
777.0, 0.000458793450705379
778.0, 0.0006055926087586485
779.0, 0.0005571276026807309
780.0, 0.0006451066672992073
781.0, 0.0005892781693918837
782.0, 0.0004717936979256335
783.0, 0.0003508384790837129
784.0, 0.0003003244954718257
785.0, 0.00014842470632039673
786.0, 0.0001349502907268278
787.0, 0.00013063688727349675
788.0, 4.4591658283773554e-05
789.0, 0.00022414391293322711
790.0, 0.0006621499036596005
791.0, 0.0011351815248934211
792.0, 0.001265790113905148
793.0, 0.00036996699634407864
794.0, 0.0007051094222482499
795.0, 0.0006056615014868996
796.0, 0.0006155316540399475
797.0, 0.0011080179573079358
798.0, 0.0008020040845599374
799.0, 0.0012540889638151054
800.0, 0.0012499893957928577
801.0, 0.0009295241420346422
802.0, 0.0013053907117813938
803.0, 0.0007850833858847708
804.0, 0.0005473987521808362
805.0, 0.0005198109397960935
806.0, 0.0005726750147780162
807.0, 0.0005020906022850749
808.0, 0.000698979365526247
809.0, 0.0008976655975578301
810.0, 0.001135063519446437
811.0, 0.001581875823922366
812.0, 0.0016017687646824408
813.0, 0.0010979849517213922
814.0, 0.0005856623102890463
815.0, 0.000437975057391856
816.0, 0.0008365712383847695
817.0, 0.0006907049279988277
818.0, 0.0007468497281345149
819.0, 0.0008347932388726254
820.0, 0.0005467992903318511
821.0, 0.00042524628982261534
822.0, 0.0004941083500327728
823.0, 0.0005555831284659514
824.0, 0.0005998946838972343
825.0, 0.0009262511647863752
826.0, 0.0009440889798209387
827.0, 0.0009990135736232086
828.0, 0.0010850296548246612
829.0, 0.0011498413597078217
830.0, 0.0011612708488975615
831.0, 0.0011459452670442066
832.0, 0.0011173901124155992
833.0, 0.001077032279472215
834.0, 0.0010174527379618271
835.0, 0.0002928144786642771
836.0, 0.0002797972277146065
837.0, 0.0005313713555330403
838.0, 0.000582597439953836
839.0, 0.00010617860926156062
840.0, 0.0007212618771043362
841.0, 0.000880429665719808
842.0, 0.000716293421155142
843.0, 0.0009417351193097422
844.0, 0.0006129822270599112
845.0, 0.0005587010795500152
846.0, 0.00047109171413159845
847.0, 0.0003136632356584003
848.0, 0.0004996188939289721
849.0, 0.0006145033461375152
850.0, 0.0005820874168338232
851.0, 0.000585916608595656
852.0, 0.000749975801890046
853.0, 0.0004294983323773521
854.0, 0.00050315768706307
855.0, 0.0008164410198563355
856.0, 0.001058431273036243
857.0, 0.000736360068687337
858.0, 0.0012835960465764366
859.0, 0.0012614186891684342
860.0, 0.0013902433285811488
861.0, 0.0017703715650956124
862.0, 0.0009070980987894357
863.0, 0.0013672279457732181
864.0, 0.001413762403415423
865.0, 0.001396192882198373
866.0, 0.001918390946994353
867.0, 0.002158909385458749
868.0, 0.0022942135383106333
869.0, 0.002554561834831951
870.0, 0.0028289349599514564
871.0, 0.002737154013493977
872.0, 0.002093146986651526
873.0, 0.0022387662883662836
874.0, 0.0024444552442660617
875.0, 0.0022832091952487954
876.0, 0.0020335001785156156
877.0, 0.002324463241426011
878.0, 0.0025413993236024527
879.0, 0.002829872881093847
880.0, 0.0033372704575222218
881.0, 0.002993209899749882
882.0, 0.0034270410106551734
883.0, 0.0036275620787721815
884.0, 0.0035273465585749855
885.0, 0.003591290284920981
886.0, 0.004693565703524145
887.0, 0.00486057263226635
888.0, 0.004467967956064405
889.0, 0.0041022862631078655
890.0, 0.004917207521294443
891.0, 0.00494495448957411
892.0, 0.005012506434672937
893.0, 0.005065142192741844
894.0, 0.005045842576832052
895.0, 0.0054420122643044
896.0, 0.006152495003396192
897.0, 0.0065234412936826455
898.0, 0.006802444650902302
899.0, 0.0075398952530754525
900.0, 0.00802267031209351
901.0, 0.007936419762034498
902.0, 0.008035871319864852
903.0, 0.008482230114237854
904.0, 0.008898104779678114
905.0, 0.008917484928089412
906.0, 0.009125595393067404
907.0, 0.009431662739953335
908.0, 0.009783813487845067
909.0, 0.01029812942180607
910.0, 0.010607533411692958
911.0, 0.010754179194115303
912.0, 0.010939431828624481
913.0, 0.011430620680159757
914.0, 0.012807145993922193
915.0, 0.01381493437573651
916.0, 0.014276763788947038
917.0, 0.014638815606728639
918.0, 0.01559177490828313
919.0, 0.016384075267869443
920.0, 0.016904376764491177
921.0, 0.0176010487792213
922.0, 0.018517478120577056
923.0, 0.01934537918981348
924.0, 0.02030483656789761
925.0, 0.02140559469116563
926.0, 0.02250751866021953
927.0, 0.023647515165776234
928.0, 0.02524014679349547
929.0, 0.026838678836047184
930.0, 0.027730129176923406
931.0, 0.029086851189852797
932.0, 0.03147791451562216
933.0, 0.03234512281524614
934.0, 0.035167454914207086
935.0, 0.03848086673903495
936.0, 0.04075958390278508
937.0, 0.04121023648626138
938.0, 0.04592498049006804
939.0, 0.048700868199064835
940.0, 0.05144463225313945
941.0, 0.055292698530012244
942.0, 0.06096031864018405
943.0, 0.06506782164831446
944.0, 0.06858443849965234
945.0, 0.07319617604476804
946.0, 0.07918084803507998
947.0, 0.0856570023412081
948.0, 0.09340789323209267
949.0, 0.10146302955720643
950.0, 0.11075167441169217
951.0, 0.12121075674058662
952.0, 0.13129714511404064
953.0, 0.1420854175959925
954.0, 0.153588418420769
955.0, 0.16768462223279632
956.0, 0.18426180055009989
957.0, 0.19814662352311324
958.0, 0.21684278216749264
959.0, 0.23478711805088764
960.0, 0.254789004828747
961.0, 0.27723265242819456
962.0, 0.2884088065841157
963.0, 0.30517381635557056
964.0, 0.32294305459011763
965.0, 0.3357801402724558
966.0, 0.33970430161231174
967.0, 0.3447830311770427
968.0, 0.33789247128045413
969.0, 0.3297079646584968
970.0, 0.32007380918872763
971.0, 0.30574242391131784
972.0, 0.2860317076428841
973.0, 0.267250537412214
974.0, 0.24872039059638637
975.0, 0.229153147950659
976.0, 0.20731795497488636
977.0, 0.19002592059019327
978.0, 0.17269248497868053
979.0, 0.15788113237286558
980.0, 0.14522571304259904
981.0, 0.1323906919443211
982.0, 0.12000236450831434
983.0, 0.11033652949032433
984.0, 0.10139152352311241
985.0, 0.09300669078835366
986.0, 0.08656958752089292
987.0, 0.08079779566558527
988.0, 0.0753294500348232
989.0, 0.0707375958296109
990.0, 0.06649140183981904
991.0, 0.06077761599467985
992.0, 0.057892748239932304
993.0, 0.054185318403985494
994.0, 0.05088338242293202
995.0, 0.04832087023537767
996.0, 0.04552281340887195
997.0, 0.043344011304771515
998.0, 0.04146367189569863
999.0, 0.0393058072868503
1000.0, 0.037046730232185784
1001.0, 0.03611608717963634
1002.0, 0.034602415892900126
1003.0, 0.03259183133343551
1004.0, 0.031301534527558475
1005.0, 0.030822337648878474
1006.0, 0.029135963118631914
1007.0, 0.027692810703060036
1008.0, 0.025729783544705814
1009.0, 0.024429562132918022
1010.0, 0.024085905303213157
1011.0, 0.023070932031205985
1012.0, 0.022954942942401916
1013.0, 0.022308037484113235
1014.0, 0.021560129501482984
1015.0, 0.02088625858283359
1016.0, 0.01965711296527166
1017.0, 0.019464118193381914
1018.0, 0.018732821210560517
1019.0, 0.01808807673261711
1020.0, 0.01786078484166391
1021.0, 0.01747010027008511
1022.0, 0.01756852404685106
1023.0, 0.01713218334421402
1024.0, 0.016716065048075247
1025.0, 0.016629483726620087
1026.0, 0.01647804287942022
1027.0, 0.01660537624430634
1028.0, 0.016226700291657868
1029.0, 0.0158829734624049
1030.0, 0.01582344186631363
1031.0, 0.015591873962127935
1032.0, 0.01523229193813131
1033.0, 0.013865875233826156
1034.0, 0.013451930176046265
1035.0, 0.014295666574192812
1036.0, 0.013647821212752454
1037.0, 0.013387318277533174
1038.0, 0.013957826430134228
1039.0, 0.014054540211110328
1040.0, 0.013541729487594516
1041.0, 0.014131864346611976
1042.0, 0.012772714252795891
1043.0, 0.013204911987873127
1044.0, 0.01370079533247768
1045.0, 0.013391550727642178
1046.0, 0.01269082108176755
1047.0, 0.012721431721516751
1048.0, 0.012531119989577654
1049.0, 0.012763226367353872
1050.0, 0.013170813808570608
1051.0, 0.01259913846918909
1052.0, 0.013110720306062236
1053.0, 0.013058131179785389
1054.0, 0.012515828782824952
1055.0, 0.011816820953833174
1056.0, 0.011504294724437451
1057.0, 0.011989808010888597
1058.0, 0.012211792866582107
1059.0, 0.012142618765514092
1060.0, 0.0117640436623316
1061.0, 0.011138470313402996
1062.0, 0.01134280921300485
1063.0, 0.011079051539289916
1064.0, 0.011032511038543238
1065.0, 0.011074718276067246
1066.0, 0.010795265025457816
1067.0, 0.010677174377651456
1068.0, 0.011000372921569674
1069.0, 0.011159722378031058
1070.0, 0.011241089176038806
1071.0, 0.011468733894531187
1072.0, 0.011540825029495968
1073.0, 0.011249165434802979
1074.0, 0.010852322943875115
1075.0, 0.010670094425771139
1076.0, 0.010807412921178983
1077.0, 0.010543239495569241
1078.0, 0.009745767196288916
1079.0, 0.01047445953428443
1080.0, 0.011615399317438728
1081.0, 0.011899140307471134
1082.0, 0.01074507689487697
1083.0, 0.00969328611209659
1084.0, 0.00980389115568486
1085.0, 0.009984514350780438
1086.0, 0.009772571181165203
1087.0, 0.009920376909504171
1088.0, 0.010583590024212568
1089.0, 0.010182895267061428
1090.0, 0.009593013483675602
1091.0, 0.00931367516166826
1092.0, 0.009394217800123927
1093.0, 0.009515778015605016
1094.0, 0.00946844130313646
1095.0, 0.009392782842512876
1096.0, 0.009247998762493683
1097.0, 0.008932542677479017
1098.0, 0.008811889728839527
1099.0, 0.008804250244124566
1100.0, 0.008946427028819101
1101.0, 0.009041039330547956
1102.0, 0.00893887275143483
1103.0, 0.009151182190713245
1104.0, 0.009151346552316687
1105.0, 0.00975275464445894
1106.0, 0.009947064401114657
1107.0, 0.009525628973084661
1108.0, 0.011322211455228815
1109.0, 0.009828454058717167
1110.0, 0.00995129786434405
1111.0, 0.010720040425468915
1112.0, 0.010859514861080125
1113.0, 0.00941706773005166
1114.0, 0.0110999854053973
1115.0, 0.010933959845420468
1116.0, 0.010525123514070948
1117.0, 0.010419829241825159
1118.0, 0.010251095979131875
1119.0, 0.010016425382750946
1120.0, 0.010118461713659549
1121.0, 0.011807043236537891
1122.0, 0.013942613226329647
1123.0, 0.015076185455414568
1124.0, 0.017717037736009508
1125.0, 0.018934567472598706
1126.0, 0.01583279843700808
1127.0, 0.012218171879596864
1128.0, 0.011301364285353352
1129.0, 0.011318019728458051
1130.0, 0.012196187123761528
1131.0, 0.01222785845729137
1132.0, 0.012391618336803944
1133.0, 0.012857798189965715
1134.0, 0.012605894384176922
1135.0, 0.012394682742584949
1136.0, 0.012428572781240335
1137.0, 0.01306244515242426
1138.0, 0.01366344835482778
1139.0, 0.013328184776381431
1140.0, 0.013706370909274465
1141.0, 0.013397287139453205
1142.0, 0.013412091138754861
1143.0, 0.013550569170771774
1144.0, 0.013616092248939568
1145.0, 0.01447138944400204
1146.0, 0.015150613503046423
1147.0, 0.014664523585442717
1148.0, 0.014339304396551868
1149.0, 0.014527376013344162
1150.0, 0.013971833639887767
1151.0, 0.013876523458173903
1152.0, 0.014173802797771112
1153.0, 0.014038086223653542
1154.0, 0.013340000814631995
1155.0, 0.012510445703718051
1156.0, 0.012812008980550153
1157.0, 0.012668083582656415
1158.0, 0.012193629446916397
1159.0, 0.011738974547146595
1160.0, 0.011580267129693433
1161.0, 0.011622586988276418
1162.0, 0.010661073102339255
1163.0, 0.010627991896973752
1164.0, 0.010680035057052223
1165.0, 0.01046046012133231
1166.0, 0.010372150809575677
1167.0, 0.009980555602010156
1168.0, 0.009752437674084125
1169.0, 0.009140188341271773
1170.0, 0.008676834277751552
1171.0, 0.008943519237111645
1172.0, 0.008347312579743749
1173.0, 0.007972384734091507
1174.0, 0.0079068137802262
1175.0, 0.007884331733465194
1176.0, 0.0077758481568106
1177.0, 0.007796058088455703
1178.0, 0.007293316594586945
1179.0, 0.0076774880466805445
1180.0, 0.007247195449961724
1181.0, 0.006036736309315036
1182.0, 0.005280729350433924
1183.0, 0.005822285843344866
1184.0, 0.005655469255168678
1185.0, 0.0050183844029302585
1186.0, 0.0045570869663386915
1187.0, 0.0047273438585421265
1188.0, 0.005297296725819076
1189.0, 0.0057359049560553295
1190.0, 0.004872488439704206
1191.0, 0.0038290762842323346
1192.0, 0.0034803065603928366
1193.0, 0.0041048390744885975
1194.0, 0.003580353628408377
1195.0, 0.0037394580560433676
1196.0, 0.003776903260452551
1197.0, 0.0038715721059569925
1198.0, 0.0039366789297308104
1199.0, 0.0023838024264453707
1200.0, 0.0028571304855282828
1201.0, 0.002309277071426331
1202.0, 0.0024056998733331873
1203.0, 0.0028477227281707117
1204.0, 0.0016751577597640265
1205.0, 0.0018609349902732144
1206.0, 0.001805477659463553
1207.0, 0.0018611269957464235
1208.0, 0.0019685051605034523
1209.0, 0.001901964079886112
1210.0, 0.0013384643232185291
1211.0, 0.0010768954852904738
1212.0, 0.0008848268087886798
1213.0, 0.0008576040122501501
1214.0, 0.0011889810422376743
1215.0, 0.0019285211248708913
1216.0, 0.0010582981637640022
1217.0, 0.0015256220746790073
1218.0, 0.002347484383744552
1219.0, 0.0023556878394247233
1220.0, 0.001753852288864607
1221.0, 0.003864167016448891
1222.0, 0.0013116544995104206
1223.0, 0.0002983659785117765
1224.0, 0.00018819480567632135
1225.0, 0.0003473247174542621
1226.0, 0.0003873535978229871
1227.0, 0.00017462263705452543
1228.0, 0.00016578166613654134
1229.0, 0.0001294691693210801
1230.0, 0.00012774785983508054
1231.0, 0.00017491687634535477
1232.0, 0.00011595513774345233
1233.0, 0.00020777244100991246
1234.0, 0.0003442727330259073
1235.0, 0.0004139820130577244
1236.0, 0.00034585066274513186
1237.0, 0.00023411528441108688
1238.0, 0.0007569162884555935
1239.0, 0.0002457284560469097
1240.0, 0.00011535438234864723
1241.0, 0.00041883894281872087
1242.0, 0.0008264183931098949
1243.0, 0.000808974533432041
1244.0, 0.0001483081022508052
1245.0, 8.142074555467932e-05
1246.0, 0.0002569252645151028
1247.0, 0.0002713729896771717
1248.0, 0.00017222723467136817
1249.0, 0.0010738335916024274
1250.0, 0.0005254549292348562
1251.0, 0.00028573208637626245
1252.0, 0.00020412846698801852
1253.0, 0.0003526383286512198
1254.0, 0.0008344952975960285
1255.0, 0.0009242399812392963
1256.0, 0.0010105009306481249
1257.0, 0.0008072219724717558
1258.0, 0.0006447290247899397
1259.0, 0.0009259864743711506
1260.0, 0.001869526734012543
1261.0, 0.0015962701205740736
1262.0, 0.0007819269107162797
1263.0, 0.0004252080625459533
1264.0, 0.0004159871720845394
1265.0, 0.0003527795949761371
1266.0, 8.033838413694304e-05
1267.0, 0.0007404843727676334
1268.0, 0.0006561928646608099
1269.0, 0.0005420311772237426
1270.0, 0.00044406356936070075
1271.0, 0.00010706745687830054
1272.0, 5.944461769798839e-05
1273.0, 0.00045122151861303936
1274.0, 0.0004512127544919591
1275.0, 0.00032652012959841664
1276.0, 0.0003343086241272153
1277.0, 0.0005175464575870528
1278.0, 0.0004743002764714993
1279.0, 0.0005308678165480634
1280.0, 0.0003737150718909697
1281.0, 0.0005555585180642775
1282.0, 0.0009751082470535778
1283.0, 0.00024082997842109127
1284.0, 0.0005282862244835716
1285.0, 0.0009701943685713715
1286.0, 0.0007595811972458764
1287.0, 0.0008117872177970684
1288.0, 0.0015505051093916093
1289.0, 0.00025747666813585196
1290.0, 0.001194154511399004
1291.0, 0.0015913103060110699
1292.0, 0.0019340922679107527
1293.0, 0.002149178733634462
1294.0, 0.0019396015865297102
1295.0, 0.0019178137755508466
1296.0, 0.002476832481754975
1297.0, 0.0025123003597576324
1298.0, 0.0023946259191953154
1299.0, 0.0023990510097275266
1300.0, 0.0024889646108968875
1301.0, 0.002190724305934777
1302.0, 0.002063061427407802
1303.0, 0.0027601628272602477
1304.0, 0.0031664215122864294
1305.0, 0.003016632947628419
1306.0, 0.003384727916155413
1307.0, 0.0035133640764265146
1308.0, 0.0034943930269951003
1309.0, 0.0033610668694116167
1310.0, 0.0034005268386605404
1311.0, 0.0035319438002311926
1312.0, 0.0030503251787671183
1313.0, 0.0031636567775017296
1314.0, 0.0034367318313554894
1315.0, 0.0034272530234942663
1316.0, 0.003367953052075389
1317.0, 0.00349754613501548
1318.0, 0.003533592480995056
1319.0, 0.0034009124340605833
1320.0, 0.0034509792226426425
1321.0, 0.0034658783108452965
1322.0, 0.003353692472082728
1323.0, 0.0032133585889931727
1324.0, 0.003448766442023086
1325.0, 0.0029234423518268745
1326.0, 0.0030570631602604486
1327.0, 0.003103966456040246
1328.0, 0.0028020819107503476
1329.0, 0.00239240320864893
1330.0, 0.002612789435545573
1331.0, 0.0024854197414775426
1332.0, 0.001689682124237694
1333.0, 0.0018310732457441736
1334.0, 0.002148968700881267
1335.0, 0.001277769884395012
1336.0, 0.0015954382010776474
1337.0, 0.0013054256481742665
1338.0, 0.0014564517501550116
1339.0, 0.0012438629708820478
1340.0, 0.0010795101159545312
1341.0, 0.001659950789538161
1342.0, 0.0008449521317745342
1343.0, 0.000643274874534005
1344.0, 0.0008729223046147275
1345.0, 0.0009750858671971516
1346.0, 0.000838284091644488
1347.0, 0.0007426316098198412
1348.0, 0.0009860746395938171
1349.0, 0.00040941789040474584
1350.0, 0.0003016188729576217
1351.0, 0.00023472900985331305
1352.0, 0.00026245195450775335
1353.0, 0.0006330209176655758
1354.0, 0.000189917163598609
1355.0, 0.0009566481413729581
1356.0, 0.0006059530311809312
1357.0, 0.000637812863017184
1358.0, 0.001022562749919266
1359.0, 0.0006688017179044491
1360.0, 0.00036314656490688457
1361.0, 0.0003214289445722765
1362.0, 0.0007510933801623576
1363.0, 0.0007235560191440764
1364.0, 0.0003547377209268101
1365.0, 0.0003969648156743008
1366.0, 0.0006923940302814519
1367.0, 0.00048659080758341286
1368.0, 0.0004156896345590622
1369.0, 0.000407012291616736
1370.0, 0.00030578305315428404
1371.0, 0.00018336511283440317
1372.0, 0.0009361121223467848
1373.0, 0.00042991164844698756
1374.0, 0.0003919901997304269
1375.0, 0.0004422771440722778
1376.0, 0.0005422984764880856
1377.0, 0.0007347200845268119
1378.0, 0.0004580559608950907
1379.0, 0.0008507860668517509
1380.0, 0.0005641720708170893
1381.0, 0.0002337379145250828
1382.0, 0.0003450963653855555
1383.0, 0.000784960285194996
1384.0, 0.00039552756585476046
1385.0, 0.00019971858575325437
1386.0, 0.0004994041992620205
1387.0, 0.0003814306906140299
1388.0, 8.829907134418036e-05
1389.0, 0.00011338602426707288
1390.0, 0.00039445284633208075
1391.0, 0.0010253539686597979
1392.0, 0.0008749245642858625
1393.0, 0.0008151311859582427
1394.0, 0.0008713390072586941
1395.0, 0.0007278981788345754
1396.0, 0.00012547829343829118
1397.0, 0.00019965322676991897
1398.0, 0.0003499553452895059
1399.0, 0.0005305990461464788
1400.0, 0.00038606385047397116
1401.0, 0.00025805543024927277
1402.0, 0.0010333783295961138
1403.0, 0.0009108020855804803
1404.0, 0.0005092812798881095
1405.0, 0.00018410541681474936
1406.0, 0.0004373572221655753
1407.0, 0.0009237452334473099
1408.0, 0.0008409590807209722
1409.0, 0.0008560482004513097
1410.0, 0.0008049331708303459
1411.0, 0.0010741895071177743
1412.0, 0.0008618209288774977
1413.0, 0.0005297824000446543
1414.0, 0.0008760949561430521
1415.0, 0.001467333230444887
1416.0, 0.0014220089890055196
1417.0, 0.0018773101820430717
1418.0, 0.001460303046864245
1419.0, 0.0011848022961893413
1420.0, 0.0016753699735134312
1421.0, 0.0008008814431345223
1422.0, 0.0008271264550486569
1423.0, 0.0010903750560773769
1424.0, 0.0013431555528748754
1425.0, 0.0015271799734781191
1426.0, 0.0015535980907874958
1427.0, 0.001336961328670119
1428.0, 0.001700710404549329
1429.0, 0.0017234691207132938
1430.0, 0.0018373324378689881
1431.0, 0.0017103259056927833
1432.0, 0.001744922063549845
1433.0, 0.0023802936617284103
1434.0, 0.0013467035334964886
1435.0, 0.0016202385197540811
1436.0, 0.0015980474533507894
1437.0, 0.0023921982504502503
1438.0, 0.002779672102008895
1439.0, 0.0018581925178769772
1440.0, 0.0023417979686390605
1441.0, 0.003188421570001061
1442.0, 0.002783905082369069
1443.0, 0.0021888502022152133
1444.0, 0.0022817287323728236
1445.0, 0.002723142212241813
1446.0, 0.0021103960428344587
1447.0, 0.0023534051748465745
1448.0, 0.0018947975267366213
1449.0, 0.002410617344011014
1450.0, 0.0027382826737660532
1451.0, 0.002515873287000811
1452.0, 0.002341064182049038
1453.0, 0.002471385798971115
1454.0, 0.0023887908101891397
1455.0, 0.0027781821250449316
1456.0, 0.0030319406493833022
1457.0, 0.003031537944399927
1458.0, 0.0029573246209084175
1459.0, 0.0029920783220065725
1460.0, 0.002769797922935565
1461.0, 0.002263244637909667
1462.0, 0.001990793138419238
1463.0, 0.0017731615956085918
1464.0, 0.001653355045888974
1465.0, 0.0018930905305521754
1466.0, 0.0020236608131404305
1467.0, 0.0013312719278975123
1468.0, 0.0014538526525887596
1469.0, 0.0016723904472406707
1470.0, 0.0018293809583966923
1471.0, 0.002055360341551153
1472.0, 0.0022107441717741936
1473.0, 0.0021348375770219473
1474.0, 0.0021756158846887607
1475.0, 0.001962519957674921
1476.0, 0.0015801908406395135
1477.0, 0.0011892996212828119
1478.0, 0.0009657033133148459
1479.0, 0.0014633935817100372
1480.0, 0.001525965246346522
1481.0, 0.0016652105608476284
1482.0, 0.0014620834983033314
1483.0, 0.0014123748878682215
1484.0, 0.0017022349540830237
1485.0, 0.001065603910119375
1486.0, 0.001856927419997242
1487.0, 0.0010098627411183636
1488.0, 0.0013616389159915717
1489.0, 0.0014822214175297759
1490.0, 0.0009831373781225602
1491.0, 0.0011199042168157799
1492.0, 0.001464051805743567
1493.0, 0.0011808831104388876
1494.0, 0.0012412612594473401
1495.0, 0.0012396043269260108
1496.0, 0.0012320794816814997
1497.0, 0.00138980684539537
1498.0, 0.0016368477480532676
1499.0, 0.0018829445283194666
1500.0, 0.0009874131736387097
1501.0, 0.0009969263162786484
1502.0, 0.0006913948795017448
1503.0, 8.009649492006608e-05
1504.0, 0.00020801566230920182
1505.0, 0.0009651452369443499
1506.0, 0.0009824363561420513
1507.0, 0.0003950556839020507
1508.0, 0.0007752883635899628
1509.0, 0.0010130183354160184
1510.0, 0.00046388428355099363
1511.0, 0.00020007182278832967
1512.0, 0.001318938271367752
1513.0, 0.0006012028064178948
1514.0, 0.0009710520400889493
1515.0, 0.0008585886698338491
1516.0, 0.0005214237992045821
1517.0, 0.0005722196449243195
1518.0, 0.00023666565324912873
1519.0, 0.0007137369717484799
1520.0, 0.0002008100726773559
1521.0, 0.0005612819536373944
1522.0, 0.0007254796917562518
1523.0, 0.0003744667148710308
1524.0, 7.803769982814805e-05
1525, 0.0
1526, 0.0
1527, 0.0
1528, 0.0
1529, 0.0
1530, 0.0
1531, 0.0
1532, 0.0
1533, 0.0
1534, 0.0
1535, 0.0
1536, 0.0
1537, 0.0
1538, 0.0
1539, 0.0
1540, 0.0
1541, 0.0
1542, 0.0
1543, 0.0
1544, 0.0
1545, 0.0
1546, 0.0
1547, 0.0
1548, 0.0
1549, 0.0
1550, 0.0
1551, 0.0
1552, 0.0
1553, 0.0
1554, 0.0
1555, 0.0
1556, 0.0
1557, 0.0
1558, 0.0
1559, 0.0
1560, 0.0
1561, 0.0
1562, 0.0
1563, 0.0
1564, 0.0
1565, 0.0
1566, 0.0
1567, 0.0
1568, 0.0
1569, 0.0
1570, 0.0
1571, 0.0
1572, 0.0
1573, 0.0
1574, 0.0
1575, 0.0
1576, 0.0
1577, 0.0
1578, 0.0
1579, 0.0
1580, 0.0
1581, 0.0
1582, 0.0
1583, 0.0
1584, 0.0
1585, 0.0
1586, 0.0
1587, 0.0
1588, 0.0
1589, 0.0
1590, 0.0
1591, 0.0
1592, 0.0
1593, 0.0
1594, 0.0
1595, 0.0
1596, 0.0
1597, 0.0
1598, 0.0
1599, 0.0
