30, 0.0
31, 0.0
32, 0.0
33, 0.0
34, 0.0
35, 0.0
36, 0.0
37, 0.0
38, 0.0
39, 0.0
40, 0.0
41, 0.0
42, 0.0
43, 0.0
44, 0.0
45, 0.0
46, 0.0
47, 0.0
48, 0.0
49, 0.0
50, 0.0
51, 0.0
52, 0.0
53, 0.0
54, 0.0
55, 0.0
56, 0.0
57, 0.0
58, 0.0
59, 0.0
60, 0.0
61, 0.0
62, 0.0
63, 0.0
64, 0.0
65, 0.0
66, 0.0
67, 0.0
68, 0.0
69, 0.0
70, 0.0
71, 0.0
72, 0.0
73, 0.0
74, 0.0
75, 0.0
76, 0.0
77, 0.0
78, 0.0
79, 0.0
80, 0.0
81, 0.0
82, 0.0
83, 0.0
84, 0.0
85, 0.0
86, 0.0
87, 0.0
88, 0.0
89, 0.0
90, 0.0
91, 0.0
92, 0.0
93, 0.0
94, 0.0
95, 0.0
96, 0.0
97, 0.0
98, 0.0
99, 0.0
100, 0.0
101, 0.0
102, 0.0
103, 0.0
104, 0.0
105, 0.0
106, 0.0
107, 0.0
108, 0.0
109, 0.0
110, 0.0
111, 0.0
112, 0.0
113.0, 0.0006166564566773556
114.0, 0.0019699929575417957
115.0, 0.002235199200867857
116.0, 0.0017668144929176637
117.0, 0.0004325842008755288
118.0, 0.00013098568491291866
119.0, 0.00015127326655980247
120.0, 0.0010148455022971356
121.0, 0.0026173666429913506
122.0, 0.005154051227700003
123.0, 0.007514528780144172
124.0, 0.008386117311632812
125.0, 0.007676034367278325
126.0, 0.006229761358265558
127.0, 0.005508799836596861
128.0, 0.005854188039625032
129.0, 0.0072982308564065465
130.0, 0.009748285798744805
131.0, 0.01223540916101094
132.0, 0.014480551991046751
133.0, 0.015233744273913184
134.0, 0.01356860025990379
135.0, 0.010726265233865006
136.0, 0.007340569527030634
137.0, 0.004722565591718004
138.0, 0.0036742170925192306
139.0, 0.0039650855262275166
140.0, 0.004822090679322554
141.0, 0.005707243198729087
142.0, 0.0064037508187988505
143.0, 0.006827140584687145
144.0, 0.006230035389918732
145.0, 0.004887825527694238
146.0, 0.0033562778113287997
147.0, 0.00210811701570536
148.0, 0.0018293391422353228
149.0, 0.001866344103562393
150.0, 0.0018827251264212507
151.0, 0.0015476134626293615
152.0, 0.0005152496503487757
153.0, 0.0003984234289599061
154.0, 0.0007311569356067819
155.0, 0.0006158557925562915
156.0, 0.0006499145831447317
157.0, 0.0002560214199364131
158.0, 0.001249471220212684
159.0, 0.0022078339043845076
160.0, 0.0027148537154334435
161.0, 0.0030722375623267652
162.0, 0.0030139575457878895
163.0, 0.00303053397930872
164.0, 0.0036619167626934894
165.0, 0.0048241795173743045
166.0, 0.005863476925551313
167.0, 0.006927339090795224
168.0, 0.00791416205384524
169.0, 0.008289180922831655
170.0, 0.008613748590557253
171.0, 0.008982953874260725
172.0, 0.00900176273386908
173.0, 0.00853345923934715
174.0, 0.007767195411894529
175.0, 0.007071242202026998
176.0, 0.006679798757239123
177.0, 0.006764418545771966
178.0, 0.007426094456425568
179.0, 0.008929203727646485
180.0, 0.010505087625674382
181.0, 0.011994609813634424
182.0, 0.013901824132538402
183.0, 0.0159641157728873
184.0, 0.01850674163505132
185.0, 0.021190869474343035
186.0, 0.0233200610555301
187.0, 0.024847049928680497
188.0, 0.024891581224620905
189.0, 0.02375448413885836
190.0, 0.022055200793950933
191.0, 0.02014490572959285
192.0, 0.019007935501687865
193.0, 0.019052103307453282
194.0, 0.01998656345400052
195.0, 0.02129655283785256
196.0, 0.022644828657010906
197.0, 0.023168521631059025
198.0, 0.022010349699930994
199.0, 0.018884515408174648
200.0, 0.015515077240131538
201.0, 0.012675949264605281
202.0, 0.010608224902832888
203.0, 0.009285126720871523
204.0, 0.008351679631640747
205.0, 0.0075016864270091846
206.0, 0.006632652317500256
207.0, 0.00571940789853834
208.0, 0.004960616063326905
209.0, 0.004944511105069733
210.0, 0.005080730723150509
211.0, 0.005200766111967446
212.0, 0.005376894583480658
213.0, 0.005654111236459379
214.0, 0.005839427822324496
215.0, 0.005939157980850217
216.0, 0.005764393366386504
217.0, 0.005259340143846199
218.0, 0.0051013090402568335
219.0, 0.005221845118766274
220.0, 0.0056672195383718925
221.0, 0.006341781974739219
222.0, 0.0068569957570356575
223.0, 0.007241096539023673
224.0, 0.007443934056014915
225.0, 0.007416493679727469
226.0, 0.00710099136104624
227.0, 0.0062311078849772664
228.0, 0.005064055524640041
229.0, 0.004224353017978227
230.0, 0.003930027173913824
231.0, 0.0036458240754498957
232.0, 0.003542434872913423
233.0, 0.003917796680720674
234.0, 0.0044713013830189234
235.0, 0.00475989124106638
236.0, 0.00504152336994648
237.0, 0.005404774536738256
238.0, 0.005728758203501779
239.0, 0.0059922906798676465
240.0, 0.0065212044214695754
241.0, 0.006886718113695241
242.0, 0.007121141311219918
243.0, 0.007090869305110263
244.0, 0.0065201158460922995
245.0, 0.005892867775266636
246.0, 0.005219248718327998
247.0, 0.004682713312228085
248.0, 0.0043609321897149465
249.0, 0.004004101737712808
250.0, 0.003662727579979933
251.0, 0.0032661527653521766
252.0, 0.003089211209435093
253.0, 0.0032310874553948955
254.0, 0.0031145701754166544
255.0, 0.0029477996693347713
256.0, 0.0029511652846558154
257.0, 0.002903058770585126
258.0, 0.00252627322883999
259.0, 0.002666004291563769
260.0, 0.0028435521167177865
261.0, 0.002713134149104357
262.0, 0.0024009827422223616
263.0, 0.0025068990058930672
264.0, 0.0025595491703794553
265.0, 0.0025876020467719106
266.0, 0.002814610921779272
267.0, 0.003346085656988783
268.0, 0.0034584886961324516
269.0, 0.003539910451490106
270.0, 0.003635733866459473
271.0, 0.003675491695842516
272.0, 0.0036041262848130885
273.0, 0.0033372726485738978
274.0, 0.0029808196420641965
275.0, 0.002793056887107158
276.0, 0.002768738338743939
277.0, 0.002316623691437233
278.0, 0.0020027663512715015
279.0, 0.001754175835377891
280.0, 0.0013746452852721
281.0, 0.0008611633959281747
282.0, 0.0007785824460640293
283.0, 0.0007420242361443189
284.0, 0.0004249672417263328
285.0, 2.4022853665538477e-05
286.0, 0.0002349303885339078
287.0, 0.00019896688619091798
288.0, 0.00016187734865290307
289.0, 0.00016253595662069794
290.0, 5.028257722357939e-05
291.0, 0.00027987738242396656
292.0, 0.0004030665280336542
293.0, 0.0005148913632300959
294.0, 0.000834550903136616
295.0, 0.001290077462480634
296.0, 0.0012970383153440295
297.0, 0.0013638765016877046
298.0, 0.0013027263111573637
299.0, 0.001069169100068194
300.0, 0.0008355639904447446
301.0, 0.00030521882942117736
302.0, 0.0004164372076416697
303.0, 0.0011642310914925563
304.0, 0.0020212031456474343
305.0, 0.0033538480285358937
306.0, 0.004655243232679349
307.0, 0.005618461177352083
308.0, 0.006782950493303407
309.0, 0.008561934334117479
310.0, 0.009826259236928262
311.0, 0.011176575453099248
312.0, 0.01224546648627162
313.0, 0.013457019133182802
314.0, 0.01557622416095061
315.0, 0.01731148465923025
316.0, 0.01934471080165879
317.0, 0.022425410724025617
318.0, 0.025883295576184094
319.0, 0.02852605752677648
320.0, 0.03182427148922581
321.0, 0.03425861932167796
322.0, 0.035622035864263366
323.0, 0.03620497153515355
324.0, 0.036155054289194716
325.0, 0.036001550930808215
326.0, 0.03686295310153145
327.0, 0.0381626835104561
328.0, 0.03932344351153093
329.0, 0.04074183976461362
330.0, 0.04251181154259273
331.0, 0.044397926826406066
332.0, 0.047070067658005664
333.0, 0.05136697071580539
334.0, 0.05774305872203799
335.0, 0.06459233870625106
336.0, 0.07280711407800385
337.0, 0.08043665043771722
338.0, 0.08388187775977528
339.0, 0.08041035245309909
340.0, 0.0717652285265417
341.0, 0.059962281560028335
342.0, 0.04696671127362533
343.0, 0.03514364117980276
344.0, 0.026544313555436384
345.0, 0.02017309080061377
346.0, 0.01563490546063211
347.0, 0.012243935760841661
348.0, 0.009396227613535466
349.0, 0.008028016535062075
350.0, 0.0066738389453532155
351.0, 0.005322035413901832
352.0, 0.004236900177548804
353.0, 0.003432487316241489
354.0, 0.0025798964014190984
355.0, 0.0014612879627766697
356.0, 0.00038840106490512215
357.0, 0.0003334918572758607
358.0, 0.0006646393901312297
359.0, 0.0007032246193060599
360.0, 0.0009937222624412836
361.0, 0.0007678800273052872
362.0, 6.540402704009664e-05
363.0, 0.0006016839857628307
364.0, 0.001417734637220735
365.0, 0.002222111787326312
366.0, 0.0036154106241717953
367.0, 0.0055292089351662976
368.0, 0.007258961480098938
369.0, 0.0094294283816377
370.0, 0.01160810798163407
371.0, 0.013519161030745663
372.0, 0.014986209301653026
373.0, 0.015895382962657904
374.0, 0.016680995089168975
375.0, 0.016448847986882866
376.0, 0.015566720742273147
377.0, 0.014256973131769934
378.0, 0.01211375638330873
379.0, 0.010463705823790224
380.0, 0.009393480779883783
381.0, 0.008678754344217795
382.0, 0.008160436685477562
383.0, 0.007915655936932239
384.0, 0.008025746607376457
385.0, 0.00811762672180515
386.0, 0.008400668956881217
387.0, 0.008916087962374556
388.0, 0.009327090398536839
389.0, 0.009529678137681023
390.0, 0.009878324427913643
391.0, 0.010676757579618128
392.0, 0.011387053235619345
393.0, 0.011512178691153948
394.0, 0.011708635153671997
395.0, 0.012360072019157984
396.0, 0.012329561103329945
397.0, 0.011811495282694201
398.0, 0.011443433436547521
399.0, 0.010421741004320912
400.0, 0.009934359377375026
401.0, 0.009048179683833719
402.0, 0.008088289641140653
403.0, 0.007815399613949758
404.0, 0.007179113891410392
405.0, 0.006464518662415128
406.0, 0.00605500651557397
407.0, 0.005522190229973101
408.0, 0.004583648310718962
409.0, 0.004248666388901523
410.0, 0.0038079252665938553
411.0, 0.003311389563301534
412.0, 0.0028797050340820785
413.0, 0.0023883479571354367
414.0, 0.001637289644934359
415.0, 0.0019312883930183125
416.0, 0.0014306187956907696
417.0, 0.0009449548342393929
418.0, 0.0013187294685307062
419.0, 0.0018451112424864135
420.0, 0.0022666789113187473
421.0, 0.003381235673128166
422.0, 0.004909778431682408
423.0, 0.006526803867638994
424.0, 0.008458136874757235
425.0, 0.010828696627171274
426.0, 0.013134844325818696
427.0, 0.015249137005929482
428.0, 0.01756975652533768
429.0, 0.020267722482941803
430.0, 0.022835558615324953
431.0, 0.02579034552390383
432.0, 0.028742401054686412
433.0, 0.03188932631638541
434.0, 0.035185817268571715
435.0, 0.0378723863010013
436.0, 0.04001640825660077
437.0, 0.041630123546160275
438.0, 0.04259598044059763
439.0, 0.043061782764425516
440.0, 0.04330930887979868
441.0, 0.04241093092542196
442.0, 0.04107515429439098
443.0, 0.04006078445046309
444.0, 0.03860936849620559
445.0, 0.03554687374181614
446.0, 0.03297925084364599
447.0, 0.02987503778958339
448.0, 0.02710881772589935
449.0, 0.02491383956325291
450.0, 0.023249509113178954
451.0, 0.022671942534945224
452.0, 0.02237712415338263
453.0, 0.022615370335308714
454.0, 0.023392338083379875
455.0, 0.02445347189676095
456.0, 0.02539985079746991
457.0, 0.025976251063051212
458.0, 0.02707138720945091
459.0, 0.028071695105737433
460.0, 0.028416071204175167
461.0, 0.028117078700322307
462.0, 0.02801021741854259
463.0, 0.02836775763978135
464.0, 0.028908725175933573
465.0, 0.02937565816186848
466.0, 0.029850904215416703
467.0, 0.03055730137113439
468.0, 0.030723731631783303
469.0, 0.03062248084193874
470.0, 0.03011527855031522
471.0, 0.029665251208231873
472.0, 0.030054444430233078
473.0, 0.02910626520017092
474.0, 0.02828942341024443
475.0, 0.02785335137382834
476.0, 0.027202374616227855
477.0, 0.025737387452209125
478.0, 0.023768427106000207
479.0, 0.02157397908148274
480.0, 0.018928366374288644
481.0, 0.01588141850116289
482.0, 0.012978561571817966
483.0, 0.010653690082287455
484.0, 0.008554660287407964
485.0, 0.007020952031137884
486.0, 0.005704990340425138
487.0, 0.004575711926298415
488.0, 0.0037238874359162484
489.0, 0.0030017975281868363
490.0, 0.0025531891946142986
491.0, 0.0022676270088222445
492.0, 0.0020274425713134882
493.0, 0.001853439342792613
494.0, 0.0018309728025403703
495.0, 0.0018432637603248995
496.0, 0.0017388416791220688
497.0, 0.0020687689797106545
498.0, 0.0024567587857570908
499.0, 0.002509501312894193
500.0, 0.0025780995514595503
501.0, 0.00239445251831644
502.0, 0.002253863988836562
503.0, 0.002232316612915286
504.0, 0.0020576014793064886
505.0, 0.0015671975314786783
506.0, 0.0012489623329383236
507.0, 0.000967862548999311
508.0, 0.0008694242282803146
509.0, 0.0007781356611150522
510.0, 0.0005446931644126695
511.0, 0.000248981312055666
512.0, 0.00032701533290150877
513.0, 0.00024312833840505065
514.0, 0.0001756372672451292
515.0, 0.0003852958449961611
516.0, 0.0006289214303505827
517.0, 0.0007982832627504404
518.0, 0.0006674247725213027
519.0, 0.0007864633911384113
520.0, 0.0008829340667263048
521.0, 0.0008094865169599755
522.0, 0.0007510637757506705
523.0, 0.000663132608163951
524.0, 0.0007511740167844425
525.0, 0.0007853688885496531
526.0, 0.0007045481748939765
527.0, 0.0005881375234913332
528.0, 0.0005140424579757263
529.0, 0.0003389383813970839
530.0, 0.00010821974193881312
531.0, 4.5869507318441546e-05
532.0, 4.423801336430477e-05
533.0, 9.076262691617964e-05
534.0, 0.00029028522322683225
535.0, 0.00037229995519571125
536.0, 0.0004771516996276039
537.0, 0.0005796435664844259
538.0, 0.0006493562852018721
539.0, 0.0007148662903003588
540.0, 0.000921814533231975
541.0, 0.0011111653383497667
542.0, 0.0012619339646977269
543.0, 0.0013430552853051123
544.0, 0.001471554899535805
545.0, 0.0016879466250088865
546.0, 0.0015405924936592664
547.0, 0.0016724808001738183
548.0, 0.001843635502628166
549.0, 0.0019489104791647507
550.0, 0.002038089255306027
551.0, 0.0021439232463077527
552.0, 0.0021210445149574897
553.0, 0.002319899454875337
554.0, 0.002443307767668342
555.0, 0.002456111942211485
556.0, 0.0025336003199625473
557.0, 0.002746789920434376
558.0, 0.002797819690170291
559.0, 0.002933743311775919
560.0, 0.002930392655309226
561.0, 0.0029810262078303327
562.0, 0.0031740858665958247
563.0, 0.0031175344613544706
564.0, 0.003285649620775772
565.0, 0.003466198914097661
566.0, 0.0035089982706885538
567.0, 0.00346163166465087
568.0, 0.0034732440371327664
569.0, 0.0036664194589216266
570.0, 0.0037072617035829344
571.0, 0.0036427984852598198
572.0, 0.0037863092347425794
573.0, 0.003817247003851012
574.0, 0.003569484760984842
575.0, 0.0035990176485494007
576.0, 0.003500755612673605
577.0, 0.0034283496870282583
578.0, 0.0033401558276402385
579.0, 0.0032750221699975267
580.0, 0.0032387580645327142
581.0, 0.003066948360725055
582.0, 0.0029735212859198744
583.0, 0.0027709492660940513
584.0, 0.002567039063426057
585.0, 0.0024258920559051805
586.0, 0.002319965529296606
587.0, 0.002271250913111135
588.0, 0.0022773776055079464
589.0, 0.0020342310780080714
590.0, 0.0020501482280978144
591.0, 0.002167630810593066
592.0, 0.0020599787864077944
593.0, 0.0018648204440971032
594.0, 0.0018286745813533727
595.0, 0.001815026252117544
596.0, 0.0018601530949157194
597.0, 0.0018262184351911822
598.0, 0.0016792410864754118
599.0, 0.001646455189770182
600.0, 0.0016472183315619417
601.0, 0.0015817750688828524
602.0, 0.001565335873830317
603.0, 0.0015358867245926799
604.0, 0.0015546650174619115
605.0, 0.0017864003793015943
606.0, 0.0016385432824947992
607.0, 0.0016959392740558247
608.0, 0.001718844341608161
609.0, 0.0016232409027387273
610.0, 0.0014929467690841917
611.0, 0.001411424515414832
612.0, 0.0012964723276228658
613.0, 0.001456603506481184
614.0, 0.0013634352982557114
615.0, 0.001297451666852223
616.0, 0.0012917755422928053
617.0, 0.0012443666747765357
618.0, 0.0015251669615150255
619.0, 0.0015121425257038684
620.0, 0.0014251939234704188
621.0, 0.0014041320479150495
622.0, 0.0013461300271706033
623.0, 0.0012272148067701426
624.0, 0.0012726993132242692
625.0, 0.0012559893026683655
626.0, 0.0012603332847529692
627.0, 0.0011241729949932927
628.0, 0.001062226143026573
629.0, 0.0011062148828738022
630.0, 0.0010668404099303146
631.0, 0.0011016220992672294
632.0, 0.001208581820760589
633.0, 0.0011211228036530992
634.0, 0.0009383992130663347
635.0, 0.0009065106092983872
636.0, 0.0010803551696716058
637.0, 0.0011369850242394822
638.0, 0.0010753692390662072
639.0, 0.0010966729312774323
640.0, 0.0011508361947100032
641.0, 0.0011282257956910945
642.0, 0.0010215321957693533
643.0, 0.0009403889891038006
644.0, 0.0010627807604331656
645.0, 0.0010421428975356485
646.0, 0.001145109597890098
647.0, 0.0011222704124882739
648.0, 0.0010528002708132987
649.0, 0.0011477513671206347
650.0, 0.0011289516607212993
651.0, 0.001194789823619052
652.0, 0.0012898233504657255
653.0, 0.0013059885071904907
654.0, 0.0013708471798875533
655.0, 0.0014675567718106185
656.0, 0.0014325995975498422
657.0, 0.0015079015861300415
658.0, 0.001532058810947458
659.0, 0.0014637709416155456
660.0, 0.0016049528648793424
661.0, 0.0017024709931254775
662.0, 0.0015719727121000875
663.0, 0.0016615539414053752
664.0, 0.0017969874795594962
665.0, 0.0017992042916006059
666.0, 0.0018360748528702096
667.0, 0.0020460588328634617
668.0, 0.002266314971692902
669.0, 0.0022851511159068505
670.0, 0.0022946975312966443
671.0, 0.0023018116414219255
672.0, 0.002200792305684627
673.0, 0.002523188829294233
674.0, 0.0026734177612539236
675.0, 0.0023258498209499574
676.0, 0.0021719327157086127
677.0, 0.002317131222752626
678.0, 0.002524049359992462
679.0, 0.002438944721830957
680.0, 0.002447388641028331
681.0, 0.0025506514963792057
682.0, 0.0024704399808043605
683.0, 0.0025145589155094036
684.0, 0.0024574591659872803
685.0, 0.002645761257268771
686.0, 0.0026667484927488027
687.0, 0.002518433283148672
688.0, 0.002518405300469097
689.0, 0.002795278074598797
690.0, 0.0030106955596277893
691.0, 0.0030203647367993123
692.0, 0.002896231234750617
693.0, 0.0031244154835497937
694.0, 0.0034627870276387794
695.0, 0.0035413709298818697
696.0, 0.0036245633897088346
697.0, 0.0038640607175891083
698.0, 0.004081403159006013
699.0, 0.004511434674108175
700.0, 0.00481147156704186
701.0, 0.00492234198708305
702.0, 0.005094753725114833
703.0, 0.0054876046756555845
704.0, 0.0058234999364953945
705.0, 0.006083489403286375
706.0, 0.006261024107849569
707.0, 0.006589619943355404
708.0, 0.006894057381919143
709.0, 0.007143148925351658
710.0, 0.007588733684053714
711.0, 0.007894754283136931
712.0, 0.008087904520128301
713.0, 0.00791069965609772
714.0, 0.008076753342914278
715.0, 0.008309229905587934
716.0, 0.008195512240136106
717.0, 0.008072643497769634
718.0, 0.00762787382184587
719.0, 0.007386259971728613
720.0, 0.007141955025916017
721.0, 0.006864909255413982
722.0, 0.006562242372063801
723.0, 0.006242976295392658
724.0, 0.005877964661507588
725.0, 0.00532102089892333
726.0, 0.004945763437501943
727.0, 0.004492671162895698
728.0, 0.004340636750067283
729.0, 0.004128886247434452
730.0, 0.0036910700376642843
731.0, 0.003463879542616371
732.0, 0.0035950005039640464
733.0, 0.003317923648413721
734.0, 0.0028492514525370587
735.0, 0.0025935829641454194
736.0, 0.0025458949088745433
737.0, 0.002540000275240568
738.0, 0.0024106233549564273
739.0, 0.0020045726910756304
740.0, 0.0019276285058936467
741.0, 0.001889437210168125
742.0, 0.001588883171218108
743.0, 0.0012327068405061363
744.0, 0.0009659624315969553
745.0, 0.0007996609042002458
746.0, 0.0007878661995510778
747.0, 0.00013632018811321898
748.0, 0.00030817873818150793
749.0, 0.00033767637382986444
750.0, 5.1020937951573516e-05
751.0, 0.00018416395584768452
752.0, 0.00028949956014361457
753.0, 0.00039775814977471564
754.0, 0.0006937893992794231
755.0, 0.0007883734020958101
756.0, 0.0009889413152352274
757.0, 0.0011568394993024872
758.0, 0.0010990607434312404
759.0, 0.0010193714550493847
760.0, 0.0012141172030447757
761.0, 0.0014768981753715384
762.0, 0.0015935382619525983
763.0, 0.0015619170316969585
764.0, 0.0016621418952651068
765.0, 0.0016686230963768513
766.0, 0.0017488062297220197
767.0, 0.0019457774118496964
768.0, 0.0017721680031611833
769.0, 0.0016999628102834562
770.0, 0.0016561426381149838
771.0, 0.0015653729963881731
772.0, 0.0016268607336552326
773.0, 0.0015932714853107834
774.0, 0.0013291567062137257
775.0, 0.001035149915322148
776.0, 0.0006131672409499928
777.0, 0.00012639949600873524
778.0, 0.0003585230421205093
779.0, 0.0010988065069412309
780.0, 0.001947709419849671
781.0, 0.0028844953878888312
782.0, 0.003976678826603252
783.0, 0.005089973042813929
784.0, 0.0064644875646076416
785.0, 0.008115979148755751
786.0, 0.010147532505006124
787.0, 0.011846125441988169
788.0, 0.013762134290999081
789.0, 0.016584102288956366
790.0, 0.01986763298492339
791.0, 0.02302656815735228
792.0, 0.026762362828431717
793.0, 0.02997341498494443
794.0, 0.033646923052218315
795.0, 0.03736382166289277
796.0, 0.04113900947320765
797.0, 0.0451098240573547
798.0, 0.04844585708206605
799.0, 0.05038462526212313
800.0, 0.05330615632955671
801.0, 0.055304297558086656
802.0, 0.05734341990014026
803.0, 0.060850514726147775
804.0, 0.06528027892155516
805.0, 0.07055516782672931
806.0, 0.07804128057696898
807.0, 0.08775476098555039
808.0, 0.09891707554460036
809.0, 0.11229361253538837
810.0, 0.1272307708259978
811.0, 0.14338419307503472
812.0, 0.15979601917572467
813.0, 0.17645683863872813
814.0, 0.19323114153839774
815.0, 0.2068014633328177
816.0, 0.22110316869346153
817.0, 0.2373028599775941
818.0, 0.25724325225528066
819.0, 0.281762404065336
820.0, 0.3127812440942339
821.0, 0.350324872622576
822.0, 0.3914757280634632
823.0, 0.43441285109769073
824.0, 0.47546134769328263
825.0, 0.506846558680157
826.0, 0.5293961747144758
827.0, 0.5463265179340295
828.0, 0.5675867494184321
829.0, 0.6012707032495362
830.0, 0.6482885727496988
831.0, 0.7068619497121132
832.0, 0.7758477456469105
833.0, 0.8412722404000782
834.0, 0.8988064436171382
835.0, 0.9498666490597514
836.0, 0.9859742266060763
837.0, 0.9999974695145614
838.0, 0.989948088548521
839.0, 0.9513362019343262
840.0, 0.8869931070579328
841.0, 0.805020150687304
842.0, 0.7220508531797851
843.0, 0.6458980925588099
844.0, 0.5818345105671985
845.0, 0.5285457212194025
846.0, 0.4806489208768567
847.0, 0.4345848050650928
848.0, 0.3869743733833798
849.0, 0.33803358744755757
850.0, 0.29296987308515
851.0, 0.2511555571838618
852.0, 0.21678374533698286
853.0, 0.18787262043809852
854.0, 0.1637038182161392
855.0, 0.1464018141735774
856.0, 0.1333453312464169
857.0, 0.12342988371835921
858.0, 0.11640818710060193
859.0, 0.11109431104513734
860.0, 0.10701927861740014
861.0, 0.10285755019544963
862.0, 0.09860866392518644
863.0, 0.09441204494126418
864.0, 0.09010469572964155
865.0, 0.0878102140370133
866.0, 0.08419031394634281
867.0, 0.08070541793985364
868.0, 0.07726936928969735
869.0, 0.07391352701294114
870.0, 0.07071349230882154
871.0, 0.06821981959183993
872.0, 0.06644573563301091
873.0, 0.06431517946756485
874.0, 0.06210613052192193
875.0, 0.05997771277285056
876.0, 0.058524833742426924
877.0, 0.057505492229453725
878.0, 0.055704204526622225
879.0, 0.05478389113945658
880.0, 0.055149186439819836
881.0, 0.05570843062601887
882.0, 0.057004462445021026
883.0, 0.058128705269022085
884.0, 0.05927229753618507
885.0, 0.06065397644936617
886.0, 0.060241086166225526
887.0, 0.05901286730629478
888.0, 0.05791493979239727
889.0, 0.056295986104424496
890.0, 0.05390718476817302
891.0, 0.05208385741021107
892.0, 0.05026721344076931
893.0, 0.047282697078345634
894.0, 0.0438200507588425
895.0, 0.040587308623117685
896.0, 0.03719030790256621
897.0, 0.03366110056819696
898.0, 0.030410777384032486
899.0, 0.027568481819400813
900.0, 0.02518737239912804
901.0, 0.023300973952564533
902.0, 0.021462432629913996
903.0, 0.01975791277373498
904.0, 0.018164957571464066
905.0, 0.016897497576968217
906.0, 0.01581090141293124
907.0, 0.01426015694947167
908.0, 0.012358205619008893
909.0, 0.01103200973497022
910.0, 0.009385709457425565
911.0, 0.007922284205854654
912.0, 0.006694852954036357
913.0, 0.0058826668776010916
914.0, 0.0043651496385684885
915.0, 0.003246384688487768
916.0, 0.002602059644884926
917.0, 0.0016458681871008283
918.0, 0.0008963692791671192
919.0, 0.00018669877275299327
920.0, 0.00036145196806519365
921.0, 0.0008926532911892126
922.0, 0.0012230102316540768
923.0, 0.0016418799775442107
924.0, 0.0018970189944094757
925.0, 0.002110746733725372
926.0, 0.002262199883469114
927.0, 0.0022326906885893182
928.0, 0.0022566565208630564
929.0, 0.002064110491739893
930.0, 0.002227045798173417
931.0, 0.0022422904191942974
932.0, 0.002075619711566365
933.0, 0.0020128610169662196
934.0, 0.0017098451637572619
935.0, 0.0013614290905134432
936.0, 0.0012535774536307053
937.0, 0.0010896237204980654
938.0, 0.0009646461575166094
939.0, 0.0007503785867747193
940.0, 0.00034429926647590786
941.0, 0.00024092317023374256
942.0, 2.880101201162154e-05
943.0, 3.9017069772582564e-05
944.0, 0.00038466835860807055
945.0, 0.0007192780129239552
946.0, 0.0007418059740837064
947.0, 0.0008257878118919042
948.0, 0.000999019588111679
949.0, 0.0013734044240421037
950.0, 0.0014187426208194342
951.0, 0.0017436313597413865
952.0, 0.0019711022989117666
953.0, 0.0019327872496502133
954.0, 0.001991627394171242
955.0, 0.0019200815895527464
956.0, 0.0017518099418620161
957.0, 0.0019858189068395113
958.0, 0.002080454015949802
959.0, 0.0022802857184814314
960.0, 0.0021633898220298066
961.0, 0.002156131654569152
962.0, 0.0024145925207753865
963.0, 0.0025651009035348054
964.0, 0.0028542615937295675
965.0, 0.0031332109141473633
966.0, 0.003202317250933108
967.0, 0.003212434808418927
968.0, 0.00312373611025645
969.0, 0.003592258889116992
970.0, 0.003697096869323882
971.0, 0.0038160402579490004
972.0, 0.003941521847880934
973.0, 0.003991179481884351
974.0, 0.004183860787584726
975.0, 0.004513575036655892
976.0, 0.004733402712712898
977.0, 0.0048483214984712
978.0, 0.0050047554758066515
979.0, 0.005105708040370339
980.0, 0.005168568382420849
981.0, 0.005109243809895353
982.0, 0.005287698064826369
983.0, 0.005166907356338704
984.0, 0.00504232321150252
985.0, 0.005034896999221736
986.0, 0.005070328289046695
987.0, 0.0051233369153608046
988.0, 0.0050126300022311585
989.0, 0.004726779461864668
990.0, 0.004571275015989706
991.0, 0.004344679828554252
992.0, 0.004315694255858786
993.0, 0.004358153369774298
994.0, 0.004344728103544708
995.0, 0.004224638859325926
996.0, 0.004064139682009331
997.0, 0.003952555585967002
998.0, 0.003914927736230613
999.0, 0.0038835855535700793
1000.0, 0.0038491894305772273
1001.0, 0.0038294946754823646
1002.0, 0.003811945102892715
1003.0, 0.00394646857065408
1004.0, 0.003916173552111983
1005.0, 0.003997217589207358
1006.0, 0.0038410426341434255
1007.0, 0.003821202972806073
1008.0, 0.003747466918997696
1009.0, 0.0035778600335938235
1010.0, 0.0036863626587635675
1011.0, 0.0038345787442666383
1012.0, 0.003741103562190035
1013.0, 0.00370027913222373
1014.0, 0.0036602007812160573
1015.0, 0.003696370948961934
1016.0, 0.0036444872712806456
1017.0, 0.003476307338101447
1018.0, 0.003442539498691465
1019.0, 0.0033512877525927747
1020.0, 0.0031348733344340246
1021.0, 0.0030422348100307647
1022.0, 0.0030116467204995188
1023.0, 0.0027710287729384646
1024.0, 0.002682811777911304
1025.0, 0.00270790302183846
1026.0, 0.0025248796495481673
1027.0, 0.002327032867468662
1028.0, 0.0023829020500448607
1029.0, 0.0021964761455727185
1030.0, 0.0021950712527007196
1031.0, 0.0022651559669450857
1032.0, 0.0020550493854569456
1033.0, 0.0018296706622147616
1034.0, 0.0017543251908252225
1035.0, 0.0018293941271604493
1036.0, 0.001596533302366109
1037.0, 0.0015504860184466823
1038.0, 0.0015746211734201363
1039.0, 0.0015355886127097153
1040.0, 0.0014046596662852008
1041.0, 0.0013146887334576677
1042.0, 0.0013943624729235383
1043.0, 0.001238471818492464
1044.0, 0.0011244190697106153
1045.0, 0.0012901972522534636
1046.0, 0.0011556221785716124
1047.0, 0.0009800638132650594
1048.0, 0.0007941510111435497
1049.0, 0.0009616807182137993
1050.0, 0.000999632907203583
1051.0, 0.0008121185284903994
1052.0, 0.0009897868628771908
1053.0, 0.0009263119963046268
1054.0, 0.0009349506027984085
1055.0, 0.0008122291564302843
1056.0, 0.000673453485146833
1057.0, 0.000722167475582048
1058.0, 0.0007475393318259048
1059.0, 0.0007020610243908805
1060.0, 0.0006483041896426801
1061.0, 0.0006874704260725275
1062.0, 0.0005172482608974398
1063.0, 0.0005355923518862853
1064.0, 0.0005490401268234588
1065.0, 0.0006218267438074683
1066.0, 0.0006403286340976128
1067.0, 0.0005817964778035566
1068.0, 0.0005632688677235111
1069.0, 0.0005517803766114512
1070.0, 0.000516751428601433
1071.0, 0.0004346521464291767
1072.0, 0.00033437881293624114
1073.0, 0.0004502244572505066
1074.0, 0.0003675761317071477
1075.0, 0.00027946237349742934
1076.0, 0.00035148186628546025
1077.0, 0.00044808668765420213
1078.0, 0.000533043727524677
1079.0, 0.000365974718601396
1080.0, 0.0003764704026671215
1081.0, 0.00034377847363589487
1082.0, 0.0003073601392613622
1083.0, 0.0003419645564581772
1084.0, 0.00028303942337699027
1085.0, 0.0002518751805402497
1086.0, 0.0002283874469783304
1087.0, 0.00018833203274033243
1088.0, 0.000305272751942037
1089.0, 0.0001292665104683996
1090.0, 0.00023310265573940413
1091.0, 0.00012137740070295385
1092.0, 0.0002920337231105906
1093.0, 0.0002249073162091121
1094.0, 0.00026446286818364154
1095.0, 0.0002030141457229571
1096.0, 0.0002376114049744041
1097.0, 0.000332114886924045
1098.0, 0.00010036519496758966
1099.0, 3.136840986751683e-05
1100.0, 0.00016830728409131737
1101.0, 0.00020121202034378008
1102.0, 0.0001640647828546342
1103.0, 0.00023187553703656492
1104.0, 0.00022826173345360257
1105.0, 0.00026643211060508367
1106.0, 0.00023654816072307035
1107.0, 0.00012951280800337642
1108.0, 0.0003149933124888928
1109.0, 0.00024707430198584704
1110.0, 0.00011222269749195823
1111.0, 0.00020500327206741129
1112.0, 0.00011312633146880369
1113.0, 7.423234348626125e-05
1114.0, 3.416782991391813e-05
1115.0, 8.389990972710305e-05
1116.0, 1.5730711082721575e-05
1117.0, 3.5848579561862924e-05
1118.0, 7.697182145683852e-05
1119.0, 3.107700486474913e-05
1120.0, 6.647086566566615e-05
1121.0, 2.894390320711077e-05
1122.0, 4.533705055098486e-05
1123.0, 4.918092746304383e-05
1124.0, 0.00014449290394665478
1125.0, 8.530202525601816e-05
1126.0, 0.00014999076767470575
1127.0, 7.195595784832313e-05
1128.0, 7.368522425507985e-05
1129.0, 0.00015706647703579664
1130.0, 0.0001506645794693093
1131.0, 5.1690747192492315e-05
1132.0, 3.527226476781574e-05
1133.0, 7.226858616007163e-05
1134.0, 8.325770153014603e-05
1135.0, 0.00012044767471084266
1136.0, 0.000100980983800774
1137.0, 0.00010691797049897737
1138.0, 5.435511523365971e-05
1139.0, 5.153688163203292e-05
1140.0, 5.803710285509733e-05
1141.0, 4.687022113293602e-05
1142.0, 1.1580624383548363e-05
1143.0, 0.0001323927364928483
1144.0, 0.0001440804213151042
1145.0, 3.651526029417074e-05
1146.0, 0.0002098563163202659
1147.0, 8.460057495929333e-05
1148.0, 0.00023740538186889818
1149.0, 9.951782335069398e-05
1150.0, 2.5397990380384864e-05
1151.0, 9.972402376992389e-05
1152.0, 3.34186648328311e-05
1153.0, 0.00014237912586253574
1154.0, 3.842933310874447e-05
1155.0, 1.1411587556816055e-05
1156.0, 2.7069378522672795e-05
1157.0, 0.00013502194430852223
1158.0, 7.602428285920912e-05
1159.0, 6.986022488286383e-05
1160.0, 0.0001018153272439921
1161.0, 0.0001113064081767601
1162.0, 4.6353461252783494e-05
1163.0, 0.0002167365205209808
1164.0, 0.00014505548100268243
1165.0, 0.0001640646982016283
1166.0, 7.753432505827517e-05
1167.0, 0.00016323879393842326
1168.0, 4.717949605169728e-05
1169.0, 5.843423542598735e-06
1170.0, 0.00021321257572085337
1171.0, 0.00030749655814992925
1172.0, 0.00020411594194453492
1173.0, 7.878110899721142e-05
1174.0, 4.3415989797893146e-05
1175.0, 6.22220276558925e-05
1176.0, 0.00010340218950242785
1177.0, 0.00015318339987224782
1178.0, 0.00015560558848934467
1179.0, 6.986752247141332e-05
1180.0, 4.988963192958407e-05
1181.0, 0.00020371050324372898
1182.0, 0.00014650642370257915
1183.0, 0.0002672220190380687
1184.0, 9.895805612197916e-06
1185.0, 4.5069667935472846e-05
1186.0, 8.374434667598445e-05
1187.0, 3.5806367646277885e-05
1188.0, 3.567167069033537e-05
1189.0, 0.00014476492131415864
1190.0, 0.00010877718746585399
1191.0, 0.0001372081653450955
1192.0, 0.00010678128277992287
1193.0, 0.00012939374050214783
1194.0, 0.00019586362655713447
1195.0, 0.0001479968529063535
1196.0, 8.76622936322743e-05
1197.0, 1.2496595822992835e-05
1198.0, 3.866641593386976e-05
1199.0, 3.500881127193183e-05
1200.0, 0.0001908000659164597
1201.0, 2.7891523748811103e-05
1202.0, 0.00015607282884052377
1203.0, 0.00019866204325004455
1204.0, 0.00020671326199362783
1205.0, 0.0001433724964522541
1206.0, 4.191482148347614e-05
1207.0, 0.00010718606084411986
1208.0, 0.00017412921858618854
1209.0, 0.0001059528801091325
1210.0, 9.042945506321652e-05
1211.0, 0.00018329580701237103
1212.0, 3.754731578631093e-05
1213.0, 0.0001165026694984713
1214.0, 0.0002227783875251397
1215.0, 9.170034451714278e-05
1216.0, 0.00012258794362301855
1217.0, 0.00029266043035251554
1218.0, 0.00025305799979243954
1219.0, 7.501486670725354e-05
1220.0, 2.872352588823627e-05
1221.0, 0.00019576487539563163
1222.0, 0.00025452461633484954
1223.0, 0.0003242941211134808
1224.0, 0.00033370310235949076
1225.0, 0.0002674356515716257
1226.0, 0.0003306721000117187
1227.0, 1.319874525029221e-05
1228.0, 0.00022240079794686205
1229.0, 0.000381550309726661
1230.0, 0.00017751986445665533
1231.0, 0.0001599073270004742
1232.0, 5.699575002260227e-05
1233.0, 0.00013624085796169776
1234.0, 0.00017601596325609852
1235.0, 0.00021879846637124986
1236.0, 0.0002668554526536916
1237.0, 0.00023205009877671058
1238.0, 0.000244004544768132
1239.0, 0.00014958458883208853
1240.0, 0.00013271830726693107
1241.0, 0.0001550302109794578
1242.0, 8.778689910313368e-05
1243.0, 0.00012834562076776201
1244.0, 0.00025585275886544335
1245.0, 0.00042168102052414817
1246.0, 0.00029315388956271233
1247.0, 0.00017367132552823962
1248.0, 0.00017765081998522824
1249.0, 0.0002304128719209692
1250.0, 0.0003941404624117686
1251.0, 0.00041864679716768576
1252.0, 0.0002012298773611847
1253.0, 0.00028052225237301627
1254.0, 9.227722881236554e-05
1255.0, 0.00024586362217197223
1256.0, 0.00038644863132527104
1257.0, 0.00033175294976253993
1258.0, 0.00018860804748370988
1259.0, 5.6250163157225874e-05
1260.0, 0.00011829302349194077
1261.0, 0.00014423021404374786
1262.0, 7.989361687442593e-05
1263.0, 9.397903120951196e-05
1264.0, 0.00015023702288317827
1265.0, 0.00021479007969135025
1266.0, 0.0002467468237449139
1267.0, 0.00014511742849093284
1268.0, 5.687610920698016e-05
1269.0, 0.00014371109322180198
1270.0, 0.0002479308864806949
1271.0, 0.0002274387365816768
1272.0, 0.00025908769544863663
1273.0, 0.00030141712770968
1274.0, 5.0010621664139915e-05
1275.0, 0.00019678896002891892
1276.0, 0.0002286785373922297
1277.0, 6.952721396187318e-05
1278.0, 0.00021718071695161313
1279.0, 8.761227323966234e-05
1280, 0.0
1281, 0.0
1282, 0.0
1283, 0.0
1284, 0.0
1285, 0.0
1286, 0.0
1287, 0.0
1288, 0.0
1289, 0.0
1290, 0.0
1291, 0.0
1292, 0.0
1293, 0.0
1294, 0.0
1295, 0.0
1296, 0.0
1297, 0.0
1298, 0.0
1299, 0.0
1300, 0.0
1301, 0.0
1302, 0.0
1303, 0.0
1304, 0.0
1305, 0.0
1306, 0.0
1307, 0.0
1308, 0.0
1309, 0.0
1310, 0.0
1311, 0.0
1312, 0.0
1313, 0.0
1314, 0.0
1315, 0.0
1316, 0.0
1317, 0.0
1318, 0.0
1319, 0.0
1320, 0.0
1321, 0.0
1322, 0.0
1323, 0.0
1324, 0.0
1325, 0.0
1326, 0.0
1327, 0.0
1328, 0.0
1329, 0.0
1330, 0.0
1331, 0.0
1332, 0.0
1333, 0.0
1334, 0.0
1335, 0.0
1336, 0.0
1337, 0.0
1338, 0.0
1339, 0.0
1340, 0.0
1341, 0.0
1342, 0.0
1343, 0.0
1344, 0.0
1345, 0.0
1346, 0.0
1347, 0.0
1348, 0.0
1349, 0.0
1350, 0.0
1351, 0.0
1352, 0.0
1353, 0.0
1354, 0.0
1355, 0.0
1356, 0.0
1357, 0.0
1358, 0.0
1359, 0.0
1360, 0.0
1361, 0.0
1362, 0.0
1363, 0.0
1364, 0.0
1365, 0.0
1366, 0.0
1367, 0.0
1368, 0.0
1369, 0.0
1370, 0.0
1371, 0.0
1372, 0.0
1373, 0.0
1374, 0.0
1375, 0.0
1376, 0.0
1377, 0.0
1378, 0.0
1379, 0.0
1380, 0.0
1381, 0.0
1382, 0.0
1383, 0.0
1384, 0.0
1385, 0.0
1386, 0.0
1387, 0.0
1388, 0.0
1389, 0.0
1390, 0.0
1391, 0.0
1392, 0.0
1393, 0.0
1394, 0.0
1395, 0.0
1396, 0.0
1397, 0.0
1398, 0.0
1399, 0.0
1400, 0.0
1401, 0.0
1402, 0.0
1403, 0.0
1404, 0.0
1405, 0.0
1406, 0.0
1407, 0.0
1408, 0.0
1409, 0.0
1410, 0.0
1411, 0.0
1412, 0.0
1413, 0.0
1414, 0.0
1415, 0.0
1416, 0.0
1417, 0.0
1418, 0.0
1419, 0.0
1420, 0.0
1421, 0.0
1422, 0.0
1423, 0.0
1424, 0.0
1425, 0.0
1426, 0.0
1427, 0.0
1428, 0.0
1429, 0.0
1430, 0.0
1431, 0.0
1432, 0.0
1433, 0.0
1434, 0.0
1435, 0.0
1436, 0.0
1437, 0.0
1438, 0.0
1439, 0.0
1440, 0.0
1441, 0.0
1442, 0.0
1443, 0.0
1444, 0.0
1445, 0.0
1446, 0.0
1447, 0.0
1448, 0.0
1449, 0.0
1450, 0.0
1451, 0.0
1452, 0.0
1453, 0.0
1454, 0.0
1455, 0.0
1456, 0.0
1457, 0.0
1458, 0.0
1459, 0.0
1460, 0.0
1461, 0.0
1462, 0.0
1463, 0.0
1464, 0.0
1465, 0.0
1466, 0.0
1467, 0.0
1468, 0.0
1469, 0.0
1470, 0.0
1471, 0.0
1472, 0.0
1473, 0.0
1474, 0.0
1475, 0.0
1476, 0.0
1477, 0.0
1478, 0.0
1479, 0.0
1480, 0.0
1481, 0.0
1482, 0.0
1483, 0.0
1484, 0.0
1485, 0.0
1486, 0.0
1487, 0.0
1488, 0.0
1489, 0.0
1490, 0.0
1491, 0.0
1492, 0.0
1493, 0.0
1494, 0.0
1495, 0.0
1496, 0.0
1497, 0.0
1498, 0.0
1499, 0.0
1500, 0.0
1501, 0.0
1502, 0.0
1503, 0.0
1504, 0.0
1505, 0.0
1506, 0.0
1507, 0.0
1508, 0.0
1509, 0.0
1510, 0.0
1511, 0.0
1512, 0.0
1513, 0.0
1514, 0.0
1515, 0.0
1516, 0.0
1517, 0.0
1518, 0.0
1519, 0.0
1520, 0.0
1521, 0.0
1522, 0.0
1523, 0.0
1524, 0.0
1525, 0.0
1526, 0.0
1527, 0.0
1528, 0.0
1529, 0.0
1530, 0.0
1531, 0.0
1532, 0.0
1533, 0.0
1534, 0.0
1535, 0.0
1536, 0.0
1537, 0.0
1538, 0.0
1539, 0.0
1540, 0.0
1541, 0.0
1542, 0.0
1543, 0.0
1544, 0.0
1545, 0.0
1546, 0.0
1547, 0.0
1548, 0.0
1549, 0.0
1550, 0.0
1551, 0.0
1552, 0.0
1553, 0.0
1554, 0.0
1555, 0.0
1556, 0.0
1557, 0.0
1558, 0.0
1559, 0.0
1560, 0.0
1561, 0.0
1562, 0.0
1563, 0.0
1564, 0.0
1565, 0.0
1566, 0.0
1567, 0.0
1568, 0.0
1569, 0.0
1570, 0.0
1571, 0.0
1572, 0.0
1573, 0.0
1574, 0.0
1575, 0.0
1576, 0.0
1577, 0.0
1578, 0.0
1579, 0.0
1580, 0.0
1581, 0.0
1582, 0.0
1583, 0.0
1584, 0.0
1585, 0.0
1586, 0.0
1587, 0.0
1588, 0.0
1589, 0.0
1590, 0.0
1591, 0.0
1592, 0.0
1593, 0.0
1594, 0.0
1595, 0.0
1596, 0.0
1597, 0.0
1598, 0.0
1599, 0.0
