30, 0.0
31, 0.0
32, 0.0
33, 0.0
34, 0.0
35, 0.0
36, 0.0
37, 0.0
38, 0.0
39, 0.0
40, 0.0
41, 0.0
42, 0.0
43, 0.0
44, 0.0
45, 0.0
46, 0.0
47, 0.0
48, 0.0
49, 0.0
50, 0.0
51, 0.0
52, 0.0
53, 0.0
54, 0.0
55, 0.0
56, 0.0
57, 0.0
58, 0.0
59, 0.0
60, 0.0
61, 0.0
62, 0.0
63, 0.0
64, 0.0
65, 0.0
66, 0.0
67, 0.0
68, 0.0
69, 0.0
70, 0.0
71, 0.0
72, 0.0
73, 0.0
74, 0.0
75, 0.0
76, 0.0
77, 0.0
78, 0.0
79, 0.0
80, 0.0
81, 0.0
82, 0.0
83, 0.0
84, 0.0
85, 0.0
86, 0.0
87, 0.0
88, 0.0
89, 0.0
90, 0.0
91, 0.0
92, 0.0
93, 0.0
94, 0.0
95, 0.0
96, 0.0
97, 0.0
98, 0.0
99, 0.0
100, 0.0
101, 0.0
102, 0.0
103, 0.0
104, 0.0
105, 0.0
106, 0.0
107, 0.0
108, 0.0
109, 0.0
110, 0.0
111, 0.0
112, 0.0
113, 0.0
114, 0.0
115, 0.0
116, 0.0
117, 0.0
118, 0.0
119, 0.0
120, 0.0
121, 0.0
122, 0.0
123, 0.0
124, 0.0
125, 0.0
126, 0.0
127, 0.0
128, 0.0
129, 0.0
130, 0.0
131, 0.0
132, 0.0
133, 0.0
134, 0.0
135, 0.0
136, 0.0
137, 0.0
138, 0.0
139, 0.0
140, 0.0
141, 0.0
142, 0.0
143, 0.0
144, 0.0
145, 0.0
146, 0.0
147, 0.0
148, 0.0
149, 0.0
150, 0.0
151, 0.0
152, 0.0
153, 0.0
154, 0.0
155, 0.0
156, 0.0
157, 0.0
158, 0.0
159, 0.0
160.0, 0.0001035080611447919
161.0, 0.0029934093660191918
162.0, 0.0035229948670218256
163.0, 0.0020238948899002733
164.0, 0.0011943808571628657
165.0, 0.0037909176994199503
166.0, 0.0025802012868424164
167.0, 0.0012026554523140815
168.0, 0.0009893027291173902
169.0, 0.0001527240188368236
170.0, 0.00010250018514925201
171.0, 0.001994885155733311
172.0, 0.0034486536938275946
173.0, 0.000977021256596051
174.0, 5.842304008932198e-05
175.0, 0.0007583757382365676
176.0, 0.0007015030462808607
177.0, 0.002459140668297472
178.0, 0.0005238303819570464
179.0, 0.0005924159100922059
180.0, 0.0009375542096556083
181.0, 0.001646986373067742
182.0, 0.0019905703636068322
183.0, 0.0026118062880834325
184.0, 0.0025108915536851887
185.0, 0.0010763360712068596
186.0, 0.0031017065904704834
187.0, 0.003215590708481144
188.0, 0.003086127265143848
189.0, 0.003909485600935292
190.0, 0.0025047089473459842
191.0, 0.0015058578545575382
192.0, 0.004338930965324252
193.0, 0.005819736140107518
194.0, 0.005515987265899433
195.0, 0.007338062332340525
196.0, 0.012137066045233368
197.0, 0.010152766771051912
198.0, 0.009055889377201094
199.0, 0.016384735076549233
200.0, 0.014563880910966765
201.0, 0.011438585950625168
202.0, 0.013070156289035614
203.0, 0.019031505516444714
204.0, 0.020633324863126277
205.0, 0.015269763031738883
206.0, 0.01284808834013983
207.0, 0.01300610434621931
208.0, 0.010835096732907775
209.0, 0.01070785254009704
210.0, 0.010213908485525587
211.0, 0.009675550315488137
212.0, 0.009847357727591472
213.0, 0.010682670117478732
214.0, 0.008351267753864784
215.0, 0.004408453399470311
216.0, 0.0025291081563519014
217.0, 0.005594986035572389
218.0, 0.007783726324741509
219.0, 0.008382358109015602
220.0, 0.008723209667085221
221.0, 0.008774930846585751
222.0, 0.005665146551684362
223.0, 0.004499830759685929
224.0, 0.004632189342255352
225.0, 0.004379231626282239
226.0, 0.002495448850417664
227.0, 0.0003576602245585458
228.0, 0.001374942848480704
229.0, 0.0013212643027330604
230.0, 0.0016885495779093488
231.0, 0.003286382361508976
232.0, 0.003944516355062428
233.0, 0.002502895921863177
234.0, 0.0013440103933480539
235.0, 0.005230756366734677
236.0, 0.002392717560076085
237.0, 0.005440992951003547
238.0, 0.009592494297575853
239.0, 0.009390530253168088
240.0, 0.008613253395148075
241.0, 0.011244910574390629
242.0, 0.013201252487907371
243.0, 0.01327412066843876
244.0, 0.012810614840958637
245.0, 0.01375213416849015
246.0, 0.01379635244895869
247.0, 0.01703931879690244
248.0, 0.02312020677985948
249.0, 0.022704418001694444
250.0, 0.02397610281338658
251.0, 0.02887610801579185
252.0, 0.03185080923502275
253.0, 0.02734246722022351
254.0, 0.03839126674954211
255.0, 0.043243953205376544
256.0, 0.04452734528896562
257.0, 0.04816756636099644
258.0, 0.0559311344784457
259.0, 0.058774372496548176
260.0, 0.065899254610897
261.0, 0.07627946679235702
262.0, 0.08476039737912132
263.0, 0.09558802374704856
264.0, 0.1113274003368558
265.0, 0.1228005578969237
266.0, 0.13092409759690035
267.0, 0.1469888683041821
268.0, 0.16179148281109287
269.0, 0.1768360500707769
270.0, 0.19343128981913424
271.0, 0.21259973239599333
272.0, 0.23466867408232642
273.0, 0.2532577310016289
274.0, 0.27706737446592866
275.0, 0.30113266398513977
276.0, 0.31422585552138715
277.0, 0.33071632910111476
278.0, 0.33835566174039194
279.0, 0.33160487966945656
280.0, 0.3121877308573616
281.0, 0.2864653913209649
282.0, 0.2500957581053764
283.0, 0.21554722166840906
284.0, 0.18159563319514166
285.0, 0.14630226347559042
286.0, 0.1248462705479725
287.0, 0.11085829979821979
288.0, 0.09686745078224229
289.0, 0.08220842468817469
290.0, 0.07099514402829245
291.0, 0.06200546055569199
292.0, 0.0554809913293107
293.0, 0.052496515498089105
294.0, 0.05031930598250233
295.0, 0.040196492267345736
296.0, 0.03415060589808287
297.0, 0.02995965864843423
298.0, 0.026230933219320504
299.0, 0.023070250802751033
300.0, 0.019665642290700308
301.0, 0.013668242419514361
302.0, 0.011933274206426262
303.0, 0.013989198608074287
304.0, 0.01309106709558928
305.0, 0.008007426082487556
306.0, 0.0036010510389775144
307.0, 0.003920993831658714
308.0, 0.006828094239236437
309.0, 0.004534923011579062
310.0, 0.0029604827202289285
311.0, 0.003281548247022463
312.0, 0.0030863783200489716
313.0, 0.0011876286494052653
314.0, 0.0010257993544478831
315.0, 0.0007589622568679637
316.0, 0.0027184076546645244
317.0, 0.004335852053609571
318.0, 0.002767828401456562
319.0, 0.005467481342919297
320.0, 0.007335723352688469
321.0, 0.01099120055741012
322.0, 0.01386825362483498
323.0, 0.00836290763562448
324.0, 0.011524572469000549
325.0, 0.010007048269714193
326.0, 0.009371605798845445
327.0, 0.013656554923988368
328.0, 0.01173596437917743
329.0, 0.01049635241025449
330.0, 0.012321680952750746
331.0, 0.013044287408714397
332.0, 0.009319330227968412
333.0, 0.005558089417728146
334.0, 0.014845750969630209
335.0, 0.015198262691531121
336.0, 0.010684350204811371
337.0, 0.016539467223815177
338.0, 0.014724089988513146
339.0, 0.013473509910026814
340.0, 0.010831252137176915
341.0, 0.009247958235194744
342.0, 0.014015971590757419
343.0, 0.011912267297255873
344.0, 0.010393237121081434
345.0, 0.01058064172583235
346.0, 0.00937967352852701
347.0, 0.004776393623497599
348.0, 0.006359315968536579
349.0, 0.009389909765514499
350.0, 0.007400398008511649
351.0, 0.0026871633807261657
352.0, 0.00779069740115019
353.0, 0.006935435593801321
354.0, 0.003207951693507179
355.0, 0.0037519444994219865
356.0, 0.008160036811787917
357.0, 0.005528488937764
358.0, 0.004894285184080469
359.0, 0.004220307463655144
360.0, 0.004130488222297191
361.0, 0.006210871927893213
362.0, 0.007634441439565522
363.0, 0.004191213345912562
364.0, 0.005127132617384385
365.0, 0.006837581651050077
366.0, 0.0015191369415436292
367.0, 0.0029181203474680107
368.0, 0.0029179300272862132
369.0, 0.005288858851813773
370.0, 0.007982699308174466
371.0, 0.004815153761473969
372.0, 0.004141090829957514
373.0, 0.0057798209358965276
374.0, 0.005646227090501098
375.0, 0.004363821806704726
376.0, 0.005996111440226498
377.0, 0.0014810856155487882
378.0, 0.001941348498695789
379.0, 0.004505676052785161
380.0, 0.003925883876900481
381.0, 0.0011953574537057665
382.0, 0.005026941036645756
383.0, 0.004272894436670689
384.0, 0.0016914034290736698
385.0, 0.0013387291057275134
386.0, 0.002918056047360786
387.0, 0.001750857884899255
388.0, 0.0009793896691267124
389.0, 0.0005374980453614368
390.0, 0.0005948959217089967
391.0, 0.002663388016690568
392.0, 0.0011708382224405202
393.0, 0.002260987439443724
394.0, 0.0036452322573734194
395.0, 0.0024427869445725293
396.0, 0.0024293263424351925
397.0, 0.002033331479211442
398.0, 0.006459040343027712
399.0, 0.010833511478011626
400.0, 0.011007144210759857
401.0, 0.008080200889818192
402.0, 0.01092368611657643
403.0, 0.0105251500914376
404.0, 0.014766293216129146
405.0, 0.026124429426743388
406.0, 0.027820360484766434
407.0, 0.03297457262679829
408.0, 0.03447804284629104
409.0, 0.03608063391378622
410.0, 0.041800293037924124
411.0, 0.046468698523087944
412.0, 0.04629174644541647
413.0, 0.04696425095177834
414.0, 0.053440938127318365
415.0, 0.06336348820001797
416.0, 0.06732488115565397
417.0, 0.0665250080873549
418.0, 0.0702896746152662
419.0, 0.07598667785037451
420.0, 0.08275643781869164
421.0, 0.0959670652245535
422.0, 0.10914190578712478
423.0, 0.1273686999884477
424.0, 0.1480895893085195
425.0, 0.1676657302341449
426.0, 0.18628470281171133
427.0, 0.22235008764456182
428.0, 0.25213845432502396
429.0, 0.28402159936142707
430.0, 0.32150171569571623
431.0, 0.35562009862051486
432.0, 0.3922773930894831
433.0, 0.42865709440358735
434.0, 0.4706649837205721
435.0, 0.5214142912595849
436.0, 0.5782653591211458
437.0, 0.6404387904582721
438.0, 0.7104171206867979
439.0, 0.7873270159582911
440.0, 0.8630685403817113
441.0, 0.9272959850837263
442.0, 0.9756435005737517
443.0, 0.9996476193445887
444.0, 0.9678295447774508
445.0, 0.8830686312598144
446.0, 0.7672459066195724
447.0, 0.6396502164771481
448.0, 0.5197820044954535
449.0, 0.4156748884095651
450.0, 0.331536934945109
451.0, 0.2678252538646761
452.0, 0.21982110651050715
453.0, 0.1821514343105043
454.0, 0.15455941728874276
455.0, 0.1303827975523058
456.0, 0.10747387798984094
457.0, 0.09610366216777642
458.0, 0.08629159059188668
459.0, 0.07440531366379816
460.0, 0.06259025493645375
461.0, 0.05442377765250919
462.0, 0.05100745146210357
463.0, 0.04873477061617981
464.0, 0.043275744994796625
465.0, 0.036741151645040895
466.0, 0.032220164439610385
467.0, 0.030485716401819206
468.0, 0.021445433062790568
469.0, 0.01793554078065639
470.0, 0.012582274715098637
471.0, 0.008900893009779328
472.0, 0.013523327336366053
473.0, 0.009120502266094597
474.0, 0.004141436129608756
475.0, 0.0010289127899150389
476.0, 0.0019777010011553155
477.0, 0.00039033427667157833
478.0, 0.0014003165709294638
479.0, 0.004121879348721229
480.0, 0.0035603674955880203
481.0, 0.001925206797683004
482.0, 0.001403482107705512
483.0, 0.00037127239191879545
484.0, 0.0029685737116016677
485.0, 0.0032160421846620757
486.0, 0.0027096320043087482
487.0, 0.004341984833299177
488.0, 0.008477888012008519
489.0, 0.009282369351524919
490.0, 0.012769785285853007
491.0, 0.016526571732068385
492.0, 0.01846026040716878
493.0, 0.019909551905127932
494.0, 0.022134858890579815
495.0, 0.023602431471736345
496.0, 0.021675599350610607
497.0, 0.019132582647437942
498.0, 0.01954046967790541
499.0, 0.021419569104220753
500.0, 0.02470707792212471
501.0, 0.024830317649861846
502.0, 0.02311380588892687
503.0, 0.021945480024404003
504.0, 0.022676294673195024
505.0, 0.021488005112313937
506.0, 0.01862048022048051
507.0, 0.016080543084570277
508.0, 0.014926176494087312
509.0, 0.013502455447963796
510.0, 0.0061836694012152036
511.0, 0.009628073769584572
512.0, 0.010189806349358012
513.0, 0.009438631972777809
514.0, 0.009451991130830685
515.0, 0.004334777846369062
516.0, 0.004884531745674884
517.0, 0.0051190434387822885
518.0, 0.0038087431573317213
519.0, 0.0029512493579258504
520.0, 0.0030901556852789723
521.0, 0.0012843278035093368
522.0, 0.0029054851986360444
523.0, 0.0007867353604078145
524.0, 0.004523480661728085
525.0, 0.009136283404708793
526.0, 0.007656975704077202
527.0, 0.008831393210796214
528.0, 0.00957870327653098
529.0, 0.006845005008276781
530.0, 0.0035599113760702446
531.0, 0.004888383791697013
532.0, 0.010057905459522709
533.0, 0.0086133035581403
534.0, 0.010851344775808479
535.0, 0.012339959799600604
536.0, 0.00825927570485993
537.0, 0.010282438219362646
538.0, 0.012419761952834292
539.0, 0.012866163295109583
540.0, 0.012841274877742035
541.0, 0.013097805424757428
542.0, 0.012733613202339148
543.0, 0.011144035811630178
544.0, 0.0099901837653618
545.0, 0.00800758726504749
546.0, 0.005409580822574197
547.0, 0.002468379860072309
548.0, 0.001791660812278957
549.0, 0.0037637981481869745
550.0, 0.003244481260837955
551.0, 0.001101277938948158
552.0, 0.0007143663489236591
553.0, 0.003866825496294297
554.0, 0.0008753852005640012
555.0, 0.0019555937138945804
556.0, 0.0004569368070121847
557.0, 0.0005337175521269798
558.0, 0.0009374767891409169
559.0, 0.0017537219537806534
560.0, 0.0024912962145927624
561.0, 0.004247430300375314
562.0, 0.007272951116660762
563.0, 0.009166011615608255
564.0, 0.00515037073482761
565.0, 0.005609319877374707
566.0, 0.012177456530083793
567.0, 0.012788962581358131
568.0, 0.010440227239309435
569.0, 0.01050143424261592
570.0, 0.011354083086771435
571.0, 0.013941586031764458
572.0, 0.015172207070617139
573.0, 0.012078632448284722
574.0, 0.01194943139118458
575.0, 0.017225845171500012
576.0, 0.01674676923217642
577.0, 0.021756068629560175
578.0, 0.01908624171403078
579.0, 0.01654458183072967
580.0, 0.019330720921619412
581.0, 0.02339938746434198
582.0, 0.02188293604581469
583.0, 0.024353041749508548
584.0, 0.020851853125390767
585.0, 0.01904157787094628
586.0, 0.021796027797089595
587.0, 0.02231018985320781
588.0, 0.03102889281783582
589.0, 0.029222936343410354
590.0, 0.024537450554681484
591.0, 0.024433526209377287
592.0, 0.027157299901415976
593.0, 0.023867862541961504
594.0, 0.02250428035449903
595.0, 0.02183500745948373
596.0, 0.0229830215287105
597.0, 0.022658833893838704
598.0, 0.018618814568688927
599.0, 0.016386742913435122
600.0, 0.017432044283031647
601.0, 0.015528505467074702
602.0, 0.014232427422158519
603.0, 0.015189863542657988
604.0, 0.01626642858590071
605.0, 0.016551368550791548
606.0, 0.013147693746213388
607.0, 0.016594942220321367
608.0, 0.019293985877985236
609.0, 0.015765640852325995
610.0, 0.01258220708402137
611.0, 0.013669146328342647
612.0, 0.016492296727972703
613.0, 0.01790151263267328
614.0, 0.017721833886767964
615.0, 0.016890682941070885
616.0, 0.015394167478236019
617.0, 0.010133726834193148
618.0, 0.00944444019032038
619.0, 0.009874813393633981
620.0, 0.006247649246962071
621.0, 0.0013325826543815805
622.0, 0.004398672977442671
623.0, 0.004028777022493593
624.0, 0.0012759827029750778
625.0, 0.0058872444903004485
626.0, 0.008950462433703234
627.0, 0.004301464767001789
628.0, 0.0079838316489819
629.0, 0.007149643562366798
630.0, 0.0008107422585601257
631.0, 0.002619620858652302
632.0, 0.001183018386989067
633.0, 0.00088463236093239
634.0, 9.2023278423422e-05
635.0, 0.0015316856694191083
636.0, 0.003272415864628866
637.0, 0.002593951244703132
638.0, 0.0029970959336544944
639.0, 0.003683179940395804
640.0, 0.004802531670233474
641.0, 0.007650894571948298
642.0, 0.002729545508279704
643.0, 0.00033133189437305525
644.0, 0.0029912043349828773
645.0, 0.0012079582338186277
646.0, 0.005273881921844497
647.0, 0.002210937517362141
648.0, 0.0027122646105211356
649.0, 0.0016174456397714983
650.0, 0.00283324453003381
651.0, 0.0025891064875608167
652.0, 0.001239040558146975
653.0, 0.002622827277690674
654.0, 0.0016214170728685985
655.0, 0.0019444227659123953
656.0, 0.0012129036324891622
657.0, 0.004247053829391932
658.0, 0.003681264869216657
659.0, 0.00659505576376706
660.0, 0.006704457152787041
661.0, 0.008356980883524864
662.0, 0.011508301538162595
663.0, 0.01175623469226322
664.0, 0.009610517991263242
665.0, 0.0073173931089454405
666.0, 0.010302515972660868
667.0, 0.011427532630494407
668.0, 0.006032911842184327
669.0, 0.001664025659697882
670.0, 0.01108433960709825
671.0, 0.008148123698905219
672.0, 0.005723266880849637
673.0, 0.004139320917831171
674.0, 0.004877551041916838
675.0, 0.006301799457188638
676.0, 0.00196453582713712
677.0, 0.0023441893128646123
678.0, 0.00673886346756105
679.0, 0.007068767747239894
680.0, 0.008312740587202482
681.0, 0.011188307060243608
682.0, 0.008571108085165844
683.0, 0.011007973438515027
684.0, 0.011179829225901038
685.0, 0.00842551258628577
686.0, 0.01000308446817778
687.0, 0.013816177717742897
688.0, 0.010694867818536088
689.0, 0.006875713527552439
690.0, 0.006304804306484217
691.0, 0.007956107437921498
692.0, 0.007233095953529405
693.0, 0.007479461574442328
694.0, 0.01021182764001342
695.0, 0.005053338719739395
696.0, 0.0026304032489827323
697.0, 0.007922345427342105
698.0, 0.012582299708123773
699.0, 0.014806482427452571
700.0, 0.015911367387666842
701.0, 0.018679710212117465
702.0, 0.02311192347422833
703.0, 0.022780032186736975
704.0, 0.0219717689250428
705.0, 0.02604981340332706
706.0, 0.030669776427348482
707.0, 0.028530069891806377
708.0, 0.029847900641693466
709.0, 0.03323642551987455
710.0, 0.03470333637666164
711.0, 0.03419328990125702
712.0, 0.034571083210950676
713.0, 0.03644225851896314
714.0, 0.03646613660551662
715.0, 0.034285783882236666
716.0, 0.036280898787030426
717.0, 0.036287029689841495
718.0, 0.03308563253371595
719.0, 0.030432521498877277
720.0, 0.028823717179155706
721.0, 0.029883079612704262
722.0, 0.031074136661302963
723.0, 0.029412833092363998
724.0, 0.02506424620008321
725.0, 0.022349677689242422
726.0, 0.025570501506766933
727.0, 0.027730751345006525
728.0, 0.027410129539249362
729.0, 0.027144052915047505
730.0, 0.031607678727428826
731.0, 0.03525305102795905
732.0, 0.03343149867236255
733.0, 0.03540756119645756
734.0, 0.039550388574740504
735.0, 0.03350540429745505
736.0, 0.032930849908400985
737.0, 0.03551959523708608
738.0, 0.033875715044726154
739.0, 0.03160428341813391
740.0, 0.03487351144596185
741.0, 0.03397373772476975
742.0, 0.02869178731644577
743.0, 0.030040278782286392
744.0, 0.03409413297679349
745.0, 0.03140863798070304
746.0, 0.028320848543322362
747.0, 0.023432538329659025
748.0, 0.018457460529276888
749.0, 0.01546838317536238
750.0, 0.01388864992180252
751.0, 0.012078346928607597
752.0, 0.009757935255497433
753.0, 0.0109448545188488
754.0, 0.014731212827600888
755.0, 0.009731243409388328
756.0, 0.011324986573165434
757.0, 0.012788828539476155
758.0, 0.006667820410382386
759.0, 0.00855839991979611
760.0, 0.006840773448263937
761.0, 0.005940868770742518
762.0, 0.006633065513137222
763.0, 0.00602013854459313
764.0, 0.005541469681809887
765.0, 0.007366862987239769
766.0, 0.008158625140058674
767.0, 0.004439031659664966
768.0, 0.010646170411941012
769.0, 0.010108412072051903
770.0, 0.006381884719267668
771.0, 0.005262175076216356
772.0, 0.004347729597333054
773.0, 0.01109071126957356
774.0, 0.011210154378040346
775.0, 0.01342094145468259
776.0, 0.01418455772741591
777.0, 0.014392623733261112
778.0, 0.017301075589472983
779.0, 0.020599331386347074
780.0, 0.017247979237736147
781.0, 0.017782464500207356
782.0, 0.019440516622706693
783.0, 0.01596401139857979
784.0, 0.013848286271704723
785.0, 0.016474951959416433
786.0, 0.01461530986353536
787.0, 0.018864367217498224
788.0, 0.015019829314093068
789.0, 0.011588538744743223
790.0, 0.01077892210130308
791.0, 0.009959605521252813
792.0, 0.008460644713749764
793.0, 0.008018244476000191
794.0, 0.010900387851676411
795.0, 0.01019589932273436
796.0, 0.011054739918680464
797.0, 0.010099948223258572
798.0, 0.01153624236418218
799.0, 0.018422691053357327
800.0, 0.016191628663683795
801.0, 0.012883661772893509
802.0, 0.02170591073614391
803.0, 0.022179704565910032
804.0, 0.019008008359610095
805.0, 0.019544784992814413
806.0, 0.02083548113220443
807.0, 0.02200600214159624
808.0, 0.021824558375396333
809.0, 0.021733081731410003
810.0, 0.022001413025621898
811.0, 0.022082311534201385
812.0, 0.021072723723615648
813.0, 0.02078064912690449
814.0, 0.02568179168286847
815.0, 0.02867364024206504
816.0, 0.029701567694191265
817.0, 0.02508648482282074
818.0, 0.02245995004665421
819.0, 0.02275648554203215
820.0, 0.021900815924715194
821.0, 0.02504353727088709
822.0, 0.02548459290668852
823.0, 0.023175309150846073
824.0, 0.01993115282861056
825.0, 0.015944384286706935
826.0, 0.01321468777716818
827.0, 0.012531511405587996
828.0, 0.01066494597947316
829.0, 0.010794956115335392
830.0, 0.012103167466007014
831.0, 0.013590309685142484
832.0, 0.014281075393327663
833.0, 0.013163169779546739
834.0, 0.009732234976651039
835.0, 0.004671117667407296
836.0, 0.004490286712206971
837.0, 0.004862330605102608
838.0, 0.0026928472354593694
839.0, 0.0031497599062288084
840.0, 0.006061804405376089
841.0, 0.006169369108868574
842.0, 0.0030433769306995886
843.0, 0.003965775609785299
844.0, 0.0044620687955961354
845.0, 0.004024513821181228
846.0, 0.0010527202925638926
847.0, 0.0041137385939958165
848.0, 0.002105523046025321
849.0, 0.0009993119973983123
850.0, 0.004617578854277209
851.0, 0.004694502274306571
852.0, 0.004031393982584102
853.0, 0.003036952634703203
854.0, 0.0010154174316036226
855.0, 0.0006294324714463073
856.0, 0.002283855870744538
857.0, 0.0015876148180367234
858.0, 0.0007742970254313574
859.0, 0.002467502525959553
860.0, 0.005424664178550954
861.0, 0.004150401061172613
862.0, 0.0006632557726338383
863.0, 0.0011380096759972121
864.0, 0.006216901732132697
865.0, 0.008113263648409929
866.0, 0.0042719308106649555
867.0, 0.008060972113417194
868.0, 0.00713907454526996
869.0, 0.0038655116417544897
870.0, 0.0039073062127077595
871.0, 0.00625738112885537
872.0, 0.011418806024957337
873.0, 0.0034185864385651403
874.0, 0.009053560080419548
875.0, 0.00924271952641516
876.0, 0.00685087985890166
877.0, 0.005862680317958619
878.0, 0.0063900309140157855
879.0, 0.009930302636658981
880.0, 0.010863276751584845
881.0, 0.0074418058046824415
882.0, 0.007640727647245868
883.0, 0.009202951247949315
884.0, 0.010317324461882901
885.0, 0.012222737634369988
886.0, 0.013521640382004216
887.0, 0.009496398980502627
888.0, 0.011598613063030363
889.0, 0.009837413595329896
890.0, 0.012131988357068276
891.0, 0.013792765964356518
892.0, 0.014896394305200594
893.0, 0.015903778442300488
894.0, 0.013558038198089643
895.0, 0.013056394254005402
896.0, 0.014850026398914763
897.0, 0.014632596647915505
898.0, 0.01255759314087487
899.0, 0.015319536783397683
900.0, 0.017189101157220804
901.0, 0.016859867322872913
902.0, 0.025932362190939872
903.0, 0.021966824783205604
904.0, 0.02389732676157277
905.0, 0.021166611625406787
906.0, 0.021554100290239027
907.0, 0.017775593388115362
908.0, 0.015462772431487809
909.0, 0.020638821058822955
910.0, 0.015757734600227124
911.0, 0.018821784584034874
912.0, 0.013098045623212543
913.0, 0.013113054204087938
914.0, 0.015355390744819373
915.0, 0.013436554034785334
916.0, 0.008877430344546841
917.0, 0.008636050734764594
918.0, 0.014790846489695439
919.0, 0.013459116726824705
920.0, 0.011892851829636284
921.0, 0.013519413900456042
922.0, 0.010069067356888726
923.0, 0.009175390906836335
924.0, 0.012366128766017547
925.0, 0.009763381824930625
926.0, 0.004797499365371248
927.0, 0.0035815342865713955
928.0, 0.00282438443005302
929.0, 0.006414694761667595
930.0, 0.006082386343976042
931.0, 0.0037103003679156456
932.0, 0.0016766391520597597
933.0, 0.002457275381651856
934.0, 0.001857447958660198
935.0, 0.0002818848768664944
936.0, 7.799154819138635e-05
937.0, 0.00032270123257335326
938.0, 0.0023215918328548858
939.0, 0.0070427475470748345
940.0, 0.009409371677177371
941.0, 0.006155360307090283
942.0, 0.007577691583402452
943.0, 0.015851823764897445
944.0, 0.012542868006419381
945.0, 0.009434013960318212
946.0, 0.013572282140290777
947.0, 0.018160793428988124
948.0, 0.019421866006002417
949.0, 0.018950375158291573
950.0, 0.0174665355671658
951.0, 0.021285229334794088
952.0, 0.02037112938900881
953.0, 0.022190085011334924
954.0, 0.02624165101950283
955.0, 0.026414463500559364
956.0, 0.023671343622988124
957.0, 0.0218584456458898
958.0, 0.020029916974281383
959.0, 0.017606106928380647
960.0, 0.01653240111715088
961.0, 0.016875916509031464
962.0, 0.014455361999596369
963.0, 0.011683784903271469
964.0, 0.01121433731950346
965.0, 0.012650511554227131
966.0, 0.012474976112344537
967.0, 0.00723083388434374
968.0, 0.009263717332914537
969.0, 0.008513535708474903
970.0, 0.010146873505508469
971.0, 0.008257503961431201
972.0, 0.00653686058287046
973.0, 0.008470783665604262
974.0, 0.012210665451068355
975.0, 0.01646469430309127
976.0, 0.015485780389727805
977.0, 0.01408145787898124
978.0, 0.01384013348441504
979.0, 0.017035428477362752
980.0, 0.020738170389590364
981.0, 0.02150868188656499
982.0, 0.018687679499722328
983.0, 0.015484974635141457
984.0, 0.01786665143523325
985.0, 0.023564348682947624
986.0, 0.023099984518295008
987.0, 0.016223533278058783
988.0, 0.01034868671040716
989.0, 0.012269319276789438
990.0, 0.01583234159335776
991.0, 0.014748216042684885
992.0, 0.013814847627139372
993.0, 0.01398220755517799
994.0, 0.013752305860095642
995.0, 0.012022257279728084
996.0, 0.00728783685191311
997.0, 0.006658111555909684
998.0, 0.009339981018895915
999.0, 0.007410035679011856
1000.0, 0.0024127809928560203
1001.0, 0.004226137513794341
1002.0, 0.0008323394971133253
1003.0, 0.0017944654236462022
1004.0, 0.0025741936542397347
1005.0, 0.002339011515257754
1006.0, 0.002200250495432262
1007.0, 0.00023528031734772453
1008.0, 0.004083451517939435
1009.0, 0.006981347941070412
1010.0, 0.006504171739003151
1011.0, 0.011885857879887355
1012.0, 0.006747049800665812
1013.0, 0.002160146492186272
1014.0, 0.00821792601033997
1015.0, 0.00790019954779688
1016.0, 0.005359225281916628
1017.0, 0.009584730960185884
1018.0, 0.013240689034040739
1019.0, 0.014747129333276003
1020.0, 0.01634467907102461
1021.0, 0.021564602873904944
1022.0, 0.0271092425491619
1023.0, 0.02383613777442638
1024.0, 0.027335395418074202
1025.0, 0.030897220273266277
1026.0, 0.028524011011597548
1027.0, 0.02842692329807402
1028.0, 0.029111221543901073
1029.0, 0.033414144374635114
1030.0, 0.026783279090218545
1031.0, 0.030192035971723746
1032.0, 0.035102690749368816
1033.0, 0.03203541518898438
1034.0, 0.030956879719419968
1035.0, 0.03573042149112072
1036.0, 0.0372760473065668
1037.0, 0.033320116265995584
1038.0, 0.03427178028654943
1039.0, 0.031856916636505334
1040.0, 0.028201038459060218
1041.0, 0.030299496054399248
1042.0, 0.03307070793299196
1043.0, 0.03157753923221672
1044.0, 0.03107573596494859
1045.0, 0.03333241765590571
1046.0, 0.03304077926285499
1047.0, 0.033486522138035865
1048.0, 0.030184217299271045
1049.0, 0.030120585423615082
1050.0, 0.020996874898776916
1051.0, 0.023936519790433854
1052.0, 0.027884830787954496
1053.0, 0.02647913564792894
1054.0, 0.023862829593048685
1055.0, 0.021913010332725077
1056.0, 0.02319698613314891
1057.0, 0.026722998342334534
1058.0, 0.02404028079938626
1059.0, 0.01977403926446903
1060.0, 0.019411516676797285
1061.0, 0.02181792972148539
1062.0, 0.022741096268230756
1063.0, 0.02541582962362424
1064.0, 0.027880247360250004
1065.0, 0.023929044818237145
1066.0, 0.02370548542149067
1067.0, 0.017711057728422304
1068.0, 0.020840861484733426
1069.0, 0.01904648485027952
1070.0, 0.01794570686050679
1071.0, 0.01816735721361131
1072.0, 0.0181484566044933
1073.0, 0.016758090569722855
1074.0, 0.015409478272611448
1075.0, 0.01695794863727105
1076.0, 0.016340865430549155
1077.0, 0.01303689870320805
1078.0, 0.020608296363653255
1079.0, 0.014809336621537519
1080.0, 0.009473478239822076
1081.0, 0.008690241044790287
1082.0, 0.009047532278151083
1083.0, 0.006885266041843115
1084.0, 0.0054236658419738815
1085.0, 0.008860627793032724
1086.0, 0.004588049847483779
1087.0, 0.003350192561213342
1088.0, 0.0017088084043210968
1089.0, 0.0017204536934368217
1090.0, 0.0031496003351666056
1091.0, 0.005537943368156998
1092.0, 0.0054027160320886634
1093.0, 0.001828897220060534
1094.0, 0.0053767533715378965
1095.0, 0.0049111657517083435
1096.0, 0.0008471745864949993
1097.0, 0.007564158373231219
1098.0, 0.01444109490591763
1099.0, 0.016798495092262854
1100.0, 0.0194257480706792
1101.0, 0.021097033859329213
1102.0, 0.021874477893926634
1103.0, 0.02484828369946639
1104.0, 0.028394972470018345
1105.0, 0.02786602282651855
1106.0, 0.03099490987004788
1107.0, 0.031024512493085528
1108.0, 0.023454477824225523
1109.0, 0.02969794838526391
1110.0, 0.026490290990441825
1111.0, 0.029062831182995266
1112.0, 0.03506585167295258
1113.0, 0.03292468823906442
1114.0, 0.027952456502485692
1115.0, 0.0283461909436696
1116.0, 0.030256903635380358
1117.0, 0.029379081428247193
1118.0, 0.027509889005612354
1119.0, 0.027950360799787303
1120.0, 0.02590453505312279
1121.0, 0.02349252015329715
1122.0, 0.023474268532315774
1123.0, 0.021456591289720665
1124.0, 0.020336648539240568
1125.0, 0.02026408897067197
1126.0, 0.015557861143221614
1127.0, 0.01645418932770628
1128.0, 0.018919545927275207
1129.0, 0.02328999438094181
1130.0, 0.018425897323425824
1131.0, 0.020647458404316088
1132.0, 0.020408474138716697
1133.0, 0.020200472938166188
1134.0, 0.01997368801920959
1135.0, 0.020360597213743413
1136.0, 0.024164429438925328
1137.0, 0.023495028577470926
1138.0, 0.017122911218509528
1139.0, 0.01841396821400862
1140.0, 0.014071367525536371
1141.0, 0.008610978501144749
1142.0, 0.011805822908640441
1143.0, 0.01601895850345318
1144.0, 0.01320492717996479
1145.0, 0.011128153612524071
1146.0, 0.013273318726524645
1147.0, 0.013164915093800505
1148.0, 0.011260936731767479
1149.0, 0.011944971560500919
1150.0, 0.010214940897754626
1151.0, 0.010037188077180275
1152.0, 0.01134347754064023
1153.0, 0.008694243191929211
1154.0, 0.005908020496836239
1155.0, 0.00722812231808052
1156.0, 0.007669994863973812
1157.0, 0.0063955214939155226
1158.0, 0.0030381894553949
1159.0, 0.0035475909004853306
1160.0, 0.0005222375747316493
1161.0, 0.002280169358860753
1162.0, 0.0033604252268592625
1163.0, 0.005389445280533301
1164.0, 0.00431004347225254
1165.0, 0.0010317483745047034
1166.0, 0.0015572826416813995
1167.0, 0.005955615932171433
1168.0, 0.009864597508864524
1169.0, 0.009220995962655035
1170.0, 0.004482825780663358
1171.0, 0.0018715492263038157
1172.0, 0.006068909698693242
1173.0, 0.005709354303385637
1174.0, 0.0007595730603641844
1175.0, 0.0006283198654838724
1176.0, 0.002696076124544515
1177.0, 0.0048836089687305136
1178.0, 0.006155718332815013
1179.0, 0.005768523633108899
1180.0, 0.001600297100748513
1181.0, 0.0006336684494223996
1182.0, 0.005848777535573536
1183.0, 0.005947781631088909
1184.0, 0.003975394731755121
1185.0, 0.003727171166895367
1186.0, 0.00240521137549644
1187.0, 0.0050012583572269795
1188.0, 0.00789189715874081
1189.0, 0.011937697535328124
1190.0, 0.011970770017668735
1191.0, 0.016635661168872672
1192.0, 0.019181088325078963
1193.0, 0.014839751021630921
1194.0, 0.013645848776958855
1195.0, 0.013128693006289473
1196.0, 0.016953741912392867
1197.0, 0.018494151596001162
1198.0, 0.02162250419973427
1199.0, 0.014033281800983422
1200.0, 0.015649118711829908
1201.0, 0.015763236049836673
1202.0, 0.016844187226819407
1203.0, 0.01655519238280043
1204.0, 0.01758635160666549
1205.0, 0.015446253663681513
1206.0, 0.016822589075603484
1207.0, 0.017291284210842306
1208.0, 0.013180310232926465
1209.0, 0.01731923680003377
1210.0, 0.017317216522490932
1211.0, 0.013085453029262733
1212.0, 0.013714766298202887
1213.0, 0.014809462830434557
1214.0, 0.01296775079963144
1215.0, 0.013252733715769358
1216.0, 0.013921022383665278
1217.0, 0.012581647402426406
1218.0, 0.008511358345467013
1219.0, 0.01110159453446636
1220.0, 0.00743595490193572
1221.0, 0.009805600947680734
1222.0, 0.007560053974093486
1223.0, 0.007190299364116082
1224.0, 0.008460674435264616
1225.0, 0.00752438890177201
1226.0, 0.008948201869802257
1227.0, 0.00994152225168192
1228.0, 0.010836853570152223
1229.0, 0.005488400331558255
1230.0, 0.0035201193342041226
1231.0, 0.008671785339910663
1232.0, 0.007518669980682163
1233.0, 0.010211187076899764
1234.0, 0.008381405728656336
1235.0, 0.0155272141683763
1236.0, 0.010903963524356507
1237.0, 0.0037650579783604686
1238.0, 0.014065677823772741
1239.0, 0.019223226186487394
1240.0, 0.022278378005909403
1241.0, 0.017144437298933154
1242.0, 0.01533870806375261
1243.0, 0.017804142130592844
1244.0, 0.016678463839221676
1245.0, 0.013770007092215594
1246.0, 0.007936289591931057
1247.0, 0.010051913564914548
1248.0, 0.014443682833141286
1249.0, 0.015777743141638968
1250.0, 0.014592941881309874
1251.0, 0.010694801732847854
1252.0, 0.011483259896812398
1253.0, 0.006548552357986345
1254.0, 0.003022027807268433
1255.0, 0.0030880867850002136
1256.0, 0.0017989415472976764
1257.0, 0.0009291442953388174
1258.0, 0.0011588871101826535
1259.0, 0.0003566145495741998
1260.0, 0.0013167411004341549
1261.0, 0.0032398143178954384
1262.0, 0.0002987494353681806
1263.0, 0.0017176582267021934
1264.0, 0.0022839350363799095
1265.0, 0.005215409783471105
1266.0, 0.003485798296045879
1267.0, 0.004529744510172504
1268.0, 0.0008202284015279599
1269.0, 0.006011257350050151
1270.0, 0.01534490888026457
1271.0, 0.016257233265846802
1272.0, 0.014197361322166624
1273.0, 0.011230423130852995
1274.0, 0.012300491118593547
1275.0, 0.015232378989772085
1276.0, 0.020992763024882323
1277.0, 0.020301518467059698
1278.0, 0.014097467605878735
1279.0, 0.016629176784565828
1280.0, 0.0065619579259720215
1281.0, 0.004393145867958927
1282.0, 0.004107813602555555
1283.0, 0.000844876286280445
1284.0, 0.0006582407449145394
1285, 0.0
1286, 0.0
1287, 0.0
1288, 0.0
1289, 0.0
1290, 0.0
1291, 0.0
1292, 0.0
1293, 0.0
1294, 0.0
1295, 0.0
1296, 0.0
1297, 0.0
1298, 0.0
1299, 0.0
1300, 0.0
1301, 0.0
1302, 0.0
1303, 0.0
1304, 0.0
1305, 0.0
1306, 0.0
1307, 0.0
1308, 0.0
1309, 0.0
1310, 0.0
1311, 0.0
1312, 0.0
1313, 0.0
1314, 0.0
1315, 0.0
1316, 0.0
1317, 0.0
1318, 0.0
1319, 0.0
1320, 0.0
1321, 0.0
1322, 0.0
1323, 0.0
1324, 0.0
1325, 0.0
1326, 0.0
1327, 0.0
1328, 0.0
1329, 0.0
1330, 0.0
1331, 0.0
1332, 0.0
1333, 0.0
1334, 0.0
1335, 0.0
1336, 0.0
1337, 0.0
1338, 0.0
1339, 0.0
1340, 0.0
1341, 0.0
1342, 0.0
1343, 0.0
1344, 0.0
1345, 0.0
1346, 0.0
1347, 0.0
1348, 0.0
1349, 0.0
1350, 0.0
1351, 0.0
1352, 0.0
1353, 0.0
1354, 0.0
1355, 0.0
1356, 0.0
1357, 0.0
1358, 0.0
1359, 0.0
1360, 0.0
1361, 0.0
1362, 0.0
1363, 0.0
1364, 0.0
1365, 0.0
1366, 0.0
1367, 0.0
1368, 0.0
1369, 0.0
1370, 0.0
1371, 0.0
1372, 0.0
1373, 0.0
1374, 0.0
1375, 0.0
1376, 0.0
1377, 0.0
1378, 0.0
1379, 0.0
1380, 0.0
1381, 0.0
1382, 0.0
1383, 0.0
1384, 0.0
1385, 0.0
1386, 0.0
1387, 0.0
1388, 0.0
1389, 0.0
1390, 0.0
1391, 0.0
1392, 0.0
1393, 0.0
1394, 0.0
1395, 0.0
1396, 0.0
1397, 0.0
1398, 0.0
1399, 0.0
1400, 0.0
1401, 0.0
1402, 0.0
1403, 0.0
1404, 0.0
1405, 0.0
1406, 0.0
1407, 0.0
1408, 0.0
1409, 0.0
1410, 0.0
1411, 0.0
1412, 0.0
1413, 0.0
1414, 0.0
1415, 0.0
1416, 0.0
1417, 0.0
1418, 0.0
1419, 0.0
1420, 0.0
1421, 0.0
1422, 0.0
1423, 0.0
1424, 0.0
1425, 0.0
1426, 0.0
1427, 0.0
1428, 0.0
1429, 0.0
1430, 0.0
1431, 0.0
1432, 0.0
1433, 0.0
1434, 0.0
1435, 0.0
1436, 0.0
1437, 0.0
1438, 0.0
1439, 0.0
1440, 0.0
1441, 0.0
1442, 0.0
1443, 0.0
1444, 0.0
1445, 0.0
1446, 0.0
1447, 0.0
1448, 0.0
1449, 0.0
1450, 0.0
1451, 0.0
1452, 0.0
1453, 0.0
1454, 0.0
1455, 0.0
1456, 0.0
1457, 0.0
1458, 0.0
1459, 0.0
1460, 0.0
1461, 0.0
1462, 0.0
1463, 0.0
1464, 0.0
1465, 0.0
1466, 0.0
1467, 0.0
1468, 0.0
1469, 0.0
1470, 0.0
1471, 0.0
1472, 0.0
1473, 0.0
1474, 0.0
1475, 0.0
1476, 0.0
1477, 0.0
1478, 0.0
1479, 0.0
1480, 0.0
1481, 0.0
1482, 0.0
1483, 0.0
1484, 0.0
1485, 0.0
1486, 0.0
1487, 0.0
1488, 0.0
1489, 0.0
1490, 0.0
1491, 0.0
1492, 0.0
1493, 0.0
1494, 0.0
1495, 0.0
1496, 0.0
1497, 0.0
1498, 0.0
1499, 0.0
1500, 0.0
1501, 0.0
1502, 0.0
1503, 0.0
1504, 0.0
1505, 0.0
1506, 0.0
1507, 0.0
1508, 0.0
1509, 0.0
1510, 0.0
1511, 0.0
1512, 0.0
1513, 0.0
1514, 0.0
1515, 0.0
1516, 0.0
1517, 0.0
1518, 0.0
1519, 0.0
1520, 0.0
1521, 0.0
1522, 0.0
1523, 0.0
1524, 0.0
1525, 0.0
1526, 0.0
1527, 0.0
1528, 0.0
1529, 0.0
1530, 0.0
1531, 0.0
1532, 0.0
1533, 0.0
1534, 0.0
1535, 0.0
1536, 0.0
1537, 0.0
1538, 0.0
1539, 0.0
1540, 0.0
1541, 0.0
1542, 0.0
1543, 0.0
1544, 0.0
1545, 0.0
1546, 0.0
1547, 0.0
1548, 0.0
1549, 0.0
1550, 0.0
1551, 0.0
1552, 0.0
1553, 0.0
1554, 0.0
1555, 0.0
1556, 0.0
1557, 0.0
1558, 0.0
1559, 0.0
1560, 0.0
1561, 0.0
1562, 0.0
1563, 0.0
1564, 0.0
1565, 0.0
1566, 0.0
1567, 0.0
1568, 0.0
1569, 0.0
1570, 0.0
1571, 0.0
1572, 0.0
1573, 0.0
1574, 0.0
1575, 0.0
1576, 0.0
1577, 0.0
1578, 0.0
1579, 0.0
1580, 0.0
1581, 0.0
1582, 0.0
1583, 0.0
1584, 0.0
1585, 0.0
1586, 0.0
1587, 0.0
1588, 0.0
1589, 0.0
1590, 0.0
1591, 0.0
1592, 0.0
1593, 0.0
1594, 0.0
1595, 0.0
1596, 0.0
1597, 0.0
1598, 0.0
1599, 0.0
