30, 0.0
31, 0.0
32, 0.0
33, 0.0
34, 0.0
35, 0.0
36, 0.0
37, 0.0
38, 0.0
39, 0.0
40, 0.0
41, 0.0
42, 0.0
43, 0.0
44, 0.0
45, 0.0
46, 0.0
47, 0.0
48, 0.0
49, 0.0
50.0, 0.00017215910721606514
51.0, 0.0004982099651059181
52.0, 0.0009852255527852557
53.0, 0.00032035433422820687
54.0, 0.0007097148075016887
55.0, 0.0015579435837894495
56.0, 0.0013738557226830414
57.0, 0.0011834622019162417
58.0, 0.001245910185242403
59.0, 0.0017184101673167512
60.0, 0.0013375557645311793
61.0, 0.0011757257000940663
62.0, 0.0011832521169900293
63.0, 0.0011576771054373327
64.0, 0.0007319664110226019
65.0, 0.0004741826074488179
66.0, 0.0007255803688246599
67.0, 0.0008418744961142143
68.0, 0.0006234381239689152
69.0, 0.00019840461528999873
70.0, 8.389953684211874e-05
71.0, 9.993207743521164e-05
72.0, 0.00022459788023105335
73.0, 0.00047127147349994395
74.0, 0.0006955228282262485
75.0, 0.0009055358244564617
76.0, 0.0009886763209332114
77.0, 0.00037085331753903633
78.0, 0.00018786964486666052
79.0, 0.00013952649777098565
80.0, 5.581134757691775e-05
81.0, 0.00019540923975743543
82.0, 0.00023174715073797432
83.0, 0.0002401363087662288
84.0, 0.000713463586425747
85.0, 0.00042489460905989176
86.0, 9.76656847569511e-05
87.0, 0.00023410821172287173
88.0, 0.0009526223773586128
89.0, 0.0019805329177413834
90.0, 0.003537693998587543
91.0, 0.006964510253779352
92.0, 0.010752652588686096
93.0, 0.014916671800729761
94.0, 0.019563476877919546
95.0, 0.02029676416524084
96.0, 0.019969559055842676
97.0, 0.019408223132613683
98.0, 0.02154958069776113
99.0, 0.02613500470771139
100.0, 0.03236835409485678
101.0, 0.040130087677688664
102.0, 0.04914968559038585
103.0, 0.05910592851577954
104.0, 0.06923929197797873
105.0, 0.07655503276497079
106.0, 0.06469869653123701
107.0, 0.04900630616887192
108.0, 0.03720661049323837
109.0, 0.03135420304899445
110.0, 0.02777422635071803
111.0, 0.02559610524366488
112.0, 0.02269685355869893
113.0, 0.024751026668541523
114.0, 0.027847805596839928
115.0, 0.0303758849907473
116.0, 0.03122932106770458
117.0, 0.031411936785854654
118.0, 0.03129715613553972
119.0, 0.03177589388392792
120.0, 0.031221263736030524
121.0, 0.03013351006553635
122.0, 0.028623145308769103
123.0, 0.026110892623814105
124.0, 0.024200577079642644
125.0, 0.022660727814888385
126.0, 0.021141675858398316
127.0, 0.018469381338350452
128.0, 0.01641416823845965
129.0, 0.015414985825063428
130.0, 0.014453962150548328
131.0, 0.013379325092471544
132.0, 0.012438463514550212
133.0, 0.012029687955153724
134.0, 0.011548269151306363
135.0, 0.01118924142972879
136.0, 0.011016410875754272
137.0, 0.011277203900216425
138.0, 0.011250713382242239
139.0, 0.01144801592226231
140.0, 0.01242606905272438
141.0, 0.011541962577778748
142.0, 0.011182453666945648
143.0, 0.011307982281357739
144.0, 0.01056262207486418
145.0, 0.010779351519317157
146.0, 0.0112957166167993
147.0, 0.011761540182771299
148.0, 0.011008746181382709
149.0, 0.010934304282889955
150.0, 0.011113797468531474
151.0, 0.01010634498670723
152.0, 0.009725979474002978
153.0, 0.00959074713064498
154.0, 0.009578188032447215
155.0, 0.009422543464462248
156.0, 0.009923623554289
157.0, 0.010916263146450608
158.0, 0.012250361343561831
159.0, 0.014007362032875116
160.0, 0.016228168037975176
161.0, 0.019001721316091298
162.0, 0.02299898187300298
163.0, 0.027329302398874745
164.0, 0.03162629439208374
165.0, 0.03552001318363174
166.0, 0.03981618329752674
167.0, 0.04300793330442693
168.0, 0.04493233596571234
169.0, 0.04526988820779787
170.0, 0.043524063203257066
171.0, 0.04074858017037231
172.0, 0.03734096243163342
173.0, 0.032968155606357505
174.0, 0.028587621635133106
175.0, 0.024423162779277186
176.0, 0.021015811630359236
177.0, 0.017642020087732573
178.0, 0.01487060558149111
179.0, 0.01285605857127532
180.0, 0.011314029368761528
181.0, 0.010894301937443193
182.0, 0.01069277500034698
183.0, 0.009790571868538886
184.0, 0.009684130512992689
185.0, 0.009856084014011661
186.0, 0.010216875162556
187.0, 0.010623131544899462
188.0, 0.011367340483024527
189.0, 0.011963132043867212
190.0, 0.012155266475875696
191.0, 0.01190754781919043
192.0, 0.011746113375108445
193.0, 0.011647692070435395
194.0, 0.011581701444679075
195.0, 0.010502006409772235
196.0, 0.009537792147606245
197.0, 0.008836124930759767
198.0, 0.007612008080050208
199.0, 0.006950686176912018
200.0, 0.0062775539823068495
201.0, 0.005120442355896607
202.0, 0.004345075306403229
203.0, 0.00410879998405513
204.0, 0.0040389977407844745
205.0, 0.0030152030307072186
206.0, 0.002990207624169191
207.0, 0.003319106493714302
208.0, 0.0037847263815592937
209.0, 0.0038188109244347377
210.0, 0.0038799386202221097
211.0, 0.003989641580306719
212.0, 0.004184704849290491
213.0, 0.0044409721906875305
214.0, 0.005342177464293982
215.0, 0.006711608158488484
216.0, 0.007627226568888704
217.0, 0.008698233772670448
218.0, 0.009817689494353181
219.0, 0.010944296472178296
220.0, 0.012082182995557755
221.0, 0.013254358967068162
222.0, 0.014376045626604836
223.0, 0.01531064284297261
224.0, 0.015070261950670322
225.0, 0.015131889347352673
226.0, 0.015420922616008227
227.0, 0.014565730320924609
228.0, 0.01373140771780962
229.0, 0.013230833068086022
230.0, 0.013244021754083759
231.0, 0.013051755236385154
232.0, 0.01296368550370909
233.0, 0.01307318705890455
234.0, 0.013571952184565705
235.0, 0.01453196240369224
236.0, 0.016006199118288173
237.0, 0.018123681146127887
238.0, 0.021558525922527487
239.0, 0.0256543775613332
240.0, 0.031207365352494347
241.0, 0.03876269965543037
242.0, 0.04869025439257842
243.0, 0.05981515900357412
244.0, 0.07225243494284911
245.0, 0.08644263423553583
246.0, 0.09582758077069273
247.0, 0.10220199132135306
248.0, 0.10522083716615124
249.0, 0.10187136787479949
250.0, 0.09366780267410901
251.0, 0.08257338797151167
252.0, 0.06930623167512436
253.0, 0.05684810694543243
254.0, 0.04705333811921875
255.0, 0.03897361357047957
256.0, 0.0317527903616915
257.0, 0.027697876643040183
258.0, 0.02459517224077693
259.0, 0.022318679673031333
260.0, 0.021314859182011373
261.0, 0.02093977960192391
262.0, 0.021402912157096495
263.0, 0.022668482439046636
264.0, 0.022661663869250483
265.0, 0.02295466071060947
266.0, 0.023572228460131222
267.0, 0.02459063662811582
268.0, 0.02607224639775492
269.0, 0.026935821037313804
270.0, 0.027259946089456418
271.0, 0.027267422394416607
272.0, 0.028293981066242382
273.0, 0.028951677007504107
274.0, 0.02914795338628345
275.0, 0.03041090911914311
276.0, 0.03249726643025042
277.0, 0.03509025897474928
278.0, 0.03805733376180656
279.0, 0.041455382690888096
280.0, 0.04582306967751107
281.0, 0.051403607723227926
282.0, 0.058758853402301935
283.0, 0.06662866907421382
284.0, 0.07617757794004686
285.0, 0.08699872258536281
286.0, 0.09727893476784172
287.0, 0.10934788157049659
288.0, 0.1216479828751518
289.0, 0.13356865221437064
290.0, 0.1438837292984099
291.0, 0.15214005914498477
292.0, 0.15658444122999654
293.0, 0.15536309814726174
294.0, 0.15150688071082355
295.0, 0.1445259439701077
296.0, 0.13509032729940337
297.0, 0.12407727612262524
298.0, 0.11202701245726959
299.0, 0.0994118795467543
300.0, 0.08690070156367305
301.0, 0.07707087444983973
302.0, 0.06982394963411573
303.0, 0.064066666744086
304.0, 0.05958540167384603
305.0, 0.057821212239284346
306.0, 0.05869837421518299
307.0, 0.06206251139577832
308.0, 0.06808662573678141
309.0, 0.08088913120055845
310.0, 0.09629060588923762
311.0, 0.1147010468530466
312.0, 0.13746965961496788
313.0, 0.15928316831747266
314.0, 0.1782504120943823
315.0, 0.19252629941563168
316.0, 0.19564092623098847
317.0, 0.1868256195513464
318.0, 0.170443190016919
319.0, 0.14756623567885663
320.0, 0.11789774181010336
321.0, 0.09431519774536382
322.0, 0.07488924003338593
323.0, 0.058707694720022116
324.0, 0.04833403414137794
325.0, 0.04095479410008596
326.0, 0.036213581336206564
327.0, 0.03395589060016456
328.0, 0.0340126555485337
329.0, 0.03569346404950921
330.0, 0.03833321718267354
331.0, 0.04042266379872541
332.0, 0.04201620388187754
333.0, 0.0440883183684801
334.0, 0.0465798694424039
335.0, 0.04795044079020729
336.0, 0.04971036329281502
337.0, 0.05325976521285929
338.0, 0.05919435366554118
339.0, 0.0656493806527071
340.0, 0.07154509156376579
341.0, 0.07622413360092466
342.0, 0.07903795821926275
343.0, 0.07682984784403514
344.0, 0.06994003355823587
345.0, 0.06007838185786959
346.0, 0.0495248776897684
347.0, 0.03909638019058306
348.0, 0.030339414373957204
349.0, 0.023204616645276906
350.0, 0.017334616860584087
351.0, 0.013638193618899737
352.0, 0.010756977063420619
353.0, 0.008443921210534059
354.0, 0.006915962192853023
355.0, 0.006115370362403473
356.0, 0.005074108063526284
357.0, 0.0035699468198113577
358.0, 0.0035272293942581216
359.0, 0.0027560879653368386
360.0, 0.002261457209197908
361.0, 0.002703524649757068
362.0, 0.0017467685100050888
363.0, 0.0015565885187106298
364.0, 0.001437085586085336
365.0, 0.000589664818312886
366.0, 0.0009789587521651572
367.0, 0.0008700955931704557
368.0, 0.000720593496448812
369.0, 0.0015654081172041532
370.0, 0.0011261474038129508
371.0, 0.001080170133892506
372.0, 0.0013550473982864059
373.0, 0.0010670859435879822
374.0, 0.0014568431709255833
375.0, 0.0017611020327664441
376.0, 0.0018477901141614318
377.0, 0.00196988642687108
378.0, 0.002113502122457402
379.0, 0.0019708241305408385
380.0, 0.001502010199964664
381.0, 0.0015830980029438526
382.0, 0.0011516400404634932
383.0, 0.0009039298144294719
384.0, 0.0012353602576079155
385.0, 0.0013029014305339405
386.0, 0.0013049125753473766
387.0, 0.0012998220065519653
388.0, 0.0013402481099071466
389.0, 0.0011425270080870158
390.0, 0.0006384970611257449
391.0, 0.00017351957848842883
392.0, 0.00022782248238597733
393.0, 0.0002438384321500134
394.0, 0.0006468859705642812
395.0, 0.0009608875390986445
396.0, 0.0001673236069852317
397.0, 0.0003310468530362421
398.0, 0.0008689432339055628
399.0, 0.001388977495921536
400.0, 0.000978976650580804
401.0, 0.0009320734310275573
402.0, 0.0010863584691729428
403.0, 0.0012641105683356255
404.0, 0.0008548886571832776
405.0, 0.0008699649706974036
406.0, 0.0008412521283905807
407.0, 0.0006668663997307123
408.0, 0.0006011544351131061
409.0, 0.000607538023357311
410.0, 0.0005970510376982699
411.0, 0.0005474817716223197
412.0, 0.0006181564674745024
413.0, 0.0005581328696725937
414.0, 0.0005006970308692657
415.0, 0.000509500240495946
416.0, 0.000348705221341535
417.0, 0.00032356317698312875
418.0, 0.00027094466216729394
419.0, 7.201934183433982e-05
420.0, 3.519280447290329e-05
421.0, 0.0004407112219705537
422.0, 0.0010138594354054502
423.0, 0.0014905415381912758
424.0, 0.002142922832863217
425.0, 0.002822963195189867
426.0, 0.0036098618781293715
427.0, 0.004613496477618829
428.0, 0.006058674050828432
429.0, 0.007322514221081846
430.0, 0.008332660697021776
431.0, 0.009002304032930853
432.0, 0.00912180850176843
433.0, 0.008819470166236635
434.0, 0.008172522394920815
435.0, 0.007287643436479347
436.0, 0.005754299365528383
437.0, 0.004711913064254847
438.0, 0.004018793495453733
439.0, 0.0030368591922319364
440.0, 0.002625395436570089
441.0, 0.0024694510216874575
442.0, 0.0024343165745252574
443.0, 0.0022782355456888864
444.0, 0.0024902949273670045
445.0, 0.0026893671660807882
446.0, 0.002945549910525921
447.0, 0.003754429816680868
448.0, 0.0040983865565218745
449.0, 0.004981139307603192
450.0, 0.006461146808472798
451.0, 0.00784904288253671
452.0, 0.009760782698413179
453.0, 0.012139734305964944
454.0, 0.0148987078511219
455.0, 0.017681141626586225
456.0, 0.020183815503651212
457.0, 0.022818071332098993
458.0, 0.025327881666887205
459.0, 0.02565425286046068
460.0, 0.025694307667920246
461.0, 0.0247516128272177
462.0, 0.022689605779551886
463.0, 0.020238889854237874
464.0, 0.017713431437896367
465.0, 0.01589614689173962
466.0, 0.015040080155609654
467.0, 0.014758751918412059
468.0, 0.0164257895617551
469.0, 0.019735194521850578
470.0, 0.025039411697839145
471.0, 0.0355580085285382
472.0, 0.04991987335781672
473.0, 0.06873446284121264
474.0, 0.09174853876679948
475.0, 0.11410442561727321
476.0, 0.1279071883972864
477.0, 0.1331620886757567
478.0, 0.12861878213433697
479.0, 0.1055991178068603
480.0, 0.08059167511558316
481.0, 0.05814800059457922
482.0, 0.04054362809821174
483.0, 0.02877503264310572
484.0, 0.020592488473482856
485.0, 0.015209326158914786
486.0, 0.012183841771545143
487.0, 0.010307257129999666
488.0, 0.009321674087611594
489.0, 0.00869936052664784
490.0, 0.008259943091616425
491.0, 0.008406760680690706
492.0, 0.008649345749039626
493.0, 0.008636819975866758
494.0, 0.008316046526702689
495.0, 0.008505140078732527
496.0, 0.008736959716227077
497.0, 0.00885918511120013
498.0, 0.008928770830962727
499.0, 0.009811725230956494
500.0, 0.009893134908249982
501.0, 0.010191127873922408
502.0, 0.01096456208194054
503.0, 0.01123620758841564
504.0, 0.011924495491019253
505.0, 0.012961115047761203
506.0, 0.014280660096892836
507.0, 0.015624909753692491
508.0, 0.016751610745199114
509.0, 0.018066005729947616
510.0, 0.019566989626862426
511.0, 0.020552553188576222
512.0, 0.022247096394193207
513.0, 0.023979397338011705
514.0, 0.025883951990927582
515.0, 0.029440374426399622
516.0, 0.03290771681249129
517.0, 0.03680703382448103
518.0, 0.041316685109891504
519.0, 0.04659049919622185
520.0, 0.05300081684212235
521.0, 0.06011675063044436
522.0, 0.06836667863504528
523.0, 0.07946038888607462
524.0, 0.09308314669040157
525.0, 0.11105409729905226
526.0, 0.13355325894911468
527.0, 0.16030074072144176
528.0, 0.19579130251772664
529.0, 0.2387343284819929
530.0, 0.2896538360745385
531.0, 0.3503724204446103
532.0, 0.409342298411451
533.0, 0.4631798640484393
534.0, 0.5057806643772882
535.0, 0.5262579883624849
536.0, 0.5245157157709008
537.0, 0.49724183350747875
538.0, 0.4523346774591017
539.0, 0.40171590017247416
540.0, 0.3403858973092292
541.0, 0.28508856674756944
542.0, 0.2361846724861134
543.0, 0.19320230739683392
544.0, 0.15938538699036936
545.0, 0.13221400246362588
546.0, 0.11002351156229116
547.0, 0.09122526072857308
548.0, 0.07915804366854728
549.0, 0.06844680974591602
550.0, 0.059161145917926664
551.0, 0.05136998666947384
552.0, 0.045383665103021734
553.0, 0.04065827087676746
554.0, 0.0366574514610557
555.0, 0.03300542206264885
556.0, 0.029062422541127616
557.0, 0.026654914666678357
558.0, 0.024826736295375528
559.0, 0.02309515872210861
560.0, 0.021074514888641687
561.0, 0.019715778115357872
562.0, 0.018549237592265094
563.0, 0.017473155562283387
564.0, 0.016697723124602912
565.0, 0.015907859621287927
566.0, 0.014878914957736588
567.0, 0.013711667338458982
568.0, 0.012847903130595625
569.0, 0.012414739901690704
570.0, 0.011969352393052895
571.0, 0.011459718689646214
572.0, 0.010915353947429346
573.0, 0.010155919406447852
574.0, 0.009745464931118141
575.0, 0.00940881937573318
576.0, 0.00867961025136372
577.0, 0.008414724084454327
578.0, 0.008335279229609254
579.0, 0.008229344653439228
580.0, 0.007900983908304121
581.0, 0.00798908531601488
582.0, 0.0073685721165589625
583.0, 0.006842953314817983
584.0, 0.006925296899534098
585.0, 0.0067487576586893385
586.0, 0.006032297258207003
587.0, 0.005761617184687683
588.0, 0.006186820680668978
589.0, 0.005797280687702616
590.0, 0.005802572560810879
591.0, 0.005917771560373584
592.0, 0.006103112996500537
593.0, 0.006555549322390831
594.0, 0.007333214181051033
595.0, 0.008080841897749382
596.0, 0.00847289005498862
597.0, 0.007899942069305044
598.0, 0.007891948082102319
599.0, 0.007305914501104047
600.0, 0.006525536373294652
601.0, 0.006317684669022882
602.0, 0.005318484779729373
603.0, 0.004599927350976602
604.0, 0.004161109642322771
605.0, 0.003953251248774512
606.0, 0.0037589220403734776
607.0, 0.0035241507035622312
608.0, 0.0034101172386072688
609.0, 0.003442428484871373
610.0, 0.0029381185699377164
611.0, 0.0027849696111445564
612.0, 0.002559595648975091
613.0, 0.0022580518654596077
614.0, 0.0025977434295336717
615.0, 0.0023791657188829583
616.0, 0.0025216945246143655
617.0, 0.0028236727453001607
618.0, 0.0022479913959154896
619.0, 0.0023770184549970212
620.0, 0.0023395016080201454
621.0, 0.002074760878786375
622.0, 0.0016392563386085105
623.0, 0.0013146189684051963
624.0, 0.0014155539910863596
625.0, 0.0014542874996665114
626.0, 0.001050387316666736
627.0, 0.001558680290007078
628.0, 0.0018173876288858858
629.0, 0.0019692892123646523
630.0, 0.002068186172654632
631.0, 0.001956021865869076
632.0, 0.002086237123040539
633.0, 0.002168842037951623
634.0, 0.0021748349345926646
635.0, 0.0022922790114880635
636.0, 0.0021810744599253832
637.0, 0.0020319576166711005
638.0, 0.0018731914319984136
639.0, 0.0017045411165527793
640.0, 0.0015085914430802874
641.0, 0.0013107763929589241
642.0, 0.0011126243067584199
643.0, 0.0009309720159600505
644.0, 0.0011424370484740833
645.0, 0.0011260398710307448
646.0, 0.0012252888039267081
647.0, 0.0015413289382284847
648.0, 0.0014843334225744219
649.0, 0.0016572154662343058
650.0, 0.0015670206281434402
651.0, 0.001188043436368253
652.0, 0.0008757566983697577
653.0, 0.000880755675559974
654.0, 0.0007393003946124454
655.0, 0.0005798915602572616
656.0, 0.000691635747956021
657.0, 0.0010950109991686155
658.0, 0.0010635459251282563
659.0, 0.0009480135723034111
660.0, 0.0010280097518968053
661.0, 0.0008703946023560934
662.0, 0.0005554562303728019
663.0, 0.00029950595328578705
664.0, 0.0002498606864426424
665.0, 0.0006298189531608009
666.0, 0.00042982081957042306
667.0, 0.00021566567432288285
668.0, 0.00021859604093863586
669.0, 0.0006693475628260937
670.0, 0.0002100325963224552
671.0, 0.00010232655674792394
672.0, 0.00014297913649830734
673.0, 4.8609289253737846e-05
674.0, 0.0003714486915410364
675.0, 0.00022484463544081263
676.0, 8.517449251085044e-05
677.0, 0.000171977845156331
678.0, 0.0002445035444702305
679.0, 0.00013281479055374682
680.0, 0.00014034250689673656
681.0, 0.00022837359858260398
682.0, 0.00011965047697682916
683.0, 0.00023534683082146262
684.0, 0.0002257720258310791
685.0, 0.0001811597593652841
686.0, 0.00023716082033098517
687.0, 0.0002776080783412335
688.0, 0.0003123698075766333
689.0, 0.0003343774251228496
690.0, 0.0003329643292465467
691.0, 0.00026959316850596433
692.0, 0.00018120812159566892
693.0, 0.0003387307779986996
694.0, 0.0005477226074358679
695.0, 0.0001993038316879282
696.0, 0.0003825172371334335
697.0, 0.00024008848452048283
698.0, 4.95452153367669e-05
699.0, 0.00016376803028554041
700.0, 9.908926996515329e-05
701.0, 0.00018414853232096934
702.0, 0.00026376932201318707
703.0, 0.00024467109609167944
704.0, 6.818519177556819e-05
705.0, 3.724950013380925e-05
706.0, 3.951363172434593e-05
707.0, 5.566676738219407e-05
708.0, 9.389998516696982e-05
709.0, 0.00015022067677483892
710.0, 0.0001355473267368998
711.0, 9.127435852972524e-05
712.0, 7.10570335373346e-05
713.0, 0.00021225213587814325
714.0, 0.000275439890255739
715.0, 0.00027021441721701496
716.0, 0.00022006439421809034
717.0, 0.00018925747007782648
718.0, 0.0003415913375797944
719.0, 0.0005233723140225641
720.0, 0.0005514884575362766
721.0, 0.00021873013088281854
722.0, 0.00013197322241711353
723.0, 0.0003694227577589003
724.0, 0.0006720107667176455
725.0, 0.000842053618439595
726.0, 0.0007012448130423286
727.0, 0.0005383682751881626
728.0, 0.000471748719515486
729.0, 0.0004914683773332033
730.0, 0.000515155439608002
731.0, 0.00014957016002672833
732.0, 0.0003244131218684417
733.0, 0.0007832061049883485
734.0, 0.0011879486054776189
735.0, 0.0009346052241870187
736.0, 0.0008829614342357569
737.0, 0.0007161575288452239
738.0, 0.0006189172522874577
739.0, 0.001466151422043126
740.0, 0.0007032627908399385
741.0, 0.0010904697559693988
742.0, 0.0017677600797597387
743.0, 0.0014548009343740606
744.0, 0.0017310484882268806
745.0, 0.0022565242009330837
746.0, 0.002940169562898092
747.0, 0.003868322846930046
748.0, 0.005559854325080682
749.0, 0.006726224935170239
750.0, 0.008563699327032125
751.0, 0.010973910740961568
752.0, 0.013502052081613496
753.0, 0.014915598176271602
754.0, 0.01570843648198023
755.0, 0.01560044202143057
756.0, 0.014462663811804308
757.0, 0.012359144637080603
758.0, 0.011064862369203439
759.0, 0.009424539836359191
760.0, 0.007588552112719667
761.0, 0.006184299293303121
762.0, 0.004709765252583094
763.0, 0.004499827296612527
764.0, 0.004192791502237686
765.0, 0.003128809359509654
766.0, 0.0027760786089151106
767.0, 0.0022979431111845605
768.0, 0.0022130659174699682
769.0, 0.0023524565953289716
770.0, 0.0022095893274925167
771.0, 0.0016985736389978489
772.0, 0.0018555395748148585
773.0, 0.0021107926209173993
774.0, 0.002054469539569239
775.0, 0.0017098960758459934
776.0, 0.002019219332300381
777.0, 0.0016005001357397985
778.0, 0.001018469466799106
779.0, 0.0017941620307311895
780.0, 0.0012212726728101828
781.0, 0.0011167713368974675
782.0, 0.0012772678298574478
783.0, 0.001499868733452507
784.0, 0.0015855759594202573
785.0, 0.001855442306138311
786.0, 0.0019280602758454568
787.0, 0.001866896328662205
788.0, 0.0019101202658927759
789.0, 0.0017796246004881259
790.0, 0.0014630699161531139
791.0, 0.0013175143689126078
792.0, 0.0013751579477012318
793.0, 0.0007978161007751757
794.0, 0.0007715842202423265
795.0, 0.0008445662747475933
796.0, 0.0009478517404134122
797.0, 0.001096720575808829
798.0, 0.0013971750041070297
799.0, 0.001355777596265896
800.0, 0.001241816876305067
801.0, 0.0011383348832364716
802.0, 0.000833614601581746
803.0, 0.0008394327752179499
804.0, 0.0007290325515788393
805.0, 0.000801954412952854
806.0, 0.0013580762531097143
807.0, 0.0008937035272547345
808.0, 0.0005302042928756625
809.0, 0.000731779558644666
810.0, 0.0012654833224454499
811.0, 0.001032524223961664
812.0, 0.0007581571978080849
813.0, 0.0007562495735950742
814.0, 0.0009302195467330916
815.0, 0.0010597333162256529
816.0, 0.0003051853763385721
817.0, 0.0010074079967759924
818.0, 0.0012028590439485966
819.0, 0.0008957991549155828
820.0, 0.001122087864614654
821.0, 0.0007769654699838597
822.0, 0.0006977101069052581
823.0, 0.0009513124340775486
824.0, 0.001321576062238272
825.0, 0.0007308274758392949
826.0, 0.0012075286669091837
827.0, 0.0015125597181906186
828.0, 0.001580183902736672
829.0, 0.0016223729743845491
830.0, 0.002068437816254711
831.0, 0.0016536080577448215
832.0, 0.0015436932022242738
833.0, 0.0018604649989458306
834.0, 0.0016257628514409184
835.0, 0.0026627450918130903
836.0, 0.0029451229608069406
837.0, 0.002800041767815925
838.0, 0.0026614897348257063
839.0, 0.002681963728529043
840.0, 0.0028848184364392367
841.0, 0.00255404672835588
842.0, 0.002201033901183672
843.0, 0.0028393058923161024
844.0, 0.0022814981600478798
845.0, 0.0021420459330949645
846.0, 0.0020466565937261615
847.0, 0.001855998708121783
848.0, 0.0017479114450897851
849.0, 0.001396349418599868
850.0, 0.0009504055776545076
851.0, 0.0011356498758776342
852.0, 0.002201843893328861
853.0, 0.0011764778729297589
854.0, 0.0014842894174965195
855.0, 0.001459846001524715
856.0, 0.0010433203238585777
857.0, 0.0008549376435900699
858.0, 0.0006774124195025294
859.0, 0.0005110033270750473
860.0, 0.0005340764380958945
861.0, 0.0007573799218250608
862.0, 0.0009403229914849015
863.0, 0.0005677458564586027
864.0, 0.0004959112520677897
865.0, 0.00043650181700235536
866.0, 0.00014902424801543522
867.0, 0.00020055914370047348
868.0, 0.00032952617185219964
869.0, 0.00039365146508352347
870.0, 0.000309729301067118
871.0, 3.804582082653159e-05
872.0, 0.00026228788022389463
873.0, 0.00022171970802656226
874.0, 0.00019770398492536105
875.0, 0.00035352886675114946
876.0, 0.000781805886771843
877.0, 0.0004086298571895758
878.0, 0.00028528130222835006
879.0, 0.0004242258843137353
880.0, 0.0006233778389033639
881.0, 0.00013453771434969897
882.0, 0.00012054105244365598
883.0, 0.00014331921045027864
884.0, 0.00029199438891722916
885.0, 0.0006502944699551844
886.0, 0.0003214144223957805
887.0, 0.00023023082276692905
888.0, 0.0002721577468752642
889.0, 0.0003074291156549191
890.0, 0.0001615391028145517
891.0, 0.0005024469430623079
892.0, 0.00040098420401447573
893.0, 0.00020394799147763947
894.0, 9.211878725823946e-05
895.0, 7.03326501494129e-05
896.0, 0.0005593890306774785
897.0, 0.0006008452999849562
898.0, 0.00043110539041489707
899.0, 0.00031350808152116704
900.0, 0.00039447530888574297
901.0, 0.0004755716926962772
902.0, 0.0004844074529946921
903.0, 0.0003712169736637278
904.0, 0.00014737261272043195
905.0, 0.00022887981618675436
906.0, 0.0002622440497908127
907.0, 0.00023867747820299545
908.0, 0.00018962506355545952
909.0, 0.00017142661735694903
910.0, 0.000294171193482345
911.0, 0.00012711013221635694
912.0, 0.00021141477818282777
913.0, 0.0005375814332223594
914.0, 0.0006019549596051775
915.0, 0.0005658356631866335
916.0, 0.0003073385971713754
917.0, 0.00014445187725635084
918.0, 0.00018441988482312914
919.0, 0.00017216108356004766
920.0, 0.0006408625550454267
921.0, 0.0004763652613403061
922.0, 0.0003564996331385144
923.0, 0.00073954218887713
924.0, 0.0009357507115048348
925.0, 0.0004826904753935762
926.0, 0.00038682617109820613
927.0, 0.0004308401760909654
928.0, 0.0002721424360247247
929.0, 0.00020870626765090574
930.0, 0.00031130528156091364
931.0, 0.00036169607978277446
932.0, 0.00046223199381803065
933.0, 0.0007877961551718275
934.0, 0.0010724293320907713
935.0, 0.0008259126741343162
936.0, 0.0003960875437476939
937.0, 5.368034201892563e-05
938.0, 4.379792698328459e-05
939.0, 6.459262174246866e-05
940.0, 0.0008183521594440604
941.0, 0.0008347027751230891
942.0, 0.0002305817600474618
943.0, 0.0005156319724697823
944.0, 0.0008006967719962343
945.0, 0.0006856093923481081
946.0, 0.0006375711526780146
947.0, 0.0006732685715674224
948.0, 0.0001905124749523145
949.0, 0.0005365323352803908
950.0, 0.00047585275786768855
951.0, 0.00044358429466763894
952.0, 0.0006618669726557109
953.0, 0.0008447019023547683
954.0, 0.0006558556294441544
955.0, 0.0008812909200360599
956.0, 0.0009838147155963426
957.0, 0.0006218258437796715
958.0, 0.00018749918265920795
959.0, 7.407608842066308e-05
960.0, 0.00012637392369737802
961.0, 0.0001802971738078295
962.0, 0.0002612653383248182
963.0, 0.0011036616638315315
964.0, 0.000370539643388895
965.0, 0.00038779071198712437
966.0, 0.0009371345349834984
967.0, 0.0013865227011885689
968.0, 0.0012395674521435496
969.0, 0.0014325313965250141
970.0, 0.0013376054822128267
971.0, 0.0012782805827776934
972.0, 0.00160082912916542
973.0, 0.001622502424171381
974.0, 0.002024104027913837
975.0, 0.002229236623078652
976.0, 0.002297244844407198
977.0, 0.002506459665643038
978.0, 0.0034725394954617447
979.0, 0.004251144306805556
980.0, 0.005479537201436557
981.0, 0.007142160514827244
982.0, 0.00897273736032472
983.0, 0.010455336724901251
984.0, 0.013699277965787328
985.0, 0.015600884821883182
986.0, 0.015958986731075618
987.0, 0.015552086259444532
988.0, 0.014808157508166574
989.0, 0.011745442567733716
990.0, 0.00967660169248146
991.0, 0.008686952647425243
992.0, 0.007765420253875315
993.0, 0.006519353304988835
994.0, 0.005938586592773065
995.0, 0.006051158270418673
996.0, 0.006662142061749019
997.0, 0.007460633546591773
998.0, 0.008165179964164635
999.0, 0.007856540211036683
1000.0, 0.007054274375993815
1001.0, 0.006289382950260781
1002.0, 0.0059105403424304075
1003.0, 0.0045748146876450554
1004.0, 0.0041348939402777235
1005.0, 0.003750420186131583
1006.0, 0.0035429983941384804
1007.0, 0.0037599082672282558
1008.0, 0.00341596216552478
1009.0, 0.0029713421239469713
1010.0, 0.0030345285422586892
1011.0, 0.003314442639920192
1012.0, 0.0033254953285524733
1013.0, 0.0030853052278942395
1014.0, 0.0033042665451582815
1015.0, 0.003306554241880779
1016.0, 0.0031931395596220815
1017.0, 0.003214919842672964
1018.0, 0.0033779160364513384
1019.0, 0.0037981394409980188
1020.0, 0.004130581745263335
1021.0, 0.004402791016354193
1022.0, 0.004587937192249445
1023.0, 0.004096820927413878
1024.0, 0.004638892358274818
1025.0, 0.00461299510959281
1026.0, 0.004528246443947192
1027.0, 0.004904075689633369
1028.0, 0.005232432379093306
1029.0, 0.004909647187053785
1030.0, 0.005946023025262427
1031.0, 0.007599871377113625
1032.0, 0.00935643114390617
1033.0, 0.012072074231719751
1034.0, 0.016071623442531983
1035.0, 0.019536821482388608
1036.0, 0.02196501805366828
1037.0, 0.02284462896576657
1038.0, 0.021374731619120305
1039.0, 0.017237159865367696
1040.0, 0.014818907085591089
1041.0, 0.013174643044295388
1042.0, 0.011775976667664197
1043.0, 0.010889683460782115
1044.0, 0.010158055478999433
1045.0, 0.009404990030121423
1046.0, 0.00895839740858196
1047.0, 0.008928564850907005
1048.0, 0.009235827832396667
1049.0, 0.010093201856174124
1050.0, 0.010791793554914301
1051.0, 0.011372360867790747
1052.0, 0.012088237408752409
1053.0, 0.013248741745883483
1054.0, 0.014417508660726162
1055.0, 0.015665518993724425
1056.0, 0.01721507063988938
1057.0, 0.01881330806893092
1058.0, 0.020178602152146022
1059.0, 0.02198402932172394
1060.0, 0.0247724703413894
1061.0, 0.02786020758183239
1062.0, 0.031669885690653155
1063.0, 0.036634806756444045
1064.0, 0.04252326063392826
1065.0, 0.0496809571688703
1066.0, 0.05893359417462252
1067.0, 0.07203617879605455
1068.0, 0.09041697946341327
1069.0, 0.11498075350224482
1070.0, 0.15424824341649773
1071.0, 0.21054022823778987
1072.0, 0.2977293026476798
1073.0, 0.4257992317511108
1074.0, 0.5988754321359893
1075.0, 0.7995810272589581
1076.0, 0.9419123003809841
1077.0, 0.963399381168518
1078.0, 0.8660335809479971
1079.0, 0.7000563998928151
1080.0, 0.5230290692976602
1081.0, 0.3838407889986922
1082.0, 0.27968853800872806
1083.0, 0.20454310819213792
1084.0, 0.1507331032502754
1085.0, 0.11653596531870247
1086.0, 0.09276290802939857
1087.0, 0.07575711292841492
1088.0, 0.06284463864194292
1089.0, 0.05225195281832936
1090.0, 0.044657443158714845
1091.0, 0.03907273019720796
1092.0, 0.03525384327879848
1093.0, 0.031044490054860763
1094.0, 0.026602957679388122
1095.0, 0.025018035942748734
1096.0, 0.022944470826391346
1097.0, 0.020948608661611492
1098.0, 0.019440311870846577
1099.0, 0.017966112226228705
1100.0, 0.015800242521171643
1101.0, 0.01487823832820461
1102.0, 0.013706426970463035
1103.0, 0.012504753159649048
1104.0, 0.011415348314520917
1105.0, 0.010484893224799527
1106.0, 0.009507655707987157
1107.0, 0.008918416654238977
1108.0, 0.008204742156701023
1109.0, 0.007518583197401442
1110.0, 0.007097782075844331
1111.0, 0.007177911212213654
1112.0, 0.007408500461120327
1113.0, 0.007033009884171433
1114.0, 0.006193623662338589
1115.0, 0.005578101951052865
1116.0, 0.005969296397832453
1117.0, 0.005016270732397119
1118.0, 0.004867334536234356
1119.0, 0.00430106707136028
1120.0, 0.0038555428671681073
1121.0, 0.004203778545221729
1122.0, 0.004437001363794937
1123.0, 0.004574358337857434
1124.0, 0.004278521786907774
1125.0, 0.003894760744084894
1126.0, 0.0037473010720666983
1127.0, 0.003979346796868036
1128.0, 0.0036421756397319906
1129.0, 0.003875017063379282
1130.0, 0.003970627136892649
1131.0, 0.003826495476873818
1132.0, 0.003719833401853568
1133.0, 0.0037153383349276922
1134.0, 0.0035819483850480184
1135.0, 0.003398429600029858
1136.0, 0.003285115518855824
1137.0, 0.00320522098608955
1138.0, 0.0027043121832554164
1139.0, 0.0025913724746883626
1140.0, 0.003119580687768714
1141.0, 0.0034637526081249463
1142.0, 0.003215582663812243
1143.0, 0.0025621695703036272
1144.0, 0.0030612432739395537
1145.0, 0.0027978194399521576
1146.0, 0.003018025130642422
1147.0, 0.003251670859051299
1148.0, 0.0029042333177707576
1149.0, 0.0033420309301481488
1150.0, 0.0031794249547651755
1151.0, 0.0034800004740873163
1152.0, 0.003792846066464522
1153.0, 0.00386743961369613
1154.0, 0.003965145468167993
1155.0, 0.005109718698786992
1156.0, 0.005155684461692587
1157.0, 0.005480543427193955
1158.0, 0.006020218447139439
1159.0, 0.006458776032014685
1160.0, 0.008672267177057536
1161.0, 0.009714002354146857
1162.0, 0.011216130469128923
1163.0, 0.013048511651171435
1164.0, 0.01525365493082904
1165.0, 0.01843695118226197
1166.0, 0.020641873323044655
1167.0, 0.025670716549989446
1168.0, 0.030976800035695716
1169.0, 0.03605867204123023
1170.0, 0.04094787866952153
1171.0, 0.042763193912767096
1172.0, 0.04307152468345267
1173.0, 0.04111828833545283
1174.0, 0.037463238430395014
1175.0, 0.03279715386811344
1176.0, 0.027631418852078166
1177.0, 0.02380266288508307
1178.0, 0.01879964086594571
1179.0, 0.015172034099276333
1180.0, 0.012693933759436145
1181.0, 0.010258133385127547
1182.0, 0.008889814803697238
1183.0, 0.00809408606868054
1184.0, 0.007144740402779444
1185.0, 0.006046031653023917
1186.0, 0.005036213643850214
1187.0, 0.004462591149328314
1188.0, 0.0037737664083975185
1189.0, 0.0034358391949712115
1190.0, 0.002982445442886071
1191.0, 0.002741997814465511
1192.0, 0.0029222951520876616
1193.0, 0.0024958653630478412
1194.0, 0.0025113110181965922
1195.0, 0.001991283789299107
1196.0, 0.0021501513940065764
1197.0, 0.002754490500120959
1198.0, 0.0024824289491714216
1199.0, 0.002996343040631026
1200.0, 0.002255214070910366
1201.0, 0.0017701342643864015
1202.0, 0.001786361168470437
1203.0, 0.0019793381967233223
1204.0, 0.0015900116379740368
1205.0, 0.002038456999717423
1206.0, 0.0016045052898001817
1207.0, 0.0015318259615885235
1208.0, 0.0017595444402354293
1209.0, 0.0016072347975989306
1210.0, 0.0011625367012623425
1211.0, 0.0013333284850650254
1212.0, 0.0016861953684888494
1213.0, 0.0013237190586470986
1214.0, 0.000737278173398378
1215.0, 0.0016810730529453206
1216.0, 0.00169923025726962
1217.0, 0.001278083817956816
1218.0, 0.0009066463599640466
1219.0, 0.0010168262831330053
1220.0, 0.0014551722178806886
1221.0, 0.0009225304769569729
1222.0, 0.001466112226130684
1223.0, 0.0011900320179996952
1224.0, 0.0007953530382424742
1225.0, 0.0009486113286711647
1226.0, 0.0017639460170592114
1227.0, 0.0013797126135959574
1228.0, 0.0009401111553862399
1229.0, 0.0010767881125953037
1230.0, 0.0010979762532024719
1231.0, 0.0010873621374120086
1232.0, 0.0017800634139472993
1233.0, 0.0008454864020802208
1234.0, 0.000912906477961946
1235.0, 0.0013272758296263112
1236.0, 0.0013880053313938404
1237.0, 0.001046074496158785
1238.0, 0.0013120944603353482
1239.0, 0.001353087488390321
1240.0, 0.000952301061761166
1241.0, 0.0007523870846483925
1242.0, 0.0009738258231843537
1243.0, 0.0014592703102328645
1244.0, 0.0015918563341346568
1245.0, 0.0009302225367126016
1246.0, 0.0007105820552478244
1247.0, 0.0004442829129785427
1248.0, 0.00032409902192841254
1249.0, 0.000713598191085626
1250.0, 0.0003119379582345472
1251.0, 0.0008352145542481798
1252.0, 0.0010631287618798042
1253.0, 0.0009288264152726934
1254.0, 0.000925811301666565
1255.0, 0.0016270367640670966
1256.0, 0.0010109352190576344
1257.0, 0.0009430423998458335
1258.0, 0.0009843105666924395
1259.0, 0.0007392583026260508
1260.0, 0.00046629298672519725
1261.0, 0.0011270299393365054
1262.0, 0.000939938660739787
1263.0, 0.0009192620001132046
1264.0, 0.0011612304551317058
1265.0, 0.0012269639840964044
1266.0, 0.000995722429739484
1267.0, 0.0012089914550816993
1268.0, 0.0004683945430168812
1269.0, 0.0004301643272842925
1270.0, 0.00047029569417229074
1271.0, 0.0005031131231226729
1272.0, 0.0006195392856977031
1273.0, 0.0007360066263218606
1274.0, 0.0009124577727735987
1275.0, 0.0010541293996832249
1276.0, 0.0006559581114022937
1277.0, 0.0001302044351735566
1278.0, 7.926421452153108e-05
1279.0, 8.75288864559457e-05
1280.0, 0.00016092610390462358
1281.0, 8.175971611212515e-05
1282.0, 8.178501612824017e-05
1283.0, 0.00013778057581876642
1284.0, 0.0001901847565474849
1285.0, 0.0007954805460646749
1286.0, 0.0004923802045006399
1287.0, 0.0004355260579719024
1288.0, 0.0002867751279555414
1289.0, 0.0002751056044430975
1290.0, 0.0008299315030898013
1291.0, 0.0008662863879962795
1292.0, 0.0006631720633812412
1293.0, 0.0002513807946968718
1294.0, 7.70798940721567e-05
1295.0, 0.00014046441898031445
1296.0, 0.00012091333231803756
1297.0, 0.0002653480156148363
1298.0, 0.00015421648506129624
1299.0, 9.667875938643347e-05
1300.0, 0.000251331030570594
1301.0, 0.0004540010912724654
1302.0, 0.0003714796472565816
1303.0, 0.00021204495002108897
1304.0, 0.0003487644394026219
1305.0, 0.0003776309985971707
1306.0, 0.0006553962124039756
1307.0, 0.0009609576427698093
1308.0, 0.0006904083687689685
1309.0, 0.0005865017647630451
1310.0, 0.00022931235538708425
1311.0, 0.00022794238179733184
1312.0, 0.00035750736606368025
1313.0, 0.0005428581468683532
1314.0, 0.0008075511360290578
1315.0, 0.00030362421939864764
1316.0, 0.0009342059437623126
1317.0, 0.0012980715409647884
1318.0, 0.0009315275747733344
1319.0, 0.00033146824264840925
1320.0, 0.00041004828002157764
1321.0, 0.0006143712972871844
1322.0, 0.000757988172416317
1323.0, 0.0004268709329138845
1324.0, 0.00015253059443652995
1325.0, 9.534313094537333e-05
1326.0, 0.0001157711259696925
1327.0, 0.000544515430432351
1328.0, 0.00014026877568930658
1329.0, 8.54716440164975e-05
1330.0, 0.00019171838526205282
1331.0, 0.00024388980468157773
1332.0, 0.0002861562207496438
1333.0, 0.0010097298101469864
1334.0, 0.0008042555995240668
1335.0, 0.0005198632043767297
1336.0, 0.00040707934880145877
1337.0, 0.00039722794248888836
1338.0, 0.00031246561946212574
1339.0, 0.00018306626669249986
1340.0, 0.00012983338748977447
1341.0, 7.414049929259049e-05
1342.0, 0.0002626883348430125
1343.0, 0.0006010217838461169
1344.0, 0.0009406887480665743
1345.0, 0.001406504418083179
1346.0, 0.0005057330254111473
1347.0, 0.0001579215465724995
1348.0, 0.000310653108379428
1349.0, 0.0008381580508443
1350.0, 0.0013843010325476283
1351.0, 0.0013234214252131596
1352.0, 0.0006375483817865067
1353.0, 0.0011314334625840128
1354.0, 0.0008262992750577824
1355.0, 0.000621002432215811
1356.0, 0.0007868330288370667
1357.0, 9.57005154585696e-05
1358.0, 0.001239064895224387
1359.0, 0.0004754410141088306
1360.0, 0.0003651751250278384
1361.0, 0.0008094520794866625
1362.0, 0.0011196429136059284
1363.0, 0.0007810225346678726
1364.0, 0.00038772303069749243
1365.0, 0.0014344429181249118
1366.0, 0.0010413658168765007
1367.0, 0.0004547508115110243
1368.0, 0.0006802218502508807
1369.0, 0.0015497471398740364
1370.0, 0.0009849540896893284
1371.0, 0.0007835850598189476
1372.0, 0.0014800804151246687
1373.0, 0.0016600875332464678
1374.0, 0.0012627448504813766
1375.0, 0.0009685661017485671
1376.0, 0.0013445162250480267
1377.0, 0.0005287390412237409
1378.0, 0.0007540255911854635
1379.0, 0.0008152720044095492
1380.0, 0.0011695682629424137
1381.0, 0.0017474031898485484
1382.0, 0.0014339496274968536
1383.0, 0.0013618602504597722
1384.0, 0.0015686246125253326
1385.0, 0.001627247012409194
1386.0, 0.0016303070459882725
1387.0, 0.0017286576829611666
1388.0, 0.0018918066802263219
1389.0, 0.001523450743112286
1390.0, 0.001244530457948167
1391.0, 0.0009205577729296026
1392.0, 0.001029941599304095
1393.0, 0.0012053338432837036
1394.0, 0.0012702445552984758
1395.0, 0.002253088960839057
1396.0, 0.0015717314585387198
1397.0, 0.002358590753741048
1398.0, 0.002552903353383176
1399.0, 0.0021532371941603116
1400.0, 0.0016254697910483037
1401.0, 0.0012063458459318666
1402.0, 0.0011239007503449233
1403.0, 0.0009276582877446489
1404.0, 0.0008785512655699271
1405.0, 0.0008767567057585374
1406.0, 0.0010167404939518544
1407.0, 0.001380691068999677
1408.0, 0.0015420407303995021
1409.0, 0.0021635518923048794
1410.0, 0.001949032772943775
1411.0, 0.0018697431556830811
1412.0, 0.001899018835503691
1413.0, 0.00195812859808647
1414.0, 0.002406732651671163
1415.0, 0.0024510523643378667
1416.0, 0.0019607414480200453
1417.0, 0.001955496725008564
1418.0, 0.0018943979951493327
1419.0, 0.0015853355197650266
1420.0, 0.0013303442543866775
1421.0, 0.0013003094264443932
1422.0, 0.000887045325259682
1423.0, 0.0011369684586114022
1424.0, 0.0013402750367457017
1425.0, 0.0015803853856699633
1426.0, 0.002038280455571702
1427.0, 0.0023764711633981047
1428.0, 0.0014108068166003656
1429.0, 0.0013105913665347314
1430.0, 0.001606308182294127
1431.0, 0.0016576237612113314
1432.0, 0.0014779649893832281
1433.0, 0.0014220019249450292
1434.0, 0.0011412486725518342
1435.0, 0.00041343084058430204
1436.0, 0.0016179804698457211
1437.0, 0.0019861624045416824
1438.0, 0.0015152574588451586
1439.0, 0.0013409801845704085
1440.0, 0.0021438589156826827
1441.0, 0.0021436396969961658
1442.0, 0.0018243152200601446
1443.0, 0.0013125398898538487
1444.0, 0.00144744373967738
1445.0, 0.0016151813119108733
1446.0, 0.001165917959439976
1447.0, 0.0017382326494450777
1448.0, 0.0012189015340527622
1449.0, 0.0018001192544482047
1450.0, 0.0020942046191034804
1451.0, 0.0016163739415328985
1452.0, 0.0013550107186162635
1453.0, 0.0025351736770312444
1454.0, 0.002043791332680624
1455.0, 0.0019258733729113772
1456.0, 0.001747428856254721
1457.0, 0.0015577700249184627
1458.0, 0.0015425956013327383
1459.0, 0.0016457219152381448
1460.0, 0.0014389043399392722
1461.0, 0.0013299745479562603
1462.0, 0.0016676619052222715
1463.0, 0.0016599534158672994
1464.0, 0.0015816067468961408
1465.0, 0.00177963647787363
1466.0, 0.002213487357681478
1467.0, 0.0021505575304300107
1468.0, 0.0013492974126802998
1469.0, 0.002536599375092528
1470.0, 0.0021623989265203095
1471.0, 0.001065041792105211
1472.0, 0.0009099866214758725
1473.0, 0.0019841895808966168
1474.0, 0.0013910048620962361
1475.0, 0.001137126504234172
1476.0, 0.001790416487919741
1477.0, 0.0013738902018618046
1478.0, 0.0009441241896887405
1479.0, 0.0012328662372568982
1480.0, 0.00112245272520818
1481.0, 0.0009696784056104587
1482.0, 0.002135972886746725
1483.0, 0.002000884215007685
1484.0, 0.0014324323059293818
1485.0, 0.0014304000142722649
1486.0, 0.0017574153184895967
1487.0, 0.0008805719006798412
1488.0, 0.0017882494507751377
1489.0, 0.001438594956683043
1490.0, 0.001308433361294655
1491.0, 0.0016512528935617636
1492.0, 0.00139891875134298
1493.0, 0.00041697703710039244
1494.0, 0.001445320246553505
1495.0, 0.0011442583110724638
1496.0, 0.0003570333255766276
1497.0, 0.001447950570445692
1498.0, 0.002131271438001493
1499.0, 0.0013448195240345817
1500.0, 0.00044365992122155336
1501.0, 0.0020569440727823654
1502.0, 0.0012273205978879714
1503.0, 0.0009307764695230233
1504.0, 0.0008628496479123627
1505.0, 0.0005860767357739072
1506.0, 0.00042819019573079963
1507.0, 0.0009872739955872993
1508.0, 0.0017676422920982712
1509.0, 0.001363721338299526
1510.0, 0.0011687538361674207
1511.0, 0.0017109250422649548
1512.0, 0.0016642176798827935
1513.0, 0.0012517733064003242
1514.0, 0.0015387851011150417
1515.0, 0.0007581885547959352
1516.0, 0.0007473838429677675
1517.0, 0.0009464216633583434
1518.0, 0.00042862136791331544
1519, 0.0
1520, 0.0
1521, 0.0
1522, 0.0
1523, 0.0
1524, 0.0
1525, 0.0
1526, 0.0
1527, 0.0
1528, 0.0
1529, 0.0
1530, 0.0
1531, 0.0
1532, 0.0
1533, 0.0
1534, 0.0
1535, 0.0
1536, 0.0
1537, 0.0
1538, 0.0
1539, 0.0
1540, 0.0
1541, 0.0
1542, 0.0
1543, 0.0
1544, 0.0
1545, 0.0
1546, 0.0
1547, 0.0
1548, 0.0
1549, 0.0
1550, 0.0
1551, 0.0
1552, 0.0
1553, 0.0
1554, 0.0
1555, 0.0
1556, 0.0
1557, 0.0
1558, 0.0
1559, 0.0
1560, 0.0
1561, 0.0
1562, 0.0
1563, 0.0
1564, 0.0
1565, 0.0
1566, 0.0
1567, 0.0
1568, 0.0
1569, 0.0
1570, 0.0
1571, 0.0
1572, 0.0
1573, 0.0
1574, 0.0
1575, 0.0
1576, 0.0
1577, 0.0
1578, 0.0
1579, 0.0
1580, 0.0
1581, 0.0
1582, 0.0
1583, 0.0
1584, 0.0
1585, 0.0
1586, 0.0
1587, 0.0
1588, 0.0
1589, 0.0
1590, 0.0
1591, 0.0
1592, 0.0
1593, 0.0
1594, 0.0
1595, 0.0
1596, 0.0
1597, 0.0
1598, 0.0
1599, 0.0
