30, 0.0
31, 0.0
32, 0.0
33, 0.0
34, 0.0
35, 0.0
36, 0.0
37, 0.0
38, 0.0
39, 0.0
40, 0.0
41, 0.0
42, 0.0
43, 0.0
44, 0.0
45, 0.0
46, 0.0
47, 0.0
48, 0.0
49, 0.0
50, 0.0
51, 0.0
52, 0.0
53, 0.0
54, 0.0
55, 0.0
56, 0.0
57, 0.0
58, 0.0
59, 0.0
60, 0.0
61, 0.0
62, 0.0
63, 0.0
64, 0.0
65, 0.0
66, 0.0
67, 0.0
68, 0.0
69, 0.0
70, 0.0
71, 0.0
72, 0.0
73, 0.0
74, 0.0
75, 0.0
76, 0.0
77, 0.0
78, 0.0
79, 0.0
80, 0.0
81, 0.0
82, 0.0
83, 0.0
84, 0.0
85, 0.0
86, 0.0
87, 0.0
88, 0.0
89, 0.0
90, 0.0
91, 0.0
92, 0.0
93, 0.0
94, 0.0
95, 0.0
96, 0.0
97, 0.0
98, 0.0
99, 0.0
100, 0.0
101, 0.0
102, 0.0
103, 0.0
104, 0.0
105, 0.0
106, 0.0
107, 0.0
108, 0.0
109, 0.0
110, 0.0
111, 0.0
112, 0.0
113, 0.0
114, 0.0
115, 0.0
116, 0.0
117, 0.0
118, 0.0
119, 0.0
120, 0.0
121, 0.0
122, 0.0
123, 0.0
124, 0.0
125, 0.0
126, 0.0
127, 0.0
128, 0.0
129, 0.0
130, 0.0
131, 0.0
132, 0.0
133, 0.0
134, 0.0
135, 0.0
136, 0.0
137, 0.0
138, 0.0
139, 0.0
140, 0.0
141, 0.0
142, 0.0
143, 0.0
144, 0.0
145, 0.0
146, 0.0
147, 0.0
148, 0.0
149, 0.0
150, 0.0
151, 0.0
152, 0.0
153, 0.0
154, 0.0
155, 0.0
156, 0.0
157, 0.0
158, 0.0
159, 0.0
160, 0.0
161, 0.0
162, 0.0
163, 0.0
164, 0.0
165, 0.0
166, 0.0
167, 0.0
168, 0.0
169, 0.0
170, 0.0
171, 0.0
172, 0.0
173, 0.0
174, 0.0
175, 0.0
176, 0.0
177, 0.0
178, 0.0
179, 0.0
180, 0.0
181, 0.0
182, 0.0
183, 0.0
184, 0.0
185, 0.0
186, 0.0
187, 0.0
188, 0.0
189, 0.0
190, 0.0
191, 0.0
192.0, 0.00020637234853478596
193.0, 0.0005930314989465693
194.0, 0.0011270637855792507
195.0, 0.0017725163826581767
196.0, 0.0020204076998785836
197.0, 0.0021781265463077636
198.0, 0.0018197388531211683
199.0, 0.001099947886753374
200.0, 0.0009628519568354686
201.0, 0.0008877688606973604
202.0, 0.000648322494709075
203.0, 0.0005544412322584674
204.0, 0.000299555450809182
205.0, 0.0007238749871295652
206.0, 0.0007766285175926993
207.0, 0.000671930159495804
208.0, 0.000458866511192988
209.0, 0.00048238518326639094
210.0, 0.0002471065766102629
211.0, 0.00011473276878140967
212.0, 0.00031287366076009163
213.0, 0.0007207269104880025
214.0, 0.0009053786858037443
215.0, 0.0007150402284292365
216.0, 0.0006809324257737298
217.0, 0.0009248935271120082
218.0, 0.0010446038111124425
219.0, 0.0005083091150478188
220.0, 0.00046819390593599413
221.0, 0.0009127600200766752
222.0, 0.0012403942621675447
223.0, 0.0011802854704973074
224.0, 0.0010662053308385644
225.0, 0.0011847374016951753
226.0, 0.0016607299486453208
227.0, 0.0026149812302798153
228.0, 0.0026338028609632505
229.0, 0.0024594063092648797
230.0, 0.0026290683188600656
231.0, 0.0032883019587037167
232.0, 0.003567452616028762
233.0, 0.004151961772262293
234.0, 0.004834448858925665
235.0, 0.005432440689367371
236.0, 0.006373087711773687
237.0, 0.007663539497927797
238.0, 0.0083565677540327
239.0, 0.0083413580276261
240.0, 0.008134123106691338
241.0, 0.008444471147823722
242.0, 0.009023846780820058
243.0, 0.009193746200073235
244.0, 0.00905635058051666
245.0, 0.009626846930810557
246.0, 0.010438974588161476
247.0, 0.011418195738832952
248.0, 0.012553927139282191
249.0, 0.013635527379087882
250.0, 0.014241534253899745
251.0, 0.015362626153134041
252.0, 0.016839370884348948
253.0, 0.01807050266653208
254.0, 0.01887640775892935
255.0, 0.020345153218108706
256.0, 0.02165233074550002
257.0, 0.02290472526669499
258.0, 0.024420634675226136
259.0, 0.0261450379058091
260.0, 0.027040174555300632
261.0, 0.027691261494558406
262.0, 0.02828601086854211
263.0, 0.028684447905862123
264.0, 0.029233611966468835
265.0, 0.029945336201222826
266.0, 0.03090832633540686
267.0, 0.031928001883462495
268.0, 0.032566793455939894
269.0, 0.03374611395387202
270.0, 0.03476625310649371
271.0, 0.035526750552816316
272.0, 0.03620102998306337
273.0, 0.037005182473615665
274.0, 0.038749540641160755
275.0, 0.04087927114616532
276.0, 0.04309976837624947
277.0, 0.04550916630426728
278.0, 0.047584676858570894
279.0, 0.049851521585293136
280.0, 0.05098743112278002
281.0, 0.05090276490220857
282.0, 0.05079457751322237
283.0, 0.04847640097444218
284.0, 0.0455127861607744
285.0, 0.04251749905352593
286.0, 0.039298202876509876
287.0, 0.03564885136568002
288.0, 0.032550329345500374
289.0, 0.029527370885609288
290.0, 0.026809650870310234
291.0, 0.02488871354624485
292.0, 0.022991270162088157
293.0, 0.02113324864281652
294.0, 0.01948723719828247
295.0, 0.018047628229153796
296.0, 0.016648591670355616
297.0, 0.015398337547812193
298.0, 0.014486603011515312
299.0, 0.01338267329108016
300.0, 0.011615650286344485
301.0, 0.00988559566614475
302.0, 0.009110276215932609
303.0, 0.00866015303024198
304.0, 0.007780349930753698
305.0, 0.006607848327292638
306.0, 0.006109961869373783
307.0, 0.005600661987133025
308.0, 0.00500219367502939
309.0, 0.004263522396407248
310.0, 0.003366544392906055
311.0, 0.002924934644536014
312.0, 0.0026105498902951386
313.0, 0.0023147687422450628
314.0, 0.002075415034976207
315.0, 0.0019216221345723873
316.0, 0.0017203197264835288
317.0, 0.0012953352460402896
318.0, 0.0009148522925657203
319.0, 0.0008560623634871965
320.0, 0.0012166405207212983
321.0, 0.0008096327461855845
322.0, 0.0007457702938004908
323.0, 0.0010055614875313257
324.0, 0.0010302938559382465
325.0, 0.0003501622243379222
326.0, 0.00028996807675819115
327.0, 0.0005037247415603941
328.0, 0.0005661405202991182
329.0, 0.0002457109866103463
330.0, 0.00037834639502295787
331.0, 0.000490798180607203
332.0, 0.0003954394622399719
333.0, 0.0005873264800903772
334.0, 0.001005736926697059
335.0, 0.0009394109715475858
336.0, 0.0003537836698451637
337.0, 0.00021877929412541256
338.0, 0.00030414737319405286
339.0, 0.00012494741448452852
340.0, 0.0001980344301295649
341.0, 0.0002750190397131033
342.0, 0.0005583194750969266
343.0, 0.0007741499285301561
344.0, 0.0005441050379273768
345.0, 0.00010016160236178642
346.0, 0.0002830639011200679
347.0, 0.0004847433148249168
348.0, 0.00010431121962592125
349.0, 0.0003230192025210532
350.0, 0.00027670265093110414
351.0, 0.0006974785443803249
352.0, 0.0007760399380636217
353.0, 0.0006618923336963641
354.0, 0.0005199964988498319
355.0, 0.0004530724741868356
356.0, 0.0004207288308746979
357.0, 0.0006284173279370916
358.0, 0.0007188588509053044
359.0, 0.00019721783627585544
360.0, 0.0008391764239122181
361.0, 0.0007946450786104115
362.0, 0.0003510472895284585
363.0, 0.00036334652976514767
364.0, 0.0006530283327927285
365.0, 0.00024716173974499863
366.0, 0.00038577861099223253
367.0, 0.0011070988690421754
368.0, 0.001639708459527123
369.0, 0.0016153235264387594
370.0, 0.0023004612667736576
371.0, 0.003165248041914241
372.0, 0.003650563882042206
373.0, 0.004144798806409484
374.0, 0.005666630861313069
375.0, 0.006736521927323359
376.0, 0.00814920243561771
377.0, 0.009874180015627176
378.0, 0.011548701593391938
379.0, 0.012896725453914817
380.0, 0.015284389739133271
381.0, 0.01809330522496285
382.0, 0.02127945676525466
383.0, 0.025073933216382682
384.0, 0.029664188170715543
385.0, 0.03471742303082666
386.0, 0.03996459607709911
387.0, 0.045905144075928085
388.0, 0.05269969520948009
389.0, 0.059997274206614895
390.0, 0.06741649984539655
391.0, 0.07592882690653538
392.0, 0.08477578122402488
393.0, 0.0940041517696936
394.0, 0.10477416456221446
395.0, 0.11724826603556374
396.0, 0.1315652629683444
397.0, 0.14789225503961018
398.0, 0.16694164381486173
399.0, 0.18909233784621185
400.0, 0.21274162564247345
401.0, 0.237200489792069
402.0, 0.26069588023190704
403.0, 0.2816532732464523
404.0, 0.29831226137031674
405.0, 0.3079140611423818
406.0, 0.30663273044410105
407.0, 0.2941082316207276
408.0, 0.27470662206683844
409.0, 0.25245390955619873
410.0, 0.2286916593638912
411.0, 0.20602909765448543
412.0, 0.18647750384611703
413.0, 0.17028677294144443
414.0, 0.1570648712572476
415.0, 0.146414922471705
416.0, 0.13731068144272957
417.0, 0.12917721674949154
418.0, 0.12171521411993948
419.0, 0.11526401753074697
420.0, 0.11088474215792606
421.0, 0.10718544047739549
422.0, 0.10288923673832152
423.0, 0.09966534331448887
424.0, 0.09822067516878921
425.0, 0.09772033306421268
426.0, 0.099704199478563
427.0, 0.10207450896318769
428.0, 0.10416766642858759
429.0, 0.10564010506164817
430.0, 0.10631294520029384
431.0, 0.10765275748751857
432.0, 0.10710012396849922
433.0, 0.10442380973941677
434.0, 0.10020551294735427
435.0, 0.09539640119587403
436.0, 0.09095500619373126
437.0, 0.08528258657796604
438.0, 0.07975744279757795
439.0, 0.07460131229130065
440.0, 0.06998595751909617
441.0, 0.06675219761842463
442.0, 0.063871805014591
443.0, 0.06084009818173137
444.0, 0.05893016246253649
445.0, 0.05806657133458552
446.0, 0.05734760223254799
447.0, 0.057337989179067454
448.0, 0.05768917777968532
449.0, 0.058163893402837175
450.0, 0.05884637146806836
451.0, 0.05993306631305226
452.0, 0.061393491192600104
453.0, 0.06240602649550753
454.0, 0.06422119816572557
455.0, 0.06466705024940703
456.0, 0.0633013796066953
457.0, 0.0627588292364897
458.0, 0.06136080898214105
459.0, 0.06119878175601863
460.0, 0.06022679000830818
461.0, 0.057807607757905784
462.0, 0.055304375653955754
463.0, 0.053459620680441834
464.0, 0.05147853184532533
465.0, 0.048740778723843886
466.0, 0.04612828993402615
467.0, 0.04432645359516423
468.0, 0.042892429880731095
469.0, 0.04084179649232246
470.0, 0.03914439157638536
471.0, 0.03753534538429994
472.0, 0.03600812174819792
473.0, 0.034958428971416426
474.0, 0.03305357782437444
475.0, 0.03233340783560197
476.0, 0.03200903541033293
477.0, 0.03183692142217757
478.0, 0.03229732448176691
479.0, 0.03350671150749541
480.0, 0.035387047756626266
481.0, 0.036172915203196966
482.0, 0.03684534682371618
483.0, 0.03781029307147949
484.0, 0.037869170537110426
485.0, 0.03572547117022209
486.0, 0.03323817894896482
487.0, 0.030492817216642976
488.0, 0.02742010274741686
489.0, 0.02402263419970212
490.0, 0.020314552206448056
491.0, 0.016807927323684482
492.0, 0.014147254263354347
493.0, 0.011934493929964948
494.0, 0.009588847205655712
495.0, 0.007397677373345878
496.0, 0.006309998143499862
497.0, 0.004742000062411729
498.0, 0.00297134553221412
499.0, 0.0018669134519009353
500.0, 0.0014660464595789042
501.0, 0.000623399903073443
502.0, 0.00010427258977095937
503.0, 0.00021221309568922265
504.0, 0.00037680094904748095
505.0, 0.0013826385811245008
506.0, 0.0012998812355809479
507.0, 0.0010956957589865087
508.0, 0.0014907116720389313
509.0, 0.0018784154555731383
510.0, 0.0018746197855024134
511.0, 0.0017352605346837452
512.0, 0.0017734582187430572
513.0, 0.001677785788666909
514.0, 0.0010596971458012154
515.0, 0.000687308220399605
516.0, 0.0011007105577619393
517.0, 0.0017014475865860317
518.0, 0.0012715836213496388
519.0, 0.0012348931190351296
520.0, 0.000850263648342495
521.0, 0.0004829868979337051
522.0, 0.00041499455596808544
523.0, 0.0001896345657228841
524.0, 0.0005386118915989909
525.0, 0.0007909886510929731
526.0, 0.001358854028189958
527.0, 0.002000039199491814
528.0, 0.0027710285983821074
529.0, 0.003973898044113825
530.0, 0.004704000313823291
531.0, 0.005549642072569396
532.0, 0.006629321470760261
533.0, 0.008063203350057637
534.0, 0.009765336034280557
535.0, 0.01125577635862152
536.0, 0.012292144558179825
537.0, 0.014060497173869096
538.0, 0.01628461409503173
539.0, 0.01848121958123442
540.0, 0.02099351730495308
541.0, 0.024502144514869963
542.0, 0.02749862744752654
543.0, 0.030690378975794234
544.0, 0.033998356511160344
545.0, 0.0365957599583318
546.0, 0.03810346415859957
547.0, 0.039240403582074736
548.0, 0.03995982456645891
549.0, 0.04104382862691467
550.0, 0.04187447541384535
551.0, 0.0424943158105691
552.0, 0.043367961587832564
553.0, 0.04360052776872323
554.0, 0.04323241202269788
555.0, 0.042963044820319554
556.0, 0.04348710052087934
557.0, 0.044398495182160914
558.0, 0.0451422030146258
559.0, 0.04606470099017317
560.0, 0.046668900233975984
561.0, 0.04579769525789898
562.0, 0.04377839736617879
563.0, 0.04086377554282752
564.0, 0.03712814610807352
565.0, 0.033001559090096465
566.0, 0.029085173522205136
567.0, 0.025712525226558456
568.0, 0.022750205822696438
569.0, 0.020335410086969916
570.0, 0.01848957324966254
571.0, 0.016161985278329308
572.0, 0.013710941894362335
573.0, 0.012010762273551606
574.0, 0.01029788966324473
575.0, 0.00852541246137831
576.0, 0.007693092333146505
577.0, 0.007214449928983687
578.0, 0.006908658808633149
579.0, 0.006626694242953969
580.0, 0.006614229361729995
581.0, 0.006562167114176526
582.0, 0.006143489063691425
583.0, 0.006589103261536634
584.0, 0.0071822962060889015
585.0, 0.007868907913578263
586.0, 0.008967704506156584
587.0, 0.01011658328059337
588.0, 0.010706244609002581
589.0, 0.011136142789196385
590.0, 0.011053799437293663
591.0, 0.010888280774494812
592.0, 0.010709045934988446
593.0, 0.010707794130197228
594.0, 0.011045820796998684
595.0, 0.011286012098558873
596.0, 0.012062281213187016
597.0, 0.012882618776683048
598.0, 0.014486541879633281
599.0, 0.01657987097150802
600.0, 0.018591550815205093
601.0, 0.020846161595880614
602.0, 0.022839856207971496
603.0, 0.02359823729403488
604.0, 0.02394849449432129
605.0, 0.024418578523583152
606.0, 0.02494911633758688
607.0, 0.02533372870468979
608.0, 0.025322884828227688
609.0, 0.0255262363315284
610.0, 0.026771037384002338
611.0, 0.02843629736298723
612.0, 0.030079911318375605
613.0, 0.03225662419003784
614.0, 0.03502428112256713
615.0, 0.03784365344590595
616.0, 0.040887261513418115
617.0, 0.04465638304263788
618.0, 0.04870674725930814
619.0, 0.05223565227744096
620.0, 0.056059105092930384
621.0, 0.058173318751397605
622.0, 0.05904933972665123
623.0, 0.05993173175057115
624.0, 0.06088578597197182
625.0, 0.06162049774019535
626.0, 0.06279763519025326
627.0, 0.06472473908165768
628.0, 0.06568185726040984
629.0, 0.06574146672027174
630.0, 0.0652597244432482
631.0, 0.062313356908497444
632.0, 0.05708895314527275
633.0, 0.04979421537450533
634.0, 0.04174864714169254
635.0, 0.032981771486181845
636.0, 0.02519515870555647
637.0, 0.019083873867668303
638.0, 0.014143294349847253
639.0, 0.010873370015947589
640.0, 0.008049463908732755
641.0, 0.006208255137555548
642.0, 0.0048931624673848465
643.0, 0.003736573241507869
644.0, 0.0028862286765364174
645.0, 0.0022748046382220456
646.0, 0.0018066592990758
647.0, 0.0013128550953101985
648.0, 0.0012403687184259847
649.0, 0.001445830950777315
650.0, 0.0015035706285397013
651.0, 0.0012078161760229469
652.0, 0.0006861363190814537
653.0, 0.00043843830871458236
654.0, 0.00010002212135778702
655.0, 0.00018285971779238792
656.0, 0.00011659858420540058
657.0, 0.00020641654101153056
658.0, 0.0004024332457442767
659.0, 0.00013603263982596577
660.0, 0.00022072279304807753
661.0, 0.0005010048961314926
662.0, 0.0006788819238455414
663.0, 0.0006136955269600854
664.0, 0.0003027430937424957
665.0, 0.00022109377429935042
666.0, 0.00029166851754395753
667.0, 7.813861438244401e-05
668.0, 0.0002189075046986839
669.0, 0.0006319515754284972
670.0, 0.0005682017421448006
671.0, 9.955257811928233e-05
672.0, 8.542398180889444e-05
673.0, 0.0003439065096104122
674.0, 0.00015535338252295976
675.0, 0.00016235141967077033
676.0, 0.00017327381707112733
677.0, 7.471169470431877e-05
678.0, 0.00011340977983614072
679.0, 0.0003440264713433744
680.0, 0.00032680330336592767
681.0, 0.0001645405515657781
682.0, 2.8342557552717253e-05
683.0, 0.00020392889613205135
684.0, 0.0006926693255774575
685.0, 0.00010166859531620909
686.0, 0.0002960680764709168
687.0, 0.000439018811177311
688.0, 0.0007677960393457364
689.0, 0.000650464710409198
690.0, 0.0006904694598792846
691.0, 0.0008517934096198064
692.0, 0.0008491358534951958
693.0, 0.0005285867570594551
694.0, 0.00030914641277260104
695.0, 0.00021764361655103812
696.0, 0.00030700985501903416
697.0, 0.00047190624743684393
698.0, 0.0005469847738658112
699.0, 0.0010275708723712041
700.0, 0.000988283093826747
701.0, 0.0009711419401869233
702.0, 0.0010875584773773134
703.0, 0.0009252779348207943
704.0, 0.0006650001762645947
705.0, 0.0009918623426797763
706.0, 0.0013200434668355393
707.0, 0.0014008075732508745
708.0, 0.0012379209671877995
709.0, 0.0010001107701873156
710.0, 0.0010999768400860523
711.0, 0.0014317304264953455
712.0, 0.0014136415320421133
713.0, 0.0014090550765755933
714.0, 0.0013431597575961876
715.0, 0.0011415537168580222
716.0, 0.001059637987189663
717.0, 0.0014977888944566944
718.0, 0.0019285459935467597
719.0, 0.0013416985978368723
720.0, 0.0017341167415167351
721.0, 0.001904124667020177
722.0, 0.00181980612009388
723.0, 0.0015457546482816984
724.0, 0.0012673124731214175
725.0, 0.0011576675758762688
726.0, 0.0010041109011285094
727.0, 0.0005217976208167109
728.0, 0.00044399067085101407
729.0, 0.00039449600167813564
730.0, 0.0005676779605305683
731.0, 0.0007862638366422512
732.0, 0.0007631074497356796
733.0, 0.0005941634507967359
734.0, 0.00017463789551706274
735.0, 0.00035862080135264486
736.0, 0.00042773510575724427
737.0, 0.0006406048135865523
738.0, 0.0008639789928815974
739.0, 0.0007326436456698394
740.0, 0.00033952542196721456
741.0, 0.0005589494506328982
742.0, 0.000656415902976083
743.0, 0.0003000872151174081
744.0, 0.00023649723123467982
745.0, 0.0003514787896399432
746.0, 0.00045609666290542334
747.0, 0.0006470860210211934
748.0, 0.0007575201680799748
749.0, 0.0006505851278765868
750.0, 0.0004557527776715281
751.0, 0.0003307629028381499
752.0, 0.00037462123681746224
753.0, 0.0002971990072454718
754.0, 6.903524895500232e-05
755.0, 5.036811363450472e-05
756.0, 3.781811904122802e-05
757.0, 0.00025414750967007115
758.0, 0.0003512443640250828
759.0, 0.0002288619942711748
760.0, 0.00016184635258427633
761.0, 0.0001886120368252272
762.0, 0.00043608367756831307
763.0, 5.16953562867882e-05
764.0, 5.5080986754675265e-05
765.0, 0.0003447926993788794
766.0, 0.0004969988032986585
767.0, 0.0009318481878096712
768.0, 0.0010069382566276072
769.0, 0.00027055252202239983
770.0, 0.0003942082674065482
771.0, 0.0006235234768327232
772.0, 0.0004528946393712264
773.0, 0.0004162120701661067
774.0, 0.0007099199817069251
775.0, 0.0007955060365074704
776.0, 0.0006547994536939721
777.0, 0.0006690327283458791
778.0, 0.0006050241405456636
779.0, 0.0007707008926299084
780.0, 0.00043966749813457556
781.0, 0.0004663882555929391
782.0, 0.0006145943161235973
783.0, 0.0005804747671322909
784.0, 0.00044137795683899406
785.0, 0.0004851057908120615
786.0, 0.0008738155569796745
787.0, 0.000732693598908343
788.0, 0.0006310561132683039
789.0, 0.0010556710023243592
790.0, 0.0015920774662011477
791.0, 0.0019854566579739627
792.0, 0.0019286340967990703
793.0, 0.0012501306065951085
794.0, 0.00128784491674091
795.0, 0.001158791464580169
796.0, 0.0009875238472954867
797.0, 0.0007683956585720898
798.0, 0.000604128729814838
799.0, 0.000747500545338793
800.0, 0.0008499779343248078
801.0, 0.0010267877696976272
802.0, 0.0010374465215849831
803.0, 0.0007150698195308371
804.0, 0.0007123389705377063
805.0, 0.0008837379740276499
806.0, 0.0010380216189293245
807.0, 0.0010550084910755581
808.0, 0.0008851513044479739
809.0, 0.0008357838904788524
810.0, 0.0009005801020527001
811.0, 0.0010034104186097156
812.0, 0.0007475321039436664
813.0, 0.001009496235574193
814.0, 0.0008863892476435641
815.0, 0.0007319964338449109
816.0, 0.0013378275563828848
817.0, 0.0013216739615048228
818.0, 0.0015425185560010352
819.0, 0.0018347862802822524
820.0, 0.002168336654339894
821.0, 0.0027596535354254795
822.0, 0.002818042248698328
823.0, 0.0024621890441484874
824.0, 0.002459045501777755
825.0, 0.0025268195855739375
826.0, 0.002793198444078277
827.0, 0.00300332299069493
828.0, 0.003215871616115528
829.0, 0.0032824009421641067
830.0, 0.003562312871908331
831.0, 0.0040603884168557485
832.0, 0.004077759737640256
833.0, 0.0036899981051235677
834.0, 0.0038807447535885065
835.0, 0.004027510178523787
836.0, 0.003905027649391354
837.0, 0.003740244424414816
838.0, 0.003804021853251252
839.0, 0.0037204342834454445
840.0, 0.0035790964737912236
841.0, 0.003780031203849495
842.0, 0.003945113963346285
843.0, 0.004109463319456445
844.0, 0.004120813068598714
845.0, 0.00425787262220766
846.0, 0.0037702656955800034
847.0, 0.003381629500218769
848.0, 0.0034982369205701714
849.0, 0.0035237962600138295
850.0, 0.0036741210123672086
851.0, 0.003684146103031003
852.0, 0.0038221313483659167
853.0, 0.004058316236767474
854.0, 0.004096942740212496
855.0, 0.004061830866264647
856.0, 0.004159165144439305
857.0, 0.004401298219051714
858.0, 0.004676004472637042
859.0, 0.004618984812123459
860.0, 0.003915672605414635
861.0, 0.0035588096987182968
862.0, 0.0034533194425797106
863.0, 0.003255040216158993
864.0, 0.0031187535987665434
865.0, 0.0030519000016262124
866.0, 0.0028508663393698847
867.0, 0.0025860951708332933
868.0, 0.002116228359398211
869.0, 0.001358936550389818
870.0, 0.0012725288803911237
871.0, 0.000779276199903743
872.0, 0.00035341917537412326
873.0, 0.00012880489925658372
874.0, 4.137619301830624e-06
875.0, 3.4055259202164904e-05
876.0, 0.00046137108657976676
877.0, 0.0011709828646943627
878.0, 0.0015003599592641928
879.0, 0.0016473555431672892
880.0, 0.0016062096705191148
881.0, 0.0017363567226628554
882.0, 0.0019256034689182453
883.0, 0.00174033550822656
884.0, 0.0011712354670552082
885.0, 0.00048245984844868096
886.0, 0.0007105129601518014
887.0, 0.0010271409579365332
888.0, 0.0021807552122458914
889.0, 0.0019190759704990324
890.0, 0.0011824727320428774
891.0, 0.0007724506016918623
892.0, 0.00041663299403595295
893.0, 9.938352541585008e-05
894.0, 0.0004315313012687466
895.0, 0.0007687875382415875
896.0, 0.0018153223682131213
897.0, 0.0026633657170540876
898.0, 0.003487523202396765
899.0, 0.004437364732666778
900.0, 0.005258434313737865
901.0, 0.005809102214038038
902.0, 0.006362874233452169
903.0, 0.00765846765028284
904.0, 0.00880609702312282
905.0, 0.010165219329972984
906.0, 0.011714213272218544
907.0, 0.013752950057359208
908.0, 0.016180135144701676
909.0, 0.01874410765421835
910.0, 0.022322285991310867
911.0, 0.027194527189931806
912.0, 0.03214319930799424
913.0, 0.037781700519051976
914.0, 0.04469949371595975
915.0, 0.053638031575009806
916.0, 0.06454635403202182
917.0, 0.07844997732051312
918.0, 0.0951643592782847
919.0, 0.11315416472645809
920.0, 0.1318750964576248
921.0, 0.15008761943492765
922.0, 0.160946305992457
923.0, 0.16482058910855132
924.0, 0.15492644337465777
925.0, 0.13680203415917713
926.0, 0.11290328230050005
927.0, 0.08669845619010735
928.0, 0.06325686440557712
929.0, 0.04563864631015517
930.0, 0.03351164682124545
931.0, 0.025184803993839332
932.0, 0.019674604854435385
933.0, 0.016250187178371147
934.0, 0.014667726893234092
935.0, 0.014179139774967556
936.0, 0.014355650076782954
937.0, 0.014526010147803158
938.0, 0.015205221172375464
939.0, 0.017709051417462898
940.0, 0.020643071754086362
941.0, 0.021593131196415417
942.0, 0.02474540368701111
943.0, 0.02922427835425646
944.0, 0.0358751024601264
945.0, 0.04498873987705175
946.0, 0.05697528298781909
947.0, 0.07288582539383374
948.0, 0.09299051360062482
949.0, 0.11595975324441211
950.0, 0.14070998253589903
951.0, 0.16802104076635194
952.0, 0.20005107177096382
953.0, 0.2389186573008719
954.0, 0.2889015149833246
955.0, 0.35424279921763324
956.0, 0.4386202653106625
957.0, 0.54917735494315
958.0, 0.6869393448495824
959.0, 0.8362961635588538
960.0, 0.9574758770139814
961.0, 0.9965795514424953
962.0, 0.9460117732600621
963.0, 0.8510410791281618
964.0, 0.7655724320711128
965.0, 0.7170326183984167
966.0, 0.6994629637462862
967.0, 0.7035475234137288
968.0, 0.7228699389921898
969.0, 0.7512639792022893
970.0, 0.7761760215563834
971.0, 0.7782566173125132
972.0, 0.7413787032003918
973.0, 0.6606276953980591
974.0, 0.5437717372692582
975.0, 0.41409927656535084
976.0, 0.2955438334960033
977.0, 0.20245359414510788
978.0, 0.13727228290770477
979.0, 0.09545967554606902
980.0, 0.07068977698306432
981.0, 0.056875501339798004
982.0, 0.04956846254154253
983.0, 0.04524032156234452
984.0, 0.04397937923887647
985.0, 0.04572727695396243
986.0, 0.04943867642502327
987.0, 0.05508120669545682
988.0, 0.059806218061855945
989.0, 0.06258544291294822
990.0, 0.06358440204668568
991.0, 0.06240329169053314
992.0, 0.06048126893497063
993.0, 0.05837976357045014
994.0, 0.05621761583146005
995.0, 0.05082240455791977
996.0, 0.04570806037079722
997.0, 0.03986585927021505
998.0, 0.03422842173445835
999.0, 0.028657730760564704
1000.0, 0.023131268698278397
1001.0, 0.01794618842431004
1002.0, 0.013425453746804577
1003.0, 0.009976958607503238
1004.0, 0.007598094775053102
1005.0, 0.005338083245205724
1006.0, 0.0032599222092125455
1007.0, 0.003041001372932604
1008.0, 0.0038081544592996628
1009.0, 0.003989226386008676
1010.0, 0.00423632839868619
1011.0, 0.005072519393900516
1012.0, 0.0063867652601706775
1013.0, 0.007708078303123176
1014.0, 0.008886213804615592
1015.0, 0.010273172928613704
1016.0, 0.011654370273242958
1017.0, 0.013331552929871706
1018.0, 0.013878416408929182
1019.0, 0.014007928962181716
1020.0, 0.014497703433380775
1021.0, 0.014957462637297176
1022.0, 0.015459020716607435
1023.0, 0.016009708286766133
1024.0, 0.016744550036219285
1025.0, 0.01782089507713847
1026.0, 0.018519338805086133
1027.0, 0.01952905236151408
1028.0, 0.020428856189255093
1029.0, 0.02176763351827848
1030.0, 0.022384103783526035
1031.0, 0.022075272814297078
1032.0, 0.020914230657176725
1033.0, 0.019334722747697673
1034.0, 0.017549359873854548
1035.0, 0.015483922627355194
1036.0, 0.012728238920936703
1037.0, 0.00942696198439282
1038.0, 0.006422534102556851
1039.0, 0.004027313727466757
1040.0, 0.0017278600175750197
1041.0, 0.0004266100403464419
1042.0, 0.0007634792535085013
1043.0, 0.0005812634536681554
1044.0, 0.0010286451091008199
1045.0, 0.0015668950190009965
1046.0, 0.0016250640064307809
1047.0, 0.0013659438577197764
1048.0, 0.0016424793736326691
1049.0, 0.0024827317021821832
1050.0, 0.003278959151346304
1051.0, 0.003744647223712346
1052.0, 0.0027054303648274105
1053.0, 0.002259608871368784
1054.0, 0.0014001945061421562
1055.0, 0.0004735957531790453
1056.0, 0.00037470970871699024
1057.0, 0.0016261964824664753
1058.0, 0.003429442059510562
1059.0, 0.00433556128000207
1060.0, 0.005164781301111246
1061.0, 0.007010206868554836
1062.0, 0.009045170623382386
1063.0, 0.010518086346368659
1064.0, 0.011465191011586376
1065.0, 0.011641042668079736
1066.0, 0.011996042112462567
1067.0, 0.011837344361437054
1068.0, 0.012441615281120396
1069.0, 0.01327883243632952
1070.0, 0.014284538948212525
1071.0, 0.01644013565346354
1072.0, 0.01839492096071346
1073.0, 0.020451736429593064
1074.0, 0.022872629059153583
1075.0, 0.025242780177589342
1076.0, 0.027702044649615586
1077.0, 0.029986504383346824
1078.0, 0.03272571613882335
1079.0, 0.03540941193335758
1080.0, 0.03784279172329513
1081.0, 0.040923306967164404
1082.0, 0.04394073247498458
1083.0, 0.046616555302122414
1084.0, 0.049818963265949874
1085.0, 0.05378842994625895
1086.0, 0.05784407061764905
1087.0, 0.06198541025153017
1088.0, 0.06539988119073932
1089.0, 0.0660743820415645
1090.0, 0.06400483914274248
1091.0, 0.061272980770311264
1092.0, 0.058921542028126384
1093.0, 0.056384550002706986
1094.0, 0.05312142245886029
1095.0, 0.05002615427471405
1096.0, 0.04821238361406843
1097.0, 0.04722350150721768
1098.0, 0.04604334571685636
1099.0, 0.04524901561663904
1100.0, 0.043921634535399635
1101.0, 0.042388678854158375
1102.0, 0.0405835035258731
1103.0, 0.03784623763169639
1104.0, 0.03487282710949601
1105.0, 0.03140547512301655
1106.0, 0.028459583445083824
1107.0, 0.026522225710236644
1108.0, 0.024300490343904014
1109.0, 0.02155274094238728
1110.0, 0.018399930616054
1111.0, 0.015522128430485725
1112.0, 0.013714826945596463
1113.0, 0.011798270600710242
1114.0, 0.010291105658052462
1115.0, 0.009293342880383236
1116.0, 0.008517304378147838
1117.0, 0.0074576662405696145
1118.0, 0.005966871329682271
1119.0, 0.005171680014817952
1120.0, 0.004328593654610432
1121.0, 0.003860794416657896
1122.0, 0.003233451998472116
1123.0, 0.0020716090151115616
1124.0, 0.0018683876330831252
1125.0, 0.0019669551053425197
1126.0, 0.001205120393528674
1127.0, 0.0008973819766751786
1128.0, 0.0012659959026609204
1129.0, 0.0008905267909217985
1130.0, 0.0003022584246984802
1131.0, 0.00015277670476273003
1132.0, 8.50926769504458e-06
1133.0, 0.0002000463955144341
1134.0, 8.714138227699661e-05
1135.0, 0.00017634637043073125
1136.0, 8.589045155034889e-05
1137.0, 0.0001396080039447304
1138.0, 0.00013965910436413491
1139.0, 0.00038104495847001574
1140.0, 0.0006205801494661188
1141.0, 0.0007000402818059802
1142.0, 0.0006622016991386925
1143.0, 0.0008499012291613308
1144.0, 0.0009013478065375981
1145.0, 0.001021430585038009
1146.0, 0.0012809600238270708
1147.0, 0.0010420495811255199
1148.0, 0.00087201123199878
1149.0, 0.0010654924795751076
1150.0, 0.0008896142817226833
1151.0, 0.000850642162302802
1152.0, 0.0006911492217472719
1153.0, 0.0010894441660831559
1154.0, 0.0007937194567974922
1155.0, 0.0005225216537210493
1156.0, 0.0005326735915072307
1157.0, 0.0006691874272811149
1158.0, 0.00018138473693719671
1159.0, 9.999029321928559e-05
1160.0, 7.180319411208524e-05
1161.0, 2.6464020482895907e-05
1162.0, 0.00014000719801339855
1163.0, 0.0001481229835232567
1164.0, 0.0005190514462942672
1165.0, 0.0002554140083729066
1166.0, 0.0001988978419140211
1167.0, 0.0001490755022572954
1168.0, 0.0001534112406151433
1169.0, 0.00020719627694082998
1170.0, 0.00018718961322551305
1171.0, 0.00023790973297847172
1172.0, 0.00014499053491013404
1173.0, 0.0006234542649251476
1174.0, 0.0005935954903188011
1175.0, 0.0005044979532279552
1176.0, 0.0006866702798860734
1177.0, 0.0005811926908402571
1178.0, 0.0008358550761206904
1179.0, 0.0018411882904862404
1180.0, 0.00170473718975363
1181.0, 0.0014133907734182973
1182.0, 0.001405406572882633
1183.0, 0.0012123683915104078
1184.0, 0.0013268298575757399
1185.0, 0.0015342798887390732
1186.0, 0.001590257932868942
1187.0, 0.001285590987802766
1188.0, 0.0014387541782680448
1189.0, 0.0013746424553267563
1190.0, 0.001702779780730643
1191.0, 0.001993739496715446
1192.0, 0.001829911075376208
1193.0, 0.0013329432084796466
1194.0, 0.0014916167190973252
1195.0, 0.0012885775863713438
1196.0, 0.0015553974720121206
1197.0, 0.0017631363261297248
1198.0, 0.0013743066424017594
1199.0, 0.0012946786155942959
1200.0, 0.00134056172949764
1201.0, 0.0013360640807208216
1202.0, 0.001420985635525442
1203.0, 0.001722108335213062
1204.0, 0.002114185911583102
1205.0, 0.0018708095483045601
1206.0, 0.0015825482196157356
1207.0, 0.001662977137493154
1208.0, 0.0017265898962020212
1209.0, 0.0014125275060154297
1210.0, 0.0018802954136744262
1211.0, 0.0017374058964774507
1212.0, 0.0018690446790831105
1213.0, 0.0020671079128961292
1214.0, 0.0019906831910489024
1215.0, 0.0017325485340407326
1216.0, 0.0018755204400605402
1217.0, 0.0019582334797107474
1218.0, 0.0015142472895356273
1219.0, 0.0018712749172392542
1220.0, 0.0019647758883137864
1221.0, 0.001739866829321888
1222.0, 0.0017728993608388632
1223.0, 0.001744118413738336
1224.0, 0.0019327131840214337
1225.0, 0.0025240818973523427
1226.0, 0.00272707171696936
1227.0, 0.002018071826965708
1228.0, 0.001467454891471153
1229.0, 0.0010454338437276421
1230.0, 0.0009212210652895252
1231.0, 0.0010631214535771968
1232.0, 0.0008889628509889902
1233.0, 0.0010119754350750457
1234.0, 0.0009527358943824877
1235.0, 0.0012052584171233483
1236.0, 0.001150963342070463
1237.0, 0.0012299221253824855
1238.0, 0.000808324597380247
1239.0, 0.0009621044645191804
1240.0, 0.0011506827729958332
1241.0, 0.0010473440847630266
1242.0, 0.0010328277416875617
1243.0, 0.000988896716516918
1244.0, 0.001180834365038791
1245.0, 0.0012908500487368542
1246.0, 0.0011903132018506258
1247.0, 0.0010850148846949313
1248.0, 0.0009230466541906944
1249.0, 0.0012366246122118554
1250.0, 0.0014152476312739818
1251.0, 0.0009866356332940474
1252.0, 0.0014375895889930975
1253.0, 0.0010686910898535416
1254.0, 0.0008457649065634407
1255.0, 0.001033429601239352
1256.0, 0.0011003156737147868
1257.0, 0.0010183634522802896
1258.0, 0.000717827854366908
1259.0, 0.001079735584839683
1260.0, 0.0011428142576678096
1261.0, 0.0008839102293859669
1262.0, 0.000736983497295865
1263.0, 0.0009687113447074933
1264.0, 0.0011163909622047656
1265.0, 0.0009548699987806346
1266.0, 0.0007848236122925462
1267.0, 0.0006728054573087585
1268.0, 0.0007423603037815179
1269.0, 0.0005215436264326057
1270.0, 7.351287414245267e-05
1271.0, 0.00015077385725303447
1272.0, 0.0004572849031476063
1273.0, 0.0003290000525272002
1274.0, 0.0003316707796497441
1275.0, 0.0004958948304108031
1276.0, 0.0004630926687439596
1277.0, 0.0005107986378321393
1278.0, 0.00031714786481767824
1279.0, 7.314671290011742e-05
1280.0, 0.00043156834682546625
1281.0, 0.0002899514051563128
1282.0, 0.00031957032062070607
1283.0, 0.0005642079906505834
1284.0, 2.2700076727318153e-05
1285, 0.0
1286, 0.0
1287, 0.0
1288, 0.0
1289, 0.0
1290, 0.0
1291, 0.0
1292, 0.0
1293, 0.0
1294, 0.0
1295, 0.0
1296, 0.0
1297, 0.0
1298, 0.0
1299, 0.0
1300, 0.0
1301, 0.0
1302, 0.0
1303, 0.0
1304, 0.0
1305, 0.0
1306, 0.0
1307, 0.0
1308, 0.0
1309, 0.0
1310, 0.0
1311, 0.0
1312, 0.0
1313, 0.0
1314, 0.0
1315, 0.0
1316, 0.0
1317, 0.0
1318, 0.0
1319, 0.0
1320, 0.0
1321, 0.0
1322, 0.0
1323, 0.0
1324, 0.0
1325, 0.0
1326, 0.0
1327, 0.0
1328, 0.0
1329, 0.0
1330, 0.0
1331, 0.0
1332, 0.0
1333, 0.0
1334, 0.0
1335, 0.0
1336, 0.0
1337, 0.0
1338, 0.0
1339, 0.0
1340, 0.0
1341, 0.0
1342, 0.0
1343, 0.0
1344, 0.0
1345, 0.0
1346, 0.0
1347, 0.0
1348, 0.0
1349, 0.0
1350, 0.0
1351, 0.0
1352, 0.0
1353, 0.0
1354, 0.0
1355, 0.0
1356, 0.0
1357, 0.0
1358, 0.0
1359, 0.0
1360, 0.0
1361, 0.0
1362, 0.0
1363, 0.0
1364, 0.0
1365, 0.0
1366, 0.0
1367, 0.0
1368, 0.0
1369, 0.0
1370, 0.0
1371, 0.0
1372, 0.0
1373, 0.0
1374, 0.0
1375, 0.0
1376, 0.0
1377, 0.0
1378, 0.0
1379, 0.0
1380, 0.0
1381, 0.0
1382, 0.0
1383, 0.0
1384, 0.0
1385, 0.0
1386, 0.0
1387, 0.0
1388, 0.0
1389, 0.0
1390, 0.0
1391, 0.0
1392, 0.0
1393, 0.0
1394, 0.0
1395, 0.0
1396, 0.0
1397, 0.0
1398, 0.0
1399, 0.0
1400, 0.0
1401, 0.0
1402, 0.0
1403, 0.0
1404, 0.0
1405, 0.0
1406, 0.0
1407, 0.0
1408, 0.0
1409, 0.0
1410, 0.0
1411, 0.0
1412, 0.0
1413, 0.0
1414, 0.0
1415, 0.0
1416, 0.0
1417, 0.0
1418, 0.0
1419, 0.0
1420, 0.0
1421, 0.0
1422, 0.0
1423, 0.0
1424, 0.0
1425, 0.0
1426, 0.0
1427, 0.0
1428, 0.0
1429, 0.0
1430, 0.0
1431, 0.0
1432, 0.0
1433, 0.0
1434, 0.0
1435, 0.0
1436, 0.0
1437, 0.0
1438, 0.0
1439, 0.0
1440, 0.0
1441, 0.0
1442, 0.0
1443, 0.0
1444, 0.0
1445, 0.0
1446, 0.0
1447, 0.0
1448, 0.0
1449, 0.0
1450, 0.0
1451, 0.0
1452, 0.0
1453, 0.0
1454, 0.0
1455, 0.0
1456, 0.0
1457, 0.0
1458, 0.0
1459, 0.0
1460, 0.0
1461, 0.0
1462, 0.0
1463, 0.0
1464, 0.0
1465, 0.0
1466, 0.0
1467, 0.0
1468, 0.0
1469, 0.0
1470, 0.0
1471, 0.0
1472, 0.0
1473, 0.0
1474, 0.0
1475, 0.0
1476, 0.0
1477, 0.0
1478, 0.0
1479, 0.0
1480, 0.0
1481, 0.0
1482, 0.0
1483, 0.0
1484, 0.0
1485, 0.0
1486, 0.0
1487, 0.0
1488, 0.0
1489, 0.0
1490, 0.0
1491, 0.0
1492, 0.0
1493, 0.0
1494, 0.0
1495, 0.0
1496, 0.0
1497, 0.0
1498, 0.0
1499, 0.0
1500, 0.0
1501, 0.0
1502, 0.0
1503, 0.0
1504, 0.0
1505, 0.0
1506, 0.0
1507, 0.0
1508, 0.0
1509, 0.0
1510, 0.0
1511, 0.0
1512, 0.0
1513, 0.0
1514, 0.0
1515, 0.0
1516, 0.0
1517, 0.0
1518, 0.0
1519, 0.0
1520, 0.0
1521, 0.0
1522, 0.0
1523, 0.0
1524, 0.0
1525, 0.0
1526, 0.0
1527, 0.0
1528, 0.0
1529, 0.0
1530, 0.0
1531, 0.0
1532, 0.0
1533, 0.0
1534, 0.0
1535, 0.0
1536, 0.0
1537, 0.0
1538, 0.0
1539, 0.0
1540, 0.0
1541, 0.0
1542, 0.0
1543, 0.0
1544, 0.0
1545, 0.0
1546, 0.0
1547, 0.0
1548, 0.0
1549, 0.0
1550, 0.0
1551, 0.0
1552, 0.0
1553, 0.0
1554, 0.0
1555, 0.0
1556, 0.0
1557, 0.0
1558, 0.0
1559, 0.0
1560, 0.0
1561, 0.0
1562, 0.0
1563, 0.0
1564, 0.0
1565, 0.0
1566, 0.0
1567, 0.0
1568, 0.0
1569, 0.0
1570, 0.0
1571, 0.0
1572, 0.0
1573, 0.0
1574, 0.0
1575, 0.0
1576, 0.0
1577, 0.0
1578, 0.0
1579, 0.0
1580, 0.0
1581, 0.0
1582, 0.0
1583, 0.0
1584, 0.0
1585, 0.0
1586, 0.0
1587, 0.0
1588, 0.0
1589, 0.0
1590, 0.0
1591, 0.0
1592, 0.0
1593, 0.0
1594, 0.0
1595, 0.0
1596, 0.0
1597, 0.0
1598, 0.0
1599, 0.0
