30, 0.0
31, 0.0
32, 0.0
33, 0.0
34, 0.0
35, 0.0
36, 0.0
37, 0.0
38, 0.0
39, 0.0
40, 0.0
41, 0.0
42, 0.0
43, 0.0
44, 0.0
45, 0.0
46, 0.0
47, 0.0
48, 0.0
49, 0.0
50, 0.0
51, 0.0
52, 0.0
53, 0.0
54, 0.0
55, 0.0
56, 0.0
57, 0.0
58, 0.0
59, 0.0
60, 0.0
61, 0.0
62, 0.0
63, 0.0
64, 0.0
65, 0.0
66, 0.0
67, 0.0
68, 0.0
69, 0.0
70, 0.0
71, 0.0
72, 0.0
73, 0.0
74, 0.0
75, 0.0
76, 0.0
77, 0.0
78, 0.0
79, 0.0
80, 0.0
81, 0.0
82, 0.0
83, 0.0
84, 0.0
85, 0.0
86, 0.0
87, 0.0
88, 0.0
89, 0.0
90, 0.0
91, 0.0
92, 0.0
93, 0.0
94, 0.0
95, 0.0
96, 0.0
97, 0.0
98, 0.0
99, 0.0
100, 0.0
101, 0.0
102, 0.0
103, 0.0
104, 0.0
105, 0.0
106, 0.0
107, 0.0
108, 0.0
109, 0.0
110, 0.0
111, 0.0
112, 0.0
113, 0.0
114, 0.0
115, 0.0
116, 0.0
117, 0.0
118, 0.0
119, 0.0
120, 0.0
121, 0.0
122, 0.0
123, 0.0
124, 0.0
125, 0.0
126, 0.0
127, 0.0
128, 0.0
129, 0.0
130, 0.0
131, 0.0
132, 0.0
133, 0.0
134, 0.0
135, 0.0
136, 0.0
137, 0.0
138, 0.0
139, 0.0
140, 0.0
141, 0.0
142, 0.0
143, 0.0
144, 0.0
145, 0.0
146, 0.0
147, 0.0
148, 0.0
149, 0.0
150, 0.0
151.0, 6.487585838852165e-06
152.0, 0.00044325472208723904
153.0, 0.0005806509895339854
154.0, 0.0024709575601840465
155.0, 0.004833192852539695
156.0, 0.006435031765732471
157.0, 0.006825064018340368
158.0, 0.007355177826180578
159.0, 0.009628970637467071
160.0, 0.01280239819445587
161.0, 0.01558957763214822
162.0, 0.017071131858385786
163.0, 0.022032623919471868
164.0, 0.02571418986050047
165.0, 0.02524280754630583
166.0, 0.023208783334656695
167.0, 0.02060673669416908
168.0, 0.018594674994473474
169.0, 0.015485048370387241
170.0, 0.009230082967643926
171.0, 0.007136767336307206
172.0, 0.005212809005380551
173.0, 0.004404235059928544
174.0, 0.006407369959345401
175.0, 0.004141870473914817
176.0, 0.0061797444801861695
177.0, 0.007783884852995682
178.0, 0.005650058108516389
179.0, 0.00602216686894757
180.0, 0.004333626217586414
181.0, 0.0017450677186252902
182.0, 0.0007823652562808265
183.0, 0.002569550870741269
184.0, 0.003927527944640246
185.0, 0.0014654848379198689
186.0, 0.0005792905384918446
187.0, 0.005328663382202428
188.0, 0.0018530425684246275
189.0, 0.0035452193406767807
190.0, 0.006356205419686179
191.0, 0.004766663365027998
192.0, 0.00384955268755958
193.0, 0.004094998957220204
194.0, 0.004859865963945755
195.0, 0.004382453774750021
196.0, 0.0011195120955624857
197.0, 0.0028137593939054836
198.0, 0.0074043727818421876
199.0, 0.010121904387738388
200.0, 0.008289390162258829
201.0, 0.009021229690321212
202.0, 0.008290501938593948
203.0, 0.005569177753103045
204.0, 0.0030796413738338087
205.0, 0.006528406472140985
206.0, 0.0069021495642321755
207.0, 0.005570996439813441
208.0, 0.0044219317720111655
209.0, 0.0037942322838769456
210.0, 0.008219053160359613
211.0, 0.006763491661000889
212.0, 0.0028068770405164064
213.0, 0.0033406149979087296
214.0, 0.001911008995407464
215.0, 0.0017360819831358054
216.0, 0.003739061570596363
217.0, 0.006046400276462846
218.0, 0.003619844614771848
219.0, 0.0011942598700298685
220.0, 0.0022898416189471127
221.0, 0.004177703483873161
222.0, 0.002396086059013069
223.0, 0.004909600490864973
224.0, 0.0033123227329035134
225.0, 0.0017153260657061268
226.0, 0.004163331678736266
227.0, 0.0054288357202715715
228.0, 0.0074689995263255825
229.0, 0.01054738737732846
230.0, 0.012358156193632652
231.0, 0.009785533353436812
232.0, 0.01225288505287197
233.0, 0.014685981839569782
234.0, 0.014138445664571578
235.0, 0.01183267781497315
236.0, 0.01571669756080317
237.0, 0.017108535456975136
238.0, 0.01937139586433038
239.0, 0.023827034940074418
240.0, 0.027323761825436003
241.0, 0.03121553665556383
242.0, 0.036845329260875935
243.0, 0.03948039951935273
244.0, 0.03500231227249671
245.0, 0.03481087677115533
246.0, 0.035744120347930376
247.0, 0.03693902275349336
248.0, 0.03614642436583662
249.0, 0.030024122015930427
250.0, 0.029748841500798567
251.0, 0.02484145114439929
252.0, 0.01825891229354863
253.0, 0.0173151590778972
254.0, 0.01509257525543169
255.0, 0.012613544776038007
256.0, 0.00859199641273764
257.0, 0.004899148623686203
258.0, 0.007462241107998683
259.0, 0.007742638174059894
260.0, 0.004655390124537906
261.0, 0.001314198262834605
262.0, 0.001030191370320049
263.0, 0.0019627139544503435
264.0, 0.001009628505212421
265.0, 0.0007972561644081754
266.0, 0.0026991139318935362
267.0, 0.0004994009390812699
268.0, 0.0005408930606496812
269.0, 3.2927720465153985e-05
270.0, 0.0005290118301182902
271.0, 0.0013029600021386542
272.0, 0.0037494566924069456
273.0, 0.0015163333734414467
274.0, 0.0015480350980464925
275.0, 0.003221878006441509
276.0, 0.002298771524856328
277.0, 0.0014715021955641785
278.0, 0.0009080536714879815
279.0, 0.0021815068483639986
280.0, 0.0020304700504084673
281.0, 0.0005656394758572027
282.0, 0.002853642007628238
283.0, 0.002101772690440774
284.0, 0.0003929538736848683
285.0, 0.003628772401356074
286.0, 0.0028306429460141953
287.0, 0.0020904360130215077
288.0, 0.0028364342722637863
289.0, 0.004442118542242563
290.0, 0.0056891520993461115
291.0, 0.0055446225127971805
292.0, 0.004168398417770954
293.0, 0.0027579604661639224
294.0, 0.002563305320621249
295.0, 0.0036910669673173393
296.0, 0.007054367599601628
297.0, 0.010396670235453976
298.0, 0.010275982199006262
299.0, 0.004052063783970068
300.0, 0.00485148790076191
301.0, 0.002109790490933495
302.0, 0.0019112470412785579
303.0, 0.005578675503305624
304.0, 0.0036082258865298414
305.0, 0.0067246914636332035
306.0, 0.008731457072425787
307.0, 0.007813930842747048
308.0, 0.008063552585725307
309.0, 0.00800896643282884
310.0, 0.009604535930884249
311.0, 0.010291018569016855
312.0, 0.008705980928024694
313.0, 0.006583918833072096
314.0, 0.007388155114751542
315.0, 0.00911462793947337
316.0, 0.009320183227102487
317.0, 0.008205613728944868
318.0, 0.010611105320480659
319.0, 0.008696215235961625
320.0, 0.007422450068763658
321.0, 0.00834111721595373
322.0, 0.008808055213675989
323.0, 0.009071507490666014
324.0, 0.011252996355804361
325.0, 0.012381913870569652
326.0, 0.010977435803806996
327.0, 0.008688736555084085
328.0, 0.0059358944410804505
329.0, 0.00815397228755262
330.0, 0.008688968972093283
331.0, 0.003695461169797798
332.0, 0.007373531953245178
333.0, 0.00672200757393123
334.0, 0.005530588978902898
335.0, 0.004115740913929482
336.0, 0.0001987189932004255
337.0, 0.002941225943471824
338.0, 0.00441521300828532
339.0, 0.002147824054261551
340.0, 0.0019745420487175614
341.0, 0.0032045827750234747
342.0, 0.0016973074978517294
343.0, 0.003084151413874117
344.0, 0.006497153410076574
345.0, 0.00483517567453632
346.0, 0.0009729674598882231
347.0, 0.005635537509478257
348.0, 0.004155514822102362
349.0, 0.0007706896988730937
350.0, 0.0044082633596793375
351.0, 0.004426015275118293
352.0, 0.0009359448802113485
353.0, 0.0016529077577673947
354.0, 0.0009216661837132365
355.0, 0.00457603554407048
356.0, 0.004569482560205116
357.0, 0.0034211866000472616
358.0, 0.0038422510341588807
359.0, 0.005548192124566046
360.0, 0.006094320275292606
361.0, 0.001807239891133698
362.0, 0.0015548905497873283
363.0, 0.004733861723303019
364.0, 0.006740362755116226
365.0, 0.002321199406092515
366.0, 0.0003429497692120222
367.0, 0.0024325630575499787
368.0, 0.006505674344357751
369.0, 0.008416939679627167
370.0, 0.0016978948455653878
371.0, 0.0034529353897829206
372.0, 0.004985287564037351
373.0, 0.002963013182490236
374.0, 0.002488476793955417
375.0, 0.014332024080659093
376.0, 0.0116173525429829
377.0, 0.007868893215303426
378.0, 0.011312673142707003
379.0, 0.018419484841737166
380.0, 0.01665446653665889
381.0, 0.02082285444514969
382.0, 0.023511809346584985
383.0, 0.022988556973038313
384.0, 0.025975952616318347
385.0, 0.027547805735084127
386.0, 0.029608166310089445
387.0, 0.03412161539109422
388.0, 0.03832990307336317
389.0, 0.03742826604746177
390.0, 0.03586563055652972
391.0, 0.0389276088329102
392.0, 0.041689927957464505
393.0, 0.042506854952745844
394.0, 0.045582207805429605
395.0, 0.04451037380221099
396.0, 0.04793254019875764
397.0, 0.05250631070944082
398.0, 0.05380947412443392
399.0, 0.05322401300017975
400.0, 0.05341303441943502
401.0, 0.05658272961512597
402.0, 0.057770078489511746
403.0, 0.05578871200128391
404.0, 0.05685725941482609
405.0, 0.05383151684727735
406.0, 0.05510828316247193
407.0, 0.05687632411030322
408.0, 0.05333904911966823
409.0, 0.04644202831659495
410.0, 0.03984648581166734
411.0, 0.03904760658018002
412.0, 0.039958433311425186
413.0, 0.03789882052241584
414.0, 0.03670787281800505
415.0, 0.03130708025709652
416.0, 0.027331548666354722
417.0, 0.02415996920349179
418.0, 0.020038903551528917
419.0, 0.017744879324694703
420.0, 0.01761286974766249
421.0, 0.015584093697130421
422.0, 0.011130129283563708
423.0, 0.00843734204400214
424.0, 0.015831553399509982
425.0, 0.01769715256639901
426.0, 0.016163799065210566
427.0, 0.012516832947961102
428.0, 0.0076475446354476
429.0, 0.005625769234986923
430.0, 0.010085393432340186
431.0, 0.012560291510009229
432.0, 0.00955037475803024
433.0, 0.004281916621135567
434.0, 0.006881466891647209
435.0, 0.008333435833175218
436.0, 0.0065650274211315595
437.0, 0.005083180861001367
438.0, 0.005476721839608567
439.0, 0.0030818026115892964
440.0, 0.002769395353388292
441.0, 0.007014867693095355
442.0, 0.006113819911531751
443.0, 0.0011888311851476897
444.0, 0.0032145972121196487
445.0, 0.009718202073910026
446.0, 0.008477361510993865
447.0, 0.00535675284975972
448.0, 0.00519351356685081
449.0, 0.00172107045999303
450.0, 0.00227099660768121
451.0, 0.005493325151786752
452.0, 0.004099179327401708
453.0, 0.0005984945571257172
454.0, 0.004113569031079914
455.0, 0.0015290210729021825
456.0, 0.0015912022940856975
457.0, 0.004992996035158051
458.0, 0.006739476191400178
459.0, 0.0025809488940175982
460.0, 0.0029315725576729954
461.0, 0.0010811270763138362
462.0, 0.003911475318999264
463.0, 0.003850304565516464
464.0, 0.004913759704153825
465.0, 0.005484946898994626
466.0, 0.003046537956610802
467.0, 0.0015980143404223104
468.0, 0.0027575061631901175
469.0, 0.0039842048040606756
470.0, 0.0006916264126996341
471.0, 0.0033547329265311747
472.0, 0.0024463506814575856
473.0, 0.0010141626320678654
474.0, 0.0004954824390938984
475.0, 0.00019472461058471347
476.0, 0.0025388694206988577
477.0, 0.0035151432826705047
478.0, 0.0029047521157198135
479.0, 0.003343957879160625
480.0, 0.002363270404215571
481.0, 0.0035535137594708424
482.0, 0.004861192371823885
483.0, 0.0046964712037249326
484.0, 0.004425846968260321
485.0, 0.008878986881428245
486.0, 0.0035300311303463616
487.0, 0.006483243386109877
488.0, 0.0106151296673242
489.0, 0.010078585677193021
490.0, 0.0103645134838734
491.0, 0.01160649040472776
492.0, 0.01572948769113904
493.0, 0.01483202281293236
494.0, 0.012040056436531135
495.0, 0.01757770214653929
496.0, 0.018320874494651893
497.0, 0.019131326768916386
498.0, 0.020135778394709047
499.0, 0.01957647172186707
500.0, 0.017623379519852506
501.0, 0.018478354626873698
502.0, 0.02013936638963269
503.0, 0.015333988135080223
504.0, 0.013625838739799405
505.0, 0.020619895500583487
506.0, 0.018531281977972915
507.0, 0.017256635276908756
508.0, 0.018335962767460034
509.0, 0.02083814426380909
510.0, 0.023064428683305372
511.0, 0.02346016653262273
512.0, 0.023171177740620705
513.0, 0.025156963200115835
514.0, 0.027328853370548196
515.0, 0.027269110614115466
516.0, 0.02525250461651926
517.0, 0.026206371857846203
518.0, 0.027474322077410882
519.0, 0.021340985981384737
520.0, 0.017910302193959733
521.0, 0.02290916472046207
522.0, 0.016406628539619883
523.0, 0.013663002399167802
524.0, 0.013399567952661296
525.0, 0.011390115358806983
526.0, 0.007340609622804249
527.0, 0.005918830128929487
528.0, 0.007895238952416356
529.0, 0.0053694287761931764
530.0, 0.005187812719813852
531.0, 0.005896439934433547
532.0, 0.0017558852493818752
533.0, 0.0022659600528435312
534.0, 0.0009568316256079947
535.0, 0.002805605612759647
536.0, 0.0069179815908907115
537.0, 0.005948797408150407
538.0, 0.0042236298661152555
539.0, 0.0012887664418497159
540.0, 0.00019207067358145268
541.0, 0.0013819716135439282
542.0, 0.0015667801122255347
543.0, 0.0032211036656356186
544.0, 0.005407732198749954
545.0, 0.001393322558209715
546.0, 0.0014446761382817923
547.0, 0.0034953920768874486
548.0, 0.0005777684078535625
549.0, 0.0026415059038398985
550.0, 0.0008844133210944332
551.0, 0.0030874313740764476
552.0, 0.005204534958043152
553.0, 0.004625912125107938
554.0, 0.005181108034354522
555.0, 0.005908453255703644
556.0, 0.003377839135082301
557.0, 0.004341656712591402
558.0, 0.00571224418831871
559.0, 0.0032427024713989642
560.0, 0.006037934237130876
561.0, 0.008847820648539638
562.0, 0.008341568431644145
563.0, 0.00779707842986166
564.0, 0.00986255155375396
565.0, 0.01362744107075247
566.0, 0.011095461454504973
567.0, 0.006972714877280881
568.0, 0.009526826986932009
569.0, 0.01386627963485779
570.0, 0.012882635625386822
571.0, 0.014141939227608624
572.0, 0.018337322500614144
573.0, 0.0183752307125236
574.0, 0.018123896332187386
575.0, 0.020465133930806765
576.0, 0.02216855560211488
577.0, 0.020066056821268222
578.0, 0.025285348798798554
579.0, 0.024400192802339248
580.0, 0.022124721633579952
581.0, 0.02602526675119722
582.0, 0.025698867744781147
583.0, 0.025648464236512708
584.0, 0.028003506590057292
585.0, 0.025813836091141396
586.0, 0.023335997344933378
587.0, 0.028097187898773232
588.0, 0.02647728344474562
589.0, 0.016600415987688518
590.0, 0.014299635350787317
591.0, 0.01350166921255614
592.0, 0.009632909708761597
593.0, 0.011055451551299665
594.0, 0.00637818124226604
595.0, 0.010544033071230433
596.0, 0.010526261342191695
597.0, 0.005128203646672851
598.0, 0.0032868623577428863
599.0, 0.004241876503946191
600.0, 0.006667011182219423
601.0, 0.009078709470159197
602.0, 0.0060956557275449385
603.0, 0.0035098569048703124
604.0, 0.00852016251350544
605.0, 0.006665063904360941
606.0, 0.004315460475008541
607.0, 0.005156018521325058
608.0, 0.006299256055427794
609.0, 0.00737950080443651
610.0, 0.011658845488804772
611.0, 0.011475896050727076
612.0, 0.007502842966587288
613.0, 0.005736998475133593
614.0, 0.0049048998301839805
615.0, 0.0033974349607541316
616.0, 0.006441654437086114
617.0, 0.013161989775644438
618.0, 0.009487753729573226
619.0, 0.004275233675302204
620.0, 0.004210499673025908
621.0, 0.0074951387135692975
622.0, 0.011763076069848229
623.0, 0.008214920935653855
624.0, 0.008801890087059635
625.0, 0.013021054925511942
626.0, 0.014852971588264796
627.0, 0.011389497004032228
628.0, 0.007757790467596857
629.0, 0.006506188909133038
630.0, 0.008383533929619628
631.0, 0.007761242353089506
632.0, 0.004896127864969477
633.0, 0.006883880156072796
634.0, 0.011289242258806781
635.0, 0.008583764827786894
636.0, 0.007905756306956826
637.0, 0.0088589010562805
638.0, 0.0077215383397930566
639.0, 0.006741723098352063
640.0, 0.011473060102463968
641.0, 0.01071120705911672
642.0, 0.007424241288491128
643.0, 0.005975160425298822
644.0, 0.007087532301417837
645.0, 0.009560211527950212
646.0, 0.009927921265718743
647.0, 0.0035395652003690345
648.0, 0.004678168647860505
649.0, 0.006344160900224294
650.0, 0.0010897537688766919
651.0, 0.00648358982701176
652.0, 0.008775313753207347
653.0, 0.00824951132710702
654.0, 0.007258857121513225
655.0, 0.008769843553011213
656.0, 0.011178042483927102
657.0, 0.006796357020547773
658.0, 0.0010476765640133902
659.0, 0.0024683816855608377
660.0, 0.0034058344388739658
661.0, 0.0039016207081043613
662.0, 0.00698033676533278
663.0, 0.0042279498073658035
664.0, 0.004038981738460548
665.0, 0.010005311307800503
666.0, 0.0077397518457191575
667.0, 0.0014541347781192812
668.0, 0.002848145697028931
669.0, 0.0033592602215670223
670.0, 0.004121445108196641
671.0, 0.006331820789470341
672.0, 0.006058709513352239
673.0, 0.006870048649331264
674.0, 0.009822100742954795
675.0, 0.003342645940552339
676.0, 0.008645209510686735
677.0, 0.010436124401785533
678.0, 0.006065990403575783
679.0, 0.0047145287576473745
680.0, 0.01193660864898584
681.0, 0.016523567554608515
682.0, 0.01239520648463563
683.0, 0.003816753024132665
684.0, 0.0044475233189227616
685.0, 0.011641049099336798
686.0, 0.015047247213037003
687.0, 0.011363654117768924
688.0, 0.012236248449779195
689.0, 0.00849244860979526
690.0, 0.010830929158805533
691.0, 0.011182273104277515
692.0, 0.0032523214006518835
693.0, 0.003299499021935446
694.0, 0.006600128017542509
695.0, 0.005338864419517615
696.0, 0.004772577094638432
697.0, 0.006064224571632035
698.0, 0.0061074403641235555
699.0, 0.003871560931227299
700.0, 0.005884798086263188
701.0, 0.003077536919878151
702.0, 0.00016892397519202763
703.0, 0.0022792607680133404
704.0, 0.006975281737785052
705.0, 0.007255035411161492
706.0, 0.0048671810996669534
707.0, 0.00690712389781841
708.0, 0.006253745763173664
709.0, 0.005339940826862251
710.0, 0.006271424402417175
711.0, 0.00589719801451948
712.0, 0.002524296436426928
713.0, 0.0016909898385658844
714.0, 0.0033705521609904646
715.0, 0.0030381796317462354
716.0, 0.0007032945635770602
717.0, 0.001411365963421541
718.0, 0.004364015314514912
719.0, 0.0037803841144559477
720.0, 0.0018471964079680803
721.0, 0.0011903007269104915
722.0, 0.0018393093928911206
723.0, 0.0017303435367033082
724.0, 0.00454615732282878
725.0, 0.001634987119954524
726.0, 0.003150615766693614
727.0, 0.0014396071068070691
728.0, 0.0009885277746599528
729.0, 0.0021335374060828765
730.0, 0.0011957812267376362
731.0, 0.00305251789036385
732.0, 0.001931468125521026
733.0, 0.0014232483017213324
734.0, 0.0036624842579207895
735.0, 0.0020068068847606973
736.0, 0.0007198113397722177
737.0, 0.0025396197138174807
738.0, 0.0006649590319171225
739.0, 0.0006872227608636593
740.0, 0.002565083014134167
741.0, 0.002897236147581546
742.0, 0.0006062469601893382
743.0, 0.0027306916395127613
744.0, 0.0008098852844643712
745.0, 0.0032735405302395837
746.0, 0.00713470150370961
747.0, 0.007656850595833863
748.0, 0.0053709959016955845
749.0, 0.003248549023697883
750.0, 0.0009107991849866802
751.0, 0.003278983760696033
752.0, 0.004164477582132321
753.0, 0.004832299834415283
754.0, 0.0063358952650103585
755.0, 0.004591755623419892
756.0, 0.003113182375566525
757.0, 0.0041971309550154195
758.0, 0.0010508976802944769
759.0, 0.0007840160367697747
760.0, 0.001377516853566759
761.0, 0.002436660183264494
762.0, 0.0012866900406209106
763.0, 0.0019894007603310964
764.0, 0.0006981561819378032
765.0, 0.0038272532320929075
766.0, 0.004710121039102097
767.0, 0.0029330215137411864
768.0, 0.003152916924594806
769.0, 0.002398268557867086
770.0, 0.005791012163811717
771.0, 0.0041284840196376136
772.0, 0.003611110473364526
773.0, 0.0023457509131941654
774.0, 0.0005680093714240872
775.0, 0.0016050452983919247
776.0, 0.007679144875802564
777.0, 0.004374276323848118
778.0, 0.0004912158659500692
779.0, 0.0010885366758223013
780.0, 0.0046278120474237535
781.0, 0.007688954482783145
782.0, 0.007366035032429065
783.0, 0.0036775378962173536
784.0, 0.010446640010986363
785.0, 0.017635847277812276
786.0, 0.01779132813671329
787.0, 0.01799009293282593
788.0, 0.02334745630866421
789.0, 0.02541379619189041
790.0, 0.026755551145899576
791.0, 0.028456933350488583
792.0, 0.03121627986690069
793.0, 0.038823286160992045
794.0, 0.04893163421991971
795.0, 0.05834812227764577
796.0, 0.07400833639574758
797.0, 0.09561890216179633
798.0, 0.12541565015353817
799.0, 0.14817393492082523
800.0, 0.1766812502422418
801.0, 0.21161755927593126
802.0, 0.2383204230187636
803.0, 0.26897827519839973
804.0, 0.3027251677309596
805.0, 0.3381004556670273
806.0, 0.36298055230409165
807.0, 0.3790223243302607
808.0, 0.38984913778213265
809.0, 0.3889207184187699
810.0, 0.3625745646678883
811.0, 0.326980414887505
812.0, 0.2816841695069089
813.0, 0.2369562426298322
814.0, 0.20187932892741886
815.0, 0.17574803266961936
816.0, 0.15270265306396344
817.0, 0.13834144368709536
818.0, 0.12102987830368712
819.0, 0.11444852560576009
820.0, 0.10990767607877097
821.0, 0.11092820347575695
822.0, 0.11645884919077734
823.0, 0.11001239329760706
824.0, 0.11918231580261716
825.0, 0.13423283743883777
826.0, 0.14234419058660153
827.0, 0.15882744634406473
828.0, 0.1847870737032869
829.0, 0.2142531974679241
830.0, 0.25491829230525787
831.0, 0.30811709968177015
832.0, 0.37669356839271023
833.0, 0.4368446525164142
834.0, 0.5122749406811155
835.0, 0.6002266616097195
836.0, 0.6816207526679566
837.0, 0.7545864322544892
838.0, 0.830436146212211
839.0, 0.9073382699727764
840.0, 0.969042609419071
841.0, 0.9978204436867373
842.0, 0.9901251384287975
843.0, 0.9406813646661909
844.0, 0.8417982507199441
845.0, 0.7148991491156075
846.0, 0.5961454175310181
847.0, 0.4810801103576504
848.0, 0.3789212695609658
849.0, 0.3006364666976734
850.0, 0.2454800508376875
851.0, 0.20146512775437111
852.0, 0.15986767664627236
853.0, 0.13355665759937294
854.0, 0.11863768781549427
855.0, 0.09818244301390454
856.0, 0.08408899505946542
857.0, 0.07785448731674621
858.0, 0.06425982441406208
859.0, 0.05466945564228831
860.0, 0.041666292979914414
861.0, 0.03616765927766629
862.0, 0.03751794632608467
863.0, 0.027980351768180235
864.0, 0.016067715448491154
865.0, 0.01826998595248105
866.0, 0.0196715366017087
867.0, 0.01854463907871318
868.0, 0.013099667747577344
869.0, 0.009469177918904755
870.0, 0.008618495153582218
871.0, 0.005271179746107354
872.0, 0.001662264547816495
873.0, 0.005374910408329375
874.0, 0.0025810975660998303
875.0, 0.005074968782857583
876.0, 0.0003515801824057214
877.0, 0.004498092399417806
878.0, 0.0013832051767675435
879.0, 0.007663857394413176
880.0, 0.0015660252309900177
881.0, 0.0024757712049537717
882.0, 0.0032052612400971497
883.0, 0.0017599597631657601
884.0, 0.004290416940467168
885.0, 0.005933364576957839
886.0, 0.009119537025066236
887.0, 0.014398360688286647
888.0, 0.01031288498299953
889.0, 0.011554099614502185
890.0, 0.0196708499027473
891.0, 0.017388707821833375
892.0, 0.013300421264104884
893.0, 0.015756729005971044
894.0, 0.019194195166042406
895.0, 0.013540474723955625
896.0, 0.005787265981677713
897.0, 0.007945791725193916
898.0, 0.009136979212212515
899.0, 0.00807207456683727
900.0, 0.00952451145752462
901.0, 0.006923784765851599
902.0, 0.00022076056894449944
903.0, 0.006091991838464534
904.0, 0.0010347445022216252
905.0, 0.0026083539066351423
906.0, 0.0009184512562385502
907.0, 0.001303913508039441
908.0, 0.001785213715300323
909.0, 0.000569352781399416
910.0, 0.0010163047933805806
911.0, 0.0002472749469928657
912.0, 0.0009472483629463596
913.0, 0.0010632347053246107
914.0, 0.005047063118188193
915.0, 0.008443893386102887
916.0, 0.006126856270979008
917.0, 0.00026796044049671894
918.0, 0.002186839206425833
919.0, 0.002352555915435854
920.0, 0.003958009715479787
921.0, 0.0011807818007945597
922.0, 0.001842879615533469
923.0, 0.006053348943661746
924.0, 0.0037266225547614266
925.0, 0.001909074855609783
926.0, 0.011106778545172336
927.0, 0.01837737507917587
928.0, 0.010761696709683402
929.0, 0.013379159139198625
930.0, 0.016369973276189023
931.0, 0.017168507721222328
932.0, 0.021064542112171653
933.0, 0.0317852359014837
934.0, 0.04806414046675418
935.0, 0.05739987455864179
936.0, 0.06850341893944491
937.0, 0.07694224231974074
938.0, 0.09253317841902635
939.0, 0.10853807749823066
940.0, 0.12075372585483188
941.0, 0.1330714384036556
942.0, 0.1379439449891295
943.0, 0.13971226168640533
944.0, 0.13157725678384055
945.0, 0.11651532430066251
946.0, 0.09506371668474699
947.0, 0.07523161014196572
948.0, 0.05923628549679759
949.0, 0.045055761003907194
950.0, 0.039589289185730625
951.0, 0.032748778978651846
952.0, 0.02354407458111328
953.0, 0.023446470297774486
954.0, 0.020777767423538016
955.0, 0.014993585952575241
956.0, 0.009795475359145244
957.0, 0.005306863167861028
958.0, 0.006053466780361819
959.0, 0.012335901974004021
960.0, 0.015120503042326676
961.0, 0.008971090159345784
962.0, 0.002527672241036678
963.0, 0.00241831386356231
964.0, 0.005886264441961234
965.0, 0.005808890138865186
966.0, 0.000732024501721731
967.0, 0.0013320338849064437
968.0, 0.002187403817640419
969.0, 0.0020792228818037016
970.0, 0.008111759727803198
971.0, 0.006514152980150002
972.0, 0.005386064174418564
973.0, 0.008419080101807544
974.0, 0.0018302363426875305
975.0, 0.005208679302582819
976.0, 0.0012728761147605238
977.0, 0.003806330332254795
978.0, 0.0020737913037326455
979.0, 0.0033311105708794422
980.0, 0.007517848913644286
981.0, 0.0043990711365449724
982.0, 0.003556800318554461
983.0, 0.0005384842424169903
984.0, 0.0034906049674377584
985.0, 0.0014229034756299147
986.0, 0.0008045350904876583
987.0, 0.005134464657180833
988.0, 0.005043743969384895
989.0, 0.0022375447761012694
990.0, 0.0048722305991541455
991.0, 0.008018969174931322
992.0, 0.011718534464042338
993.0, 0.008279774625955576
994.0, 0.00897592126066228
995.0, 0.00422058147658918
996.0, 0.0015714633183566177
997.0, 0.003914496796959585
998.0, 0.0067451084898034275
999.0, 0.009366978366075779
1000.0, 0.004175387102524117
1001.0, 0.0011132173520768025
1002.0, 0.0059091387416723455
1003.0, 0.007250255682304996
1004.0, 0.0043930297640925675
1005.0, 0.007565427212254213
1006.0, 0.00913929338748998
1007.0, 0.004807718832466701
1008.0, 0.010230223138161925
1009.0, 0.005691014716602659
1010.0, 0.004223261268406723
1011.0, 0.005719384063046621
1012.0, 0.007215439293515532
1013.0, 0.006528289282535206
1014.0, 0.005286560851851552
1015.0, 0.010242928049382677
1016.0, 0.017287884515361993
1017.0, 0.009253496453394986
1018.0, 0.012615082336950443
1019.0, 0.008577189328507515
1020.0, 0.006406385247038553
1021.0, 0.008509886097237943
1022.0, 0.012799798980326757
1023.0, 0.012681625428079149
1024.0, 0.011088782979013558
1025.0, 0.01690662203295061
1026.0, 0.01835489393300817
1027.0, 0.010911282786091926
1028.0, 0.015458237293121952
1029.0, 0.016077655440963335
1030.0, 0.014874862194845183
1031.0, 0.0129022930967164
1032.0, 0.01251111624187793
1033.0, 0.014583629286435655
1034.0, 0.01419819290767196
1035.0, 0.012099305512295093
1036.0, 0.010521965317802974
1037.0, 0.015610877241477012
1038.0, 0.012371236903997029
1039.0, 0.007509102578576434
1040.0, 0.01106370782438842
1041.0, 0.012093209847542414
1042.0, 0.005086727898704591
1043.0, 0.0026579971866745634
1044.0, 0.0015022676463575168
1045.0, 0.010174422481028938
1046.0, 0.006063680152147984
1047.0, 0.009404614940697257
1048.0, 0.010984996008485416
1049.0, 0.004793880266250632
1050.0, 0.0023004911014339042
1051.0, 0.005640278219265473
1052.0, 0.005251003215079525
1053.0, 0.005720546718461831
1054.0, 0.0006348664358112466
1055.0, 0.004524501068929284
1056.0, 0.004368628480829505
1057.0, 0.004990569439956252
1058.0, 0.005020438956679172
1059.0, 0.004623834156790015
1060.0, 0.004622679221327772
1061.0, 0.0023230560024193646
1062.0, 0.0010167840057565978
1063.0, 0.008428370872674852
1064.0, 0.007009943018904744
1065.0, 0.003560012038063419
1066.0, 0.003336768014252408
1067.0, 0.007062188107928531
1068.0, 0.006248406489678065
1069.0, 0.0031735800462151004
1070.0, 0.004462217825698366
1071.0, 0.004938502597415194
1072.0, 0.004214003229707963
1073.0, 0.0005535361950788518
1074.0, 0.0013902027615208307
1075.0, 0.006500632447515958
1076.0, 0.00450210783118321
1077.0, 0.001801420339056679
1078.0, 0.0018038523653994896
1079.0, 0.001716595261693425
1080.0, 0.0007946921591592616
1081.0, 0.0001955559213769888
1082.0, 0.0009289192180857909
1083.0, 0.007456114245975287
1084.0, 0.004732658484065083
1085.0, 0.005099973799808509
1086.0, 0.001577878433770559
1087.0, 0.0015089511688453467
1088.0, 0.0020186156504574644
1089.0, 0.005588499689873842
1090.0, 0.00708292219304962
1091.0, 0.007723786921915405
1092.0, 0.004280160571158443
1093.0, 0.00754272145229335
1094.0, 0.008803650789532078
1095.0, 0.011397713491772684
1096.0, 0.013097109449013928
1097.0, 0.008713528035992868
1098.0, 0.0018538404073332032
1099.0, 0.000644962077546275
1100.0, 0.0022982711857013256
1101.0, 0.00831189399779461
1102.0, 0.0029414572264467222
1103.0, 0.00665456809977563
1104.0, 0.010744858451833296
1105.0, 0.003739293516543554
1106.0, 0.009170982985997035
1107.0, 0.009266084003714087
1108.0, 0.0007216458425788723
1109.0, 0.001869892181866967
1110.0, 0.0009740212686565271
1111.0, 0.0011273902195844203
1112.0, 0.0024843876775044516
1113.0, 0.006257010751726792
1114.0, 0.006902983570071176
1115.0, 0.00538876296351316
1116.0, 0.005914055216402904
1117.0, 0.0035702848608559707
1118.0, 0.0006288059563552312
1119.0, 0.0028764676868261057
1120.0, 0.006457953913852471
1121.0, 0.005689124245772353
1122.0, 0.0001941099425859045
1123.0, 0.0009429637052424811
1124.0, 0.004972183340050594
1125.0, 0.00378359423750234
1126.0, 0.004671540775013777
1127.0, 0.007190715183884739
1128.0, 0.009333002245317381
1129.0, 0.010440416234656162
1130.0, 0.008870225800152481
1131.0, 0.005123131144172179
1132.0, 0.0019076856448026782
1133.0, 0.008407408289788386
1134.0, 0.01037435729750318
1135.0, 0.010754346544860287
1136.0, 0.006430650498584977
1137.0, 0.0033998111354473543
1138.0, 0.001983344210290437
1139.0, 0.00248569711109757
1140.0, 0.00692051884169366
1141.0, 0.008898920681091464
1142.0, 0.005348845877813101
1143.0, 0.004642520174563693
1144.0, 0.007218968856813386
1145.0, 0.006048059411570504
1146.0, 0.00570734092193939
1147.0, 0.008480322434167159
1148.0, 0.011559209022889353
1149.0, 0.01060731726975665
1150.0, 0.010287605911327971
1151.0, 0.012119006719162427
1152.0, 0.00921822786071912
1153.0, 0.010077326760373298
1154.0, 0.00558308106076001
1155.0, 0.00517500726833526
1156.0, 0.005827820896906614
1157.0, 0.0032674872838992326
1158.0, 0.005312071808794904
1159.0, 0.0067007937490975895
1160.0, 0.008045797524276166
1161.0, 0.009508164714886861
1162.0, 0.00859795947440314
1163.0, 0.009675151419583795
1164.0, 0.008210747979029213
1165.0, 0.0083994220499914
1166.0, 0.011941458038431878
1167.0, 0.009998856781674309
1168.0, 0.010352748832326654
1169.0, 0.010763675398331719
1170.0, 0.006498347509777815
1171.0, 0.004857911372926019
1172.0, 0.008376202849067448
1173.0, 0.00954768264624839
1174.0, 0.008596327195780587
1175.0, 0.01277296916836841
1176.0, 0.0023568198792958176
1177.0, 0.006308381632971557
1178.0, 0.008531222357374246
1179.0, 0.002399210697042219
1180.0, 0.0011072345522146906
1181.0, 0.002349258492656444
1182.0, 0.0052195093045495754
1183.0, 0.011254886663324132
1184.0, 0.011965685404673779
1185.0, 0.004556153385300252
1186.0, 0.008750331906690499
1187.0, 0.013725497030488271
1188.0, 0.005230576041276037
1189.0, 0.005471738410992243
1190.0, 0.00960103319917221
1191.0, 0.009430135884482046
1192.0, 0.005607648649764177
1193.0, 0.009206957959189155
1194.0, 0.006150349624286337
1195.0, 0.001090968877624252
1196.0, 0.0032573656850253697
1197.0, 0.0005286711856255235
1198.0, 0.00026687929549535115
1199.0, 0.00025809486853186996
1200.0, 0.00012542581196901766
1201.0, 0.0008996683251756313
1202.0, 0.0010067426483994528
1203.0, 0.0004334436507768524
1204.0, 0.004388093063207891
1205.0, 0.004950933786269483
1206.0, 0.005746053287314315
1207.0, 0.005589725924151095
1208.0, 0.0030450655824150333
1209.0, 0.006730570058505813
1210.0, 0.0036711139105091188
1211.0, 0.01090803185646712
1212.0, 0.010782237352225126
1213.0, 0.0032320604605507405
1214.0, 0.004007462660598227
1215.0, 0.008043396336517563
1216.0, 0.003031225691125539
1217.0, 0.003349315269088734
1218.0, 0.007576966749617482
1219.0, 0.006526208591656164
1220.0, 0.006083743577890958
1221.0, 0.007468764187878126
1222.0, 0.00602957205964445
1223.0, 0.007503445971178464
1224.0, 0.009561871224183434
1225.0, 0.005833511560229655
1226.0, 0.00416291098220874
1227.0, 0.007916218091620623
1228.0, 0.005484360735651041
1229.0, 0.005267658830656367
1230.0, 0.00764880913568491
1231.0, 0.004927739829612714
1232.0, 0.0019333129981091964
1233.0, 0.002158884274188485
1234.0, 0.0006344812932060028
1235.0, 0.002299031494935436
1236.0, 0.0004327801910600888
1237.0, 0.003502776555277906
1238.0, 0.006370455378713105
1239.0, 0.004920815392329078
1240.0, 0.011514425492007943
1241.0, 0.005719242051010187
1242.0, 0.0028295283686351966
1243.0, 0.007176026802704509
1244.0, 0.006426850811641712
1245.0, 0.003933906846175243
1246.0, 0.00831321895267613
1247.0, 0.008366141605834859
1248.0, 0.001086180687677677
1249.0, 0.00034168574465538737
1250.0, 0.0024895528749562575
1251.0, 0.010793926701070149
1252.0, 0.0036607287889722515
1253.0, 0.005156504117384404
1254.0, 0.006654887685333943
1255.0, 0.005707301852637739
1256.0, 0.006489956445937128
1257.0, 0.004727043651108137
1258.0, 0.0005052578022891554
1259.0, 0.0028032882791848832
1260.0, 0.007096730049286441
1261.0, 0.0009247383812786705
1262.0, 0.007122499617397398
1263.0, 0.0015626554962923616
1264.0, 0.00744857146714375
1265.0, 0.010483552198446017
1266.0, 0.007992088128019804
1267.0, 0.009028504949737354
1268.0, 0.013315390303404886
1269.0, 0.008048880744082486
1270.0, 0.004751426061667439
1271.0, 0.006729437609493817
1272.0, 0.00707922927261943
1273.0, 0.008233432868447778
1274.0, 0.009315383174254665
1275.0, 0.013814447772906994
1276.0, 0.00838917260669436
1277.0, 0.008173479523695562
1278.0, 0.001350598965279757
1279.0, 0.005161763187675683
1280.0, 0.012363692688337521
1281.0, 0.009847958375163267
1282.0, 0.011194575960847289
1283.0, 0.01128770322049765
1284.0, 0.011200697512892589
1285.0, 0.010723630162217862
1286.0, 0.006768703778895458
1287.0, 0.004330554635600174
1288.0, 0.004523984054791732
1289.0, 0.004536928909619467
1290.0, 0.0036835418997603763
1291.0, 0.0066165259566985345
1292.0, 0.005942562074815597
1293.0, 0.0037513908200259446
1294.0, 0.002308566936763757
1295.0, 0.0007650864060356769
1296.0, 0.0012617615978956563
1297.0, 0.006319137633492328
1298.0, 0.009476137676904278
1299.0, 0.004118010225334363
1300.0, 0.0016348710518431086
1301.0, 0.004575144937431258
1302.0, 0.004282430096257179
1303.0, 0.0053704077864494305
1304.0, 0.00023036753914405778
1305.0, 0.004331059489916093
1306.0, 0.00453407127179286
1307.0, 1.4164043211127922e-05
1308, 0.0
1309, 0.0
1310, 0.0
1311, 0.0
1312, 0.0
1313, 0.0
1314, 0.0
1315, 0.0
1316, 0.0
1317, 0.0
1318, 0.0
1319, 0.0
1320, 0.0
1321, 0.0
1322, 0.0
1323, 0.0
1324, 0.0
1325, 0.0
1326, 0.0
1327, 0.0
1328, 0.0
1329, 0.0
1330, 0.0
1331, 0.0
1332, 0.0
1333, 0.0
1334, 0.0
1335, 0.0
1336, 0.0
1337, 0.0
1338, 0.0
1339, 0.0
1340, 0.0
1341, 0.0
1342, 0.0
1343, 0.0
1344, 0.0
1345, 0.0
1346, 0.0
1347, 0.0
1348, 0.0
1349, 0.0
1350, 0.0
1351, 0.0
1352, 0.0
1353, 0.0
1354, 0.0
1355, 0.0
1356, 0.0
1357, 0.0
1358, 0.0
1359, 0.0
1360, 0.0
1361, 0.0
1362, 0.0
1363, 0.0
1364, 0.0
1365, 0.0
1366, 0.0
1367, 0.0
1368, 0.0
1369, 0.0
1370, 0.0
1371, 0.0
1372, 0.0
1373, 0.0
1374, 0.0
1375, 0.0
1376, 0.0
1377, 0.0
1378, 0.0
1379, 0.0
1380, 0.0
1381, 0.0
1382, 0.0
1383, 0.0
1384, 0.0
1385, 0.0
1386, 0.0
1387, 0.0
1388, 0.0
1389, 0.0
1390, 0.0
1391, 0.0
1392, 0.0
1393, 0.0
1394, 0.0
1395, 0.0
1396, 0.0
1397, 0.0
1398, 0.0
1399, 0.0
1400, 0.0
1401, 0.0
1402, 0.0
1403, 0.0
1404, 0.0
1405, 0.0
1406, 0.0
1407, 0.0
1408, 0.0
1409, 0.0
1410, 0.0
1411, 0.0
1412, 0.0
1413, 0.0
1414, 0.0
1415, 0.0
1416, 0.0
1417, 0.0
1418, 0.0
1419, 0.0
1420, 0.0
1421, 0.0
1422, 0.0
1423, 0.0
1424, 0.0
1425, 0.0
1426, 0.0
1427, 0.0
1428, 0.0
1429, 0.0
1430, 0.0
1431, 0.0
1432, 0.0
1433, 0.0
1434, 0.0
1435, 0.0
1436, 0.0
1437, 0.0
1438, 0.0
1439, 0.0
1440, 0.0
1441, 0.0
1442, 0.0
1443, 0.0
1444, 0.0
1445, 0.0
1446, 0.0
1447, 0.0
1448, 0.0
1449, 0.0
1450, 0.0
1451, 0.0
1452, 0.0
1453, 0.0
1454, 0.0
1455, 0.0
1456, 0.0
1457, 0.0
1458, 0.0
1459, 0.0
1460, 0.0
1461, 0.0
1462, 0.0
1463, 0.0
1464, 0.0
1465, 0.0
1466, 0.0
1467, 0.0
1468, 0.0
1469, 0.0
1470, 0.0
1471, 0.0
1472, 0.0
1473, 0.0
1474, 0.0
1475, 0.0
1476, 0.0
1477, 0.0
1478, 0.0
1479, 0.0
1480, 0.0
1481, 0.0
1482, 0.0
1483, 0.0
1484, 0.0
1485, 0.0
1486, 0.0
1487, 0.0
1488, 0.0
1489, 0.0
1490, 0.0
1491, 0.0
1492, 0.0
1493, 0.0
1494, 0.0
1495, 0.0
1496, 0.0
1497, 0.0
1498, 0.0
1499, 0.0
1500, 0.0
1501, 0.0
1502, 0.0
1503, 0.0
1504, 0.0
1505, 0.0
1506, 0.0
1507, 0.0
1508, 0.0
1509, 0.0
1510, 0.0
1511, 0.0
1512, 0.0
1513, 0.0
1514, 0.0
1515, 0.0
1516, 0.0
1517, 0.0
1518, 0.0
1519, 0.0
1520, 0.0
1521, 0.0
1522, 0.0
1523, 0.0
1524, 0.0
1525, 0.0
1526, 0.0
1527, 0.0
1528, 0.0
1529, 0.0
1530, 0.0
1531, 0.0
1532, 0.0
1533, 0.0
1534, 0.0
1535, 0.0
1536, 0.0
1537, 0.0
1538, 0.0
1539, 0.0
1540, 0.0
1541, 0.0
1542, 0.0
1543, 0.0
1544, 0.0
1545, 0.0
1546, 0.0
1547, 0.0
1548, 0.0
1549, 0.0
1550, 0.0
1551, 0.0
1552, 0.0
1553, 0.0
1554, 0.0
1555, 0.0
1556, 0.0
1557, 0.0
1558, 0.0
1559, 0.0
1560, 0.0
1561, 0.0
1562, 0.0
1563, 0.0
1564, 0.0
1565, 0.0
1566, 0.0
1567, 0.0
1568, 0.0
1569, 0.0
1570, 0.0
1571, 0.0
1572, 0.0
1573, 0.0
1574, 0.0
1575, 0.0
1576, 0.0
1577, 0.0
1578, 0.0
1579, 0.0
1580, 0.0
1581, 0.0
1582, 0.0
1583, 0.0
1584, 0.0
1585, 0.0
1586, 0.0
1587, 0.0
1588, 0.0
1589, 0.0
1590, 0.0
1591, 0.0
1592, 0.0
1593, 0.0
1594, 0.0
1595, 0.0
1596, 0.0
1597, 0.0
1598, 0.0
1599, 0.0
