30, 0.0
31, 0.0
32, 0.0
33, 0.0
34, 0.0
35, 0.0
36, 0.0
37, 0.0
38, 0.0
39, 0.0
40, 0.0
41, 0.0
42, 0.0
43, 0.0
44, 0.0
45, 0.0
46, 0.0
47, 0.0
48, 0.0
49, 0.0
50, 0.0
51, 0.0
52, 0.0
53, 0.0
54, 0.0
55, 0.0
56, 0.0
57, 0.0
58, 0.0
59, 0.0
60, 0.0
61, 0.0
62, 0.0
63, 0.0
64, 0.0
65, 0.0
66, 0.0
67, 0.0
68, 0.0
69, 0.0
70, 0.0
71, 0.0
72, 0.0
73, 0.0
74, 0.0
75, 0.0
76, 0.0
77, 0.0
78, 0.0
79, 0.0
80, 0.0
81, 0.0
82, 0.0
83, 0.0
84, 0.0
85, 0.0
86, 0.0
87, 0.0
88, 0.0
89, 0.0
90, 0.0
91, 0.0
92, 0.0
93, 0.0
94, 0.0
95, 0.0
96, 0.0
97, 0.0
98, 0.0
99, 0.0
100, 0.0
101, 0.0
102, 0.0
103, 0.0
104, 0.0
105, 0.0
106, 0.0
107, 0.0
108, 0.0
109, 0.0
110, 0.0
111, 0.0
112, 0.0
113, 0.0
114, 0.0
115, 0.0
116, 0.0
117, 0.0
118, 0.0
119, 0.0
120, 0.0
121, 0.0
122, 0.0
123, 0.0
124, 0.0
125, 0.0
126, 0.0
127, 0.0
128, 0.0
129, 0.0
130, 0.0
131, 0.0
132, 0.0
133, 0.0
134, 0.0
135, 0.0
136, 0.0
137, 0.0
138, 0.0
139, 0.0
140, 0.0
141, 0.0
142, 0.0
143, 0.0
144, 0.0
145, 0.0
146, 0.0
147, 0.0
148, 0.0
149, 0.0
150, 0.0
151, 0.0
152, 0.0
153, 0.0
154, 0.0
155, 0.0
156, 0.0
157, 0.0
158, 0.0
159, 0.0
160, 0.0
161, 0.0
162, 0.0
163, 0.0
164, 0.0
165, 0.0
166, 0.0
167, 0.0
168, 0.0
169, 0.0
170, 0.0
171, 0.0
172, 0.0
173, 0.0
174, 0.0
175, 0.0
176, 0.0
177, 0.0
178, 0.0
179, 0.0
180, 0.0
181, 0.0
182, 0.0
183, 0.0
184, 0.0
185, 0.0
186, 0.0
187, 0.0
188, 0.0
189, 0.0
190, 0.0
191, 0.0
192, 0.0
193, 0.0
194, 0.0
195, 0.0
196, 0.0
197, 0.0
198, 0.0
199, 0.0
200, 0.0
201, 0.0
202, 0.0
203, 0.0
204, 0.0
205, 0.0
206.0, 0.0
207.0, 0.002295750578309578
208.0, 0.0032213049798907275
209.0, 0.0017918448229350956
210.0, 0.0005427673817529767
211.0, 0.0014550440609881411
212.0, 0.0022432873826986094
213.0, 0.0030810792780416587
214.0, 0.0020208045716817273
215.0, 0.000989999931992154
216.0, 0.0007921294843483181
217.0, 0.0006046221370720809
218.0, 5.796859268125467e-05
219.0, 0.0005382335253421523
220.0, 0.0006496368542938373
221.0, 0.0003115407048009329
222.0, 0.00023640822713584308
223.0, 0.0006447791509965255
224.0, 0.001029185405257136
225.0, 0.00098157991294348
226.0, 0.0007633071114509345
227.0, 0.001171030341538642
228.0, 0.002571344278710403
229.0, 0.003945426618076679
230.0, 0.006668978933436187
231.0, 0.009377310445130784
232.0, 0.013347349426580512
233.0, 0.01802628924255128
234.0, 0.024081578326093738
235.0, 0.03368979160129008
236.0, 0.04330739643619456
237.0, 0.05875230214655432
238.0, 0.07488991634711076
239.0, 0.09104696136085644
240.0, 0.10721242639365079
241.0, 0.11999012914689985
242.0, 0.11699648852820982
243.0, 0.114009648694136
244.0, 0.09832768706286743
245.0, 0.08003972953603428
246.0, 0.06350993675594153
247.0, 0.04912465805816873
248.0, 0.03542852553484123
249.0, 0.02883629831350257
250.0, 0.02192443421520079
251.0, 0.017901608191253606
252.0, 0.014961078461947505
253.0, 0.012224248424242011
254.0, 0.009828429158007811
255.0, 0.0074322860448871216
256.0, 0.005434474602146003
257.0, 0.0034292146810156747
258.0, 0.0018676249943731604
259.0, 0.0005333758220448405
260.0, 0.0003941216608552343
261.0, 0.0003937978139687468
262.0, 0.0004274778901634423
263.0, 0.0003672423692767754
264.0, 0.0003355053744010047
265.0, 0.00048058877954738514
266.0, 0.0018407457027947015
267.0, 0.0035924335118053524
268.0, 0.006589960293133248
269.0, 0.009601088643693616
270.0, 0.015529429747732993
271.0, 0.02180202009210853
272.0, 0.02881719134719981
273.0, 0.03645350093057403
274.0, 0.04240613055109996
275.0, 0.04151231314439458
276.0, 0.040258377999915156
277.0, 0.03229336382675617
278.0, 0.023103560728901615
279.0, 0.015254159894218654
280.0, 0.008718605878015298
281.0, 0.003234582702236713
282.0, 0.0016127574947075324
283.0, 1.6192344324372815e-06
284.0, 0.00014184493628150585
285.0, 5.570166447584247e-05
286.0, 0.0001978704476438358
287.0, 0.00027883216926569983
288.0, 0.0003163984080982448
289.0, 7.772325275698952e-06
290.0, 0.00028725218831437375
291.0, 0.00041938171800125586
292.0, 0.0014119724250853095
293.0, 0.003387438432658793
294.0, 0.006528753231587118
295.0, 0.010066456619576091
296.0, 0.016324473854059697
297.0, 0.02260289344239201
298.0, 0.03096526774527111
299.0, 0.03991445260646548
300.0, 0.047864569822846044
301.0, 0.054639446688163625
302.0, 0.06037801351672135
303.0, 0.05802558973327646
304.0, 0.05569032983481542
305.0, 0.04837236174085837
306.0, 0.039633353508994364
307.0, 0.03169036092411652
308.0, 0.02474449290273356
309.0, 0.0181289487055678
310.0, 0.014162472039869438
311.0, 0.010170411470138564
312.0, 0.007715975917450133
313.0, 0.00564238430327095
314.0, 0.004145563993925928
315.0, 0.0033233167491342765
316.0, 0.0025247103270562093
317.0, 0.0018462510998649882
318.0, 0.0011664964851278174
319.0, 0.0008374680484565619
320.0, 0.0006023552088666687
321.0, 0.0003057114608441587
322.0, 5.796859268125467e-05
323.0, 0.000344249240336166
324.0, 0.00018685965350326227
325.0, 4.6957798540681155e-05
326.0, 8.160941539483898e-05
327.0, 0.00020564277291953474
328.0, 0.00048674187039064677
329.0, 0.0008980274162297163
330.0, 0.0012322374030847712
331.0, 0.0014132678126312591
332.0, 0.0015418350265667795
333.0, 0.001281785976717352
334.0, 0.0009595583246623329
335.0, 0.0007801471495482821
336.0, 0.0007043669781102174
337.0, 0.0006506083949532997
338.0, 0.0006350637444019018
339.0, 0.0004553287224013635
340.0, 0.0003095976234820082
341.0, 0.00019236505057354902
342.0, 9.294405642189994e-05
343.0, 8.74386593516132e-06
344.0, 5.505397070286757e-05
345.0, 1.1982334800035882e-05
346.0, 1.5544650551397903e-05
347.0, 0.00016872422785996474
348.0, 0.0003115407048009329
349.0, 0.0003481354029740155
350.0, 0.0003215799582820441
351.0, 0.0004491756315581019
352.0, 0.0008096172162186408
353.0, 0.001014936142251688
354.0, 0.0010732285818194302
355.0, 0.0011341117964790719
356.0, 0.001305102952544449
357.0, 0.0015045926346207218
358.0, 0.001562885074188464
359.0, 0.0014501863576908292
360.0, 0.0012584690008902552
361.0, 0.0007535917048563108
362.0, 0.00028304217879003676
363.0, 0.0003432776996767037
364.0, 0.00048738956416362165
365.0, 0.00024320901175207968
366.0, 0.00029761528868197236
367.0, 0.0005719136015368477
368.0, 0.00011820411356792154
369.0, 0.00034748770920104056
370.0, 0.0013718154111608647
371.0, 0.002431118576861334
372.0, 0.003788684725016751
373.0, 0.005302668919345609
374.0, 0.007043669781102174
375.0, 0.009160656878070675
376.0, 0.01133464102706097
377.0, 0.013925739965847107
378.0, 0.01653950818668737
379.0, 0.018619576738596297
380.0, 0.02056201036374806
381.0, 0.022381706018921078
382.0, 0.02400094045135836
383.0, 0.025277868724778402
384.0, 0.025567063994411696
385.0, 0.025892853962218076
386.0, 0.024436514513683987
387.0, 0.02281274622483588
388.0, 0.020677623702224084
389.0, 0.018232903556130275
390.0, 0.015757741802706646
391.0, 0.013085357295412159
392.0, 0.0104741798496638
393.0, 0.009075485146924476
394.0, 0.007566358655892929
395.0, 0.006137870039596758
396.0, 0.0047501861309980084
397.0, 0.003636152841481159
398.0, 0.0028281548596949557
399.0, 0.0021649164361686453
400.0, 0.0020807162456819065
401.0, 0.00200007837094653
402.0, 0.0012769282734200402
403.0, 0.0004899803392555213
404.0, 5.861628645422958e-05
405.0, 0.00016289498390319052
406.0, 0.00029210989161168556
407.0, 0.00024353285863856712
408.0, 0.0001777919406816135
409.0, 0.0001547988117410041
410.0, 0.0004540333348554137
411.0, 0.0006253483378072781
412.0, 0.0007662217334293216
413.0, 0.0008371442015700745
414.0, 0.0008374680484565619
415.0, 0.0008303434169538379
416.0, 0.000817713388380827
417.0, 0.0008015210440564544
418.0, 0.0009103335979162396
419.0, 0.0009883806975597167
420.0, 0.0009569675495704333
421.0, 0.0007756132931374578
422.0, 0.0005081157648988189
423.0, 0.0002377036146817929
424.0, 1.845927252978501e-05
425.0, 0.00015091264910315464
426.0, 0.00030927377659552074
427.0, 0.0002082335480114344
428.0, 6.73601523893909e-05
429.0, 6.8007846162365825e-06
430.0, 6.153090843261669e-06
431.0, 2.6555444691971417e-05
432.0, 5.440627692989266e-05
433.0, 5.311088938394283e-05
434.0, 0.0003348576806280298
435.0, 0.0007186162411156655
436.0, 0.0006302060411045899
437.0, 0.0004355740623256287
438.0, 0.0003957408952876716
439.0, 0.00047314030115817363
440.0, 0.0004941903487798583
441.0, 0.00043881253119050327
442.0, 0.00039638858906064647
443.0, 0.00048641802350415936
444.0, 0.0005670558982395359
445.0, 0.0005311088938394282
446.0, 0.00046310104767706244
447.0, 0.00046828259786086177
448.0, 0.0005421196879800018
449.0, 0.0006214621751694286
450.0, 0.0007263885663913644
451.0, 0.0008313149576133003
452.0, 0.0010787339788897168
453.0, 0.001325829153279646
454.0, 0.0014647594675827645
455.0, 0.0015667712368263136
456.0, 0.0015978605379291092
457.0, 0.0015577035240046647
458.0, 0.00157357202144255
459.0, 0.0017293423738430165
460.0, 0.001863091137962336
461.0, 0.0019939252801032684
462.0, 0.002173984148990294
463.0, 0.0021914718808606166
464.0, 0.002050274638352086
465.0, 0.0017073207855618695
466.0, 0.0012141019774414737
467.0, 0.0008215995510186765
468.0, 0.0007522963173103609
469.0, 0.000678459227191221
470.0, 0.0006007359744342314
471.0, 0.000518802712152905
472.0, 0.0003241707333739437
473.0, 8.905789378405049e-05
474.0, 5.5053970702867575e-06
475.0, 3.400392308118291e-05
476.0, 2.882237289738361e-05
477.0, 8.873404689756303e-05
478.0, 0.00020985278244387167
479.0, 5.246319561096792e-05
480.0, 0.00010525023810842329
481.0, 0.00036594698173082556
482.0, 0.0006463983854289627
483.0, 0.0007678409678617588
484.0, 0.000755210939288748
485.0, 0.0007406378293968125
486.0, 0.0007254170257319022
487.0, 0.0007098723751805042
488.0, 0.0006923846433101815
489.0, 0.0006525514762722245
490.0, 0.0007024238967912927
491.0, 0.0007989302689645546
492.0, 0.000640892988358676
493.0, 0.00025842981541699013
494.0, 6.768399927587836e-05
495.0, 0.00012338566375172085
496.0, 7.99901809624017e-05
497.0, 0.00022053972969795775
498.0, 0.0005265750374286039
499.0, 0.0007079292938615794
500.0, 0.0008824827656783184
501.0, 0.001457958682966528
502.0, 0.0022406966076067097
503.0, 0.003164631774755423
504.0, 0.004263120413720874
505.0, 0.0055857110981356465
506.0, 0.007718566692542033
507.0, 0.009858870765337632
508.0, 0.014015121706517645
509.0, 0.01821055812096264
510.0, 0.02351355088719474
511.0, 0.029165650597060312
512.0, 0.03358518905695462
513.0, 0.036936680485213313
514.0, 0.03838298068026629
515.0, 0.03566201913999869
516.0, 0.03279824112279011
517.0, 0.02692301090813468
518.0, 0.021005680598235876
519.0, 0.016420980226232958
520.0, 0.01193926316413305
521.0, 0.008754229035528919
522.0, 0.006281010363424214
523.0, 0.004372904508240122
524.0, 0.003208027257544742
525.0, 0.0021331794412928744
526.0, 0.001398370855852836
527.0, 0.0006599999546614358
528.0, 0.0005006672865096074
529.0, 0.0003377723026064169
530.0, 5.5377817589355025e-05
531.0, 0.00026749752823863887
532.0, 0.0003588223502281016
533.0, 0.00028271833190354935
534.0, 0.00017325808427078913
535.0, 1.586849743788536e-05
536.0, 0.00017649655313566368
537.0, 0.00020726200735197203
538.0, 0.00023381745204394342
539.0, 0.0006680961268236223
540.0, 0.0011269871649763478
541.0, 0.001583611274923661
542.0, 0.002037644609779075
543.0, 0.0027938270897272855
544.0, 0.0038311086671466077
545.0, 0.00495874352589593
546.0, 0.006247977981002494
547.0, 0.00744394453280067
548.0, 0.009125033720557056
549.0, 0.010851785319308173
550.0, 0.01211511202349574
551.0, 0.013429930382634812
552.0, 0.01406046027062589
553.0, 0.014389164860410659
554.0, 0.014213639847934457
555.0, 0.013527732142354023
556.0, 0.012501461359075275
557.0, 0.010653591024777849
558.0, 0.008841991541767019
559.0, 0.007303718830951602
560.0, 0.005773866139184858
561.0, 0.004384886843040158
562.0, 0.003020519910268505
563.0, 0.00218596648379033
564.0, 0.001587821284447998
565.0, 0.001152571069008857
566.0, 0.0008756819810620818
567.0, 0.0007642786521103968
568.0, 0.0008565750147593218
569.0, 0.000980932219170505
570.0, 0.0013659861672040907
571.0, 0.0017503924214647012
572.0, 0.001995868361422193
573.0, 0.0022316288947850614
574.0, 0.002040559231757462
575.0, 0.0016985769196267082
576.0, 0.0015136603474423707
577.0, 0.0014417663386421553
578.0, 0.0012604120822091798
579.0, 0.0008896073971810423
580.0, 0.0005217173341312921
581.0, 0.00014767418023828007
582.0, 0.00023122667695204378
583.0, 0.0001849165721843375
584.0, 0.0001347203047787818
585.0, 9.229636264892503e-05
586.0, 5.181550183799301e-05
587.0, 1.0686947254086058e-05
588.0, 1.748773187032264e-05
589.0, 3.5947004400107645e-05
590.0, 4.5014717221756425e-05
591.0, 8.031402784888916e-05
592.0, 0.00022053972969795775
593.0, 0.00034619232165509074
594.0, 0.00032611381469286845
595.0, 0.000300206063773872
596.0, 0.0003983316703795712
597.0, 0.0005087634586717938
598.0, 0.0005473012381638011
599.0, 0.0005871344052017582
600.0, 0.000474111841817636
601.0, 0.00021989203592498284
602.0, 6.96270805948031e-05
603.0, 0.00011658487913548425
604.0, 0.00016095190258426576
605.0, 0.00019948968207627305
606.0, 0.00022895974874663158
607.0, 0.0002603728967359149
608.0, 0.0003154268674387824
609.0, 0.00037469084766598694
610.0, 0.00043006866525534195
611.0, 0.000381815479168711
612.0, 0.00028433756633598664
613.0, 0.00033129536487666773
614.0, 0.0005349950564772777
615.0, 0.0006460745385424753
616.0, 0.0005524827883476004
617.0, 0.0004563002630608259
618.0, 0.0003513738718388901
619.0, 0.00025227672457372844
620.0, 0.0004494994784445893
621.0, 0.0006596761077749485
622.0, 0.0008805396843593935
623.0, 0.0011519233752358819
624.0, 0.0010133169078192508
625.0, 0.000626643725353228
626.0, 0.0004517664066500015
627.0, 0.0005097349993312562
628.0, 0.0005194504059258799
629.0, 0.00042812558393641724
630.0, 0.00033971538392534164
631.0, 0.0002454759399574919
632.0, 0.00015058880221666717
633.0, 0.00020467123226007236
634.0, 0.0002587536623034776
635.0, 0.00018621195973028736
636.0, 8.841020001107558e-05
637.0, 1.0363100367598602e-05
638.0, 0.0001104317882922226
639.0, 5.8292439567742127e-05
640.0, 0.00013374876411931943
641.0, 0.0002687929157845887
642.0, 0.0003079783890495709
643.0, 0.00031348378611985767
644.0, 0.00019981352896276052
645.0, 0.00010233561613003618
646.0, 0.0002866044945413988
647.0, 0.000470549526066274
648.0, 0.0005152403964015429
649.0, 0.0005456820037313639
650.0, 0.0005741805297422599
651.0, 0.0006007359744342314
652.0, 0.0006240529502613282
653.0, 0.0006580568733425111
654.0, 0.0005715897546503603
655.0, 0.0004057801487687827
656.0, 0.00032028457073609423
657.0, 0.00034133461835777893
658.0, 0.0003614131253200012
659.0, 0.0003808439385092486
660.0, 0.00039509320151469665
661.0, 0.0002574582747575278
662.0, 0.0001288910608220076
663.0, 0.0001266241326165954
664.0, 0.00014249263005448076
665.0, 0.0001577134337193912
666.0, 0.00017228654361132675
667.0, 9.683021905974942e-05
668.0, 4.015701392444458e-05
669.0, 3.950932015146966e-05
670.0, 0.0001295387545949825
671.0, 0.00024774286816290405
672.0, 0.000259077509189965
673.0, 0.0002697644564440511
674.0, 0.00027980370992516224
675.0, 0.000292433738498173
676.0, 0.00015836112749236612
677.0, 2.3964669600071763e-05
678.0, 0.00015285573042207935
679.0, 0.00031218839857390785
680.0, 0.0003559077282497144
681.0, 0.00036465159418487574
682.0, 0.00027688908794677513
683.0, 0.00012856721393552016
684.0, 3.465161685415782e-05
685.0, 1.6840038097347727e-05
686.0, 7.383709011914003e-05
687.0, 0.00022701666742770685
688.0, 0.0003079783890495709
689.0, 0.00015512265862749154
690.0, 1.716388498383518e-05
691.0, 3.270853553523309e-05
692.0, 9.812560660569925e-05
693.0, 0.00038375856048763574
694.0, 0.0006804023085101457
695.0, 0.0004582433443797506
696.0, 0.0001444357113734055
697.0, 0.0001593326681518285
698.0, 0.0002985868293414347
699.0, 0.0003448969341091409
700.0, 0.00033582922128749213
701.0, 0.00032093226450906917
702.0, 0.00030473992018469634
703.0, 0.000288871422746811
704.0, 0.00027235523153595073
705.0, 0.00021924434215200793
706.0, 3.886162637849475e-05
707.0, 9.132482198946266e-05
708.0, 0.00018200195020595046
709.0, 0.0004618056601311126
710.0, 0.00028595680076842387
711.0, 0.00010654562565437312
712.0, 0.00019268889746003648
713.0, 0.0003163984080982448
714.0, 0.00020855739489792185
715.0, 6.0559367773154325e-05
716.0, 8.581942491917592e-05
717.0, 0.00020888124178440932
718.0, 0.00025065749014129116
719.0, 0.0002215112703574201
720.0, 0.0002574582747575278
721.0, 0.0003844062542606106
722.0, 0.00044852793778512695
723.0, 0.000359146197114589
724.0, 0.0003458684747686033
725.0, 0.0003390676901523667
726.0, 0.0003206084176225817
727.0, 0.0002934052791576354
728.0, 0.00026328751871430194
729.0, 8.614327180566338e-05
730.0, 9.229636264892503e-05
731.0, 1.6840038097347727e-05
732.0, 0.00010201176924354872
733.0, 0.00010686947254086058
734.0, 7.448478389211494e-05
735.0, 4.566241099473133e-05
736.0, 2.1373894508172117e-05
737.0, 2.5907750918996504e-06
738.0, 2.623159780548396e-05
739.0, 5.0843961178530635e-05
740.0, 7.739940587050205e-05
741.0, 3.238468864874563e-06
742.0, 0.00028563295388193646
743.0, 0.0004948380425528332
744.0, 0.00048285570775279737
745.0, 0.0004971049707582453
746.0, 0.0006049459839585683
747.0, 0.0007344847385535508
748.0, 0.0008766535217215441
749.0, 0.0010201176924354873
750.0, 0.0010175269173435875
751.0, 0.0010084592045219388
752.0, 0.0011324925620466346
753.0, 0.0012824336704903268
754.0, 0.0015567319833452024
755.0, 0.0018715111570110098
756.0, 0.0020742393079521576
757.0, 0.0022293619665796492
758.0, 0.002199244206136316
759.0, 0.002025014581206064
760.0, 0.0020645239013575337
761.0, 0.0023469183863745954
762.0, 0.002560657331456317
763.0, 0.0026775660574782888
764.0, 0.002774396276538038
765.0, 0.002851147988635565
766.0, 0.002978419815025135
767.0, 0.003318135198950477
768.0, 0.0036772813960650663
769.0, 0.0038997642070819484
770.0, 0.004017320626876895
771.0, 0.004041285296476967
772.0, 0.0037566238832544927
773.0, 0.003471962470032019
774.0, 0.0031280370765823405
775.0, 0.00257425890068879
776.0, 0.0019327182185571391
777.0, 0.0014773894961557757
778.0, 0.001026270783278749
779.0, 0.0007309224228021888
780.0, 0.0004601864256986754
781.0, 0.00012338566375172085
782.0, 0.00028304217879003676
783.0, 0.000592639802272045
784.0, 0.0008413542110944114
785.0, 0.0008818350719053434
786.0, 0.0006729538301209341
787.0, 0.00028012755681164965
788.0, 0.0004417271531688904
789.0, 0.0011302256338412225
790.0, 0.001787958660297246
791.0, 0.0025927181732185753
792.0, 0.0038842195565305503
793.0, 0.0055688710600382985
794.0, 0.00906091203703254
795.0, 0.01303030332470929
796.0, 0.021489507846648135
797.0, 0.03013233355322537
798.0, 0.0473337847758931
799.0, 0.0644636658366471
800.0, 0.10179673491092106
801.0, 0.14012790008934936
802.0, 0.21850370432261107
803.0, 0.3021883305660617
804.0, 0.4224077433085947
805.0, 0.5506109533437029
806.0, 0.6213080240514606
807.0, 0.6738379321210449
808.0, 0.6303634306914229
809.0, 0.5430721216731614
810.0, 0.4393378108403859
811.0, 0.3261792317639389
812.0, 0.23603677475704196
813.0, 0.16392352161467466
814.0, 0.10989485015442639
815.0, 0.07402718824150817
816.0, 0.046421184249771444
817.0, 0.029395905733352896
818.0, 0.015770371831279658
819.0, 0.007686182003893288
820.0, 0.00122219814960366
821.0, 0.001855318812686637
822.0, 0.00394413123053073
823.0, 0.003292875141804455
824.0, 0.0017989694544378195
825.0, 0.003093061612841695
826.0, 0.00900618191321616
827.0, 0.020353776815736628
828.0, 0.032979271532336596
829.0, 0.05711525613536023
830.0, 0.08242842417076576
831.0, 0.13279114887597604
832.0, 0.18325135149401903
833.0, 0.2866754170095396
834.0, 0.39073908012587283
835.0, 0.5625291664602142
836.0, 0.7388077706412719
837.0, 0.872373561269726
838.0, 1.0
839.0, 0.9563694043710909
840.0, 0.8810296646986491
841.0, 0.7281632473293157
842.0, 0.555048303382354
843.0, 0.4174956337343529
844.0, 0.2920383214497718
845.0, 0.2093929198650595
846.0, 0.1451556230020671
847.0, 0.10356785353312095
848.0, 0.07386915096090228
849.0, 0.05339846541914369
850.0, 0.03867217594989959
851.0, 0.02804870268556508
852.0, 0.02046647553223426
853.0, 0.014444218831113523
854.0, 0.009849479205629496
855.0, 0.006348046668927118
856.0, 0.003963562043719978
857.0, 0.002175279536536244
858.0, 0.0011260156243168855
859.0, 0.00023673207402233052
860.0, 0.00042100095243369315
861.0, 0.0009038566601864904
862.0, 0.001057683931268032
863.0, 0.0011723257290845918
864.0, 0.0011645534038088928
865.0, 0.0010061922763165267
866.0, 0.00040059859858498345
867.0, 0.00011431795093007205
868.0, 0.0005466535443908262
869.0, 0.0009796368316245551
870.0, 0.0015755151027614749
871.0, 0.00216426874239567
872.0, 0.0029272520069601174
873.0, 0.0036173697220648867
874.0, 0.004236241122142415
875.0, 0.004911461880468762
876.0, 0.0061216776952723855
877.0, 0.007102286067556404
878.0, 0.00825744791165716
879.0, 0.009336181890546877
880.0, 0.011679861808056599
881.0, 0.014105474987847645
882.0, 0.018458624836012034
883.0, 0.0231531093025342
884.0, 0.03153232364351064
885.0, 0.04010681765703902
886.0, 0.053826267156193625
887.0, 0.06754636434912119
888.0, 0.08019193757268338
889.0, 0.0928446354277483
890.0, 0.09167716740196102
891.0, 0.09039408603769772
892.0, 0.07713644219867423
893.0, 0.06354685530100111
894.0, 0.049869182050203395
895.0, 0.03627408975545998
896.0, 0.027280861717703317
897.0, 0.018517888816239236
898.0, 0.013787133498430476
899.0, 0.00939803664586598
900.0, 0.006904415619912568
901.0, 0.004618704295084102
902.0, 0.003339509093458649
903.0, 0.002189852646428179
904.0, 0.0013277722345985707
905.0, 0.0005100588462177436
906.0, 0.00025519134655211555
907.0, 9.132482198946266e-05
908.0, 6.897938682182818e-05
909.0, 0.00022766436120068176
910.0, 0.000388940110671435
911.0, 0.0005589597260773495
912.0, 0.00033841999637939177
913.0, 4.825318608663098e-05
914.0, 0.00010654562565437312
915.0, 0.00023511283958989326
916.0, 0.0006308537348775648
917.0, 0.0010842393759600037
918.0, 0.0019362805343085012
919.0, 0.0028806180553059236
920.0, 0.004358979092121162
921.0, 0.005962345027120558
922.0, 0.00914478838063279
923.0, 0.012686054084373125
924.0, 0.02015234405234143
925.0, 0.02847747596327447
926.0, 0.04316069379661574
927.0, 0.059254912514382856
928.0, 0.07664937648139711
929.0, 0.09443893364992605
930.0, 0.09829595006799166
931.0, 0.09894267230030711
932.0, 0.08542562710520717
933.0, 0.06872192854707067
934.0, 0.053333048348073224
935.0, 0.03823336341870909
936.0, 0.028367368021868733
937.0, 0.01948295253797186
938.0, 0.014067261055242126
939.0, 0.009358527325714511
940.0, 0.006826692367155578
941.0, 0.004718125289235751
942.0, 0.0034577132070265706
943.0, 0.0023475660801475706
944.0, 0.0016555052837238765
945.0, 0.0010356623429868851
946.0, 0.0007030715905642675
947.0, 0.0004044847612228329
948.0, 0.00010039253481111145
949.0, 0.00021471048574118353
950.0, 0.0002529244183467034
951.0, 0.0002700883033305385
952.0, 4.533856410824388e-06
953.0, 0.0002836898725630117
954.0, 0.0005657605106935862
955.0, 0.0008442688330727986
956.0, 0.0005068203773528691
957.0, 0.00012306181686523338
958.0, 0.00020110891650871034
959.0, 0.0002963199011360225
960.0, 0.00022669282054121938
961.0, 0.00014767418023828007
962.0, 0.00022410204544931974
963.0, 0.00029761528868197236
964.0, 0.0005213934872448046
965.0, 0.0006068890652774932
966.0, 0.0003445730872226535
967.0, 7.416093700562749e-05
968.0, 8.031402784888916e-05
969.0, 0.00014799802712476754
970.0, 0.0005200980996988548
971.0, 0.0008206280103592141
972.0, 0.0005317565876124032
973.0, 0.00028757603520086116
974.0, 0.0004747595355906109
975.0, 0.0006136898498937297
976.0, 0.0004954857363258081
977.0, 0.00037210007257408725
978.0, 0.00038537779492007297
979.0, 0.00039930321103903363
980.0, 0.00041873402422828093
981.0, 0.0004064278425417576
982.0, 0.000292433738498173
983.0, 0.00026749752823863887
984.0, 0.0004786456982284604
985.0, 0.0005861628645422959
986.0, 0.0004643964352230123
987.0, 0.0003983316703795712
988.0, 0.00042683019639046737
989.0, 0.00032740920223881827
990.0, 2.2345435167634485e-05
991.0, 7.804709964347696e-05
992.0, 0.00010751716631383549
993.0, 0.00021762510771957064
994.0, 0.000237055920908818
995.0, 0.00017455347181673895
996.0, 2.687929157845887e-05
997.0, 3.497546374064528e-05
998.0, 2.202158828114703e-05
999.0, 1.2306181686523338e-05
1000.0, 5.5053970702867575e-06
1001.0, 9.71540659462369e-07
1002.0, 6.476937729749126e-07
1003.0, 0.00010784101320032294
1004.0, 0.00027073599710351345
1005.0, 0.0003160745612117573
1006.0, 0.00030635915461713363
1007.0, 0.00039476935462820923
1008.0, 0.0005498920132557007
1009.0, 0.00046245335390408755
1010.0, 0.0002849852601089615
1011.0, 0.0002451520930710044
1012.0, 0.00022604512676824447
1013.0, 0.0001881550410492121
1014.0, 0.00015285573042207935
1015.0, 0.00011949950111387136
1016.0, 8.711481246512574e-05
1017.0, 5.505397070286757e-05
1018.0, 2.8174679124408695e-05
1019.0, 0.00017293423738430166
1020.0, 0.00030473992018469634
1021.0, 0.00028466141322247405
1022.0, 0.00024061823666018
1023.0, 5.505397070286757e-05
1024.0, 6.476937729749125e-05
1025.0, 8.160941539483898e-05
1026.0, 0.00018621195973028736
1027.0, 0.00016645729965455254
1028.0, 0.00014767418023828007
1029.0, 0.00013018644836795744
1030.0, 0.0001139941040435846
1031.0, 9.909714726516162e-05
1032.0, 0.00015674189305992883
1033.0, 0.000310893011027958
1034.0, 0.0003031206857522591
1035.0, 0.00012468105129767067
1036.0, 0.00013051029525444488
1037.0, 0.00028757603520086116
1038.0, 0.0003445730872226535
1039.0, 0.0003377723026064169
1040.0, 0.0003128360923468828
1041.0, 0.0003070068483901085
1042.0, 0.000303768379525234
1043.0, 0.0003018252982063093
1044.0, 0.0004401079187364531
1045.0, 0.0006162806249856293
1046.0, 0.0006353875912883892
1047.0, 0.0006318252755370273
1048.0, 0.000470549526066274
1049.0, 0.0003008537575468469
1050.0, 0.0002969675949089974
1051.0, 0.0002934052791576354
1052.0, 0.00029016681029276085
1053.0, 0.0003348576806280298
1054.0, 0.00034651616854157826
1055.0, 0.000303768379525234
1056.0, 0.00013083414214093235
1057.0, 7.448478389211494e-06
1058.0, 6.476937729749126e-07
1059.0, 6.8007846162365825e-06
1060.0, 1.5544650551397903e-05
1061.0, 5.246319561096792e-05
1062.0, 0.00020952893555738423
1063.0, 0.00027753678171975
1064.0, 0.0002642590593737643
1065.0, 0.0002503336432548037
1066.0, 0.0002354366864763807
1067.0, 0.00010525023810842329
1068.0, 8.031402784888916e-05
1069.0, 1.3601569232473165e-05
1070.0, 0.00013245337657336961
1071.0, 0.00013601569232473163
1072.0, 0.00011140332895168495
1073.0, 0.00039606474217415905
1074.0, 0.0007008046623588554
1075.0, 0.0003287045897847681
1076.0, 1.1334641027060972e-05
1077.0, 0.0003199607238496068
1078.0, 0.0005405004535475646
1079.0, 0.00034198231213075387
1080.0, 0.0001881550410492121
1081.0, 0.00015965651503831594
1082.0, 0.00019204120368706157
1083.0, 0.0003309715179901803
1084.0, 0.0002726790784224382
1085.0, 5.634935824881739e-05
1086.0, 0.00012468105129767067
1087.0, 0.00043298328723372905
1088.0, 0.00042812558393641724
1089.0, 0.0002302551362925814
1090.0, 0.00015317957730856681
1091.0, 0.00012500489818415814
1092.0, 0.0002296074425196065
1093.0, 0.00037112853191462484
1094.0, 0.0005120019275366683
1095.0, 0.0006852600118074575
1096.0, 0.00033226690553613014
1097.0, 2.2345435167634485e-05
1098.0, 0.00033161921176315525
1099.0, 0.0005793620799260593
1100.0, 0.0005476250850502886
1101.0, 0.0005155642432880304
1102.0, 0.0004906280330284963
1103.0, 0.0005994405868882816
1104.0, 0.0007584494081536227
1105.0, 0.0008096172162186408
1106.0, 0.0007714032836131209
1107.0, 0.0006315014286505398
1108.0, 0.00041970556488774333
1109.0, 0.00020661431357899712
1110.0, 8.420019048673863e-06
1111.0, 4.4367023448781515e-05
1112.0, 0.00016483806522211525
1113.0, 0.00012791952016254525
1114.0, 7.545632455157732e-05
1115.0, 0.00019139350991408666
1116.0, 0.00026749752823863887
1117.0, 3.8213932605519837e-05
1118.0, 0.00011755641979494663
1119.0, 1.2953875459498252e-05
1120.0, 8.938174067053794e-05
1121.0, 0.00019009812236813682
1122.0, 0.00021471048574118353
1123.0, 0.00014216878316799332
1124.0, 0.00016354267767616543
1125.0, 0.00026102059050888977
1126.0, 0.0003251422740334061
1127.0, 0.00040772323008770743
1128.0, 0.0006376545194938015
1129.0, 0.0009051520477324403
1130.0, 0.0008624042587160961
1131.0, 0.000785652546618569
1132.0, 0.0005385573722286398
1133.0, 0.00037080468502813743
1134.0, 0.0007357801260995006
1135.0, 0.0009977722572678527
1136.0, 0.0007539155517427981
1137.0, 0.0006363591319478516
1138.0, 0.0007399901356238376
1139.0, 0.000678459227191221
1140.0, 0.00044043176562294056
1141.0, 0.0003086260828225458
1142.0, 0.0002480667150493915
1143.0, 0.0003160745612117573
1144.0, 0.0004342786747796789
1145.0, 0.0004067516894282451
1146.0, 0.000355583881363227
1147.0, 0.000307330695276596
1148.0, 0.00024579978684397935
1149.0, 3.108930110279581e-05
1150.0, 6.088321465964178e-05
1151.0, 0.0002513051839142661
1152.0, 0.000381815479168711
1153.0, 0.00018038271577351317
1154.0, 6.606476484344107e-05
1155.0, 4.4367023448781515e-05
1156.0, 2.5583904032509045e-05
1157.0, 9.715406594623688e-06
1158.0, 3.238468864874563e-06
1159.0, 1.3601569232473165e-05
1160.0, 0.00013018644836795744
1161.0, 0.0002940529729306103
1162.0, 0.00012176642931928356
1163.0, 9.715406594623688e-06
1164.0, 3.5623157513620187e-06
1165.0, 2.5907750918996504e-06
1166.0, 2.266928205412194e-06
1167.0, 1.6192344324372813e-05
1168.0, 3.432776996767036e-05
1169.0, 5.8292439567742127e-05
1170.0, 8.873404689756303e-05
1171.0, 0.00011593718536250934
1172.0, 0.00013893031430311874
1173.0, 0.0001599803619248034
1174.0, 0.00017876348134107588
1175.0, 0.0001939842850059863
1176.0, 0.00018847888793569953
1177.0, 2.526005714602159e-05
1178.0, 4.89008798596059e-05
1179.0, 0.0001392541611896062
1180.0, 0.0002542198058926532
1181.0, 0.0002564867340980654
1182.0, 0.0002587536623034776
1183.0, 0.00027073599710351345
1184.0, 0.0002836898725630117
1185.0, 0.0002985868293414347
1186.0, 0.0004462610095797147
1187.0, 0.0006101275341423676
1188.0, 0.0007652501927698592
1189.0, 0.000910657444802727
1190.0, 0.0010434346682625841
1191.0, 0.001154837997214269
1192.0, 0.0012396858814739825
1193.0, 0.0012471343598631942
1194.0, 0.0011833365232251651
1195.0, 0.0013232383781877465
1196.0, 0.0015764866434209372
1197.0, 0.0015363296294964926
1198.0, 0.0013834738990744133
1199.0, 0.001374730033139252
1200.0, 0.0013744061862527644
1201.0, 0.001496172615572048
1202.0, 0.001621825207529181
1203.0, 0.0018154856456486798
1204.0, 0.0019362805343085012
1205.0, 0.0019262412808273902
1206.0, 0.002005907614903304
1207.0, 0.0021843472493578925
1208.0, 0.0019019527643408308
1209.0, 0.001381206970869001
1210.0, 0.0012549066851388932
1211.0, 0.0011538664565548067
1212.0, 0.0010210892330949496
1213.0, 0.0008530126990079598
1214.0, 0.0006392737539262387
1215.0, 0.0004494994784445893
1216.0, 0.0003390676901523667
1217.0, 0.00011820411356792154
1218.0, 0.00021276740442225877
1219.0, 0.00021503433262767097
1220.0, 6.703630550290345e-05
1221.0, 0.0002325220644979936
1222.0, 0.0004595387319257005
1223.0, 0.00033615306817397965
1224.0, 0.0002422374710926173
1225.0, 0.00021050047621684658
1226.0, 5.732089890827976e-05
1227.0, 0.00034198231213075387
1228.0, 0.0007574778674941603
1229.0, 0.0011826888294521904
1230.0, 0.0018556426595731246
1231.0, 0.002644857521943055
1232.0, 0.0036225512722486857
1233.0, 0.004628743548565213
1234.0, 0.005742129144309088
1235.0, 0.0071673792917403825
1236.0, 0.009563522404861071
1237.0, 0.011973267087214233
1238.0, 0.014380420994475496
1239.0, 0.01730929223586805
1240.0, 0.020630665903683402
1241.0, 0.024554394780365422
1242.0, 0.028730076534734684
1243.0, 0.03297635691035821
1244.0, 0.037161106377549116
1245.0, 0.04046240153840225
1246.0, 0.043293471020075594
1247.0, 0.0449350508876805
1248.0, 0.045606385483369004
1249.0, 0.045234609257681406
1250.0, 0.04326853480981606
1251.0, 0.040536886322294366
1252.0, 0.03649333409761198
1253.0, 0.032292392286096705
1254.0, 0.02866401176989124
1255.0, 0.02558098941053066
1256.0, 0.02420949784625628
1257.0, 0.020950950474419496
1258.0, 0.015030705542542308
1259.0, 0.011202835344260576
1260.0, 0.008717634337355836
1261.0, 0.007021000499048052
1262.0, 0.005555269490805825
1263.0, 0.0043466729104346385
1264.0, 0.0032821881945503694
1265.0, 0.0025023648918885747
1266.0, 0.0017685278471079988
1267.0, 0.0012047104177333374
1268.0, 0.0006596761077749485
1269.0, 0.00011788026668143409
1270.0, 2.720313846494633e-05
1271.0, 3.7566238832544933e-05
1272.0, 0.0003652992879578506
1273.0, 0.0006561137920235863
1274.0, 0.0005492443194827258
1275.0, 0.00038149163228222346
1276.0, 3.724239194605747e-05
1277.0, 7.286554945967767e-05
1278.0, 7.448478389211494e-06
1279.0, 0.00013245337657336961
1280.0, 0.0003083022359360584
1281.0, 1.9106966302759918e-05
1282.0, 0.00020693816046548456
1283.0, 0.00024353285863856712
1284.0, 0.0003066830015036211
1285.0, 0.00043946022496347815
1286.0, 0.000422296339979643
1287.0, 0.00028563295388193646
1288.0, 0.00031834148941716953
1289.0, 0.0002700883033305385
1290.0, 0.00037145237880111236
1291.0, 0.00043265944034724164
1292.0, 0.0004174386366823311
1293.0, 0.00046342489456354996
1294.0, 0.0005298135062934785
1295.0, 0.0005958782711369195
1296.0, 0.000584867476996346
1297.0, 0.0008073502880132285
1298.0, 0.0010916878543492151
1299.0, 0.001173944963517029
1300.0, 0.001336516100533732
1301.0, 0.0017669086126755615
1302.0, 0.002435004739499184
1303.0, 0.003333679849501875
1304.0, 0.004249194997601914
1305.0, 0.005189646355961486
1306.0, 0.006507379337078947
1307.0, 0.007881137829558736
1308.0, 0.009263964034860175
1309.0, 0.010528262279707204
1310.0, 0.011581088507677926
1311.0, 0.012447378929031869
1312.0, 0.013187692911542195
1313.0, 0.013065278788449937
1314.0, 0.012720705701227283
1315.0, 0.01185150065789495
1316.0, 0.01081000907095129
1317.0, 0.009229312418006017
1318.0, 0.007744798290347517
1319.0, 0.006367801329002853
1320.0, 0.005384926028513423
1321.0, 0.004576604199840732
1322.0, 0.003861226427589941
1323.0, 0.003208027257544742
1324.0, 0.002744602362981192
1325.0, 0.0022487927797688965
1326.0, 0.001639636786285991
1327.0, 0.001440147104209718
1328.0, 0.001401609324717711
1329.0, 0.001209568121030649
1330.0, 0.0009618252528677452
1331.0, 0.00037695777587139906
1332.0, 7.934248718942678e-05
1333.0, 0.0004119332396120444
1334.0, 0.0005434150755259516
1335.0, 0.0005084396117853064
1336.0, 0.00018459272529785007
1337.0, 0.00021276740442225877
1338.0, 0.00025810596853050266
1339.0, 0.0003131599392333702
1340.0, 0.0003798723978497862
1341.0, 0.0003695092974821876
1342.0, 0.00027980370992516224
1343.0, 0.0002059666198060222
1344.0, 0.0008364965077970997
1345.0, 0.0009258782484676375
1346.0, 0.0010016584199057023
1347.0, 0.0010767908975707922
1348.0, 0.001492610299820686
1349.0, 0.002305142138017714
1350.0, 0.003119293210647179
1351.0, 0.003935387364595568
1352.0, 0.004401726881137506
1353.0, 0.004841187106100984
1354.0, 0.005555269490805825
1355.0, 0.006408929883586759
1356.0, 0.0074387629826168705
1357.0, 0.0079672811013644
1358.0, 0.008321893442068164
1359.0, 0.008982217243616088
1360.0, 0.009551540070061036
1361.0, 0.009676221121358707
1362.0, 0.00956514163929351
1363.0, 0.009159037643638238
1364.0, 0.008761029820145155
1365.0, 0.008378890494089956
1366.0, 0.00767193274088784
1367.0, 0.007032658986961601
1368.0, 0.006707516712928194
1369.0, 0.006069214499661418
1370.0, 0.004999872080479838
1371.0, 0.00429420971482367
1372.0, 0.0038042293755681487
1373.0, 0.0037763785433302275
1374.0, 0.003667242142583955
1375.0, 0.0033372421652532367
1376.0, 0.002937938954214203
1377.0, 0.0024877917819966394
1378.0, 0.002265308970979757
1379.0, 0.002036025375346638
1380.0, 0.001569362011918213
1381.0, 0.0011891657671819396
1382.0, 0.000974455281440756
1383.0, 0.0006680961268236223
1384.0, 0.0003031206857522591
1385.0, 0.00048026493266089767
1386.0, 0.000696270805948031
1387.0, 0.00017422962493025148
1388.0, 0.00015285573042207935
1389.0, 6.800784616236582e-05
1390.0, 6.541707107046618e-05
1391.0, 0.00042942097148236706
1392.0, 0.0008938174067053792
1393.0, 0.0012665651730524416
1394.0, 0.0018180764207405796
1395.0, 0.002060313891833197
1396.0, 0.001934985146762551
1397.0, 0.002288949793693341
1398.0, 0.0027556131571217658
1399.0, 0.0025940135607645247
1400.0, 0.002280529774644667
1401.0, 0.0017996171482107946
1402.0, 0.0014945533811396108
1403.0, 0.0012584690008902552
1404.0, 0.0010201176924354873
1405.0, 0.0007600686425860599
1406.0, 0.00017131500295186437
1407.0, 0.0007629832645644469
1408.0, 0.0007558586330617229
1409.0, 0.0007535917048563108
1410.0, 0.0007092246814075292
1411.0, 0.0006580568733425111
1412.0, 0.0005217173341312921
1413.0, 0.0001363395392112191
1414.0, 0.0012166927525333732
1415.0, 0.002722580774700045
1416.0, 0.004124190099417756
1417.0, 0.0055517071750544635
1418.0, 0.007914817905753432
1419.0, 0.010201500771241361
1420.0, 0.012305210145863877
1421.0, 0.014706210962281878
1422.0, 0.017094905597013356
1423.0, 0.019568448116004545
1424.0, 0.021875857182227672
1425.0, 0.0229646304145985
1426.0, 0.02385229473046062
1427.0, 0.024518123929078827
1428.0, 0.024478938455813844
1429.0, 0.024267790285824025
1430.0, 0.02257795723213248
1431.0, 0.021134247812171398
1432.0, 0.02004288380470867
1433.0, 0.018820037961332033
1434.0, 0.017590391333339162
1435.0, 0.01630277611266504
1436.0, 0.015225661368207757
1437.0, 0.01455821293515711
1438.0, 0.01423501374244263
1439.0, 0.014221088326323666
1440.0, 0.015147290421677794
1441.0, 0.016428428704622168
1442.0, 0.01832131375614135
1443.0, 0.02050728023993168
1444.0, 0.02301936053841488
1445.0, 0.02478011606024718
1446.0, 0.026245199374716432
1447.0, 0.025846543857450374
1448.0, 0.025297623384854133
1449.0, 0.024130803052839832
1450.0, 0.02229653428777488
1451.0, 0.020103119325595335
1452.0, 0.017095877137672816
1453.0, 0.014208782144637144
1454.0, 0.011301284797752761
1455.0, 0.008602020998879814
1456.0, 0.006031648260828873
1457.0, 0.0044007553404780434
1458.0, 0.0030017367908522323
1459.0, 0.0015806966529452742
1460.0, 0.0007315701165751637
1461.0, 0.00041225708649853183
1462.0, 0.0002655544469197141
1463.0, 0.000921992085829788
1464.0, 0.000881511225018856
1465.0, 0.00075877325504011
1466.0, 0.0004747595355906109
1467.0, 0.0004093424645201447
1468.0, 0.00042715404327695484
1469.0, 5.861628645422958e-05
1470.0, 0.00033194305864964267
1471.0, 0.0008316388044997877
1472.0, 0.0009284690235595372
1473.0, 0.0008403826704349491
1474.0, 0.0011975857862306133
1475.0, 0.0015126888067829084
1476.0, 0.0018394503152487517
1477.0, 0.002179489546060581
1478.0, 0.0024418055241154204
1479.0, 0.0030065944941495442
1480.0, 0.0032420311806259246
1481.0, 0.0029693521022034867
1482.0, 0.00289000961501406
1483.0, 0.0028028948025489338
1484.0, 0.0031005100912309064
1485.0, 0.0035234541249835245
1486.0, 0.004640402036478761
1487.0, 0.005575671844654535
1488.0, 0.006344484353175756
1489.0, 0.0063700682572082655
1490.0, 0.006286191913608014
1491.0, 0.006177703206634716
1492.0, 0.005605141911324893
1493.0, 0.004980765114177078
1494.0, 0.004856731756652382
1495.0, 0.004518959454045965
1496.0, 0.003606035081037826
1497.0, 0.0027588516259866402
1498.0, 0.0019651029072058845
1499.0, 0.0009145436074405764
1500.0, 0.0
1501, 0.0
1502, 0.0
1503, 0.0
1504, 0.0
1505, 0.0
1506, 0.0
1507, 0.0
1508, 0.0
1509, 0.0
1510, 0.0
1511, 0.0
1512, 0.0
1513, 0.0
1514, 0.0
1515, 0.0
1516, 0.0
1517, 0.0
1518, 0.0
1519, 0.0
1520, 0.0
1521, 0.0
1522, 0.0
1523, 0.0
1524, 0.0
1525, 0.0
1526, 0.0
1527, 0.0
1528, 0.0
1529, 0.0
1530, 0.0
1531, 0.0
1532, 0.0
1533, 0.0
1534, 0.0
1535, 0.0
1536, 0.0
1537, 0.0
1538, 0.0
1539, 0.0
1540, 0.0
1541, 0.0
1542, 0.0
1543, 0.0
1544, 0.0
1545, 0.0
1546, 0.0
1547, 0.0
1548, 0.0
1549, 0.0
1550, 0.0
1551, 0.0
1552, 0.0
1553, 0.0
1554, 0.0
1555, 0.0
1556, 0.0
1557, 0.0
1558, 0.0
1559, 0.0
1560, 0.0
1561, 0.0
1562, 0.0
1563, 0.0
1564, 0.0
1565, 0.0
1566, 0.0
1567, 0.0
1568, 0.0
1569, 0.0
1570, 0.0
1571, 0.0
1572, 0.0
1573, 0.0
1574, 0.0
1575, 0.0
1576, 0.0
1577, 0.0
1578, 0.0
1579, 0.0
1580, 0.0
1581, 0.0
1582, 0.0
1583, 0.0
1584, 0.0
1585, 0.0
1586, 0.0
1587, 0.0
1588, 0.0
1589, 0.0
1590, 0.0
1591, 0.0
1592, 0.0
1593, 0.0
1594, 0.0
1595, 0.0
1596, 0.0
1597, 0.0
1598, 0.0
1599, 0.0
