30, 0.0
31, 0.0
32, 0.0
33, 0.0
34, 0.0
35, 0.0
36, 0.0
37, 0.0
38, 0.0
39, 0.0
40, 0.0
41, 0.0
42, 0.0
43, 0.0
44, 0.0
45, 0.0
46, 0.0
47, 0.0
48, 0.0
49, 0.0
50, 0.0
51, 0.0
52, 0.0
53, 0.0
54, 0.0
55, 0.0
56, 0.0
57, 0.0
58, 0.0
59, 0.0
60, 0.0
61, 0.0
62, 0.0
63, 0.0
64, 0.0
65, 0.0
66, 0.0
67, 0.0
68, 0.0
69, 0.0
70, 0.0
71, 0.0
72, 0.0
73, 0.0
74, 0.0
75, 0.0
76, 0.0
77, 0.0
78, 0.0
79, 0.0
80, 0.0
81, 0.0
82, 0.0
83, 0.0
84, 0.0
85, 0.0
86, 0.0
87, 0.0
88, 0.0
89, 0.0
90, 0.0
91, 0.0
92, 0.0
93, 0.0
94, 0.0
95, 0.0
96, 0.0
97, 0.0
98, 0.0
99, 0.0
100, 0.0
101, 0.0
102, 0.0
103, 0.0
104, 0.0
105, 0.0
106, 0.0
107, 0.0
108, 0.0
109, 0.0
110, 0.0
111, 0.0
112, 0.0
113, 0.0
114, 0.0
115, 0.0
116, 0.0
117, 0.0
118, 0.0
119, 0.0
120.0, 0.015622816163459834
121.0, 0.05991106820617714
122.0, 0.10809700593075576
123.0, 0.15028819977343558
124.0, 0.18327871507730564
125.0, 0.20462652666064143
126.0, 0.21008409157833294
127.0, 0.19850292945267253
128.0, 0.17147665338587
129.0, 0.13429873539539963
130.0, 0.1075130212241181
131.0, 0.07999270733486692
132.0, 0.04878642435941463
133.0, 0.025606122764213923
134.0, 0.015712404900732002
135.0, 0.01031565787679679
136.0, 0.0030212731727263494
137.0, 0.005722178767893769
138.0, 0.012994438162830276
139.0, 0.012586482465167206
140.0, 0.007843333801403578
141.0, 0.009237753074699404
142.0, 0.01385601842135059
143.0, 0.005329171234402576
144.0, 0.004404166832222631
145.0, 0.0014563880193418969
146.0, 0.004241810207868943
147.0, 0.00637431120869494
148.0, 0.00298278877235684
149.0, 0.005873022108586268
150.0, 0.010607395559012113
151.0, 0.000661440054494467
152.0, 0.0031761665080967793
153.0, 0.004701890335021715
154.0, 0.012648753528687206
155.0, 0.0061822950033660565
156.0, 0.004257662630518576
157.0, 0.016398370795816304
158.0, 0.03217145996952933
159.0, 0.04383890399964948
160.0, 0.06263443440886667
161.0, 0.07599731239631728
162.0, 0.07529321906782606
163.0, 0.07861857723566533
164.0, 0.0785154544106723
165.0, 0.07714086860221385
166.0, 0.0766888434516977
167.0, 0.07704411393994648
168.0, 0.0676969246881606
169.0, 0.07325029581161877
170.0, 0.08188758528747873
171.0, 0.07062645980016286
172.0, 0.07812026709359682
173.0, 0.08732095775249339
174.0, 0.08882716212062569
175.0, 0.08267432131622211
176.0, 0.07677181764392223
177.0, 0.06320616880109838
178.0, 0.060104307556223084
179.0, 0.06985186195733697
180.0, 0.06528785609819349
181.0, 0.06520933498304797
182.0, 0.07339922131807611
183.0, 0.08386988694306012
184.0, 0.08811245692785777
185.0, 0.09714824466804527
186.0, 0.10128960531565286
187.0, 0.11155943542487276
188.0, 0.13020947318195047
189.0, 0.1323262457846652
190.0, 0.14993159435283526
191.0, 0.1600332956332501
192.0, 0.15570733667478123
193.0, 0.15381371698322135
194.0, 0.15349870403402024
195.0, 0.135867152361549
196.0, 0.10982253323274516
197.0, 0.09179725211150279
198.0, 0.07078013784879832
199.0, 0.051761996544686446
200.0, 0.0369719640046286
201.0, 0.02489368674277367
202.0, 0.012531856103639213
203.0, 0.003958852244051217
204.0, 0.0008867477842654272
205.0, 0.0015444764023173423
206.0, 0.0027536103878540836
207.0, 0.014661406948685294
208.0, 0.008854318081513476
209.0, 0.005688298146641322
210.0, 0.017860371897538342
211.0, 0.034531035584240734
212.0, 0.044052300746717774
213.0, 0.0448272427460968
214.0, 0.04489862632938119
215.0, 0.05026699270649696
216.0, 0.037916340564990964
217.0, 0.032935377289196176
218.0, 0.03375583231331889
219.0, 0.03500628325602322
220.0, 0.045429669550257575
221.0, 0.05024430682410135
222.0, 0.05451719421712546
223.0, 0.06245427306073713
224.0, 0.07340313708636205
225.0, 0.08882068264741126
226.0, 0.10546985831403584
227.0, 0.11951911883894292
228.0, 0.13481291332021503
229.0, 0.16552848413016413
230.0, 0.1774901651428398
231.0, 0.1909239080998389
232.0, 0.21354056929557225
233.0, 0.23394967812043904
234.0, 0.23955166933141298
235.0, 0.2493859317053193
236.0, 0.2620223407473788
237.0, 0.27235077442528927
238.0, 0.28273994946549547
239.0, 0.27415551613399697
240.0, 0.2736197855582586
241.0, 0.2801890900850105
242.0, 0.27197280096290843
243.0, 0.26399171042814684
244.0, 0.25146823641241783
245.0, 0.23438476888113774
246.0, 0.21459702163877145
247.0, 0.19243366101209808
248.0, 0.1754466868404668
249.0, 0.14299696617363158
250.0, 0.10907180822709804
251.0, 0.0931403913476922
252.0, 0.0847083870061644
253.0, 0.06656250774957154
254.0, 0.04938771864698325
255.0, 0.03976902746306634
256.0, 0.03450415730191937
257.0, 0.021948591040896557
258.0, 0.018498113710866754
259.0, 0.019446192102971382
260.0, 0.014816970330963363
261.0, 0.02168910505670979
262.0, 0.010807578649252875
263.0, 0.0016426071233749786
264.0, 0.0035681951040883193
265.0, 0.001536917037277153
266.0, 0.0022714602497301843
267.0, 0.0038503696008943007
268.0, 0.0016172242388832305
269.0, 0.0007754306448264931
270.0, 0.0014840876230445476
271.0, 0.004878843861358776
272.0, 0.008183040930891271
273.0, 0.006846257244292059
274.0, 0.004679856386952995
275.0, 0.0007814784735913977
276.0, 0.00566825087590731
277.0, 0.008989501229662628
278.0, 0.010435344227237088
279.0, 0.011934977317246168
280.0, 0.015354780444384446
281.0, 0.014140940994926784
282.0, 0.013367954346627516
283.0, 0.01638344864974142
284.0, 0.017319979419761208
285.0, 0.02570052520553163
286.0, 0.03175692798623324
287.0, 0.03180435894107533
288.0, 0.029291107360381263
289.0, 0.03511352570465729
290.0, 0.031517389786843965
291.0, 0.030492757552962782
292.0, 0.03631117411863309
293.0, 0.0385032164717203
294.0, 0.04060232577919114
295.0, 0.04579367973229447
296.0, 0.05398981966262523
297.0, 0.06351982651871617
298.0, 0.07211349161349423
299.0, 0.07386472353226743
300.0, 0.0821996918854314
301.0, 0.09161713299117116
302.0, 0.09666878716108168
303.0, 0.10760659297633596
304.0, 0.1120491690618866
305.0, 0.11384371402694901
306.0, 0.114741377592694
307.0, 0.11278548950670116
308.0, 0.10692504759263266
309.0, 0.10266833675159041
310.0, 0.09879586518315871
311.0, 0.09362450196196577
312.0, 0.08690275577992623
313.0, 0.07866352565846964
314.0, 0.07664000443487902
315.0, 0.0739697869101524
316.0, 0.0680376632138849
317.0, 0.06716021468746673
318.0, 0.06423398597576932
319.0, 0.06454494156056051
320.0, 0.06603304972328104
321.0, 0.062156036535534406
322.0, 0.04944532875307388
323.0, 0.036196810843589534
324.0, 0.03227100851204311
325.0, 0.028834663958450853
326.0, 0.019688774315405194
327.0, 0.019113286545090393
328.0, 0.01118900425376177
329.0, 0.008790836312629583
330.0, 0.008604184140118277
331.0, 0.0018341957490719692
332.0, 0.001641629659416027
333.0, 0.002813650050801533
334.0, 0.0031898682816621678
335.0, 0.0017615541686993748
336.0, 0.0028444748047097694
337.0, 0.009260834167872191
338.0, 0.007560124178039168
339.0, 0.0004840866242294705
340.0, 0.0008752184443516337
341.0, 0.009097938230758674
342.0, 0.011346009231699136
343.0, 0.0064525447183796415
344.0, 0.004323344537864406
345.0, 0.01225297714106584
346.0, 0.02440727041818733
347.0, 0.025795227872285033
348.0, 0.024285644215810823
349.0, 0.029162750077704608
350.0, 0.03647034226615039
351.0, 0.03623861624565062
352.0, 0.04244356681619052
353.0, 0.04494075818852255
354.0, 0.048183701283573126
355.0, 0.055474876244961335
356.0, 0.060868666389821593
357.0, 0.052985859052166205
358.0, 0.06080742365630659
359.0, 0.07314282188402198
360.0, 0.0809252078545313
361.0, 0.09450453836925549
362.0, 0.0984224010793916
363.0, 0.10961229165182337
364.0, 0.12686153076675502
365.0, 0.14329852695694154
366.0, 0.15518865317692804
367.0, 0.16942828315784664
368.0, 0.18480813378035796
369.0, 0.19895052311771905
370.0, 0.20724242271406756
371.0, 0.20266269559235872
372.0, 0.20203076501472317
373.0, 0.20076756089920111
374.0, 0.19782695798715821
375.0, 0.1925633151632045
376.0, 0.18090653777224078
377.0, 0.1670538091230554
378.0, 0.16121985632576055
379.0, 0.1542883325395961
380.0, 0.1397069567080278
381.0, 0.12464399741603856
382.0, 0.11371652943062795
383.0, 0.10952466602394323
384.0, 0.09965810798434209
385.0, 0.08281707664826503
386.0, 0.07285056894700075
387.0, 0.060053385805854904
388.0, 0.0507113934393082
389.0, 0.04327662148233025
390.0, 0.03610193732201638
391.0, 0.030933106425825353
392.0, 0.022320978976222712
393.0, 0.019255348258519673
394.0, 0.013707615324442732
395.0, 0.004963134211982097
396.0, 0.003852155965281666
397.0, 0.01146176823672652
398.0, 0.010506398799681571
399.0, 0.009707392456886064
400.0, 0.011257399162612106
401.0, 0.00725162818811683
402.0, 0.0033841138835576023
403.0, 0.005392158688040688
404.0, 0.003594896607512861
405.0, 0.00020851239275810867
406.0, 0.0035150927376126438
407.0, 0.0002030356989003861
408.0, 0.001541842195259603
409.0, 0.0004954977892587186
410.0, 0.003408251753822295
411.0, 0.0032648851470276096
412.0, 0.005087222927104586
413.0, 0.009457078820723226
414.0, 0.01174135023923737
415.0, 0.014533838133719064
416.0, 0.020752078418661432
417.0, 0.023465639633481104
418.0, 0.024311736661008655
419.0, 0.02419001247855913
420.0, 0.025018990582812917
421.0, 0.023231761091033396
422.0, 0.013035124553939932
423.0, 0.014584482018608048
424.0, 0.014967447060614772
425.0, 0.011890426121391988
426.0, 0.008499130699519119
427.0, 0.005762677603498182
428.0, 0.0021500744903795712
429.0, 0.0006027118578476127
430.0, 0.0007203269472723797
431.0, 0.004211877654482464
432.0, 0.008206752802173239
433.0, 0.004701199550818651
434.0, 0.004794941388566088
435.0, 0.006927045297161023
436.0, 0.004748866828680224
437.0, 0.0011659555614314517
438.0, 0.0006525241543018906
439.0, 0.0013651580085486043
440.0, 0.00177788626351968
441.0, 0.007488779455938434
442.0, 0.010679721037036741
443.0, 0.005618540319743468
444.0, 0.007744904312680454
445.0, 0.01727547976025961
446.0, 0.022062063437871093
447.0, 0.020947745679677925
448.0, 0.025111260422095577
449.0, 0.02700913247860033
450.0, 0.0375358786261902
451.0, 0.04181612971908709
452.0, 0.03685451900413785
453.0, 0.034925097392829035
454.0, 0.042877049689249616
455.0, 0.05425120301525104
456.0, 0.06321113944962045
457.0, 0.07164242483500936
458.0, 0.0809495248543895
459.0, 0.08829955990606132
460.0, 0.101366625312685
461.0, 0.11353908861728472
462.0, 0.12923416704596763
463.0, 0.14873207571140348
464.0, 0.1663028426451367
465.0, 0.1865120945570069
466.0, 0.20876195403668033
467.0, 0.2417155531868016
468.0, 0.28375253861309163
469.0, 0.32135495417202314
470.0, 0.34984496234776113
471.0, 0.3938385150112
472.0, 0.44589873119450385
473.0, 0.5020448058633292
474.0, 0.556352373013745
475.0, 0.6005534257611503
476.0, 0.6372674088379515
477.0, 0.6778220339961912
478.0, 0.7017201758127555
479.0, 0.7063670239425829
480.0, 0.7029099046178449
481.0, 0.6891117587678454
482.0, 0.6508864301855812
483.0, 0.6137436913994573
484.0, 0.5785674887640859
485.0, 0.5422771102172508
486.0, 0.5138344494020839
487.0, 0.4963331808151122
488.0, 0.48239921552528053
489.0, 0.4762887983778006
490.0, 0.4774981878652375
491.0, 0.48609475320983037
492.0, 0.506491222638137
493.0, 0.5497629125272869
494.0, 0.5961935950607526
495.0, 0.64629440053753
496.0, 0.700846671323368
497.0, 0.756955409515366
498.0, 0.8256206698264845
499.0, 0.8831946555824268
500.0, 0.9340558008991622
501.0, 0.9729574341294057
502.0, 0.9936995859489755
503.0, 0.9979896592374966
504.0, 0.9556566392713035
505.0, 0.8915819893219717
506.0, 0.8046864293755988
507.0, 0.7051369726395831
508.0, 0.6089004600501272
509.0, 0.5082895791254028
510.0, 0.42841024917551757
511.0, 0.3621243905537307
512.0, 0.3040020040269484
513.0, 0.2551557076505094
514.0, 0.21938854147995737
515.0, 0.1875507911086863
516.0, 0.15921034671997783
517.0, 0.14355333350746816
518.0, 0.13129862651841376
519.0, 0.11216319619217283
520.0, 0.0982516464421936
521.0, 0.08743612407763454
522.0, 0.07767882124578848
523.0, 0.06725725546990965
524.0, 0.05726943890751442
525.0, 0.05036779363101392
526.0, 0.04726842746560584
527.0, 0.04131009003554112
528.0, 0.03521702193853122
529.0, 0.033500017781559956
530.0, 0.03629162412631637
531.0, 0.03617479036035369
532.0, 0.02465813340092097
533.0, 0.025098583901648076
534.0, 0.019072032619329302
535.0, 0.012778095838293306
536.0, 0.015335033306892986
537.0, 0.013476842749885627
538.0, 0.013044706695276657
539.0, 0.009332321823110432
540.0, 0.0065951194950194985
541.0, 0.007315355869074344
542.0, 0.00953572971011329
543.0, 0.006022276736445288
544.0, 0.005392161015557157
545.0, 0.006024533901415648
546.0, 0.00588676951027096
547.0, 0.004231315968329378
548.0, 0.0032866125551381667
549.0, 0.005496134576196621
550.0, 0.0021529914911416594
551.0, 0.0011651978906996843
552.0, 0.0004691956487379636
553.0, 0.0028462041146490643
554.0, 0.001462123016062281
555.0, 0.0007113418359841818
556.0, 0.001359815815778543
557.0, 0.003347624116397096
558.0, 0.0020601682379772462
559.0, 0.0039299470685042566
560.0, 0.004043345541138852
561.0, 0.004926564131902621
562.0, 0.0057414294975192785
563.0, 0.0037586933221972194
564.0, 0.0022268496825595236
565.0, 0.001627974313284573
566.0, 0.0018179760063743932
567.0, 0.002371265560961681
568.0, 0.004269404182145322
569.0, 0.006309053255442563
570.0, 0.005104423424222474
571.0, 0.0035609605828676874
572.0, 0.000746704591775427
573.0, 0.0003983378625300782
574.0, 0.003391379966882981
575.0, 0.004755944715434685
576.0, 0.0013788415443993529
577.0, 0.0009259522386444732
578.0, 0.003354155106315778
579.0, 0.00290688606346266
580.0, 0.008735957499819808
581.0, 0.00912215278362128
582.0, 0.010761081438077665
583.0, 0.013372230214953951
584.0, 0.005755092154935552
585.0, 0.004145658136184779
586.0, 0.003534132322203146
587.0, 0.006591626718081729
588.0, 0.013555023199752814
589.0, 0.01921958277366233
590.0, 0.019225683209316138
591.0, 0.020003072684405945
592.0, 0.029097362079761713
593.0, 0.033751294578235794
594.0, 0.03156383114367014
595.0, 0.031805541694237945
596.0, 0.04174092801264504
597.0, 0.0360263213892425
598.0, 0.03992290819757495
599.0, 0.03970033436006678
600.0, 0.033394632631172316
601.0, 0.029356025334981214
602.0, 0.030491495663672426
603.0, 0.02467396052140478
604.0, 0.02462045762378877
605.0, 0.021457993021716283
606.0, 0.017703651428597915
607.0, 0.016620417960188462
608.0, 0.018362588986000912
609.0, 0.0252542070028587
610.0, 0.025228009129423967
611.0, 0.020824152630708928
612.0, 0.024116886132361258
613.0, 0.030313641961926138
614.0, 0.030572964202033294
615.0, 0.031873417214776247
616.0, 0.037533618279924186
617.0, 0.04688344295699905
618.0, 0.046856292012442076
619.0, 0.05186401603286927
620.0, 0.06627788172274704
621.0, 0.07587364258365768
622.0, 0.09231800891262094
623.0, 0.10250451594743983
624.0, 0.12900423763841426
625.0, 0.15868736131997188
626.0, 0.189144917730542
627.0, 0.22809218095294273
628.0, 0.2593321940482421
629.0, 0.29812589308769766
630.0, 0.3349398507004502
631.0, 0.3521448937213353
632.0, 0.34550707101362876
633.0, 0.31600171321047826
634.0, 0.2619779285310947
635.0, 0.2133064676032425
636.0, 0.17273127697608107
637.0, 0.13698441028533695
638.0, 0.11287052498664782
639.0, 0.09361757976187758
640.0, 0.06999676075005518
641.0, 0.06881504839062608
642.0, 0.05491649886573043
643.0, 0.049413083218152666
644.0, 0.04203208949247668
645.0, 0.03334961620898588
646.0, 0.030404772744899774
647.0, 0.028462981955832828
648.0, 0.03121364717241927
649.0, 0.02613634165864548
650.0, 0.020322363542288654
651.0, 0.02124309135114356
652.0, 0.024189938799062005
653.0, 0.02001988248861693
654.0, 0.01376504883196277
655.0, 0.013092152737095113
656.0, 0.01572866877992098
657.0, 0.014630795520429354
658.0, 0.013639180832699388
659.0, 0.015596511294220837
660.0, 0.014642475026648704
661.0, 0.017280384496318073
662.0, 0.017754516902601995
663.0, 0.019617512035381864
664.0, 0.01507893175251993
665.0, 0.01315044923080083
666.0, 0.01770949578118244
667.0, 0.0033586242174488035
668.0, 0.010552286484180657
669.0, 0.009556232578494282
670.0, 0.005199749741444385
671.0, 0.0051555989101535115
672.0, 0.006007834418460183
673.0, 0.005749495752031025
674.0, 0.007139989538557259
675.0, 0.0037980672570245223
676.0, 0.00477518502111165
677.0, 0.0019668457972105294
678.0, 0.001900665443473968
679.0, 0.0001374838241447601
680.0, 0.000529498621690697
681.0, 0.0018495260400929491
682.0, 0.0026400661386340647
683.0, 0.000991068445003348
684.0, 0.0031396005951472112
685.0, 0.0026198311582349212
686.0, 0.0011961306035195268
687.0, 0.002268440480049991
688.0, 0.0027401471849926922
689.0, 0.0009918095508495667
690.0, 0.001724775474889046
691.0, 0.0022937659187161254
692.0, 0.0005926502737460403
693.0, 0.0006215144393258771
694.0, 0.0028987046979972735
695.0, 0.004217813696442498
696.0, 0.0020004151134605085
697.0, 0.0008732831599193525
698.0, 0.004276362778578138
699.0, 0.006082088224191865
700.0, 0.001579818402066326
701.0, 0.004051570489951874
702.0, 0.011141203025818414
703.0, 0.011291235996328074
704.0, 0.01156050697111474
705.0, 0.011819407554417622
706.0, 0.009340990959554972
707.0, 0.008303092802711408
708.0, 0.00703376521966315
709.0, 0.005461776889646683
710.0, 0.009486732486255594
711.0, 0.006854426462689322
712.0, 0.0016658546596650132
713.0, 0.002801827502174414
714.0, 0.006842075416697387
715.0, 0.005827247349440574
716.0, 0.003714679923194184
717.0, 0.0055967571162280185
718.0, 0.007635626679153487
719.0, 0.006306161989075712
720.0, 0.006092392798348117
721.0, 0.01056856332038167
722.0, 0.0081206335705226
723.0, 0.0077751692490140994
724.0, 0.005631526430102513
725.0, 0.005515842758150451
726.0, 0.008683362087954836
727.0, 0.014592339558374521
728.0, 0.02007954136910396
729.0, 0.016130522329543154
730.0, 0.013359295702913509
731.0, 0.007566151606204965
732.0, 0.008911295944893234
733.0, 0.0189867895128264
734.0, 0.02385951591226448
735.0, 0.013948377410557666
736.0, 0.014309901471042816
737.0, 0.009212612546633452
738.0, 0.013559193578687281
739.0, 0.01669243200593632
740.0, 0.01675310193010308
741.0, 0.016930467095220846
742.0, 0.01557478386192827
743.0, 0.015704094512418276
744.0, 0.01271522936246384
745.0, 0.013116490945781318
746.0, 0.016216580743889167
747.0, 0.022033573580424744
748.0, 0.02740517439378306
749.0, 0.02998173991123865
750.0, 0.03251566296885851
751.0, 0.03016999620607672
752.0, 0.03342720029171365
753.0, 0.03855501768625922
754.0, 0.035208059119103095
755.0, 0.03334034990816661
756.0, 0.04013126725752159
757.0, 0.044482058851268234
758.0, 0.037969097104110845
759.0, 0.033139799957508355
760.0, 0.03195080744259079
761.0, 0.026306780080484315
762.0, 0.023725570803270767
763.0, 0.025046581950908885
764.0, 0.023954187777210395
765.0, 0.020171289387535794
766.0, 0.01310083544339928
767.0, 0.01178821441813744
768.0, 0.009465683836343091
769.0, 0.006398696945856182
770.0, 0.0009156876352731246
771.0, 0.0015057355947771666
772.0, 0.013646781543119775
773.0, 0.006730655431260052
774.0, 0.008576306327713158
775.0, 0.006429142302496859
776.0, 0.006672411893087137
777.0, 0.00803459154201839
778.0, 0.005686984810739151
779.0, 0.00326159854119202
780.0, 0.004973449102673267
781.0, 0.006650562344773824
782.0, 0.005803448137349333
783.0, 0.008347402686072371
784.0, 0.006321215202816498
785.0, 0.004417614510247046
786.0, 0.005460816222357578
787.0, 0.0034576526686878836
788.0, 0.0042335529972599446
789.0, 0.0018288029398531387
790.0, 0.0007985242806842597
791.0, 0.000291048747160559
792.0, 0.0002025444477437846
793.0, 0.003020671305695946
794.0, 0.0031522716580218435
795.0, 0.005755700522386973
796.0, 0.0031413689484188095
797.0, 0.003953042909667061
798.0, 0.00018501477880585238
799.0, 0.002780721646744297
800.0, 0.0076529464210530985
801.0, 0.009551189391481458
802.0, 0.008575770997008713
803.0, 0.007381018639169795
804.0, 0.011615946941701068
805.0, 0.01026993439555811
806.0, 0.006592405482405539
807.0, 0.009112486181716412
808.0, 0.007843063629991941
809.0, 0.005516039390834762
810.0, 0.00962105942734154
811.0, 0.010745616046647016
812.0, 0.0049222255521223866
813.0, 0.005255529744466625
814.0, 0.0007780282710397055
815.0, 0.0008315797728146281
816.0, 0.00626351892363438
817.0, 0.005911242610912355
818.0, 0.001697640052146292
819.0, 0.005325737340463813
820.0, 0.004147825584465308
821.0, 0.007591722418000009
822.0, 0.006432311052947911
823.0, 0.0014691678527507612
824.0, 0.0021116574960404694
825.0, 0.003322323331268481
826.0, 0.003284086005835645
827.0, 0.008378203772246623
828.0, 0.007562629000783933
829.0, 0.00619449766406459
830.0, 0.0051574502681016945
831.0, 0.0030136969752857083
832.0, 0.002364375333997064
833.0, 0.004725424355333084
834.0, 0.005792491114999278
835.0, 0.004289793810325911
836.0, 0.008358429414903916
837.0, 0.010559289695442552
838.0, 0.009010144844865264
839.0, 0.0017406227352370688
840.0, 0.005841837271262852
841.0, 0.014082681487573053
842.0, 0.012024432887433129
843.0, 0.0070204941124753055
844.0, 0.008309105528740887
845.0, 0.001956853765191554
846.0, 0.006437865506075406
847.0, 0.008364816396545268
848.0, 0.0069048066577796045
849.0, 0.01057509611034709
850.0, 0.010080028574985602
851.0, 0.004544400023056121
852.0, 0.007646724602395293
853.0, 0.001926836032068673
854.0, 0.004759492837388073
855.0, 0.008755952541633062
856.0, 0.0074808922781220005
857.0, 0.0062292874767087905
858.0, 0.006375676094551839
859.0, 0.005996360543884073
860.0, 0.005281917715114871
861.0, 0.002335803916748045
862.0, 0.001656337750316234
863.0, 0.006287837467180231
864.0, 0.0068953024647731695
865.0, 0.0029861021488412597
866.0, 0.002628795897562854
867.0, 0.0032007385072976196
868.0, 0.003844172274874251
869.0, 0.00892126931043949
870.0, 0.0067245507501559445
871.0, 0.0034016007689839857
872.0, 0.003467960221762569
873.0, 0.000697858601181223
874.0, 0.0005749665575911648
875.0, 0.0028543139390588804
876.0, 0.0047826726077454225
877.0, 0.0037979381478749014
878.0, 0.005460012963190315
879.0, 0.003884031603434022
880.0, 0.0010939578702648348
881.0, 0.0008742961880526146
882.0, 0.0035685054534870396
883.0, 0.002402212050024325
884.0, 0.0019220321802444255
885.0, 0.0038258450244240787
886.0, 0.002847058071355805
887.0, 0.00598993756130697
888.0, 0.006670329414269631
889.0, 0.004590997683191255
890.0, 0.0003611152987261077
891.0, 0.0037697554409817893
892.0, 0.00046973094996056357
893.0, 0.004878659926622757
894.0, 0.0020191343305294893
895.0, 0.0012065248709082223
896.0, 0.005185736504025065
897.0, 0.006050039204202982
898.0, 0.0028154458491189663
899.0, 0.002629976617312259
900.0, 0.0014494813514572592
901.0, 0.0017932498910958087
902.0, 0.005983211112847509
903.0, 0.005104688785276322
904.0, 0.002140002725298037
905.0, 0.0034990856171777393
906.0, 0.000572800180516887
907.0, 0.0033737740958920304
908.0, 0.007622290605541313
909.0, 0.006352509177989841
910.0, 0.00279152619107548
911.0, 0.0032255858907158327
912.0, 0.0027890510949995727
913.0, 0.003191916045723267
914.0, 0.007692278549755937
915.0, 0.006509434417330395
916.0, 0.00793871145884602
917.0, 0.009346850735286152
918.0, 0.005994354720459636
919.0, 0.008963129996090136
920.0, 0.010171612755135279
921.0, 0.010987205183983927
922.0, 0.01112939110177686
923.0, 0.009432038622217555
924.0, 0.011405128107991004
925.0, 0.009768713363996775
926.0, 0.008016777273995168
927.0, 0.014368093587728182
928.0, 0.013448863439128848
929.0, 0.0072937122437691975
930.0, 0.008598960173091467
931.0, 0.013441698397997994
932.0, 0.012418312643356655
933.0, 0.00971372169949516
934.0, 0.014238326774246917
935.0, 0.012115522747903765
936.0, 0.01390168678276841
937.0, 0.01192131460542034
938.0, 0.00805070140317947
939.0, 0.015087432144765187
940.0, 0.022740623050259177
941.0, 0.02818366484887282
942.0, 0.030719628836119155
943.0, 0.027740255072935673
944.0, 0.0324881868128254
945.0, 0.023457564733908424
946.0, 0.024289660008359137
947.0, 0.019747929200780882
948.0, 0.016817062650401633
949.0, 0.017482985144614962
950.0, 0.015140959669165448
951.0, 0.01132071034710219
952.0, 0.010548963434576763
953.0, 0.009046308959228328
954.0, 0.008110925851282796
955.0, 0.013911918603899582
956.0, 0.014004190482026297
957.0, 0.011447456764460053
958.0, 0.013037540396586503
959.0, 0.012703720535845717
960.0, 0.012071852243456322
961.0, 0.010863964067296613
962.0, 0.009217019854648508
963.0, 0.010576626517383227
964.0, 0.00900679928491982
965.0, 0.0016154702149513487
966.0, 0.0030422476746158698
967.0, 0.002371246749653732
968.0, 0.0015335873987807915
969.0, 0.0025179510968490852
970.0, 0.004913829310706932
971.0, 0.002706214146257376
972.0, 0.0040621095644102585
973.0, 0.001107907937884641
974.0, 0.0017897858468947038
975.0, 0.0030081561123638505
976.0, 0.005219478038143881
977.0, 0.006081231471442798
978.0, 0.006835111139948937
979.0, 0.0075755329090061805
980.0, 0.006796165551268772
981.0, 0.00605776526347364
982.0, 0.009375775403027276
983.0, 0.010785132989222054
984.0, 0.008498698970916423
985.0, 0.01429201383024993
986.0, 0.01355378001882266
987.0, 0.01585008626217327
988.0, 0.020286706373093027
989.0, 0.03151949931170418
990.0, 0.03308478871503189
991.0, 0.04069229312605413
992.0, 0.04813679925230353
993.0, 0.05578186096950676
994.0, 0.06533145651416915
995.0, 0.06987283563099363
996.0, 0.0861275124511783
997.0, 0.1013926798640069
998.0, 0.1131259420743628
999.0, 0.11445838334259786
1000.0, 0.11721145221833529
1001.0, 0.10759988027069288
1002.0, 0.09868581022623717
1003.0, 0.09015677751103776
1004.0, 0.07929716987361364
1005.0, 0.0721139999674442
1006.0, 0.06682581735632434
1007.0, 0.058207289499763
1008.0, 0.05454897051154105
1009.0, 0.05151561447184993
1010.0, 0.04272778806578821
1011.0, 0.03925077558289414
1012.0, 0.03576512756928292
1013.0, 0.034658126861764525
1014.0, 0.030083547571752967
1015.0, 0.02674865188885767
1016.0, 0.024832052551760513
1017.0, 0.019671092064354672
1018.0, 0.019700699030468706
1019.0, 0.01851457851514978
1020.0, 0.01673858365465365
1021.0, 0.020434417852874018
1022.0, 0.015690116498890357
1023.0, 0.024652274755243175
1024.0, 0.024854705058330352
1025.0, 0.02160076892244999
1026.0, 0.022497659181578634
1027.0, 0.024769456051654017
1028.0, 0.025601050752464997
1029.0, 0.02448422180630771
1030.0, 0.02510758395297551
1031.0, 0.032100614999368234
1032.0, 0.035719869781272534
1033.0, 0.032602101983228056
1034.0, 0.034630549714527746
1035.0, 0.04050585500593861
1036.0, 0.04705863672747539
1037.0, 0.05052824390437856
1038.0, 0.052070930226680065
1039.0, 0.04409374506131521
1040.0, 0.04208844381517762
1041.0, 0.05520155323690616
1042.0, 0.04823269908312371
1043.0, 0.03822899700489795
1044.0, 0.027745012972513545
1045.0, 0.026994200216019
1046.0, 0.023251170034311996
1047.0, 0.02336670824695146
1048.0, 0.016595307585457617
1049.0, 0.011125825998341577
1050.0, 0.01555448403928594
1051.0, 0.016449796126519256
1052.0, 0.00984802365496436
1053.0, 0.009383696014663745
1054.0, 0.012765581003081282
1055.0, 0.008108965284970857
1056.0, 0.012171954391579018
1057.0, 0.01129947600182204
1058.0, 0.008597977881055931
1059.0, 0.006433242146708994
1060.0, 0.008842706601291975
1061.0, 0.013424850332017261
1062.0, 0.0037525875258810444
1063.0, 0.0021044256923660964
1064.0, 0.0026602053842017265
1065.0, 0.002045046457070513
1066.0, 0.0010711617174892821
1067.0, 4.9869237819157454e-05
1068.0, 0.0015824585281286698
1069.0, 0.0004896684960729552
1070.0, 0.004520211224395834
1071.0, 0.0023748555249678612
1072.0, 0.00532775336892351
1073.0, 0.001955524654850441
1074.0, 0.003181060642048779
1075.0, 0.0019143582900751255
1076.0, 0.0014309145857900418
1077.0, 0.0003196471124923312
1078.0, 0.004207085733308623
1079.0, 0.006099797212515505
1080.0, 0.0017716210184499832
1081.0, 0.0045153255289705
1082.0, 0.0017254058633995643
1083.0, 0.0033684185705992477
1084.0, 0.0002295738226601015
1085.0, 0.0008121162247791173
1086.0, 0.00739250230393311
1087.0, 0.0029617030931840213
1088.0, 0.002390564955002662
1089.0, 0.009279341420000139
1090.0, 0.013119791552393392
1091.0, 0.009998727370455549
1092.0, 0.0035129466179000045
1093.0, 0.0073041816533381074
1094.0, 0.01936779496069702
1095.0, 0.01275926102916644
1096.0, 0.01736500146670048
1097.0, 0.010607463150975724
1098.0, 0.01364979500363755
1099.0, 0.02006136763392567
1100.0, 0.019671818898995917
1101.0, 0.021289102935760845
1102.0, 0.025942633313871644
1103.0, 0.01990226690051362
1104.0, 0.024382474661572093
1105.0, 0.027840858493341274
1106.0, 0.021189127474082928
1107.0, 0.023647563193027226
1108.0, 0.028024235346556597
1109.0, 0.03078696114918714
1110.0, 0.03624715318497271
1111.0, 0.038183002223705055
1112.0, 0.0410538542066305
1113.0, 0.03639149679568149
1114.0, 0.03936056676709265
1115.0, 0.042112235389319255
1116.0, 0.0442164877515551
1117.0, 0.048059960158801054
1118.0, 0.04653043001061745
1119.0, 0.050683936950263075
1120.0, 0.054221870463878406
1121.0, 0.05246208191006913
1122.0, 0.06107800335976943
1123.0, 0.06870539875314613
1124.0, 0.06588880576755567
1125.0, 0.08134553323084212
1126.0, 0.08844199574458658
1127.0, 0.08823654270068322
1128.0, 0.09518950718588699
1129.0, 0.10474827990480251
1130.0, 0.10966324456008818
1131.0, 0.11071263007179939
1132.0, 0.1062598029934512
1133.0, 0.10675536707844685
1134.0, 0.10545755024475578
1135.0, 0.10434416964389655
1136.0, 0.10191377264707882
1137.0, 0.08970395352815219
1138.0, 0.08076350951906225
1139.0, 0.07657376202715992
1140.0, 0.07123068523976367
1141.0, 0.06950398523550218
1142.0, 0.06000901789835998
1143.0, 0.059351900623381366
1144.0, 0.05586058445988779
1145.0, 0.04963105767188363
1146.0, 0.043202565339139916
1147.0, 0.03818539652564343
1148.0, 0.03746085528118674
1149.0, 0.037671620955563694
1150.0, 0.03236754457919087
1151.0, 0.029508833414996626
1152.0, 0.02685859017474471
1153.0, 0.018021464286651707
1154.0, 0.014197873144668726
1155.0, 0.019552284463907183
1156.0, 0.020107051279523752
1157.0, 0.014778587825461008
1158.0, 0.016380854785232237
1159.0, 0.008776394100315181
1160.0, 0.008562767124903888
1161.0, 0.006370816815019416
1162.0, 0.01122014818580277
1163.0, 0.013562719802438495
1164.0, 0.007988434989510036
1165.0, 0.00344758518022494
1166.0, 0.0037558087664303417
1167.0, 0.006134672032908827
1168.0, 0.005932545775601823
1169.0, 0.0054923086651834825
1170.0, 0.008327658688889362
1171.0, 0.007995397013253238
1172.0, 0.006300851123803136
1173.0, 0.008716103453289981
1174.0, 0.0033144506034099605
1175.0, 0.007441019079339052
1176.0, 0.006681090008096363
1177.0, 0.006736425992333813
1178.0, 0.007926018612772492
1179.0, 0.002522837159241764
1180.0, 0.0029091126817936226
1181.0, 0.003722791375035213
1182.0, 0.0034835011302831232
1183.0, 0.00422661353571602
1184.0, 0.00526283733496057
1185.0, 0.005495692421035602
1186.0, 0.0016919432769243758
1187.0, 0.0008645131250061275
1188.0, 0.004571661551034678
1189.0, 0.0026235886156505592
1190.0, 0.001834863901169563
1191.0, 0.00221236121863048
1192.0, 0.0010955215545645314
1193.0, 0.0041231217456329065
1194.0, 0.004477807533304267
1195.0, 0.00522619594101406
1196.0, 0.0010126549950192994
1197.0, 0.002290913886422798
1198.0, 0.0025301843401762027
1199.0, 0.0024710240123997666
1200.0, 0.004719422660283269
1201.0, 0.0021911532809405256
1202.0, 0.002014399268304478
1203.0, 0.001921111982353659
1204.0, 0.0105178036437919
1205.0, 0.00602957900895775
1206.0, 0.0047896245073767215
1207.0, 0.007772893672181015
1208.0, 0.006790622194156357
1209.0, 0.008107041541230833
1210.0, 0.006349115026129125
1211.0, 0.003673351046041884
1212.0, 0.002382242417942281
1213.0, 0.004958376128208943
1214.0, 0.00047007771689917566
1215.0, 0.004334992636508298
1216.0, 0.0070680442936155415
1217.0, 0.005034979882699736
1218.0, 0.008549294925803376
1219.0, 0.009983557612988221
1220.0, 0.00796352585617544
1221.0, 0.0037524354803154325
1222.0, 0.0006399747814647907
1223.0, 0.006453924243733385
1224.0, 0.007523182549684863
1225.0, 0.006387360016494578
1226.0, 0.006455465303691808
1227.0, 0.008423234519094713
1228.0, 0.005937898375102255
1229.0, 0.003935331873776888
1230.0, 0.009581025571362284
1231.0, 0.01005108097594275
1232.0, 0.0026181530547197502
1233.0, 0.0020092789245273065
1234.0, 0.001577997541236371
1235.0, 0.006226867940689668
1236.0, 0.003242460021418985
1237.0, 0.008551929283773834
1238.0, 0.006448457859487725
1239.0, 0.0067448633024324335
1240.0, 0.002615554342349123
1241.0, 0.0040696740322064655
1242.0, 0.004422572363530513
1243.0, 0.009636910693554605
1244.0, 0.001576391670730601
1245.0, 0.004673145269043474
1246.0, 0.003764785577114048
1247.0, 0.0012163330116362482
1248.0, 0.009125766570868258
1249.0, 0.00882333927966799
1250.0, 0.0027409488354368707
1251.0, 0.004679796842363169
1252.0, 0.0019284387758492162
1253.0, 0.0018738551383139397
1254.0, 0.005446072936061198
1255.0, 0.003777194236700885
1256.0, 0.0077514926012918406
1257.0, 0.0067570442054303145
1258.0, 0.0029044797515334593
1259.0, 0.006241968115165151
1260.0, 0.004592154989413995
1261.0, 0.004319301830467408
1262.0, 0.007429130440377189
1263.0, 0.0038209962692994886
1264.0, 0.0069870088145187375
1265.0, 0.005301267297518639
1266.0, 0.005222835655414827
1267.0, 0.000904436393302347
1268.0, 0.006084045728763519
1269.0, 0.006887609925708638
1270.0, 0.005096424975511922
1271.0, 0.006791472926734457
1272.0, 0.007255358645682757
1273.0, 0.004499035153128115
1274.0, 0.008869509582940227
1275.0, 0.0068724606213780935
1276.0, 0.005366275426354143
1277.0, 0.006247741054593069
1278.0, 0.005799188224827144
1279.0, 0.005159350796819158
1280.0, 0.0028549448729431287
1281.0, 0.00741903785288101
1282.0, 0.006734197280684372
1283.0, 6.469354374328087e-05
1284, 0.0
1285, 0.0
1286, 0.0
1287, 0.0
1288, 0.0
1289, 0.0
1290, 0.0
1291, 0.0
1292, 0.0
1293, 0.0
1294, 0.0
1295, 0.0
1296, 0.0
1297, 0.0
1298, 0.0
1299, 0.0
1300, 0.0
1301, 0.0
1302, 0.0
1303, 0.0
1304, 0.0
1305, 0.0
1306, 0.0
1307, 0.0
1308, 0.0
1309, 0.0
1310, 0.0
1311, 0.0
1312, 0.0
1313, 0.0
1314, 0.0
1315, 0.0
1316, 0.0
1317, 0.0
1318, 0.0
1319, 0.0
1320, 0.0
1321, 0.0
1322, 0.0
1323, 0.0
1324, 0.0
1325, 0.0
1326, 0.0
1327, 0.0
1328, 0.0
1329, 0.0
1330, 0.0
1331, 0.0
1332, 0.0
1333, 0.0
1334, 0.0
1335, 0.0
1336, 0.0
1337, 0.0
1338, 0.0
1339, 0.0
1340, 0.0
1341, 0.0
1342, 0.0
1343, 0.0
1344, 0.0
1345, 0.0
1346, 0.0
1347, 0.0
1348, 0.0
1349, 0.0
1350, 0.0
1351, 0.0
1352, 0.0
1353, 0.0
1354, 0.0
1355, 0.0
1356, 0.0
1357, 0.0
1358, 0.0
1359, 0.0
1360, 0.0
1361, 0.0
1362, 0.0
1363, 0.0
1364, 0.0
1365, 0.0
1366, 0.0
1367, 0.0
1368, 0.0
1369, 0.0
1370, 0.0
1371, 0.0
1372, 0.0
1373, 0.0
1374, 0.0
1375, 0.0
1376, 0.0
1377, 0.0
1378, 0.0
1379, 0.0
1380, 0.0
1381, 0.0
1382, 0.0
1383, 0.0
1384, 0.0
1385, 0.0
1386, 0.0
1387, 0.0
1388, 0.0
1389, 0.0
1390, 0.0
1391, 0.0
1392, 0.0
1393, 0.0
1394, 0.0
1395, 0.0
1396, 0.0
1397, 0.0
1398, 0.0
1399, 0.0
1400, 0.0
1401, 0.0
1402, 0.0
1403, 0.0
1404, 0.0
1405, 0.0
1406, 0.0
1407, 0.0
1408, 0.0
1409, 0.0
1410, 0.0
1411, 0.0
1412, 0.0
1413, 0.0
1414, 0.0
1415, 0.0
1416, 0.0
1417, 0.0
1418, 0.0
1419, 0.0
1420, 0.0
1421, 0.0
1422, 0.0
1423, 0.0
1424, 0.0
1425, 0.0
1426, 0.0
1427, 0.0
1428, 0.0
1429, 0.0
1430, 0.0
1431, 0.0
1432, 0.0
1433, 0.0
1434, 0.0
1435, 0.0
1436, 0.0
1437, 0.0
1438, 0.0
1439, 0.0
1440, 0.0
1441, 0.0
1442, 0.0
1443, 0.0
1444, 0.0
1445, 0.0
1446, 0.0
1447, 0.0
1448, 0.0
1449, 0.0
1450, 0.0
1451, 0.0
1452, 0.0
1453, 0.0
1454, 0.0
1455, 0.0
1456, 0.0
1457, 0.0
1458, 0.0
1459, 0.0
1460, 0.0
1461, 0.0
1462, 0.0
1463, 0.0
1464, 0.0
1465, 0.0
1466, 0.0
1467, 0.0
1468, 0.0
1469, 0.0
1470, 0.0
1471, 0.0
1472, 0.0
1473, 0.0
1474, 0.0
1475, 0.0
1476, 0.0
1477, 0.0
1478, 0.0
1479, 0.0
1480, 0.0
1481, 0.0
1482, 0.0
1483, 0.0
1484, 0.0
1485, 0.0
1486, 0.0
1487, 0.0
1488, 0.0
1489, 0.0
1490, 0.0
1491, 0.0
1492, 0.0
1493, 0.0
1494, 0.0
1495, 0.0
1496, 0.0
1497, 0.0
1498, 0.0
1499, 0.0
1500, 0.0
1501, 0.0
1502, 0.0
1503, 0.0
1504, 0.0
1505, 0.0
1506, 0.0
1507, 0.0
1508, 0.0
1509, 0.0
1510, 0.0
1511, 0.0
1512, 0.0
1513, 0.0
1514, 0.0
1515, 0.0
1516, 0.0
1517, 0.0
1518, 0.0
1519, 0.0
1520, 0.0
1521, 0.0
1522, 0.0
1523, 0.0
1524, 0.0
1525, 0.0
1526, 0.0
1527, 0.0
1528, 0.0
1529, 0.0
1530, 0.0
1531, 0.0
1532, 0.0
1533, 0.0
1534, 0.0
1535, 0.0
1536, 0.0
1537, 0.0
1538, 0.0
1539, 0.0
1540, 0.0
1541, 0.0
1542, 0.0
1543, 0.0
1544, 0.0
1545, 0.0
1546, 0.0
1547, 0.0
1548, 0.0
1549, 0.0
1550, 0.0
1551, 0.0
1552, 0.0
1553, 0.0
1554, 0.0
1555, 0.0
1556, 0.0
1557, 0.0
1558, 0.0
1559, 0.0
1560, 0.0
1561, 0.0
1562, 0.0
1563, 0.0
1564, 0.0
1565, 0.0
1566, 0.0
1567, 0.0
1568, 0.0
1569, 0.0
1570, 0.0
1571, 0.0
1572, 0.0
1573, 0.0
1574, 0.0
1575, 0.0
1576, 0.0
1577, 0.0
1578, 0.0
1579, 0.0
1580, 0.0
1581, 0.0
1582, 0.0
1583, 0.0
1584, 0.0
1585, 0.0
1586, 0.0
1587, 0.0
1588, 0.0
1589, 0.0
1590, 0.0
1591, 0.0
1592, 0.0
1593, 0.0
1594, 0.0
1595, 0.0
1596, 0.0
1597, 0.0
1598, 0.0
1599, 0.0
