30, 0.0
31, 0.0
32, 0.0
33, 0.0
34, 0.0
35, 0.0
36, 0.0
37, 0.0
38, 0.0
39, 0.0
40, 0.0
41, 0.0
42, 0.0
43, 0.0
44, 0.0
45, 0.0
46, 0.0
47, 0.0
48, 0.0
49, 0.0
50, 0.0
51, 0.0
52, 0.0
53, 0.0
54, 0.0
55, 0.0
56, 0.0
57, 0.0
58, 0.0
59, 0.0
60, 0.0
61, 0.0
62, 0.0
63, 0.0
64, 0.0
65, 0.0
66, 0.0
67, 0.0
68, 0.0
69, 0.0
70, 0.0
71, 0.0
72, 0.0
73, 0.0
74, 0.0
75, 0.0
76, 0.0
77, 0.0
78, 0.0
79, 0.0
80, 0.0
81, 0.0
82, 0.0
83, 0.0
84, 0.0
85, 0.0
86, 0.0
87, 0.0
88, 0.0
89, 0.0
90, 0.0
91, 0.0
92, 0.0
93, 0.0
94, 0.0
95, 0.0
96, 0.0
97, 0.0
98, 0.0
99, 0.0
100, 0.0
101, 0.0
102, 0.0
103, 0.0
104, 0.0
105, 0.0
106, 0.0
107, 0.0
108, 0.0
109, 0.0
110.0, 0.00013580204065387341
111.0, 0.0001230340158254726
112.0, 0.0004927447079907229
113.0, 0.002110402957581363
114.0, 0.004009764266348225
115.0, 0.006143026456825795
116.0, 0.008408641426111287
117.0, 0.010543690878455752
118.0, 0.012340055116919565
119.0, 0.013875289509363635
120.0, 0.01480931505654344
121.0, 0.015506596663414536
122.0, 0.016201516031431377
123.0, 0.016530032535416607
124.0, 0.016456947057804084
125.0, 0.016067227532317475
126.0, 0.015598178090514532
127.0, 0.015410213005282968
128.0, 0.015351690004486792
129.0, 0.01535455534714121
130.0, 0.015364509466612648
131.0, 0.015344586889012567
132.0, 0.015417080753035068
133.0, 0.015197140895660917
134.0, 0.014596865784941331
135.0, 0.013593574724882696
136.0, 0.012959755535857499
137.0, 0.012162359415581546
138.0, 0.011008745231933363
139.0, 0.0097437012582582
140.0, 0.00887727382020245
141.0, 0.008126327977854161
142.0, 0.007315060403649251
143.0, 0.006544877684659643
144.0, 0.006091501446089901
145.0, 0.005221623664504539
146.0, 0.00489908533984742
147.0, 0.004863816344037696
148.0, 0.004350183721688912
149.0, 0.0036876845148183807
150.0, 0.0033680105621719495
151.0, 0.0033804499377753368
152.0, 0.003393185755052263
153.0, 0.003190396066517752
154.0, 0.0030491139103866797
155.0, 0.002674096799314131
156.0, 0.002063418459817577
157.0, 0.0015566094239684337
158.0, 0.0015672983654819806
159.0, 0.0014113420703377054
160.0, 0.0011532517997662843
161.0, 0.0011471743740604566
162.0, 0.001049364811577073
163.0, 0.0002989448652201353
164.0, 0.00013077725125093824
165.0, 0.0005336249493811744
166.0, 0.00016879086126923544
167.0, 0.0003784654103325653
168.0, 0.00038785807317093506
169.0, 0.00010825236947705543
170.0, 0.0002479876923442177
171.0, 0.00046189935019150203
172.0, 0.0006213947528877562
173.0, 0.0005750395304013891
174.0, 0.00028199502600177804
175.0, 0.00011321816166042658
176.0, 6.132323229101597e-05
177.0, 6.331261894788622e-05
178.0, 0.0003591980811644347
179.0, 0.0006578897726428366
180.0, 0.000525432622972434
181.0, 0.0003827523747213034
182.0, 0.0003282284294768664
183.0, 0.00017057159662269477
184.0, 0.0003652859695776529
185.0, 0.00013634998199116218
186.0, 0.00032984517480522867
187.0, 0.00012531535439248305
188.0, 0.00014862387707127841
189.0, 0.00029515049477187196
190.0, 0.00039374007865361255
191.0, 0.0005134990808522912
192.0, 0.0008452035956683163
193.0, 0.0006042328277543747
194.0, 0.00036084208611082393
195.0, 0.0003080535450647104
196.0, 0.0002544471870182455
197.0, 5.855302554442749e-05
198.0, 0.00037496800508248987
199.0, 0.0006595267213470093
200.0, 0.0008743101762439583
201.0, 0.000916583819943821
202.0, 0.0014446446235119059
203.0, 0.0017571499616775618
204.0, 0.0018107367319314589
205.0, 0.0021933586496110822
206.0, 0.0028075685939923573
207.0, 0.0035021982944674498
208.0, 0.004052477188613427
209.0, 0.004370978330439467
210.0, 0.004697346708135118
211.0, 0.004910607415728364
212.0, 0.005557423457740298
213.0, 0.006503997393593499
214.0, 0.006977625921297918
215.0, 0.00754677223016074
216.0, 0.007952374899185979
217.0, 0.008614410000465802
218.0, 0.009873600990278623
219.0, 0.011028509328283895
220.0, 0.0120204254375738
221.0, 0.013092664062415018
222.0, 0.014329166215558044
223.0, 0.01570115175189321
224.0, 0.017648134003487775
225.0, 0.019406715613035645
226.0, 0.021012956645858206
227.0, 0.022854004984156052
228.0, 0.025015377868456097
229.0, 0.027000225313810737
230.0, 0.029222278098719183
231.0, 0.03180238569076223
232.0, 0.034363033231215576
233.0, 0.036839981467876315
234.0, 0.0392803015205114
235.0, 0.04180585126417953
236.0, 0.04439877915736653
237.0, 0.046599895353807916
238.0, 0.04957120880922067
239.0, 0.052452323517513305
240.0, 0.05459414649867935
241.0, 0.05599731295028514
242.0, 0.05780958163721663
243.0, 0.058346347201526635
244.0, 0.057812763726647086
245.0, 0.05683928309907466
246.0, 0.054886351048949546
247.0, 0.051723406112668284
248.0, 0.0481404276297318
249.0, 0.044554074695718884
250.0, 0.04091451485616656
251.0, 0.03683247514223671
252.0, 0.03264302268483869
253.0, 0.02904685029796448
254.0, 0.026199904991760486
255.0, 0.02294743057235838
256.0, 0.02012640138465426
257.0, 0.017781310729235236
258.0, 0.015649810815119618
259.0, 0.013463357828493817
260.0, 0.011295625479574608
261.0, 0.009824833300950995
262.0, 0.008329654815841138
263.0, 0.006594667164118487
264.0, 0.005481861429223415
265.0, 0.004940541854542767
266.0, 0.003909376429242052
267.0, 0.002829472044371878
268.0, 0.0023920035198025124
269.0, 0.0017906026087692434
270.0, 0.001065333199174953
271.0, 0.0007733149815858119
272.0, 0.0007398447781993557
273.0, 0.00027917691922217484
274.0, 8.496271508576425e-05
275.0, 0.0002735130916183527
276.0, 0.0005231720334461603
277.0, 0.00043425065956576275
278.0, 0.0004178459056485818
279.0, 0.0002653637740205921
280.0, 0.00026688274253200764
281.0, 0.0004424413791697861
282.0, 0.0004940551131412981
283.0, 0.00014556890255822483
284.0, 0.0006496109841948119
285.0, 0.0010661711258859597
286.0, 0.00120881090056885
287.0, 0.0015266991752306955
288.0, 0.0016441743785099068
289.0, 0.0023931974848457075
290.0, 0.0031228283003276987
291.0, 0.003300007542628474
292.0, 0.003889041575368214
293.0, 0.004320519426175465
294.0, 0.004769458373814966
295.0, 0.005476063034182631
296.0, 0.006304642311799748
297.0, 0.006511173775944696
298.0, 0.007094537537907541
299.0, 0.007887258461519497
300.0, 0.008602194321481819
301.0, 0.00925652331242535
302.0, 0.009662788558628541
303.0, 0.010249620715502051
304.0, 0.010806564493207183
305.0, 0.01124029957813681
306.0, 0.011969061681811133
307.0, 0.012468869605552834
308.0, 0.012396835252348373
309.0, 0.012210637706057598
310.0, 0.012359941480751596
311.0, 0.012372933474897888
312.0, 0.012459128291941261
313.0, 0.01252675292411769
314.0, 0.012805101783559434
315.0, 0.013420533391255738
316.0, 0.013033249585046374
317.0, 0.013221978076616256
318.0, 0.013648412653173988
319.0, 0.013922770966321208
320.0, 0.01421481723919026
321.0, 0.01515475250995155
322.0, 0.015784309915585625
323.0, 0.016310459775374462
324.0, 0.017216771520388294
325.0, 0.01849606708227151
326.0, 0.019343764173871503
327.0, 0.02066342212560563
328.0, 0.02238040022121739
329.0, 0.023963943271612505
330.0, 0.02571444210191887
331.0, 0.027300435785865496
332.0, 0.02925794405486064
333.0, 0.0314191234850455
334.0, 0.03321356475222069
335.0, 0.03510753756202333
336.0, 0.0372479041571679
337.0, 0.03945527503087965
338.0, 0.041601042577005615
339.0, 0.04360976804435181
340.0, 0.045381237344737486
341.0, 0.04723242651778192
342.0, 0.048889156006164954
343.0, 0.05020246421904787
344.0, 0.051513582790487206
345.0, 0.05239633506090938
346.0, 0.05223791428704032
347.0, 0.0517109676630019
348.0, 0.0512351178522715
349.0, 0.04985447965763476
350.0, 0.04792774920085701
351.0, 0.04560047590733552
352.0, 0.042856070781910345
353.0, 0.03979610481504672
354.0, 0.03680420121215316
355.0, 0.033634243502844136
356.0, 0.03007441027454105
357.0, 0.026829712184917493
358.0, 0.024535674932991813
359.0, 0.022265814788616597
360.0, 0.0203585525589867
361.0, 0.018595477964419283
362.0, 0.016940694976954204
363.0, 0.015583177030125005
364.0, 0.01468862400006508
365.0, 0.013878730306169
366.0, 0.01292273454634318
367.0, 0.011902567636427656
368.0, 0.010970025306073434
369.0, 0.009490009678757098
370.0, 0.00840810982469998
371.0, 0.007364868082069786
372.0, 0.006150985077347608
373.0, 0.005000160611564358
374.0, 0.003990651513743163
375.0, 0.003365021354102034
376.0, 0.0027520357091359907
377.0, 0.0019628709807133953
378.0, 0.0013389909342392075
379.0, 0.0010465890118083157
380.0, 0.0006150595805465321
381.0, 0.0004106225832965144
382.0, 0.0003914241301502963
383.0, 0.00018258231031061537
384.0, 0.0001039700437082354
385.0, 0.0002935047974977961
386.0, 0.0004566602663204894
387.0, 0.0003644961685520674
388.0, 0.0005118739914743702
389.0, 0.0006506866049844906
390.0, 0.0008487584591338604
391.0, 0.0007955737355268298
392.0, 0.00047550575888135634
393.0, 0.00039360321859499905
394.0, 0.0002536246892231142
395.0, 0.000384701260218703
396.0, 0.0004487014622095152
397.0, 0.0002764239579755826
398.0, 0.000315685006530816
399.0, 0.00028420850579373306
400.0, 7.662936696839664e-05
401.0, 0.00031029727771759573
402.0, 0.0002687743649261546
403.0, 0.0007470060956190825
404.0, 0.001094283966767717
405.0, 0.0012570028040492015
406.0, 0.0014775629285784634
407.0, 0.0019563848264909887
408.0, 0.0026355113795585206
409.0, 0.0030792647689390227
410.0, 0.0033605866735716226
411.0, 0.0038069168378520187
412.0, 0.004599452716392348
413.0, 0.005518349106992269
414.0, 0.00600810965853382
415.0, 0.006783596660110994
416.0, 0.007801251060843929
417.0, 0.008732717090026992
418.0, 0.009537414943788042
419.0, 0.01046657511799189
420.0, 0.011639136547746249
421.0, 0.013124226290906035
422.0, 0.014605114629384712
423.0, 0.015562817156897281
424.0, 0.016794433366583286
425.0, 0.018509754679337916
426.0, 0.020118806667971376
427.0, 0.021699618587235615
428.0, 0.023988873884010213
429.0, 0.025431387360521262
430.0, 0.027107647266799335
431.0, 0.02870915874550754
432.0, 0.0303220145038116
433.0, 0.03262818228649485
434.0, 0.03472846041155407
435.0, 0.03602788685244121
436.0, 0.03763282302330943
437.0, 0.039465657019609406
438.0, 0.040452138989583344
439.0, 0.04109449714683047
440.0, 0.04156468718774754
441.0, 0.041904187281272
442.0, 0.041910982561905785
443.0, 0.04138469810873385
444.0, 0.04082367998525614
445.0, 0.04027559133277401
446.0, 0.039233912813708
447.0, 0.037748300312199445
448.0, 0.03611174044787097
449.0, 0.0342934757916708
450.0, 0.03258919416041153
451.0, 0.03116375665706646
452.0, 0.02960194263737715
453.0, 0.027682754053019697
454.0, 0.026378786079488337
455.0, 0.025104503100399248
456.0, 0.024035121234072494
457.0, 0.023187660203620123
458.0, 0.02258420833321527
459.0, 0.02233963880320488
460.0, 0.022344099601869494
461.0, 0.022175558010011726
462.0, 0.022100370689475218
463.0, 0.022298615960212757
464.0, 0.02264481775014123
465.0, 0.023380841890403462
466.0, 0.023766112794401512
467.0, 0.024660945810017498
468.0, 0.025961246083705026
469.0, 0.02681812543367709
470.0, 0.02726325830796107
471.0, 0.028590941973258073
472.0, 0.029776901986581398
473.0, 0.030511817812813348
474.0, 0.030995941984661688
475.0, 0.030821166639318914
476.0, 0.030574516181109936
477.0, 0.02940479957656914
478.0, 0.027924062556938238
479.0, 0.026642609916749722
480.0, 0.0247525451460905
481.0, 0.022445394296603027
482.0, 0.020935716896705453
483.0, 0.01923522576565876
484.0, 0.017206081324118567
485.0, 0.015955031722372705
486.0, 0.014630018802842268
487.0, 0.013534219383342525
488.0, 0.012724038799596356
489.0, 0.011986058613252986
490.0, 0.011206720233705043
491.0, 0.01076416297196756
492.0, 0.01067212152845939
493.0, 0.010374792193670695
494.0, 0.009995989058997762
495.0, 0.00988964198155345
496.0, 0.010075517634490484
497.0, 0.010040538368418377
498.0, 0.010370205058330086
499.0, 0.010448662853776868
500.0, 0.010244073861872061
501.0, 0.010533987959592244
502.0, 0.010756879759568821
503.0, 0.01103644877043111
504.0, 0.011454738880845134
505.0, 0.011977845531340436
506.0, 0.01243342279436297
507.0, 0.012243182828224576
508.0, 0.012890358694024186
509.0, 0.01307389613957345
510.0, 0.013006975207922981
511.0, 0.013181877046353044
512.0, 0.013019893859120174
513.0, 0.012474921759795907
514.0, 0.011629729017095835
515.0, 0.010840645292456966
516.0, 0.009998755499551907
517.0, 0.008794109002605889
518.0, 0.007554489563795673
519.0, 0.00639071783307067
520.0, 0.005591670211392523
521.0, 0.004935529986207596
522.0, 0.004168865296593381
523.0, 0.0034625688154314308
524.0, 0.002569025317116107
525.0, 0.0022854294771485796
526.0, 0.002046776205402527
527.0, 0.0015161813486200303
528.0, 0.0011914812348966068
529.0, 0.0009861925155306367
530.0, 0.0008150014336994789
531.0, 0.0006896524460222537
532.0, 0.00043640961823779767
533.0, 5.311555291533754e-05
534.0, 6.927158888730216e-05
535.0, 6.23134627986603e-05
536.0, 3.77088406422489e-05
537.0, 0.00011944605003100559
538.0, 0.0001961873360596366
539.0, 0.00039300278076377643
540.0, 0.00039036605403586997
541.0, 0.0003722340796540744
542.0, 0.0004626669635301032
543.0, 0.0005357431829814074
544.0, 0.0005001060598988134
545.0, 0.0005348409915430537
546.0, 0.00042527108554482834
547.0, 0.0004117706386113496
548.0, 0.00040893512420339824
549.0, 0.00027187231683796216
550.0, 1.7090275767657262e-05
551.0, 1.2345316326250815e-05
552.0, 3.6613628474378825e-05
553.0, 8.556524588595618e-05
554.0, 0.00017311434868187781
555.0, 0.00027486045401105687
556.0, 0.00027465157096635866
557.0, 0.00019884498304443627
558.0, 3.696754781845156e-05
559.0, 0.0001297028723108648
560.0, 0.00010383039025358494
561.0, 0.00011900038693118642
562.0, 0.00015802868452470694
563.0, 0.00011334540866368157
564.0, 0.00012891821372742633
565.0, 0.00020266334321410604
566.0, 0.00030536895469179554
567.0, 0.00047234141126296334
568.0, 0.0006026800217739233
569.0, 0.0004693225095656916
570.0, 0.0004666947031846111
571.0, 0.0005849879682219653
572.0, 0.0006066785497145333
573.0, 0.0007043885819674615
574.0, 0.00042741861016190374
575.0, 0.0006075913865025172
576.0, 0.0006520600027003612
577.0, 0.0004460940239454196
578.0, 0.0006460185039519234
579.0, 0.0009186963598997748
580.0, 0.0009399968130300839
581.0, 0.000829741587923353
582.0, 0.0010077085176276302
583.0, 0.0013602178570333303
584.0, 0.0012482909379884497
585.0, 0.0011813480975373426
586.0, 0.001293945058219064
587.0, 0.001124655011017026
588.0, 0.000888302462752585
589.0, 0.001069456062451136
590.0, 0.0016688181138020568
591.0, 0.0016023081595349297
592.0, 0.001525867041105867
593.0, 0.0018689648933219287
594.0, 0.002116781731530931
595.0, 0.0017336656156535795
596.0, 0.0017409689472706073
597.0, 0.0018921785036689366
598.0, 0.001885503244225987
599.0, 0.0019378622682523611
600.0, 0.0020473725666812826
601.0, 0.0019485336472657977
602.0, 0.002200813315908832
603.0, 0.0020325222547300107
604.0, 0.0019481643600558992
605.0, 0.001996308161311384
606.0, 0.0020129205932985414
607.0, 0.002133324536374814
608.0, 0.0025036748624705507
609.0, 0.0021877016040436703
610.0, 0.002269554898405627
611.0, 0.0025758474402307347
612.0, 0.002524403031945699
613.0, 0.0026303646417439896
614.0, 0.0024597609985989167
615.0, 0.0025045393807841794
616.0, 0.0025608094676151058
617.0, 0.002532596307511846
618.0, 0.002496309957552279
619.0, 0.00249033276806527
620.0, 0.0026253819245326934
621.0, 0.0028365816469752363
622.0, 0.00296141725738748
623.0, 0.0030284408619379007
624.0, 0.0031037212604257338
625.0, 0.0030631793482116905
626.0, 0.002853520134287826
627.0, 0.0029144597531086326
628.0, 0.0031018725907112524
629.0, 0.003276581008862443
630.0, 0.0034278711644463926
631.0, 0.00359667300154677
632.0, 0.003931631104829557
633.0, 0.003695394191123863
634.0, 0.003420967131974835
635.0, 0.00354161075233567
636.0, 0.003746049883803673
637.0, 0.0036189187527303182
638.0, 0.0037517080137214917
639.0, 0.004013040841336458
640.0, 0.003925009106026991
641.0, 0.0037295871313625857
642.0, 0.00401575841443921
643.0, 0.004057871914928853
644.0, 0.0042034780604520774
645.0, 0.004188169338166506
646.0, 0.004232430630374026
647.0, 0.004446711917078043
648.0, 0.004643026285038982
649.0, 0.005044871533385587
650.0, 0.0050846493036258615
651.0, 0.005131114501673465
652.0, 0.00526516107686514
653.0, 0.0053085927905735086
654.0, 0.005176327593946263
655.0, 0.005431041930889321
656.0, 0.005601487042301473
657.0, 0.005416969627749042
658.0, 0.005152519336032514
659.0, 0.005107400664547917
660.0, 0.005290174496245213
661.0, 0.005319821495548915
662.0, 0.004824432666775343
663.0, 0.00477997736453857
664.0, 0.004801764925662826
665.0, 0.004704042793294222
666.0, 0.004752302633778625
667.0, 0.004466766599527378
668.0, 0.004254675339159948
669.0, 0.004424777663870977
670.0, 0.00442282230267224
671.0, 0.004120943451677517
672.0, 0.003893860707807466
673.0, 0.0038320724254635842
674.0, 0.0035123988484523634
675.0, 0.003553969310447718
676.0, 0.0034455810061067267
677.0, 0.0033021891694212145
678.0, 0.003413006580632617
679.0, 0.003164019716703765
680.0, 0.002736731977573909
681.0, 0.0028287929477546414
682.0, 0.002746227696539461
683.0, 0.0023800855693300723
684.0, 0.002147744583765893
685.0, 0.002162401623038241
686.0, 0.0017596461300624499
687.0, 0.0017685652575492481
688.0, 0.0016286335892488819
689.0, 0.0014599923301226291
690.0, 0.0014589002025967358
691.0, 0.0012990301478480544
692.0, 0.0009731764538889099
693.0, 0.00047414087765258446
694.0, 0.0006348316880094984
695.0, 0.0008237022722595288
696.0, 0.0006448035982131299
697.0, 0.00043988684489049785
698.0, 0.00018539745634429722
699.0, 0.0003323101487035021
700.0, 0.00012930954849622623
701.0, 3.551013966545504e-05
702.0, 6.88309908661901e-05
703.0, 0.0001842542829216767
704.0, 0.0007210507497790104
705.0, 0.000760048884458447
706.0, 0.0004991384466713036
707.0, 0.0006514924056981457
708.0, 0.0007445372887842852
709.0, 0.0005428489534524726
710.0, 0.0008350235274783074
711.0, 0.0006372306162825934
712.0, 0.00039961680042522164
713.0, 0.00016137709183861528
714.0, 3.8106697431896066e-05
715.0, 0.0001781688021362427
716.0, 0.0003407238464430177
717.0, 0.0006875072796739211
718.0, 0.0007862002365561374
719.0, 0.0015868801712827579
720.0, 0.002068760417895372
721.0, 0.002329564068270735
722.0, 0.003168285795161002
723.0, 0.004125973314879035
724.0, 0.005092404381750105
725.0, 0.005798067774843116
726.0, 0.006862223233130854
727.0, 0.00823468552695927
728.0, 0.00948520464716192
729.0, 0.010659273903587892
730.0, 0.012462751249961181
731.0, 0.014708740073341655
732.0, 0.016474569372402242
733.0, 0.01843995210680996
734.0, 0.02104686877454637
735.0, 0.02392149277151295
736.0, 0.026555085280716345
737.0, 0.02905666256071648
738.0, 0.032368817040292805
739.0, 0.035025445606695134
740.0, 0.03722829484904639
741.0, 0.03975115764301785
742.0, 0.0421809524107634
743.0, 0.04402928578329499
744.0, 0.04586837730049321
745.0, 0.04657565767359465
746.0, 0.04708596632937812
747.0, 0.04757974187217203
748.0, 0.04702411369050963
749.0, 0.04495902616191143
750.0, 0.04329564492070671
751.0, 0.040711580119794456
752.0, 0.03804995885670255
753.0, 0.03508915847608348
754.0, 0.031603868586813445
755.0, 0.02807749463390047
756.0, 0.02440396649136603
757.0, 0.021491069705381022
758.0, 0.018359713765063058
759.0, 0.015732356555954695
760.0, 0.013492544332470227
761.0, 0.01106701784355713
762.0, 0.008764797427935733
763.0, 0.006742893391593314
764.0, 0.005020113417507957
765.0, 0.0035528080280432268
766.0, 0.002335796802711644
767.0, 0.0012643571488482656
768.0, 0.0002973027037758062
769.0, 0.00013788616328319918
770.0, 0.0007061808520334381
771.0, 0.0007878811148883869
772.0, 0.0007082365102690786
773.0, 0.0004967393427038634
774.0, 6.741830479702126e-05
775.0, 0.0005499759242170204
776.0, 0.0017134727104043505
777.0, 0.0027906477811798554
778.0, 0.00393745159842275
779.0, 0.005237901804952786
780.0, 0.006958253596446505
781.0, 0.009097095807876994
782.0, 0.011469939737922772
783.0, 0.014790925339782391
784.0, 0.017917312386175263
785.0, 0.021129976834690905
786.0, 0.025186149423323784
787.0, 0.02976234631394782
788.0, 0.03466081374059023
789.0, 0.04071265831754765
790.0, 0.046293485801617226
791.0, 0.05277473474000687
792.0, 0.05999849215314174
793.0, 0.06789888039956757
794.0, 0.07655234496442358
795.0, 0.08600839231690857
796.0, 0.09618405758324276
797.0, 0.1068599276127269
798.0, 0.11808534793723251
799.0, 0.13058905379237906
800.0, 0.14261840951586413
801.0, 0.15408961486908251
802.0, 0.16643788148660515
803.0, 0.17909737795069408
804.0, 0.19035973008441462
805.0, 0.1998653450722162
806.0, 0.20820471292619358
807.0, 0.21524033312489907
808.0, 0.22010397495418796
809.0, 0.22247727535389455
810.0, 0.22335950902407953
811.0, 0.2216303603471728
812.0, 0.21576217562039757
813.0, 0.2070025484074671
814.0, 0.19538337998034813
815.0, 0.1822926899980276
816.0, 0.16911811567848187
817.0, 0.15376274983008328
818.0, 0.13823756197247777
819.0, 0.12354883509032087
820.0, 0.10932323796947901
821.0, 0.09587550117090154
822.0, 0.08342111351610798
823.0, 0.07234941146182913
824.0, 0.06338099794115559
825.0, 0.05469098546904531
826.0, 0.046211190807340485
827.0, 0.039189583642752435
828.0, 0.03310246016374886
829.0, 0.027467786438252803
830.0, 0.022378870143008035
831.0, 0.01796049470334465
832.0, 0.014113088503704475
833.0, 0.01100090654037586
834.0, 0.008271503993779399
835.0, 0.006197183618130414
836.0, 0.004223111584774608
837.0, 0.0021842402579747826
838.0, 0.0010953445658451325
839.0, 0.0002270612404164061
840.0, 0.0007241379046010922
841.0, 0.0013421836148807095
842.0, 0.0014995155627763785
843.0, 0.001852911432066243
844.0, 0.002444231220332521
845.0, 0.001914782081040296
846.0, 0.0008238566067377669
847.0, 0.0001822941238043677
848.0, 0.0011256606233800528
849.0, 0.0024606652441958596
850.0, 0.004005786007984638
851.0, 0.005832102896445983
852.0, 0.007966325107027366
853.0, 0.010471258228327923
854.0, 0.013902954716444732
855.0, 0.01728310319952779
856.0, 0.020893276759709
857.0, 0.025319748831493835
858.0, 0.030440020872841648
859.0, 0.03576271446495823
860.0, 0.04129337503171401
861.0, 0.047978042469482264
862.0, 0.056305542055315745
863.0, 0.06504533189704778
864.0, 0.0745543899383705
865.0, 0.08584574672350011
866.0, 0.09902865190710598
867.0, 0.11370131194751196
868.0, 0.13135971351213202
869.0, 0.1514894481042224
870.0, 0.17318790282676136
871.0, 0.1986731056099966
872.0, 0.2279410008908694
873.0, 0.2608089433882569
874.0, 0.29702649179985224
875.0, 0.33536681082406317
876.0, 0.3788162163177653
877.0, 0.422956681559309
878.0, 0.4722590932991278
879.0, 0.525772099720719
880.0, 0.5842882479845453
881.0, 0.6485242592453925
882.0, 0.715817448580979
883.0, 0.7868034537317224
884.0, 0.8584195840870444
885.0, 0.9211525618647448
886.0, 0.9703676633222253
887.0, 0.9968781394608696
888.0, 0.9937070352824044
889.0, 0.9611037947832375
890.0, 0.9020051234640556
891.0, 0.8190448151566352
892.0, 0.7265682983017121
893.0, 0.6319882595248941
894.0, 0.543076214539144
895.0, 0.4646797460755727
896.0, 0.397155680765919
897.0, 0.3402365585649216
898.0, 0.29302504922288036
899.0, 0.25266090821522763
900.0, 0.2200561395894143
901.0, 0.1928091730893902
902.0, 0.16839615593634807
903.0, 0.14723048614419126
904.0, 0.12997060678582495
905.0, 0.11511380127330748
906.0, 0.1027030121136642
907.0, 0.09098832102101218
908.0, 0.0812919377095417
909.0, 0.07281975545183222
910.0, 0.06553772864312912
911.0, 0.05896695524855944
912.0, 0.052730903314563315
913.0, 0.047721572130923824
914.0, 0.042858501769133694
915.0, 0.03910186487848589
916.0, 0.03567140026926319
917.0, 0.03222165518588881
918.0, 0.028841828459066524
919.0, 0.025832580257953024
920.0, 0.02347923721746157
921.0, 0.02150889434329143
922.0, 0.01894741487484371
923.0, 0.0171881017404522
924.0, 0.015582072754391734
925.0, 0.01391655528805443
926.0, 0.012275969128782751
927.0, 0.010792291633517023
928.0, 0.009501490213377794
929.0, 0.008335083727731897
930.0, 0.007641996886614984
931.0, 0.006547061749518874
932.0, 0.005604753087812312
933.0, 0.00498709064508172
934.0, 0.0043035960145409126
935.0, 0.0034775222301455006
936.0, 0.0028242312457680495
937.0, 0.002416189826061648
938.0, 0.001791228279812834
939.0, 0.0015417401782606705
940.0, 0.001397496654034264
941.0, 0.000999402394718705
942.0, 0.0006473226139661582
943.0, 0.0005094807026290202
944.0, 0.00035164639176506483
945.0, 0.00015585345069501062
946.0, 5.326746951398912e-05
947.0, 0.0001324181630256522
948.0, 0.0003986174266744358
949.0, 0.0003036684236119251
950.0, 0.00047812892826916984
951.0, 0.0007934192548105211
952.0, 0.0005640469355917006
953.0, 0.0003427994765947193
954.0, 0.0009365505837043113
955.0, 0.0006065397840691505
956.0, 0.0006098294166348125
957.0, 0.00040365021033090815
958.0, 0.0002990271981460493
959.0, 0.00038805107428746636
960.0, 0.0004561891193197369
961.0, 0.000565825600280772
962.0, 0.00020157335229658492
963.0, 3.275030749833575e-05
964.0, 0.00031330750564545544
965.0, 0.00017634224498632304
966.0, 9.558979919672487e-05
967.0, 0.0002445763054408881
968.0, 0.0003600654144860008
969.0, 0.0004079163176039789
970.0, 0.0002871209700058023
971.0, 0.0004436095240813535
972.0, 0.0005143934305591739
973.0, 0.00032561258222856904
974.0, 0.00046722897352570756
975.0, 0.0006033281569059033
976.0, 0.0007767336702400249
977.0, 0.0010833712121272453
978.0, 0.0009223511620248377
979.0, 0.0012412241363803733
980.0, 0.00138906909708323
981.0, 0.0015362396184054744
982.0, 0.0015311981779999508
983.0, 0.001614490363127261
984.0, 0.0019086580288711571
985.0, 0.002116420391234107
986.0, 0.0020720587590912906
987.0, 0.0020992598342401835
988.0, 0.0021294439978396403
989.0, 0.0024071330321552924
990.0, 0.002568791608086676
991.0, 0.002459592155319335
992.0, 0.0027403385629014487
993.0, 0.0030704196172466596
994.0, 0.003045004511022713
995.0, 0.003261432463924321
996.0, 0.003201562414068247
997.0, 0.0034113543431991316
998.0, 0.0036268267863903258
999.0, 0.0038381338411531954
1000.0, 0.00397930090111702
1001.0, 0.004040756273590054
1002.0, 0.004170278733547867
1003.0, 0.004420499596660645
1004.0, 0.004617546957690301
1005.0, 0.004665638197122284
1006.0, 0.004533326092772192
1007.0, 0.004398461320446195
1008.0, 0.004416033672016433
1009.0, 0.004545902862766326
1010.0, 0.004653651817385071
1011.0, 0.004691058790374058
1012.0, 0.004634040089883572
1013.0, 0.004475568803180934
1014.0, 0.004371137726241668
1015.0, 0.004441538428392137
1016.0, 0.00428478883234513
1017.0, 0.00423050651722558
1018.0, 0.004217908451540981
1019.0, 0.0041200711680675515
1020.0, 0.00402364507347263
1021.0, 0.004001641094444722
1022.0, 0.004084510888547105
1023.0, 0.004011473717364798
1024.0, 0.003802445255981327
1025.0, 0.003550055516467473
1026.0, 0.0035976376012388403
1027.0, 0.003727702232293531
1028.0, 0.0034888239452369866
1029.0, 0.0031105000370708056
1030.0, 0.003141980933757304
1031.0, 0.003421297335838257
1032.0, 0.0030322681019663575
1033.0, 0.0027768697127261883
1034.0, 0.0026675424412144315
1035.0, 0.0027765510068249377
1036.0, 0.0028921846067068826
1037.0, 0.0029187803632877065
1038.0, 0.0026943857758311702
1039.0, 0.0024233849192368847
1040.0, 0.002594045427227334
1041.0, 0.0025045361617249376
1042.0, 0.002288012075048424
1043.0, 0.0022001241627040507
1044.0, 0.002195104664735677
1045.0, 0.0023088526497023524
1046.0, 0.002336491942025859
1047.0, 0.0020980258803885783
1048.0, 0.0018611827886986549
1049.0, 0.0019857593789839346
1050.0, 0.0019155874322978092
1051.0, 0.0018012013564503641
1052.0, 0.001931412345394042
1053.0, 0.0018230864770995556
1054.0, 0.0016788593290224057
1055.0, 0.00155877507631886
1056.0, 0.0015113494034253243
1057.0, 0.001506883722077806
1058.0, 0.0014404125759312088
1059.0, 0.001475968601165244
1060.0, 0.0016119077666107398
1061.0, 0.0012783916726510352
1062.0, 0.0012828731613247245
1063.0, 0.0013690990093065884
1064.0, 0.001366575127529874
1065.0, 0.0013376986265558426
1066.0, 0.0013503697403070309
1067.0, 0.0013166776956357405
1068.0, 0.0011841970053516314
1069.0, 0.0011759218579362784
1070.0, 0.0010920968448410368
1071.0, 0.0010593939815805387
1072.0, 0.0011296881736063645
1073.0, 0.0010311496842924685
1074.0, 0.0008628141458804072
1075.0, 0.0008139039935164167
1076.0, 0.0008229840865567692
1077.0, 0.0008801567870763356
1078.0, 0.0010855273410773432
1079.0, 0.000893116760925401
1080.0, 0.0009000899926027688
1081.0, 0.000871478023377957
1082.0, 0.001141687552860135
1083.0, 0.0009426249192476522
1084.0, 0.0007577175182364171
1085.0, 0.0006969449580158661
1086.0, 0.0006847081751649597
1087.0, 0.0008876312713631016
1088.0, 0.0009231730993693354
1089.0, 0.0007647885046155924
1090.0, 0.0005769797754997942
1091.0, 0.0007275441829613986
1092.0, 0.000793677135898367
1093.0, 0.0008194615833820551
1094.0, 0.0008883326430874492
1095.0, 0.0009304693544839539
1096.0, 0.0009648167591153265
1097.0, 0.0009737783182205283
1098.0, 0.0008580693053063116
1099.0, 0.001092600408594917
1100.0, 0.0007509363215068194
1101.0, 0.0007237280183856065
1102.0, 0.0006946388095307598
1103.0, 0.0007360524425642413
1104.0, 0.0007539668926482899
1105.0, 0.000567834995067581
1106.0, 0.0005303155963524009
1107.0, 0.0007454739044533194
1108.0, 0.0006316385611324931
1109.0, 0.0005399618518922536
1110.0, 0.00037889853819317776
1111.0, 0.0005790531445496176
1112.0, 0.0005621057398544908
1113.0, 0.0005195429185482866
1114.0, 0.0006014325443505062
1115.0, 0.0006654931318607122
1116.0, 0.0005141894066422998
1117.0, 0.00033908125688012473
1118.0, 0.0004222717512535359
1119.0, 0.00045884184299992814
1120.0, 0.0006155276603184676
1121.0, 0.0006519712742474888
1122.0, 0.000384948115716626
1123.0, 0.0003121858838148602
1124.0, 0.0001278622235418317
1125.0, 0.00020567392633418597
1126.0, 0.0003047664630810912
1127.0, 0.00026812896229896763
1128.0, 0.00033962206717943246
1129.0, 0.00018379213266644568
1130.0, 0.0001945889562758388
1131.0, 0.00022844877392328474
1132.0, 4.7458767332764195e-05
1133.0, 3.40386410301492e-05
1134.0, 0.0001162630714325785
1135.0, 0.00023246543886408
1136.0, 0.0001254070287798312
1137.0, 2.0279161916276384e-05
1138.0, 3.535738333505093e-05
1139.0, 1.120585408117804e-05
1140.0, 0.0002587311277781255
1141.0, 0.00013708441691671016
1142.0, 9.66104163378206e-05
1143.0, 0.00015071859474760936
1144.0, 0.00014593783417784462
1145.0, 0.0001249804308480442
1146.0, 0.00011112398226671966
1147.0, 0.00029421542772726855
1148.0, 0.00030337177054357803
1149.0, 7.490721122376407e-05
1150.0, 0.00013151438536361456
1151.0, 9.68927817926608e-05
1152.0, 0.000137591484370042
1153.0, 0.00017123352192064366
1154.0, 0.00019716596998865297
1155.0, 0.00012033019278843013
1156.0, 5.4698079922917585e-05
1157.0, 0.00016111270995259144
1158.0, 6.66615735388858e-05
1159.0, 6.14850821926574e-05
1160.0, 5.8177607887514396e-05
1161.0, 0.00014494339275429547
1162.0, 2.1940022673276935e-05
1163.0, 2.7273461243243945e-05
1164.0, 3.432871437223316e-05
1165.0, 0.00010365441055801234
1166.0, 4.0946649698948474e-05
1167.0, 3.823791665735716e-05
1168.0, 0.00012956695821162226
1169.0, 0.00017551927100437303
1170.0, 0.00014410954788223327
1171.0, 9.906030063797733e-05
1172.0, 0.00020378347534868072
1173.0, 0.0003407296248780204
1174.0, 0.0003040588210249823
1175.0, 0.00013536985768461112
1176.0, 0.0004980144969532037
1177.0, 0.00043203184530390655
1178.0, 0.00047853109971944725
1179.0, 0.0004538845615848787
1180.0, 0.0003996732586257788
1181.0, 0.000501656304294789
1182.0, 0.0006415222440880456
1183.0, 0.00068758374404574
1184.0, 0.0007059569513654883
1185.0, 0.000706784418796463
1186.0, 0.0007782453711869918
1187.0, 0.0009468538501507763
1188.0, 0.0008034926207166439
1189.0, 0.0009907979860635013
1190.0, 0.0010887208944443346
1191.0, 0.001087014854359718
1192.0, 0.0010285383116320585
1193.0, 0.0011217535058391749
1194.0, 0.001324616463536692
1195.0, 0.0012637798795086053
1196.0, 0.001315442246681329
1197.0, 0.001775511809594627
1198.0, 0.00162192844999567
1199.0, 0.0012840476777847309
1200.0, 0.0014928374761996321
1201.0, 0.0016540916650449205
1202.0, 0.001810617606854039
1203.0, 0.001580161357593094
1204.0, 0.001618754018329344
1205.0, 0.0017701250807268577
1206.0, 0.0017715972665755962
1207.0, 0.0018242043523846356
1208.0, 0.0017416070393931845
1209.0, 0.0015410018490470958
1210.0, 0.001987711660120181
1211.0, 0.002193584561933803
1212.0, 0.002039368102585597
1213.0, 0.0017284783630163102
1214.0, 0.0021954914533058325
1215.0, 0.0020560890863437482
1216.0, 0.001999297604467211
1217.0, 0.002220837414644431
1218.0, 0.002191399796574866
1219.0, 0.002172514432183194
1220.0, 0.0023546202756288665
1221.0, 0.0022686881739072424
1222.0, 0.002175968733001339
1223.0, 0.00229554422337065
1224.0, 0.0022264182454761307
1225.0, 0.0022418553030402496
1226.0, 0.0023254688211217273
1227.0, 0.0020066042453384552
1228.0, 0.002204563116554614
1229.0, 0.0021040710415999365
1230.0, 0.0019502052399386488
1231.0, 0.00207588424544741
1232.0, 0.002044433727359971
1233.0, 0.0019112383368384872
1234.0, 0.0019609558559775656
1235.0, 0.001936740634833129
1236.0, 0.0019246948437222774
1237.0, 0.0016451391016764334
1238.0, 0.0018074020882429772
1239.0, 0.0016748280061220716
1240.0, 0.0017423784864209803
1241.0, 0.0016873137795002293
1242.0, 0.0017985711130131267
1243.0, 0.0017786213030638015
1244.0, 0.0016963909011007896
1245.0, 0.0016820501471663202
1246.0, 0.0015254785615543955
1247.0, 0.0014299404921048805
1248.0, 0.0015166053136465253
1249.0, 0.0015819721366061754
1250.0, 0.0016856939609507728
1251.0, 0.0014251534057767423
1252.0, 0.0013550879471331302
1253.0, 0.001339046264881591
1254.0, 0.001222042349277548
1255.0, 0.001200824105609903
1256.0, 0.0012478995299175309
1257.0, 0.0010232200643046944
1258.0, 0.000985756142070659
1259.0, 0.0011988777788738206
1260.0, 0.0011263837467743183
1261.0, 0.0010742971444264618
1262.0, 0.0010588203242174006
1263.0, 0.000894536349308782
1264.0, 0.000579883261371933
1265.0, 0.0006074175829461827
1266.0, 0.00076856505738024
1267.0, 0.0009124851183545454
1268.0, 0.0007697332028073982
1269.0, 0.0005688891203952806
1270.0, 0.0006702948753565782
1271.0, 0.0006697658288820461
1272.0, 0.00044438554660260893
1273.0, 0.00036704947182840365
1274.0, 0.00032224864469698777
1275.0, 0.00016809783056497492
1276.0, 0.00040053000674035026
1277.0, 0.0003375632071058261
1278.0, 0.00014334599543389085
1279.0, 0.00030589205869727587
1280.0, 0.0002658789959943814
1281.0, 0.00036713280603289033
1282.0, 0.0003260779206265468
1283.0, 0.0003975267763515832
1284.0, 0.0003955874016943974
1285.0, 0.0003046876571492584
1286.0, 0.00017504170930620423
1287.0, 6.781147954192077e-05
1288.0, 2.9191428564948685e-05
1289.0, 9.635820014696058e-05
1290.0, 7.179884915067751e-05
1291.0, 0.00045514639102618417
1292.0, 0.000392948688479232
1293.0, 0.0003222936309027965
1294.0, 0.0004933241272658649
1295.0, 0.00016225446670675638
1296.0, 0.00027948682699026534
1297.0, 0.00020678394192979053
1298.0, 0.0001515177700328186
1299.0, 7.570063039361602e-05
1300.0, 0.00015378902594491322
1301.0, 0.00043014831967382717
1302.0, 0.0004048536433778995
1303.0, 0.00014830703259474266
1304.0, 3.795481390411678e-05
1305.0, 9.735001004569822e-05
1306, 0.0
1307, 0.0
1308, 0.0
1309, 0.0
1310, 0.0
1311, 0.0
1312, 0.0
1313, 0.0
1314, 0.0
1315, 0.0
1316, 0.0
1317, 0.0
1318, 0.0
1319, 0.0
1320, 0.0
1321, 0.0
1322, 0.0
1323, 0.0
1324, 0.0
1325, 0.0
1326, 0.0
1327, 0.0
1328, 0.0
1329, 0.0
1330, 0.0
1331, 0.0
1332, 0.0
1333, 0.0
1334, 0.0
1335, 0.0
1336, 0.0
1337, 0.0
1338, 0.0
1339, 0.0
1340, 0.0
1341, 0.0
1342, 0.0
1343, 0.0
1344, 0.0
1345, 0.0
1346, 0.0
1347, 0.0
1348, 0.0
1349, 0.0
1350, 0.0
1351, 0.0
1352, 0.0
1353, 0.0
1354, 0.0
1355, 0.0
1356, 0.0
1357, 0.0
1358, 0.0
1359, 0.0
1360, 0.0
1361, 0.0
1362, 0.0
1363, 0.0
1364, 0.0
1365, 0.0
1366, 0.0
1367, 0.0
1368, 0.0
1369, 0.0
1370, 0.0
1371, 0.0
1372, 0.0
1373, 0.0
1374, 0.0
1375, 0.0
1376, 0.0
1377, 0.0
1378, 0.0
1379, 0.0
1380, 0.0
1381, 0.0
1382, 0.0
1383, 0.0
1384, 0.0
1385, 0.0
1386, 0.0
1387, 0.0
1388, 0.0
1389, 0.0
1390, 0.0
1391, 0.0
1392, 0.0
1393, 0.0
1394, 0.0
1395, 0.0
1396, 0.0
1397, 0.0
1398, 0.0
1399, 0.0
1400, 0.0
1401, 0.0
1402, 0.0
1403, 0.0
1404, 0.0
1405, 0.0
1406, 0.0
1407, 0.0
1408, 0.0
1409, 0.0
1410, 0.0
1411, 0.0
1412, 0.0
1413, 0.0
1414, 0.0
1415, 0.0
1416, 0.0
1417, 0.0
1418, 0.0
1419, 0.0
1420, 0.0
1421, 0.0
1422, 0.0
1423, 0.0
1424, 0.0
1425, 0.0
1426, 0.0
1427, 0.0
1428, 0.0
1429, 0.0
1430, 0.0
1431, 0.0
1432, 0.0
1433, 0.0
1434, 0.0
1435, 0.0
1436, 0.0
1437, 0.0
1438, 0.0
1439, 0.0
1440, 0.0
1441, 0.0
1442, 0.0
1443, 0.0
1444, 0.0
1445, 0.0
1446, 0.0
1447, 0.0
1448, 0.0
1449, 0.0
1450, 0.0
1451, 0.0
1452, 0.0
1453, 0.0
1454, 0.0
1455, 0.0
1456, 0.0
1457, 0.0
1458, 0.0
1459, 0.0
1460, 0.0
1461, 0.0
1462, 0.0
1463, 0.0
1464, 0.0
1465, 0.0
1466, 0.0
1467, 0.0
1468, 0.0
1469, 0.0
1470, 0.0
1471, 0.0
1472, 0.0
1473, 0.0
1474, 0.0
1475, 0.0
1476, 0.0
1477, 0.0
1478, 0.0
1479, 0.0
1480, 0.0
1481, 0.0
1482, 0.0
1483, 0.0
1484, 0.0
1485, 0.0
1486, 0.0
1487, 0.0
1488, 0.0
1489, 0.0
1490, 0.0
1491, 0.0
1492, 0.0
1493, 0.0
1494, 0.0
1495, 0.0
1496, 0.0
1497, 0.0
1498, 0.0
1499, 0.0
1500, 0.0
1501, 0.0
1502, 0.0
1503, 0.0
1504, 0.0
1505, 0.0
1506, 0.0
1507, 0.0
1508, 0.0
1509, 0.0
1510, 0.0
1511, 0.0
1512, 0.0
1513, 0.0
1514, 0.0
1515, 0.0
1516, 0.0
1517, 0.0
1518, 0.0
1519, 0.0
1520, 0.0
1521, 0.0
1522, 0.0
1523, 0.0
1524, 0.0
1525, 0.0
1526, 0.0
1527, 0.0
1528, 0.0
1529, 0.0
1530, 0.0
1531, 0.0
1532, 0.0
1533, 0.0
1534, 0.0
1535, 0.0
1536, 0.0
1537, 0.0
1538, 0.0
1539, 0.0
1540, 0.0
1541, 0.0
1542, 0.0
1543, 0.0
1544, 0.0
1545, 0.0
1546, 0.0
1547, 0.0
1548, 0.0
1549, 0.0
1550, 0.0
1551, 0.0
1552, 0.0
1553, 0.0
1554, 0.0
1555, 0.0
1556, 0.0
1557, 0.0
1558, 0.0
1559, 0.0
1560, 0.0
1561, 0.0
1562, 0.0
1563, 0.0
1564, 0.0
1565, 0.0
1566, 0.0
1567, 0.0
1568, 0.0
1569, 0.0
1570, 0.0
1571, 0.0
1572, 0.0
1573, 0.0
1574, 0.0
1575, 0.0
1576, 0.0
1577, 0.0
1578, 0.0
1579, 0.0
1580, 0.0
1581, 0.0
1582, 0.0
1583, 0.0
1584, 0.0
1585, 0.0
1586, 0.0
1587, 0.0
1588, 0.0
1589, 0.0
1590, 0.0
1591, 0.0
1592, 0.0
1593, 0.0
1594, 0.0
1595, 0.0
1596, 0.0
1597, 0.0
1598, 0.0
1599, 0.0
