30, 0.0
31, 0.0
32, 0.0
33, 0.0
34, 0.0
35, 0.0
36, 0.0
37, 0.0
38, 0.0
39, 0.0
40, 0.0
41, 0.0
42, 0.0
43, 0.0
44, 0.0
45, 0.0
46, 0.0
47, 0.0
48, 0.0
49, 0.0
50, 0.0
51, 0.0
52, 0.0
53, 0.0
54, 0.0
55, 0.0
56, 0.0
57, 0.0
58, 0.0
59, 0.0
60, 0.0
61, 0.0
62, 0.0
63, 0.0
64, 0.0
65, 0.0
66, 0.0
67, 0.0
68, 0.0
69, 0.0
70, 0.0
71, 0.0
72, 0.0
73, 0.0
74, 0.0
75, 0.0
76, 0.0
77, 0.0
78, 0.0
79, 0.0
80, 0.0
81, 0.0
82, 0.0
83, 0.0
84, 0.0
85, 0.0
86, 0.0
87, 0.0
88, 0.0
89, 0.0
90, 0.0
91, 0.0
92, 0.0
93, 0.0
94, 0.0
95, 0.0
96, 0.0
97, 0.0
98, 0.0
99, 0.0
100, 0.0
101, 0.0
102, 0.0
103, 0.0
104, 0.0
105, 0.0
106, 0.0
107, 0.0
108, 0.0
109, 0.0
110.0, 0.0014780277143882905
111.0, 0.0005037831286065807
112.0, 0.008107670789009161
113.0, 0.010202910956369014
114.0, 0.011441812804061405
115.0, 0.01599663946477475
116.0, 0.015608221098986684
117.0, 0.01362059446538914
118.0, 0.012737525362445608
119.0, 0.014820321878548428
120.0, 0.01982136515505643
121.0, 0.019431251413390385
122.0, 0.020936390285557056
123.0, 0.023240249054398823
124.0, 0.020553696983006027
125.0, 0.019969021163874986
126.0, 0.019936268898738233
127.0, 0.019665050340886312
128.0, 0.0187385119075183
129.0, 0.01729252761298929
130.0, 0.017419354241957948
131.0, 0.015994367372241327
132.0, 0.01074877285179234
133.0, 0.0073847219541288605
134.0, 0.008457877176060238
135.0, 0.009340537438730305
136.0, 0.00995191739036819
137.0, 0.012711820300739708
138.0, 0.01421699511026172
139.0, 0.01384643353605822
140.0, 0.011639994265892408
141.0, 0.010130154634210322
142.0, 0.01162846306235939
143.0, 0.010964935968242199
144.0, 0.009472221091733107
145.0, 0.010523648677172995
146.0, 0.009509627515192201
147.0, 0.00651981551872808
148.0, 0.005932196643017818
149.0, 0.007972299331182304
150.0, 0.006337628830506664
151.0, 0.008835853342036697
152.0, 0.008879621411993598
153.0, 0.007958269643942271
154.0, 0.012980967844072313
155.0, 0.00856104849074243
156.0, 0.002266206120373807
157.0, 0.0005135113182562848
158.0, 0.0007502971746367825
159.0, 0.002113469385126413
160.0, 0.0032879350293162626
161.0, 0.002277465990185086
162.0, 0.0013924248871547088
163.0, 0.0020646258214339556
164.0, 0.004025131613376125
165.0, 0.0026322892319401376
166.0, 0.0010822788808250057
167.0, 0.0018920948217598613
168.0, 0.001490884233531164
169.0, 0.0020570500617697464
170.0, 0.0006941484920364324
171.0, 0.003127369706770758
172.0, 0.0017526004137837063
173.0, 0.0031570528335668974
174.0, 0.003657470282150788
175.0, 0.0003213204758458671
176.0, 0.00396693942353701
177.0, 0.005990317377392287
178.0, 0.00453194498682977
179.0, 0.0012311898944114051
180.0, 0.0020631778030638192
181.0, 0.003060603303636159
182.0, 0.0037078333912233074
183.0, 0.005058471393439171
184.0, 0.007602328373973907
185.0, 0.0065712783597307945
186.0, 0.00694609917074696
187.0, 0.006884166900233228
188.0, 0.004834336041837783
189.0, 0.005703072264486857
190.0, 0.007893790208055387
191.0, 0.006748366845360452
192.0, 0.003392415068620638
193.0, 0.003443486290793126
194.0, 0.004387430130450363
195.0, 0.00592875003027073
196.0, 0.006086331645817286
197.0, 0.0033345247848537087
198.0, 0.0013060533991307976
199.0, 0.002751561201791746
200.0, 0.004835540127762823
201.0, 0.006558386643675727
202.0, 0.010174642208250937
203.0, 0.009749762586159706
204.0, 0.009678139127468633
205.0, 0.011779352556847178
206.0, 0.013994629705096491
207.0, 0.009992492458934944
208.0, 0.011243108197834728
209.0, 0.015497553748367428
210.0, 0.01825882442032694
211.0, 0.018380603013455038
212.0, 0.016269921154177906
213.0, 0.014684417841571507
214.0, 0.015523305505636862
215.0, 0.01901973837214816
216.0, 0.01672043238953641
217.0, 0.017069356383654002
218.0, 0.019107059379796218
219.0, 0.019327175257633
220.0, 0.01636196506077619
221.0, 0.01809218503040142
222.0, 0.019034124029008642
223.0, 0.017200594002988977
224.0, 0.01662981502457845
225.0, 0.01844731544265563
226.0, 0.016349632797026285
227.0, 0.01225642507734543
228.0, 0.009654766285211294
229.0, 0.0072205395004503285
230.0, 0.01011164694396957
231.0, 0.010653011997029916
232.0, 0.008134153671127405
233.0, 0.008452457851149033
234.0, 0.010485504817692098
235.0, 0.010687190570732885
236.0, 0.010617216862275502
237.0, 0.012059559900417417
238.0, 0.012922721463640421
239.0, 0.012423495755176784
240.0, 0.011205693044316184
241.0, 0.010005823284875951
242.0, 0.009053651084215446
243.0, 0.00793832879810539
244.0, 0.0065283862536796205
245.0, 0.0059445034267491025
246.0, 0.006976561921059456
247.0, 0.00931977395586127
248.0, 0.007819018153407468
249.0, 0.005571462501712746
250.0, 0.003071245510658278
251.0, 0.0002815104793010145
252.0, 0.0014953429190809526
253.0, 0.003084063831435765
254.0, 0.002593174948457902
255.0, 0.0012258132196768848
256.0, 0.0030816803208738937
257.0, 0.0011125840477160488
258.0, 0.0005601037216742842
259.0, 0.00044056188558865987
260.0, 0.0012039622439886186
261.0, 0.0018500169869305793
262.0, 0.0006165069077422841
263.0, 0.003730239782549688
264.0, 0.0024824837293744013
265.0, 0.002303796330899222
266.0, 0.0025397837680641495
267.0, 0.001226974555165761
268.0, 0.0023204223296751166
269.0, 0.0009723314474593463
270.0, 0.0007178151904153613
271.0, 0.0029043968445273552
272.0, 0.0008199517741285863
273.0, 0.0009370109839201452
274.0, 0.002953496201817506
275.0, 0.004008398236601141
276.0, 0.0032946217864795483
277.0, 0.0021406310545570703
278.0, 0.001764807524894094
279.0, 0.0028067297452783564
280.0, 0.002156314142410966
281.0, 0.001472125090698328
282.0, 0.003839953877194704
283.0, 0.008029429731214597
284.0, 0.005836794658884582
285.0, 0.00524064707368434
286.0, 0.0052464342292053694
287.0, 0.005461161392691825
288.0, 0.006017542852946903
289.0, 0.004727213701051025
290.0, 0.004837838409135348
291.0, 0.006327651212223052
292.0, 0.007296086336778218
293.0, 0.006265726689670274
294.0, 0.005753899134474866
295.0, 0.004309220946975138
296.0, 0.004741111523739581
297.0, 0.007424861114251871
298.0, 0.00839419805796998
299.0, 0.009757535800681729
300.0, 0.008436171696894151
301.0, 0.005664267274968939
302.0, 0.004693607320502257
303.0, 0.007769418663942002
304.0, 0.009468225952407629
305.0, 0.006160697345281853
306.0, 0.0032957104035948267
307.0, 0.0060583657421804556
308.0, 0.004767721159017338
309.0, 0.004592176073190914
310.0, 0.006131410486403796
311.0, 0.00770843401741473
312.0, 0.007637457377149814
313.0, 0.006848922961424529
314.0, 0.00694288341890511
315.0, 0.00794672955611008
316.0, 0.008951635146582756
317.0, 0.008794455664616863
318.0, 0.008414645709639443
319.0, 0.006478845793101855
320.0, 0.00555629283842348
321.0, 0.006312671100443002
322.0, 0.005129419934899049
323.0, 0.009303998842892285
324.0, 0.009005785277937035
325.0, 0.006050807763970459
326.0, 0.005977499190476985
327.0, 0.007393729767063332
328.0, 0.007545584891316218
329.0, 0.008426149596160747
330.0, 0.008905792184897626
331.0, 0.007224977574051928
332.0, 0.0062129474111903915
333.0, 0.008465467602677969
334.0, 0.007808742515147068
335.0, 0.005770582179371828
336.0, 0.007854772395115707
337.0, 0.006054404719557481
338.0, 0.007659107177841884
339.0, 0.009954839059530768
340.0, 0.010763941738486393
341.0, 0.010616372737528522
342.0, 0.013639619984641744
343.0, 0.014340126954122906
344.0, 0.016499585102649907
345.0, 0.020712449646534847
346.0, 0.020478910917642014
347.0, 0.024209828492163087
348.0, 0.02961765090016946
349.0, 0.032176443773034816
350.0, 0.03242313652824991
351.0, 0.034967736151720566
352.0, 0.03947913484398907
353.0, 0.041313619470935314
354.0, 0.04068255175470579
355.0, 0.03982351575865566
356.0, 0.04103112253740316
357.0, 0.04475004390806049
358.0, 0.043237232865691276
359.0, 0.039162250728011404
360.0, 0.03660674282406091
361.0, 0.036236316045507026
362.0, 0.035073377903177626
363.0, 0.03243396721534321
364.0, 0.03234875460864126
365.0, 0.03468854586474523
366.0, 0.029006351384895393
367.0, 0.027592627961697088
368.0, 0.025788660345961157
369.0, 0.024403044157677023
370.0, 0.024321567861963156
371.0, 0.020857257483774976
372.0, 0.021336305467628946
373.0, 0.01901325846206114
374.0, 0.015293551774888363
375.0, 0.01362789939857182
376.0, 0.011313246164993972
377.0, 0.011551184114490234
378.0, 0.009647047903287534
379.0, 0.008359815992884885
380.0, 0.009377612010487068
381.0, 0.009039228755911637
382.0, 0.010407995831345893
383.0, 0.007620795165437108
384.0, 0.004513510046760522
385.0, 0.003937690664016253
386.0, 0.002995065576061099
387.0, 0.003248009358752167
388.0, 0.0017826735892941224
389.0, 0.0003946798553310434
390.0, 0.00021633103494717
391.0, 0.0013930591038660719
392.0, 0.0005751588872944383
393.0, 0.00029877976170467307
394.0, 0.00026786186969465656
395.0, 0.0009367458729317264
396.0, 0.0005176681881125754
397.0, 0.0014887707202378207
398.0, 0.0020472608979231117
399.0, 0.0008218706208565874
400.0, 0.0021767919604631274
401.0, 0.0005226295603491649
402.0, 0.0009610741420620668
403.0, 0.00033241451807281274
404.0, 0.00035056709791505983
405.0, 0.00061797934564626
406.0, 0.003659628364183807
407.0, 0.0036418277009558245
408.0, 0.0023463580659880915
409.0, 0.0007968403551594637
410.0, 0.0008001553286967678
411.0, 0.0018835282212521602
412.0, 0.0007796373074328079
413.0, 0.003516907617846154
414.0, 0.00452097543436423
415.0, 0.002734109874341835
416.0, 0.00043334485804638883
417.0, 0.00017356003089777122
418.0, 0.002657025749476085
419.0, 0.0025252334553198907
420.0, 0.0036844013787054697
421.0, 0.008235188523830882
422.0, 0.010760875349397
423.0, 0.009858823440899788
424.0, 0.010510657053366252
425.0, 0.010760198433841708
426.0, 0.008913411306856403
427.0, 0.007087022241677369
428.0, 0.009212775360554938
429.0, 0.008981485359947384
430.0, 0.0076439420690772
431.0, 0.0064223260979019625
432.0, 0.005297393497470008
433.0, 0.0077518721995688605
434.0, 0.011341757983632704
435.0, 0.011622048548793798
436.0, 0.009975132892785683
437.0, 0.00930525998500882
438.0, 0.00931676604100451
439.0, 0.00849060066752769
440.0, 0.008904669706124038
441.0, 0.009491683938839571
442.0, 0.00995566135793678
443.0, 0.012222117968516692
444.0, 0.013285744227114968
445.0, 0.014847520053691481
446.0, 0.0165509513078281
447.0, 0.01833264459117671
448.0, 0.020918720427061964
449.0, 0.022020725621888077
450.0, 0.02767821670786149
451.0, 0.030430955381646665
452.0, 0.031210240306630124
453.0, 0.037046753242192816
454.0, 0.04424845106010412
455.0, 0.05141265609654449
456.0, 0.058451940758662044
457.0, 0.06888648906090944
458.0, 0.08024939400598725
459.0, 0.08414143495356127
460.0, 0.09089217715104417
461.0, 0.10191786632177535
462.0, 0.10906468612048006
463.0, 0.11284792676975788
464.0, 0.12165592482762062
465.0, 0.12511803389473447
466.0, 0.13165125184521964
467.0, 0.14244667651904255
468.0, 0.15096284609095756
469.0, 0.15273114176928526
470.0, 0.15436687623853237
471.0, 0.15068042834531445
472.0, 0.13848058402285834
473.0, 0.12114790882455974
474.0, 0.10180953758103868
475.0, 0.0819543545611846
476.0, 0.06210925264967246
477.0, 0.047576486505876314
478.0, 0.04036931063910988
479.0, 0.036764981610061226
480.0, 0.03174560152595008
481.0, 0.02547203170811756
482.0, 0.0248413968793129
483.0, 0.026285556461058564
484.0, 0.025049793282480297
485.0, 0.021630098444623973
486.0, 0.01998034522162822
487.0, 0.020814797144049563
488.0, 0.021656438537796474
489.0, 0.024648088238238143
490.0, 0.026755022422173032
491.0, 0.025266887176147064
492.0, 0.023310741533929123
493.0, 0.029043453661905805
494.0, 0.029551194093023994
495.0, 0.028929975162721503
496.0, 0.03152761890345369
497.0, 0.03451418171958082
498.0, 0.03247901700954456
499.0, 0.031539407472660604
500.0, 0.03169579009425522
501.0, 0.031105683779848972
502.0, 0.030727339291801162
503.0, 0.03449664745167466
504.0, 0.03641490500011316
505.0, 0.03245414682078454
506.0, 0.028260608067264846
507.0, 0.026090702092273793
508.0, 0.02400201202422268
509.0, 0.020597659267813827
510.0, 0.019526604005391402
511.0, 0.018000970246791446
512.0, 0.015951135174185227
513.0, 0.013644417830295928
514.0, 0.01055916417981386
515.0, 0.009114353893977377
516.0, 0.007907688975458372
517.0, 0.005644932146273728
518.0, 0.002419250311913474
519.0, 0.0008562168550935105
520.0, 0.003860863705300295
521.0, 0.0020953956153828618
522.0, 0.0018852320284439108
523.0, 0.001868905178396132
524.0, 0.0008618647865565966
525.0, 0.003343976619756134
526.0, 0.0009620918501959225
527.0, 0.002171277511697369
528.0, 0.003827153456796474
529.0, 0.0022027878527675604
530.0, 0.0020047678227460477
531.0, 0.0005946040919314291
532.0, 0.00030556164647687636
533.0, 0.0006762824872691804
534.0, 0.0006061071759341885
535.0, 0.0009568816121002522
536.0, 0.0001810995254313363
537.0, 0.0004253725924908948
538.0, 0.00034102438106920976
539.0, 0.002203857784846783
540.0, 0.0029636938084848666
541.0, 0.0020800976032870552
542.0, 0.001348217545709728
543.0, 0.0023793598966762785
544.0, 0.0024794414771666154
545.0, 0.0014840664352175998
546.0, 0.0008505847951186979
547.0, 0.0008136179165028405
548.0, 0.0007333676436975575
549.0, 0.0015964275307219127
550.0, 0.0017603722843086368
551.0, 0.0006877929751652726
552.0, 0.0013909435941099942
553.0, 0.0030705082164869278
554.0, 0.002239786089744568
555.0, 0.0002702365157904239
556.0, 0.0013028389979426783
557.0, 0.00017801211573060036
558.0, 0.0006965771129369032
559.0, 0.00046194128784595096
560.0, 0.0018369209803793035
561.0, 0.0018997853850024804
562.0, 0.0023529012719385465
563.0, 0.001010152213189151
564.0, 0.0007368459397196283
565.0, 0.003795474757822309
566.0, 0.004597212669852769
567.0, 0.001410538233171089
568.0, 0.0012868172366698484
569.0, 0.0024695690600069742
570.0, 0.00164422053715731
571.0, 0.0015268780356548707
572.0, 0.001489980359181713
573.0, 0.00043324628058732484
574.0, 0.002128301531865219
575.0, 0.0022323358769910694
576.0, 0.0015701627118945962
577.0, 0.0019375345282381337
578.0, 0.00032050467963484915
579.0, 0.0005204531941530044
580.0, 0.002943329967179005
581.0, 0.004080145236518336
582.0, 0.005508691768529315
583.0, 0.007555483147703727
584.0, 0.008090083520425513
585.0, 0.007584506887387861
586.0, 0.0048732936883837995
587.0, 0.004919510635650605
588.0, 0.006054926777894488
589.0, 0.006469408865391192
590.0, 0.007073275700334267
591.0, 0.006462651547902446
592.0, 0.006377282319209917
593.0, 0.008624542687959138
594.0, 0.009604558800400217
595.0, 0.009507057543898056
596.0, 0.011699678647541905
597.0, 0.011371854581278802
598.0, 0.01188348417501881
599.0, 0.012240000932701509
600.0, 0.012495115036460147
601.0, 0.013411270281932878
602.0, 0.015596774833519301
603.0, 0.018377011492981307
604.0, 0.018688959379145643
605.0, 0.02035609772622812
606.0, 0.019514864165827876
607.0, 0.018391899070688486
608.0, 0.020063269890554836
609.0, 0.018040959824560967
610.0, 0.01893124782767871
611.0, 0.018860674756215157
612.0, 0.022992278077355315
613.0, 0.025797305332693032
614.0, 0.022798973449167613
615.0, 0.02479307501097313
616.0, 0.03201693948175364
617.0, 0.03594677042986071
618.0, 0.040287270983178164
619.0, 0.04949673749116665
620.0, 0.06076628798202436
621.0, 0.06890449159164287
622.0, 0.08263329821955175
623.0, 0.09055759680235963
624.0, 0.09919223281046281
625.0, 0.10429252889310726
626.0, 0.10809353736563493
627.0, 0.11853376708955175
628.0, 0.13161742221618403
629.0, 0.1439225909532111
630.0, 0.15386869468829498
631.0, 0.16229030849217238
632.0, 0.17292966671624624
633.0, 0.18542373055949427
634.0, 0.1933083406477041
635.0, 0.18933201385734855
636.0, 0.17321618854378568
637.0, 0.14659932227504616
638.0, 0.11298233278918804
639.0, 0.08092954280563565
640.0, 0.05802138180062776
641.0, 0.0393089288348884
642.0, 0.026817029729659256
643.0, 0.021814306586635704
644.0, 0.018981178852668007
645.0, 0.015881702199541922
646.0, 0.012765358956875202
647.0, 0.009421186100646708
648.0, 0.010310717798768368
649.0, 0.010119179912084303
650.0, 0.009062310991989649
651.0, 0.00847020641825856
652.0, 0.007799459839999373
653.0, 0.00649915605903772
654.0, 0.00555731151241978
655.0, 0.006114754715751842
656.0, 0.007881641363565638
657.0, 0.009035613225090144
658.0, 0.00936497789659596
659.0, 0.009720691264488629
660.0, 0.009501361613519027
661.0, 0.006632150864795364
662.0, 0.0075764379629362725
663.0, 0.006856374126730547
664.0, 0.006205301859488081
665.0, 0.006281978993251933
666.0, 0.005513356915245945
667.0, 0.005750729275514015
668.0, 0.0053575634854554615
669.0, 0.006355894452254428
670.0, 0.0070136050187348375
671.0, 0.005832667295844208
672.0, 0.003736438449063987
673.0, 0.0022947892792766172
674.0, 0.0016290397655934331
675.0, 0.005323662265184226
676.0, 0.004375640908827029
677.0, 0.0033966410262559004
678.0, 0.004863352559252947
679.0, 0.005489864102381639
680.0, 0.0035263961988724157
681.0, 0.0010276408818659815
682.0, 0.001336737226459146
683.0, 0.0037773626144059686
684.0, 0.0039480938388757455
685.0, 0.0019593816576877606
686.0, 0.0017387589573360682
687.0, 0.001621607877619003
688.0, 0.0004709461348166648
689.0, 0.0005723958958310677
690.0, 0.003004887991179267
691.0, 0.00359419914837483
692.0, 0.002514149869428609
693.0, 0.0029460803930919477
694.0, 0.0013382554617524908
695.0, 0.0001729249389789182
696.0, 0.0002890072482316728
697.0, 0.0005320244336793325
698.0, 0.0010588076990348616
699.0, 0.0025900106099677727
700.0, 0.0004360121621455494
701.0, 9.891181682911283e-05
702.0, 0.0004626860437325418
703.0, 0.0010358155144827837
704.0, 0.0011789164735176681
705.0, 0.0016362494278977888
706.0, 0.0029133566325914035
707.0, 0.0009049688325371599
708.0, 0.000647271611557317
709.0, 0.0015880256627494782
710.0, 0.000604440960988619
711.0, 0.0003736486994521021
712.0, 0.0002750251026391215
713.0, 0.00044750470142364946
714.0, 0.0018891081815185576
715.0, 0.0016794099127403308
716.0, 0.0013430418533419788
717.0, 0.0012195827676788342
718.0, 0.0006457162033292592
719.0, 0.0027968001614580534
720.0, 0.004229571608038268
721.0, 0.003625699593882426
722.0, 0.001261395620989352
723.0, 0.0016800572942697435
724.0, 0.0023059690784529123
725.0, 0.003225137730723334
726.0, 0.003837661161422036
727.0, 0.003232568210436322
728.0, 0.003115654665724091
729.0, 0.005557617123567907
730.0, 0.004975196652409359
731.0, 0.004086175672708798
732.0, 0.00403108864546436
733.0, 0.004749344553867101
734.0, 0.004480948734286532
735.0, 0.0022031867338758427
736.0, 0.003060077282561484
737.0, 0.0036989333679071537
738.0, 0.004130618136398923
739.0, 0.002948998184053952
740.0, 0.002302911066658917
741.0, 0.002901518076764743
742.0, 0.003374205907646651
743.0, 0.004851721067199881
744.0, 0.003071825746302622
745.0, 0.003205664196276365
746.0, 0.0024848289621464703
747.0, 0.003033508121942715
748.0, 0.003784787476910808
749.0, 0.002459909973969406
750.0, 0.002857479166114896
751.0, 0.0038670506782426317
752.0, 0.0048662709820942235
753.0, 0.005211772460842839
754.0, 0.0037096076282851385
755.0, 0.0037918113966471257
756.0, 0.004778353014778183
757.0, 0.0026708274113951564
758.0, 0.004802027454952333
759.0, 0.0018151764111481853
760.0, 0.0018203474715201198
761.0, 0.003583135406261614
762.0, 0.003479846622657201
763.0, 0.0032902787453370865
764.0, 0.0035393383658962113
765.0, 0.0010125740911906902
766.0, 0.0029226916201226787
767.0, 0.003933696986337834
768.0, 0.0035372354273860438
769.0, 0.00144757321719235
770.0, 0.0015324547745782012
771.0, 0.0033682355374033243
772.0, 0.0028478684033164093
773.0, 0.0033447005981352795
774.0, 0.0059977482046655135
775.0, 0.0040919493218709415
776.0, 0.003332588123238778
777.0, 0.0031184826036643504
778.0, 0.00205427676816776
779.0, 0.0015076333489370984
780.0, 0.00036687949434665836
781.0, 0.0024436515440725485
782.0, 0.004184734127647655
783.0, 0.0034620837447491438
784.0, 0.000985904852459427
785.0, 0.0006204987231389688
786.0, 0.00207807596604305
787.0, 0.0014544396525353323
788.0, 0.002334114569523352
789.0, 0.003963378376889477
790.0, 0.0028878026508172517
791.0, 0.002048979066874887
792.0, 0.0014915214515003848
793.0, 0.0003490125975240072
794.0, 0.0005042929429101664
795.0, 0.0006922762275874989
796.0, 0.0006267971635277365
797.0, 0.003273170640376774
798.0, 0.002961743800032928
799.0, 0.0015569612182120838
800.0, 0.0017165516671581893
801.0, 0.0016796752618995798
802.0, 0.0013986700591208856
803.0, 0.003967718032977461
804.0, 0.005516817461813736
805.0, 0.00555408054086552
806.0, 0.007711552911226727
807.0, 0.006437245576178444
808.0, 0.008235139219101531
809.0, 0.009655377110401554
810.0, 0.00737299605320475
811.0, 0.012732864689032859
812.0, 0.0122500198847092
813.0, 0.008403785127543598
814.0, 0.007549730615152842
815.0, 0.0057377837951300215
816.0, 0.0030823969348318762
817.0, 0.0029141831193055406
818.0, 0.004138100809696702
819.0, 0.003293828898905361
820.0, 0.00264626715158594
821.0, 0.003100152032207095
822.0, 0.0016898065738001084
823.0, 0.0029827463271627536
824.0, 0.007466182863129736
825.0, 0.007228578948972526
826.0, 0.00277927786274211
827.0, 0.003371715882687621
828.0, 0.004190269482875782
829.0, 0.0012520918567429852
830.0, 0.0025012779038713303
831.0, 0.002731901637258772
832.0, 0.0021031897416209934
833.0, 0.0025534087306843195
834.0, 0.00278571100182542
835.0, 0.0013173494808026683
836.0, 0.0004970991047727533
837.0, 0.0024470873427535197
838.0, 0.002707169342888039
839.0, 0.0023842234881470995
840.0, 0.0055714306092443195
841.0, 0.007465125927378815
842.0, 0.005901467330328599
843.0, 0.007074863399358474
844.0, 0.009553944299869763
845.0, 0.011965007864274672
846.0, 0.012598424057139155
847.0, 0.016715975863743147
848.0, 0.023594479134887585
849.0, 0.025014197141923725
850.0, 0.02770166080599011
851.0, 0.03551665311025143
852.0, 0.0382086139967759
853.0, 0.040743221211942605
854.0, 0.04709769638845154
855.0, 0.04857487891779661
856.0, 0.04929921669917441
857.0, 0.048116835936529705
858.0, 0.047926993933949974
859.0, 0.04756069942111255
860.0, 0.04395054139323974
861.0, 0.0432438920370036
862.0, 0.032605203541028006
863.0, 0.03004454063517991
864.0, 0.024461551374800234
865.0, 0.020884979378633085
866.0, 0.018069031518059206
867.0, 0.01592023384899258
868.0, 0.015375741844713325
869.0, 0.012934412445953308
870.0, 0.010197802593891782
871.0, 0.00906718576886969
872.0, 0.009001597092102418
873.0, 0.00743014161280501
874.0, 0.00824576029900478
875.0, 0.006307148503157687
876.0, 0.003613230155208581
877.0, 0.004601390686873436
878.0, 0.004754867831748171
879.0, 0.003665764391549632
880.0, 0.0017217719744686978
881.0, 0.003749771472492736
882.0, 0.004007780536201763
883.0, 0.0028153083894665995
884.0, 0.002646615531969042
885.0, 0.0018871772837119397
886.0, 0.00079030559805533
887.0, 0.0006385225094679426
888.0, 0.002611538557337749
889.0, 0.0017065981550092207
890.0, 0.0020287398589350883
891.0, 0.002940485825573501
892.0, 0.0013196229020001424
893.0, 0.0001929938502819199
894.0, 3.562750885191845e-05
895.0, 0.00011913872879593365
896.0, 0.00012855468726202468
897.0, 0.0004151734483940011
898.0, 0.0013561881810538925
899.0, 0.000500014096723184
900.0, 0.0007312169187829712
901.0, 0.00019326643377275016
902.0, 0.0008417615315066598
903.0, 0.0011194486385257476
904.0, 0.0004986797437901636
905.0, 0.0027777016228066106
906.0, 0.0014591175395228025
907.0, 0.0014303925387766621
908.0, 0.0007624451537731887
909.0, 0.0008276050266405883
910.0, 0.002179922769234681
911.0, 0.004454530951968335
912.0, 0.004012084791517403
913.0, 0.0031687964391727465
914.0, 0.0009881308899279521
915.0, 0.001717188957246712
916.0, 0.002542284717417535
917.0, 0.003942911328737428
918.0, 0.0021019695627594827
919.0, 0.0019791356028089546
920.0, 0.0010962747121379332
921.0, 7.584288071955055e-05
922.0, 1.9247796268431322e-05
923.0, 0.0003851725245837363
924.0, 0.001396745696942098
925.0, 0.0010610564246020361
926.0, 0.0009586168234205574
927.0, 0.0003844781478964048
928.0, 0.001227785379857887
929.0, 0.0012620830918644759
930.0, 0.0036818376426218033
931.0, 0.0021981192240668333
932.0, 0.00014707176724698817
933.0, 0.000774932195981418
934.0, 6.23324644582126e-05
935.0, 0.0006144484436481095
936.0, 0.002410141419793928
937.0, 0.0026264021809286743
938.0, 0.0020427120910153714
939.0, 0.001741625943358658
940.0, 0.002113061320573509
941.0, 0.0013641102220012466
942.0, 0.0009956155131443985
943.0, 0.0017733919166520356
944.0, 0.0010493520851988887
945.0, 0.0006898171999222917
946.0, 0.0005252513087022886
947.0, 0.0016793210613498622
948.0, 0.0014390428391313258
949.0, 0.00025483945860337373
950.0, 0.00021017045975995507
951.0, 0.0008497472493613927
952.0, 0.0022540853751667443
953.0, 0.003656378060505955
954.0, 0.0020568956482519616
955.0, 0.0028632472324830248
956.0, 0.003626693134904275
957.0, 0.003383023260335094
958.0, 0.0032409262833986933
959.0, 0.0038443161536388794
960.0, 0.0033590307881303082
961.0, 0.003090540510945627
962.0, 0.004447692525639548
963.0, 0.005501906048952628
964.0, 0.005129692000662123
965.0, 0.004468489523899009
966.0, 0.0037612252593768394
967.0, 0.007895426909274847
968.0, 0.006450675413249336
969.0, 0.007094736354237199
970.0, 0.008041826029549563
971.0, 0.007764624447175437
972.0, 0.008829177355954579
973.0, 0.011146062764301265
974.0, 0.01201519103513577
975.0, 0.012938371030850016
976.0, 0.018426106209822414
977.0, 0.02193048469981978
978.0, 0.026611325170239567
979.0, 0.03204422689754013
980.0, 0.038298945025873804
981.0, 0.046825135380957214
982.0, 0.05532520656609281
983.0, 0.0631612801477985
984.0, 0.07409139814789574
985.0, 0.09031067907598549
986.0, 0.11382559753083678
987.0, 0.15054015169150425
988.0, 0.19833252308934732
989.0, 0.2711513173998934
990.0, 0.36625077042670845
991.0, 0.4873415317733494
992.0, 0.6350637610097332
993.0, 0.7921064441884864
994.0, 0.9157109558200258
995.0, 0.9757435802807808
996.0, 0.9981768416605015
997.0, 0.9906834955759534
998.0, 0.931738841354256
999.0, 0.8208559760401599
1000.0, 0.7002325207833804
1001.0, 0.5990732633329688
1002.0, 0.5297697177544491
1003.0, 0.49444580532345955
1004.0, 0.4623166301089213
1005.0, 0.39349178004594193
1006.0, 0.2918999431284321
1007.0, 0.19823358042800407
1008.0, 0.1333412528415554
1009.0, 0.09609378291123359
1010.0, 0.07210644226635679
1011.0, 0.05822434329166961
1012.0, 0.04571949951492782
1013.0, 0.03859325247160356
1014.0, 0.03354461618594538
1015.0, 0.028794633300383562
1016.0, 0.027065075074018202
1017.0, 0.025643683460228182
1018.0, 0.021968246314399507
1019.0, 0.02153318225912881
1020.0, 0.018723270649386448
1021.0, 0.016065030654631583
1022.0, 0.018490486818095037
1023.0, 0.018181517652720174
1024.0, 0.01789142293841964
1025.0, 0.016649419603178315
1026.0, 0.01410884629320348
1027.0, 0.014162043902030297
1028.0, 0.016271191201260533
1029.0, 0.015931767173073375
1030.0, 0.013147292062458531
1031.0, 0.010527229275083832
1032.0, 0.01115724236143336
1033.0, 0.010986455103340958
1034.0, 0.012403529613645985
1035.0, 0.012751774738509476
1036.0, 0.011250860217173607
1037.0, 0.01055636126336438
1038.0, 0.009910036114608502
1039.0, 0.00876886906250559
1040.0, 0.008586853535711791
1041.0, 0.009509821004852854
1042.0, 0.010596463904784682
1043.0, 0.011678137464659722
1044.0, 0.0067507750257511
1045.0, 0.0069447975942157495
1046.0, 0.006210181672463174
1047.0, 0.003985679618545288
1048.0, 0.005796626039305664
1049.0, 0.004469195122892656
1050.0, 0.004166768109977688
1051.0, 0.005584221152909312
1052.0, 0.005581582493062788
1053.0, 0.005086439627638856
1054.0, 0.005085897063729378
1055.0, 0.005821709658585776
1056.0, 0.004523180642707677
1057.0, 0.0022253794161037946
1058.0, 0.006828499013549764
1059.0, 0.004817399370111481
1060.0, 0.004438693626030545
1061.0, 0.00423846494778239
1062.0, 0.0015130453505351202
1063.0, 0.0010462770880724837
1064.0, 0.0002949488145963295
1065.0, 0.0006477224075114914
1066.0, 0.0011820091981570142
1067.0, 0.00220667514443956
1068.0, 0.0008260524198750941
1069.0, 0.0010588652720487533
1070.0, 0.0006569464477955609
1071.0, 0.0009783279329874366
1072.0, 0.0013568159893985617
1073.0, 0.000530399344260011
1074.0, 0.0036817131373850084
1075.0, 0.004339270299198395
1076.0, 0.0012168671809168418
1077.0, 0.0008392734310650085
1078.0, 0.0010274587727002568
1079.0, 0.00013127485878163903
1080.0, 0.001017362152107557
1081.0, 0.00011403621175890103
1082.0, 0.0009944321819897978
1083.0, 0.000906865359389421
1084.0, 0.002204477501687712
1085.0, 0.0025882929083603005
1086.0, 0.0036646857376931453
1087.0, 0.004197355040496109
1088.0, 0.003346842975312805
1089.0, 0.006786114007508859
1090.0, 0.009781453224175448
1091.0, 0.010156783700597522
1092.0, 0.01138971406178776
1093.0, 0.01404572991521701
1094.0, 0.016733238020797243
1095.0, 0.01735178008714219
1096.0, 0.02230276925773483
1097.0, 0.025539621406876056
1098.0, 0.031230584169737487
1099.0, 0.036675910074906226
1100.0, 0.039322859384261485
1101.0, 0.04483620087486913
1102.0, 0.045502497644993777
1103.0, 0.043597267777019416
1104.0, 0.04271160824637064
1105.0, 0.039996726520888495
1106.0, 0.03591071878321767
1107.0, 0.035077260630630616
1108.0, 0.03676686983278049
1109.0, 0.0361930273356705
1110.0, 0.03607141392179343
1111.0, 0.040093498241933485
1112.0, 0.03631902411245799
1113.0, 0.03806961705661931
1114.0, 0.0390312507257609
1115.0, 0.04082090692425638
1116.0, 0.040951914544544776
1117.0, 0.04051785395837404
1118.0, 0.041106560067731196
1119.0, 0.04446923973406412
1120.0, 0.04993275333657757
1121.0, 0.053747304850945934
1122.0, 0.058568803312030696
1123.0, 0.07090875708621068
1124.0, 0.08212963233523725
1125.0, 0.09383168666632742
1126.0, 0.10425263556524135
1127.0, 0.1156222141983073
1128.0, 0.12491951561031506
1129.0, 0.11974258944432713
1130.0, 0.1039216663257044
1131.0, 0.0860761792244321
1132.0, 0.06913668811575562
1133.0, 0.05620266894704373
1134.0, 0.04668177388872119
1135.0, 0.03890334480024558
1136.0, 0.031699978384959596
1137.0, 0.025949981462368103
1138.0, 0.022808444267181406
1139.0, 0.019345674120906133
1140.0, 0.018663730031067544
1141.0, 0.017219218141826996
1142.0, 0.012784758177675758
1143.0, 0.015663279286841997
1144.0, 0.014543073958447025
1145.0, 0.013396293947605003
1146.0, 0.012742934786619331
1147.0, 0.010258637859541191
1148.0, 0.009900792005727235
1149.0, 0.008556675922342457
1150.0, 0.010003058318527457
1151.0, 0.01227065402305367
1152.0, 0.011822266125766959
1153.0, 0.011595161119869551
1154.0, 0.012833000051626891
1155.0, 0.013713057477107955
1156.0, 0.011999868604908981
1157.0, 0.009371524265640667
1158.0, 0.008637531669450044
1159.0, 0.009544557759146016
1160.0, 0.012243306442629612
1161.0, 0.0077036613303316966
1162.0, 0.009026448956818348
1163.0, 0.009163372747937035
1164.0, 0.011227955324328773
1165.0, 0.013155335442477678
1166.0, 0.016389706227343953
1167.0, 0.019852359429944195
1168.0, 0.02257292158114784
1169.0, 0.02365073294643995
1170.0, 0.02059462906366896
1171.0, 0.016493046690186957
1172.0, 0.013686797347587631
1173.0, 0.009115155633694817
1174.0, 0.0059804624989106886
1175.0, 0.006441263059965539
1176.0, 0.007465652756109411
1177.0, 0.009232812511088706
1178.0, 0.006568639511003737
1179.0, 0.004826938632116122
1180.0, 0.004530073988450923
1181.0, 0.007165421027235587
1182.0, 0.008735375113770946
1183.0, 0.005225114889923726
1184.0, 0.002464888568199754
1185.0, 0.0023959418511113693
1186.0, 0.003918844932226993
1187.0, 0.005201526721413963
1188.0, 0.0057418595149133856
1189.0, 0.006393040194095161
1190.0, 0.006201486289950361
1191.0, 0.004409515318988176
1192.0, 0.0029854168856887223
1193.0, 0.0027160199640895552
1194.0, 0.0014861564304503166
1195.0, 0.002161995391535448
1196.0, 0.00022762281617409746
1197.0, 0.0005457643657514873
1198.0, 0.0006921327653491682
1199.0, 0.002847626667166213
1200.0, 0.0015459430837503857
1201.0, 0.0033005882029854385
1202.0, 0.00231530381398675
1203.0, 0.0016333075340633596
1204.0, 0.002255558410945001
1205.0, 0.0021342539692932832
1206.0, 0.0007196134487626065
1207.0, 0.001496365126586067
1208.0, 0.001982023231939604
1209.0, 0.0036753570338614316
1210.0, 0.0002767837940733038
1211.0, 0.0010838386419137354
1212.0, 0.00024719367463451247
1213.0, 0.0003305201157050486
1214.0, 0.0009626379183033105
1215.0, 0.0006290904514630538
1216.0, 0.0005425909573310682
1217.0, 0.0005480803080440221
1218.0, 0.000573904503867861
1219.0, 0.00036405701950183693
1220.0, 0.0009067874878823252
1221.0, 0.0009589921716974399
1222.0, 0.0010946256890150873
1223.0, 0.002140624614308798
1224.0, 0.0027375335728377598
1225.0, 0.004029996096880078
1226.0, 0.003293748088467475
1227.0, 0.0018881623794532048
1228.0, 0.0037495079348147864
1229.0, 0.0034138144873289327
1230.0, 0.0011584848155633048
1231.0, 0.0014934273438459913
1232.0, 0.0019541069296205565
1233.0, 0.003307809315113593
1234.0, 0.0022381949088289637
1235.0, 0.003374321026477931
1236.0, 0.004723146761985865
1237.0, 0.0050636875997189116
1238.0, 0.0038525850743515704
1239.0, 0.004516261548534143
1240.0, 0.004900207962258545
1241.0, 0.004574923920765321
1242.0, 0.002767783268759042
1243.0, 0.0029456935451875905
1244.0, 0.004871756361999397
1245.0, 0.004262028098619376
1246.0, 0.004260881747487034
1247.0, 0.0025696776344847913
1248.0, 0.0009866113145109037
1249.0, 0.001740065467365746
1250.0, 0.004510191473734773
1251.0, 0.004523554215903716
1252.0, 0.002527542446472967
1253.0, 0.0013286753544636397
1254.0, 0.0009570547710221363
1255.0, 0.003316287736075564
1256.0, 0.0038956701787279165
1257.0, 0.0011645774360590857
1258.0, 0.0022208854691535673
1259.0, 0.00254578071203219
1260.0, 0.00045616994127380275
1261.0, 0.0008780211674983714
1262.0, 0.0008546167119230502
1263.0, 0.004312108711799745
1264.0, 0.0027326714595682085
1265.0, 0.0015253083238747425
1266.0, 0.0003653741191404936
1267.0, 0.0023885640819705546
1268.0, 0.0029842661100518623
1269.0, 0.002260061114319255
1270.0, 0.0016200622408742817
1271.0, 0.0051868216611153945
1272.0, 0.005916862247634677
1273.0, 0.006765278241597032
1274.0, 0.003241912454735362
1275.0, 0.0010155002678290518
1276.0, 0.002611901796033055
1277.0, 0.0021347752082281498
1278.0, 0.003541044749552631
1279.0, 0.0033729704734290857
1280.0, 0.001219266665460336
1281.0, 0.0010836401056378137
1282.0, 0.0007970988467251489
1283.0, 0.00026093769405893276
1284, 0.0
1285, 0.0
1286, 0.0
1287, 0.0
1288, 0.0
1289, 0.0
1290, 0.0
1291, 0.0
1292, 0.0
1293, 0.0
1294, 0.0
1295, 0.0
1296, 0.0
1297, 0.0
1298, 0.0
1299, 0.0
1300, 0.0
1301, 0.0
1302, 0.0
1303, 0.0
1304, 0.0
1305, 0.0
1306, 0.0
1307, 0.0
1308, 0.0
1309, 0.0
1310, 0.0
1311, 0.0
1312, 0.0
1313, 0.0
1314, 0.0
1315, 0.0
1316, 0.0
1317, 0.0
1318, 0.0
1319, 0.0
1320, 0.0
1321, 0.0
1322, 0.0
1323, 0.0
1324, 0.0
1325, 0.0
1326, 0.0
1327, 0.0
1328, 0.0
1329, 0.0
1330, 0.0
1331, 0.0
1332, 0.0
1333, 0.0
1334, 0.0
1335, 0.0
1336, 0.0
1337, 0.0
1338, 0.0
1339, 0.0
1340, 0.0
1341, 0.0
1342, 0.0
1343, 0.0
1344, 0.0
1345, 0.0
1346, 0.0
1347, 0.0
1348, 0.0
1349, 0.0
1350, 0.0
1351, 0.0
1352, 0.0
1353, 0.0
1354, 0.0
1355, 0.0
1356, 0.0
1357, 0.0
1358, 0.0
1359, 0.0
1360, 0.0
1361, 0.0
1362, 0.0
1363, 0.0
1364, 0.0
1365, 0.0
1366, 0.0
1367, 0.0
1368, 0.0
1369, 0.0
1370, 0.0
1371, 0.0
1372, 0.0
1373, 0.0
1374, 0.0
1375, 0.0
1376, 0.0
1377, 0.0
1378, 0.0
1379, 0.0
1380, 0.0
1381, 0.0
1382, 0.0
1383, 0.0
1384, 0.0
1385, 0.0
1386, 0.0
1387, 0.0
1388, 0.0
1389, 0.0
1390, 0.0
1391, 0.0
1392, 0.0
1393, 0.0
1394, 0.0
1395, 0.0
1396, 0.0
1397, 0.0
1398, 0.0
1399, 0.0
1400, 0.0
1401, 0.0
1402, 0.0
1403, 0.0
1404, 0.0
1405, 0.0
1406, 0.0
1407, 0.0
1408, 0.0
1409, 0.0
1410, 0.0
1411, 0.0
1412, 0.0
1413, 0.0
1414, 0.0
1415, 0.0
1416, 0.0
1417, 0.0
1418, 0.0
1419, 0.0
1420, 0.0
1421, 0.0
1422, 0.0
1423, 0.0
1424, 0.0
1425, 0.0
1426, 0.0
1427, 0.0
1428, 0.0
1429, 0.0
1430, 0.0
1431, 0.0
1432, 0.0
1433, 0.0
1434, 0.0
1435, 0.0
1436, 0.0
1437, 0.0
1438, 0.0
1439, 0.0
1440, 0.0
1441, 0.0
1442, 0.0
1443, 0.0
1444, 0.0
1445, 0.0
1446, 0.0
1447, 0.0
1448, 0.0
1449, 0.0
1450, 0.0
1451, 0.0
1452, 0.0
1453, 0.0
1454, 0.0
1455, 0.0
1456, 0.0
1457, 0.0
1458, 0.0
1459, 0.0
1460, 0.0
1461, 0.0
1462, 0.0
1463, 0.0
1464, 0.0
1465, 0.0
1466, 0.0
1467, 0.0
1468, 0.0
1469, 0.0
1470, 0.0
1471, 0.0
1472, 0.0
1473, 0.0
1474, 0.0
1475, 0.0
1476, 0.0
1477, 0.0
1478, 0.0
1479, 0.0
1480, 0.0
1481, 0.0
1482, 0.0
1483, 0.0
1484, 0.0
1485, 0.0
1486, 0.0
1487, 0.0
1488, 0.0
1489, 0.0
1490, 0.0
1491, 0.0
1492, 0.0
1493, 0.0
1494, 0.0
1495, 0.0
1496, 0.0
1497, 0.0
1498, 0.0
1499, 0.0
1500, 0.0
1501, 0.0
1502, 0.0
1503, 0.0
1504, 0.0
1505, 0.0
1506, 0.0
1507, 0.0
1508, 0.0
1509, 0.0
1510, 0.0
1511, 0.0
1512, 0.0
1513, 0.0
1514, 0.0
1515, 0.0
1516, 0.0
1517, 0.0
1518, 0.0
1519, 0.0
1520, 0.0
1521, 0.0
1522, 0.0
1523, 0.0
1524, 0.0
1525, 0.0
1526, 0.0
1527, 0.0
1528, 0.0
1529, 0.0
1530, 0.0
1531, 0.0
1532, 0.0
1533, 0.0
1534, 0.0
1535, 0.0
1536, 0.0
1537, 0.0
1538, 0.0
1539, 0.0
1540, 0.0
1541, 0.0
1542, 0.0
1543, 0.0
1544, 0.0
1545, 0.0
1546, 0.0
1547, 0.0
1548, 0.0
1549, 0.0
1550, 0.0
1551, 0.0
1552, 0.0
1553, 0.0
1554, 0.0
1555, 0.0
1556, 0.0
1557, 0.0
1558, 0.0
1559, 0.0
1560, 0.0
1561, 0.0
1562, 0.0
1563, 0.0
1564, 0.0
1565, 0.0
1566, 0.0
1567, 0.0
1568, 0.0
1569, 0.0
1570, 0.0
1571, 0.0
1572, 0.0
1573, 0.0
1574, 0.0
1575, 0.0
1576, 0.0
1577, 0.0
1578, 0.0
1579, 0.0
1580, 0.0
1581, 0.0
1582, 0.0
1583, 0.0
1584, 0.0
1585, 0.0
1586, 0.0
1587, 0.0
1588, 0.0
1589, 0.0
1590, 0.0
1591, 0.0
1592, 0.0
1593, 0.0
1594, 0.0
1595, 0.0
1596, 0.0
1597, 0.0
1598, 0.0
1599, 0.0
