30, 0.0
31, 0.0
32, 0.0
33, 0.0
34, 0.0
35, 0.0
36, 0.0
37, 0.0
38, 0.0
39, 0.0
40, 0.0
41, 0.0
42, 0.0
43, 0.0
44, 0.0
45, 0.0
46, 0.0
47, 0.0
48, 0.0
49, 0.0
50, 0.0
51, 0.0
52, 0.0
53, 0.0
54, 0.0
55, 0.0
56, 0.0
57, 0.0
58, 0.0
59, 0.0
60, 0.0
61, 0.0
62, 0.0
63, 0.0
64, 0.0
65, 0.0
66, 0.0
67, 0.0
68, 0.0
69, 0.0
70, 0.0
71, 0.0
72, 0.0
73, 0.0
74, 0.0
75, 0.0
76, 0.0
77, 0.0
78, 0.0
79, 0.0
80, 0.0
81, 0.0
82, 0.0
83, 0.0
84, 0.0
85, 0.0
86, 0.0
87, 0.0
88, 0.0
89, 0.0
90, 0.0
91, 0.0
92, 0.0
93, 0.0
94, 0.0
95, 0.0
96, 0.0
97, 0.0
98, 0.0
99, 0.0
100, 0.0
101, 0.0
102, 0.0
103, 0.0
104, 0.0
105, 0.0
106, 0.0
107, 0.0
108, 0.0
109, 0.0
110, 0.0
111, 0.0
112, 0.0
113, 0.0
114, 0.0
115, 0.0
116, 0.0
117, 0.0
118, 0.0
119, 0.0
120, 0.0
121, 0.0
122, 0.0
123, 0.0
124, 0.0
125, 0.0
126, 0.0
127, 0.0
128, 0.0
129, 0.0
130, 0.0
131, 0.0
132, 0.0
133, 0.0
134, 0.0
135, 0.0
136, 0.0
137, 0.0
138, 0.0
139, 0.0
140, 0.0
141, 0.0
142, 0.0
143, 0.0
144, 0.0
145, 0.0
146, 0.0
147, 0.0
148, 0.0
149, 0.0
150, 0.0
151, 0.0
152.0, 0.0016190454584919503
153.0, 0.002571690846204553
154.0, 0.005385653199882528
155.0, 0.004570043644418966
156.0, 0.0009176252883051001
157.0, 0.0022674399260971066
158.0, 0.003985263982633537
159.0, 0.0042545850749531235
160.0, 0.0057153178872844206
161.0, 0.010740763424219585
162.0, 0.0134056940997399
163.0, 0.016072835900480205
164.0, 0.01808152354899786
165.0, 0.016536097321959067
166.0, 0.018887719903565133
167.0, 0.02211597632808393
168.0, 0.023045333257105
169.0, 0.021592529441047864
170.0, 0.02720104149702786
171.0, 0.028797341007297115
172.0, 0.02906301485645214
173.0, 0.03145578238294757
174.0, 0.030960643740268027
175.0, 0.02880331032179027
176.0, 0.030265692129999265
177.0, 0.03413315247851346
178.0, 0.0330690122230112
179.0, 0.02975668756947056
180.0, 0.029392824493185202
181.0, 0.03128132196685884
182.0, 0.032127280322788006
183.0, 0.03530418176033425
184.0, 0.035568271853742256
185.0, 0.03564280827366935
186.0, 0.03783829666460794
187.0, 0.03606294091111985
188.0, 0.03614587515812075
189.0, 0.03700327682716771
190.0, 0.035535022542515775
191.0, 0.03048615762741513
192.0, 0.02845277736559785
193.0, 0.027330093224174696
194.0, 0.025744454059191804
195.0, 0.023995434471148703
196.0, 0.020125344136551537
197.0, 0.0199145977082086
198.0, 0.020458339095144763
199.0, 0.01888228613596185
200.0, 0.019214672344999788
201.0, 0.018350030103062666
202.0, 0.015090645521665318
203.0, 0.011739371731613133
204.0, 0.012800404904411344
205.0, 0.012401274741678174
206.0, 0.011040132094642493
207.0, 0.01052895981082303
208.0, 0.011464037540434903
209.0, 0.010600550427181773
210.0, 0.008361107054317191
211.0, 0.007281773836706577
212.0, 0.008518980489551945
213.0, 0.00902036383787672
214.0, 0.008477640249894348
215.0, 0.006463326819136341
216.0, 0.004259639285684576
217.0, 0.0045322340414094804
218.0, 0.0053165343774832915
219.0, 0.004484991811507359
220.0, 0.0043545098637188355
221.0, 0.0061216011156358646
222.0, 0.0010525654363817603
223.0, 0.002207731602269987
224.0, 0.004542287572849446
225.0, 0.004435109784258343
226.0, 0.004453623124918853
227.0, 0.0016523030547393757
228.0, 0.001359765972518146
229.0, 0.0020907631870833872
230.0, 0.00029807832486289636
231.0, 0.0007062789753039163
232.0, 0.002164229846037043
233.0, 0.002099040780958933
234.0, 0.00042420851149754335
235.0, 0.0007077764129164332
236.0, 0.000464224675320178
237.0, 0.0020091182000763095
238.0, 0.0023978743198784934
239.0, 0.0010059550535285887
240.0, 0.0008778466851240592
241.0, 0.0005271968972377955
242.0, 0.0014882408090381009
243.0, 0.0005384027895118516
244.0, 0.00011092327834976192
245.0, 6.978092912773532e-05
246.0, 0.0015988990918126644
247.0, 0.0033358217862424337
248.0, 0.0010613232093986185
249.0, 0.001320526430283499
250.0, 0.0015288191383282476
251.0, 0.0017528510124462113
252.0, 0.0028186921839387534
253.0, 0.004481821187866676
254.0, 0.002440823872056116
255.0, 0.0015406705538803292
256.0, 0.0020343880861716946
257.0, 0.0007760211644142503
258.0, 0.002995238494860766
259.0, 0.001073492688884505
260.0, 0.002610569118554917
261.0, 0.001865171288181837
262.0, 0.002090558788822979
263.0, 0.002102822091669821
264.0, 0.0017545780480823375
265.0, 0.0009154114914831297
266.0, 0.00030172146610243493
267.0, 0.002969254418825496
268.0, 0.005621754739484655
269.0, 0.006293848964916967
270.0, 0.0062157065837218735
271.0, 0.008390949785596359
272.0, 0.011337630126090452
273.0, 0.010285944878407184
274.0, 0.008361577186991985
275.0, 0.012001613977786573
276.0, 0.012863989418790403
277.0, 0.015057037185794375
278.0, 0.017103279617278203
279.0, 0.01706287491477115
280.0, 0.015284690183600048
281.0, 0.01369981918987709
282.0, 0.014820908541117846
283.0, 0.017240007750796326
284.0, 0.01723488417146365
285.0, 0.015005502533458424
286.0, 0.011001933779241963
287.0, 0.007780534342294776
288.0, 0.006782030125071419
289.0, 0.007348531697432284
290.0, 0.008148575363207877
291.0, 0.004566557555436726
292.0, 0.0002647100966606188
293.0, 0.0005801304583272935
294.0, 0.002013689126440901
295.0, 0.0023281775807901836
296.0, 0.002941760519704112
297.0, 0.0036211773316872373
298.0, 0.0013024983313307571
299.0, 0.0016121398424832531
300.0, 0.0034327032306493534
301.0, 0.00489467669815391
302.0, 0.006093634844090744
303.0, 0.009366880989439668
304.0, 0.009449597401131944
305.0, 0.009745854010256735
306.0, 0.010682675663884826
307.0, 0.011748807780767397
308.0, 0.016696141294517238
309.0, 0.018034417596401692
310.0, 0.01802085003374013
311.0, 0.018808208431838405
312.0, 0.019687335535132005
313.0, 0.024244931528779566
314.0, 0.025581038473415176
315.0, 0.023896369211854944
316.0, 0.02276847246038751
317.0, 0.027203564716434134
318.0, 0.027043912922513208
319.0, 0.025088588825215433
320.0, 0.02339867126107275
321.0, 0.02193033001962884
322.0, 0.016953568269151426
323.0, 0.016225579059860235
324.0, 0.01422594622237977
325.0, 0.00904146031420147
326.0, 0.006202992421123377
327.0, 0.008894439333271392
328.0, 0.009057999820416518
329.0, 0.0065982363159979565
330.0, 0.004470997767593063
331.0, 0.006295981279124348
332.0, 0.007573820537447273
333.0, 0.004040733144312226
334.0, 0.0016450860196502923
335.0, 0.0058117428871399665
336.0, 0.0013664202411880714
337.0, 0.001240747950328403
338.0, 0.0018594502783074597
339.0, 0.00034442349799908105
340.0, 0.0013109322779701268
341.0, 0.0004635892736685557
342.0, 0.00010046097998985596
343.0, 0.0003827581718866806
344.0, 0.0014548585587985919
345.0, 0.003624513552873957
346.0, 0.0013296670983018507
347.0, 0.001197562545730851
348.0, 0.0017938081101808695
349.0, 0.000955811821288878
350.0, 0.002984310298389944
351.0, 0.00275543506139554
352.0, 0.00292880101958581
353.0, 0.002076378092980554
354.0, 0.001193866194682147
355.0, 0.0009948343566761385
356.0, 0.002444329589335451
357.0, 0.0036084981937487127
358.0, 0.004609125865988012
359.0, 0.004385657354902469
360.0, 0.004350491692877855
361.0, 0.0036370801382858108
362.0, 0.0030505936812623437
363.0, 0.0036763391504624665
364.0, 0.005338975276687649
365.0, 0.00465398296809559
366.0, 0.007561077874714675
367.0, 0.009215770044566493
368.0, 0.006665148411126448
369.0, 0.0035485413462529067
370.0, 0.007227629874065564
371.0, 0.008952702773717926
372.0, 0.00760849926931472
373.0, 0.006572585755310449
374.0, 0.008803357068193724
375.0, 0.011334595048802127
376.0, 0.012922334749075481
377.0, 0.012263388296553336
378.0, 0.009832868409829516
379.0, 0.010924375914527903
380.0, 0.012243234379138998
381.0, 0.012733246566835173
382.0, 0.013523558898754008
383.0, 0.01543342592273061
384.0, 0.01525612689181997
385.0, 0.013014020581457076
386.0, 0.011760681654831608
387.0, 0.01328131712698067
388.0, 0.01708153701908541
389.0, 0.02017113935846677
390.0, 0.020741465863883972
391.0, 0.019778752774143964
392.0, 0.019667034848405793
393.0, 0.02211871447403065
394.0, 0.025430941997133315
395.0, 0.02401486281740811
396.0, 0.024668031608426167
397.0, 0.027856429501236173
398.0, 0.023528565236153702
399.0, 0.02245769617733499
400.0, 0.01937364936719626
401.0, 0.014716063081774759
402.0, 0.011458776523161898
403.0, 0.012827392966449379
404.0, 0.010139715284959404
405.0, 0.010142604534719163
406.0, 0.00951354138888826
407.0, 0.005378820042840263
408.0, 0.00390630278330226
409.0, 0.006514120935228899
410.0, 0.005646084462532534
411.0, 0.00406371289144449
412.0, 0.004384938621093266
413.0, 0.0017194450636826527
414.0, 0.0028085952786858596
415.0, 0.0030678047919470044
416.0, 0.0031232348744738266
417.0, 0.0043625957496950685
418.0, 0.004238370658818836
419.0, 0.004651361530592399
420.0, 0.002231965956521728
421.0, 0.0010219014604247259
422.0, 0.0026804461151404176
423.0, 0.0007661586433438235
424.0, 0.0007052393322081697
425.0, 0.001504959543224368
426.0, 0.0020877154525195197
427.0, 0.002732425022859707
428.0, 0.0012881768182838199
429.0, 0.001599944954994817
430.0, 0.003834611440686133
431.0, 0.00307929041292179
432.0, 0.0029290814594847294
433.0, 0.0065533603822087744
434.0, 0.005551851874573418
435.0, 0.004641923056153047
436.0, 0.006169406131653683
437.0, 0.008413599867691081
438.0, 0.0077449841333193615
439.0, 0.008972855538860871
440.0, 0.009328005520133227
441.0, 0.009869693268436541
442.0, 0.010614003769575477
443.0, 0.008753927538121401
444.0, 0.015411303996599608
445.0, 0.01752343324422557
446.0, 0.014888096886749198
447.0, 0.013254596261532359
448.0, 0.015871475532849816
449.0, 0.01739227890294853
450.0, 0.01787937034940683
451.0, 0.018334747676873733
452.0, 0.01938690239141064
453.0, 0.020883916140371554
454.0, 0.02059777263186026
455.0, 0.020991140222567345
456.0, 0.023127394946364142
457.0, 0.024402234624086475
458.0, 0.021978377784440308
459.0, 0.02517159040052073
460.0, 0.0225575868970975
461.0, 0.019033291470592656
462.0, 0.018561969141409472
463.0, 0.01804150585181814
464.0, 0.016157866237177614
465.0, 0.016496456724119406
466.0, 0.015760525901012484
467.0, 0.013891290138585564
468.0, 0.013447544972218136
469.0, 0.01403352607314921
470.0, 0.011486360372362297
471.0, 0.009691494508647418
472.0, 0.010322640091267375
473.0, 0.010432398554020894
474.0, 0.007259036143120296
475.0, 0.00690479692600659
476.0, 0.007896624145667249
477.0, 0.007679548489748802
478.0, 0.006036934871303542
479.0, 0.005705515794320639
480.0, 0.0056397409250693465
481.0, 0.006650904272354833
482.0, 0.005456731515086937
483.0, 0.0011464418459082595
484.0, 0.001813112029951857
485.0, 0.0018634204998715677
486.0, 0.001097818341981241
487.0, 0.0006364027371647648
488.0, 0.00046503611019728234
489.0, 0.0020758070874704617
490.0, 0.0022010538593633363
491.0, 0.0017834739817140653
492.0, 0.0036375905710816767
493.0, 0.0020823624629586956
494.0, 0.000856416058435011
495.0, 0.0006538649031362045
496.0, 0.001106396065911946
497.0, 0.0025870638333285447
498.0, 0.004266756157053371
499.0, 0.00031670892778850744
500.0, 0.0027239701312475805
501.0, 0.0037687488202823513
502.0, 0.0028208613459899472
503.0, 0.002032940525956196
504.0, 0.0015759635866758471
505.0, 0.0009393946925163809
506.0, 0.001622329584576144
507.0, 0.0009458302003323456
508.0, 0.0009327887058346935
509.0, 0.0008499064940273343
510.0, 0.0009165083373644468
511.0, 0.0040423458526581595
512.0, 0.0035119431690118887
513.0, 0.0017489706079936648
514.0, 0.0022687241673750454
515.0, 0.0041898621906134555
516.0, 0.0028123559564722936
517.0, 0.003551393681678283
518.0, 0.006010269989015511
519.0, 0.008068390519752684
520.0, 0.008111547621196875
521.0, 0.005896843961049681
522.0, 0.010072166790424017
523.0, 0.010853991149242747
524.0, 0.011862723734513452
525.0, 0.014757531698328686
526.0, 0.013287204902216387
527.0, 0.013247493487093573
528.0, 0.014456149934444796
529.0, 0.013217274603275818
530.0, 0.011796655077856428
531.0, 0.012942611521099988
532.0, 0.009197963221356608
533.0, 0.011532468326162169
534.0, 0.009677247318969039
535.0, 0.00858860298417353
536.0, 0.013137602009530252
537.0, 0.01397925362632553
538.0, 0.010655860868036793
539.0, 0.0095691454559632
540.0, 0.011041314986749665
541.0, 0.011251191645008384
542.0, 0.008579789254600853
543.0, 0.009378034682481134
544.0, 0.006485027990466359
545.0, 0.00817970678849133
546.0, 0.010464414605308565
547.0, 0.007629111237671706
548.0, 0.009008197272021599
549.0, 0.007967802767708428
550.0, 0.004346740567613214
551.0, 0.0044774212689794686
552.0, 0.009108432831951811
553.0, 0.010647819901418122
554.0, 0.008334488133637685
555.0, 0.008600911281954256
556.0, 0.011565861434133046
557.0, 0.012890784515358062
558.0, 0.010455271428311963
559.0, 0.01001389866246442
560.0, 0.01387348181083352
561.0, 0.013584708354321464
562.0, 0.01065269437787429
563.0, 0.009380665174644578
564.0, 0.011622546872395325
565.0, 0.012583204814155825
566.0, 0.011116259664491835
567.0, 0.0135196011038972
568.0, 0.015389620184526876
569.0, 0.011860814102515759
570.0, 0.011403362775941709
571.0, 0.012649125043636193
572.0, 0.012949840943288412
573.0, 0.012420568165733718
574.0, 0.011183321598170839
575.0, 0.009192642037603319
576.0, 0.013931859892999138
577.0, 0.01044235519919772
578.0, 0.013057559937064258
579.0, 0.015998409393475358
580.0, 0.012380961592848704
581.0, 0.016216673555750655
582.0, 0.015434065461276169
583.0, 0.01507948442080229
584.0, 0.01585180883366055
585.0, 0.01502637634937157
586.0, 0.012307027030578295
587.0, 0.014937415097597695
588.0, 0.012903697846053299
589.0, 0.012513166517508674
590.0, 0.01448784292226405
591.0, 0.01671708999033601
592.0, 0.0167186265568183
593.0, 0.013602987771032157
594.0, 0.01625697015593248
595.0, 0.019349413689294347
596.0, 0.021307149688440687
597.0, 0.022384242043842605
598.0, 0.017579010885935314
599.0, 0.017991158284929587
600.0, 0.016713982282914194
601.0, 0.016267177289214972
602.0, 0.018608969062306094
603.0, 0.021896252035983364
604.0, 0.02194171696316656
605.0, 0.02205186357245204
606.0, 0.021145370689868714
607.0, 0.019788419631492717
608.0, 0.01938327607227952
609.0, 0.020050801971564624
610.0, 0.02120162736675555
611.0, 0.020403083396656325
612.0, 0.019397932658774975
613.0, 0.019346924089327894
614.0, 0.020237501316792254
615.0, 0.02171607425834756
616.0, 0.025424784665557653
617.0, 0.022916712922150844
618.0, 0.02130977037518873
619.0, 0.021538981303287026
620.0, 0.019558830656259026
621.0, 0.020068122396165934
622.0, 0.021514749599344102
623.0, 0.02035841290680767
624.0, 0.022307204891790187
625.0, 0.025001301843322866
626.0, 0.021750663761733232
627.0, 0.02341160256348611
628.0, 0.01743816588926346
629.0, 0.018156049415848457
630.0, 0.020107134201641737
631.0, 0.018004767283476546
632.0, 0.01877132754952203
633.0, 0.02456305381019728
634.0, 0.020902986724923533
635.0, 0.018228163488028526
636.0, 0.017843297974758785
637.0, 0.01802964072997994
638.0, 0.021344408823298102
639.0, 0.01981214659491239
640.0, 0.015790980821285293
641.0, 0.015757265755001727
642.0, 0.01912475607945102
643.0, 0.021530954033118797
644.0, 0.02105310046246847
645.0, 0.02272424659673923
646.0, 0.01854553993415981
647.0, 0.017694880304793575
648.0, 0.020470686037103388
649.0, 0.020689858222367158
650.0, 0.019601103108037473
651.0, 0.02138464024580163
652.0, 0.014633099285040058
653.0, 0.01563660495320521
654.0, 0.02074111993914705
655.0, 0.018315403423622954
656.0, 0.0192356518265464
657.0, 0.017787635718738037
658.0, 0.01627399938343727
659.0, 0.014496843095105783
660.0, 0.012847405734284445
661.0, 0.012977289324561055
662.0, 0.014984662727293999
663.0, 0.014911315808269371
664.0, 0.01346268429794797
665.0, 0.013303682925793614
666.0, 0.012846262729979113
667.0, 0.010412118645351336
668.0, 0.010309793932761326
669.0, 0.011462737612856516
670.0, 0.010661523984125974
671.0, 0.01256629515509097
672.0, 0.013694025003752632
673.0, 0.010170433622600882
674.0, 0.010184036258311558
675.0, 0.010220441854832917
676.0, 0.00698567286962965
677.0, 0.00579437664388281
678.0, 0.007150347397165134
679.0, 0.008172982678738174
680.0, 0.00854963352955721
681.0, 0.00829339964502259
682.0, 0.010025937216409542
683.0, 0.009972084203689875
684.0, 0.009144578162110806
685.0, 0.009558797226002478
686.0, 0.007751629075939962
687.0, 0.0075348464855718505
688.0, 0.007511311658169648
689.0, 0.00776782912754038
690.0, 0.006011966239066595
691.0, 0.0032626426245156957
692.0, 0.004898286427616989
693.0, 0.0063659518272056355
694.0, 0.006031845584745781
695.0, 0.002602414136416912
696.0, 0.0033097488945752
697.0, 0.0074763835399636516
698.0, 0.0033206806886841014
699.0, 0.006758203009493034
700.0, 0.008556810636593259
701.0, 0.009866269674744738
702.0, 0.009325079668858554
703.0, 0.0070030503754112475
704.0, 0.006191352232138378
705.0, 0.005700401588598128
706.0, 0.008026802411633015
707.0, 0.008945362294185636
708.0, 0.009700038819154442
709.0, 0.012153239269525329
710.0, 0.01409470416823823
711.0, 0.010016084934699023
712.0, 0.011252316480763344
713.0, 0.010792596141583096
714.0, 0.008849794946261771
715.0, 0.006308915424938913
716.0, 0.005410517288319588
717.0, 0.01021192201078878
718.0, 0.0021106462128237472
719.0, 0.0026190551595227556
720.0, 0.0005245891273974156
721.0, 0.0015476697280677276
722.0, 0.0004409001595829346
723.0, 0.00032087364946741805
724.0, 0.004600423579166997
725.0, 0.0014554612544269226
726.0, 0.000477389594962778
727.0, 0.0009576293598239981
728.0, 0.0013665816376739622
729.0, 0.00039770295006063926
730.0, 0.0031916620411899677
731.0, 0.0011342660267387827
732.0, 0.00212676567469244
733.0, 0.0003077220236925042
734.0, 0.003696113444605656
735.0, 0.0040885495069926045
736.0, 0.003115221455570568
737.0, 0.0021215497038846198
738.0, 0.0007818002875459606
739.0, 0.0006423597201567751
740.0, 0.001305443970756016
741.0, 0.0037727012345215058
742.0, 0.005756325960316311
743.0, 0.0034701696098100835
744.0, 0.0022585829975796294
745.0, 0.0006419568649615756
746.0, 0.002508018929668681
747.0, 0.0035553739462513647
748.0, 0.0002560038865699599
749.0, 0.0002413810089314304
750.0, 0.0027374500843442605
751.0, 0.001725782207390721
752.0, 0.004472511816913787
753.0, 0.0015677623330241424
754.0, 0.0021502844159831114
755.0, 0.0007185239820480604
756.0, 0.0006010797722592329
757.0, 0.002267852845874495
758.0, 0.0037664732306896347
759.0, 0.004996147579271191
760.0, 0.006453755361249028
761.0, 0.007420077118571356
762.0, 0.0059758031177220014
763.0, 0.00731144462441434
764.0, 0.010910639325568634
765.0, 0.013893794400704537
766.0, 0.014778727720264758
767.0, 0.014841584428217322
768.0, 0.01654395595144835
769.0, 0.017070548417654895
770.0, 0.01709812565734506
771.0, 0.02259764700466178
772.0, 0.02763821799962574
773.0, 0.028612409256647826
774.0, 0.029117650121799465
775.0, 0.03347789893526273
776.0, 0.03833758607885344
777.0, 0.04045368721638714
778.0, 0.04690904266368324
779.0, 0.05367246015695116
780.0, 0.05672846449035554
781.0, 0.06084597386607404
782.0, 0.06988673392995493
783.0, 0.07546757686442146
784.0, 0.08478834010110146
785.0, 0.09144676751438008
786.0, 0.09528512675510097
787.0, 0.10300570753849517
788.0, 0.1158849732214658
789.0, 0.12719248838017502
790.0, 0.1399383189637561
791.0, 0.15448649120983166
792.0, 0.16673161460035388
793.0, 0.18062887355670593
794.0, 0.20076005763486557
795.0, 0.2197661721922486
796.0, 0.24100890576083678
797.0, 0.26613597976056663
798.0, 0.29478051578624664
799.0, 0.32279597628838863
800.0, 0.35246403410972404
801.0, 0.388363949764643
802.0, 0.42314537593490065
803.0, 0.46566090661202303
804.0, 0.5098011026660948
805.0, 0.5557554860607284
806.0, 0.6069701911300425
807.0, 0.6594590385119654
808.0, 0.7080018121692373
809.0, 0.7635682573238012
810.0, 0.8143362704941094
811.0, 0.85700919245713
812.0, 0.8976057758731513
813.0, 0.9348206640472464
814.0, 0.9613124828130716
815.0, 0.9765189720310005
816.0, 0.9981170336490424
817.0, 0.9962546452277481
818.0, 0.9840943136343755
819.0, 0.9599047192158556
820.0, 0.9128381211674959
821.0, 0.8436863323996868
822.0, 0.769189587521363
823.0, 0.6897183675769912
824.0, 0.5984750435005339
825.0, 0.5112358427748218
826.0, 0.4294360640614455
827.0, 0.3578662266784634
828.0, 0.29902439633439437
829.0, 0.24924087801548733
830.0, 0.2130902178660772
831.0, 0.17816939849270166
832.0, 0.15049306755052108
833.0, 0.13023277091546442
834.0, 0.1139620067377807
835.0, 0.09961547399672238
836.0, 0.0873506133054169
837.0, 0.07718022672066646
838.0, 0.06699006157649397
839.0, 0.06131529693202796
840.0, 0.05553326831901708
841.0, 0.04945162803917977
842.0, 0.04416871525772338
843.0, 0.03705369275991053
844.0, 0.02742052790423656
845.0, 0.02383723287761501
846.0, 0.01894156782367307
847.0, 0.013216660345431298
848.0, 0.011928260013767594
849.0, 0.011600495429122445
850.0, 0.004930830296789834
851.0, 0.002470515157102252
852.0, 0.0009822102745051537
853.0, 0.0009604155057853817
854.0, 0.00397230259782503
855.0, 0.001568297473704213
856.0, 0.0025270850478171353
857.0, 0.0013606732794399028
858.0, 0.0005408807766703541
859.0, 0.0012946756273693322
860.0, 0.0003499290033549009
861.0, 0.0005600290664905844
862.0, 0.0015210271801629335
863.0, 0.0017948029583936163
864.0, 0.00027848223632035785
865.0, 0.0002984967094819631
866.0, 0.001484387995404957
867.0, 0.00569059034673409
868.0, 0.0038388094612321383
869.0, 0.004671235640167733
870.0, 0.0090969734963676
871.0, 0.010496179423446213
872.0, 0.007987688926461546
873.0, 0.011799942672145737
874.0, 0.014104278511065379
875.0, 0.01526731330379588
876.0, 0.01853083892838455
877.0, 0.020132085873035235
878.0, 0.019905797369409707
879.0, 0.02268735202739765
880.0, 0.02665326005046416
881.0, 0.027517963692848514
882.0, 0.028661364964918095
883.0, 0.03049646904903142
884.0, 0.03387283463046415
885.0, 0.036238566352192025
886.0, 0.03689343279558567
887.0, 0.040290614445883645
888.0, 0.041648053108546336
889.0, 0.04888101297313219
890.0, 0.0489652234983204
891.0, 0.048168154819235094
892.0, 0.05062203070554592
893.0, 0.05204482239796942
894.0, 0.050952606755713226
895.0, 0.049155688701571894
896.0, 0.04927463358867236
897.0, 0.050267871655580075
898.0, 0.05078451973734809
899.0, 0.051533492562872985
900.0, 0.05009585668109874
901.0, 0.045460902638561576
902.0, 0.04364260230337591
903.0, 0.04568398682194334
904.0, 0.04192272357404534
905.0, 0.04053709997858505
906.0, 0.03855953743155422
907.0, 0.03719232316607175
908.0, 0.0361726005099947
909.0, 0.032195715066725056
910.0, 0.029026050885563176
911.0, 0.026671764318201608
912.0, 0.028836344358462537
913.0, 0.02673755306117318
914.0, 0.02254249745115755
915.0, 0.017722889622633024
916.0, 0.014110358389517352
917.0, 0.014042090215989846
918.0, 0.00932910338563969
919.0, 0.008094771554662218
920.0, 0.005454107293256875
921.0, 0.004705280336515096
922.0, 0.003864790618573844
923.0, 0.0037766592532433867
924.0, 0.0046919024076807125
925.0, 0.0019347713243697666
926.0, 0.0024444956720350414
927.0, 0.0009470951562267562
928.0, 0.0007265410205177022
929.0, 0.0005284446372586644
930.0, 0.0004807466761322046
931.0, 0.0007829381415951424
932.0, 0.0005450922584702804
933.0, 0.0016386191037207486
934.0, 0.0015067491212418284
935.0, 0.00422539880574221
936.0, 0.0029497413150582482
937.0, 0.003916519517016477
938.0, 0.0020846012191354387
939.0, 0.0012783568536318777
940.0, 0.0012440333637565308
941.0, 0.002722408965512636
942.0, 0.0005061269716575699
943.0, 0.00020891781074912678
944.0, 0.0019530813269140195
945.0, 0.0008547977477016413
946.0, 0.003567823850339813
947.0, 0.0034580415140249778
948.0, 0.00042611664550711975
949.0, 0.0032365774380271528
950.0, 0.0001152550836737966
951.0, 0.000862077861661221
952.0, 0.0013202414046989722
953.0, 0.0007413929262400829
954.0, 0.0007790803816165727
955.0, 0.003243787767398217
956.0, 0.002680783357883536
957.0, 0.0005338162039975634
958.0, 0.0018482157211516378
959.0, 0.003964520929089037
960.0, 0.006118976797924204
961.0, 0.007873468827167
962.0, 0.009861391820682937
963.0, 0.010764724025992337
964.0, 0.010795493049217599
965.0, 0.01376061053342071
966.0, 0.01716141334355134
967.0, 0.0204956996839575
968.0, 0.019879074107338027
969.0, 0.021448776506453084
970.0, 0.024962891216037245
971.0, 0.028073779389317637
972.0, 0.03050548287088343
973.0, 0.031624670741189784
974.0, 0.029232852209821854
975.0, 0.026943244386439354
976.0, 0.02674341861574787
977.0, 0.03187857703888141
978.0, 0.030063107434284534
979.0, 0.02512310384836665
980.0, 0.02599180018985545
981.0, 0.02831568496730328
982.0, 0.024031081627211025
983.0, 0.025749183331753328
984.0, 0.029284020805616085
985.0, 0.029524909524300688
986.0, 0.026032609578720944
987.0, 0.02566871083520541
988.0, 0.02705307748073493
989.0, 0.02569224776929138
990.0, 0.025786400038691107
991.0, 0.02638655430515085
992.0, 0.026238017782269203
993.0, 0.02455102798123781
994.0, 0.02470771958540478
995.0, 0.022972511054125233
996.0, 0.022110345281845037
997.0, 0.02306557583437536
998.0, 0.02142787404341527
999.0, 0.020694248464555823
1000.0, 0.015839184292359164
1001.0, 0.016570543536524013
1002.0, 0.013175545093249806
1003.0, 0.010949059023837877
1004.0, 0.009872774463501646
1005.0, 0.006412874265269893
1006.0, 0.0046700895587378066
1007.0, 0.0089238760894286
1008.0, 0.004177221879474214
1009.0, 0.0021670102077503187
1010.0, 0.002644002961032774
1011.0, 0.004133437471531218
1012.0, 0.0015076065331943687
1013.0, 0.0012045160682537792
1014.0, 0.002341781967276394
1015.0, 0.0006691739192739138
1016.0, 0.0009358994908135832
1017.0, 0.001944404855482201
1018.0, 0.007739159307206759
1019.0, 0.008477051405002519
1020.0, 0.005642459908277544
1021.0, 0.002434228698657735
1022.0, 0.0034586905268929337
1023.0, 0.006847778661250895
1024.0, 0.00787384776344026
1025.0, 0.010246014248061918
1026.0, 0.009942090511245302
1027.0, 0.008513970593281439
1028.0, 0.0118326152136518
1029.0, 0.009525393559491223
1030.0, 0.012954456462588158
1031.0, 0.01599895686643313
1032.0, 0.013320507150059646
1033.0, 0.014181115131035113
1034.0, 0.013968586206252557
1035.0, 0.01614309768344183
1036.0, 0.015066686770908309
1037.0, 0.015319731863658608
1038.0, 0.01439442943598026
1039.0, 0.014672785047671787
1040.0, 0.013240402330272584
1041.0, 0.010493768339207723
1042.0, 0.010760466737767775
1043.0, 0.0099586931268011
1044.0, 0.010237207403029367
1045.0, 0.01142668941073541
1046.0, 0.010601785420312692
1047.0, 0.006808461474126846
1048.0, 0.005068748824194882
1049.0, 0.006369004678434059
1050.0, 0.007091899758669127
1051.0, 0.0054119622796282825
1052.0, 0.0045926793669845735
1053.0, 0.00917900700592967
1054.0, 0.005446460096931253
1055.0, 0.0028144607696998698
1056.0, 0.005736013379302245
1057.0, 0.006680375449470779
1058.0, 0.006841845116235107
1059.0, 0.008149213776324786
1060.0, 0.009489552822380953
1061.0, 0.012138608636321322
1062.0, 0.012712675975494305
1063.0, 0.009609192262467961
1064.0, 0.006305063579874223
1065.0, 0.008585498901397908
1066.0, 0.007023544426469894
1067.0, 0.0036093240466398614
1068.0, 0.0024254182499174634
1069.0, 0.002641409322259892
1070.0, 0.002591883906579616
1071.0, 0.001326419223229473
1072.0, 0.003268733669637837
1073.0, 0.0012645864867789638
1074.0, 0.004743130547567585
1075.0, 0.007175769673953418
1076.0, 0.009856182502753639
1077.0, 0.012939916558627779
1078.0, 0.01669650225777756
1079.0, 0.023942735614652592
1080.0, 0.03139027100729254
1081.0, 0.038072673532307644
1082.0, 0.0447184943794534
1083.0, 0.05144913404642336
1084.0, 0.05777229538768648
1085.0, 0.0621205281118938
1086.0, 0.07017915798225885
1087.0, 0.06715095108625076
1088.0, 0.0498564058903887
1089.0, 0.034933702093444104
1090.0, 0.021309225283584695
1091.0, 0.013689833240360548
1092.0, 0.007512520358182181
1093.0, 0.00634827828048221
1094.0, 0.0037037848054609
1095.0, 0.0005099403254550108
1096.0, 0.0024609603992628414
1097.0, 0.00292413607349843
1098.0, 0.0005699080993338782
1099.0, 0.002357787296782701
1100.0, 0.0013774558624332603
1101.0, 0.004919747987652797
1102.0, 0.002941296562454187
1103.0, 0.0007539867861557964
1104.0, 0.0037844626695340854
1105.0, 0.003036494737831778
1106.0, 0.00129083071034484
1107.0, 0.0009737887976554163
1108.0, 0.0010251829449508824
1109.0, 0.0022520986460600793
1110.0, 0.002567489602449618
1111.0, 0.0020297416457297868
1112.0, 0.001230022069681254
1113.0, 0.00207010490571675
1114.0, 0.0006391717399563492
1115.0, 0.003991161891936036
1116.0, 0.004661461275103034
1117.0, 0.00397934752664245
1118.0, 0.004134598398181631
1119.0, 0.0032304757441536784
1120.0, 0.005404011207465316
1121.0, 0.004464723757310206
1122.0, 0.005585607171979171
1123.0, 0.004890445959996428
1124.0, 0.007412024650388702
1125.0, 0.0026671120705853806
1126.0, 6.370238160456648e-05
1127.0, 0.0035749555636076227
1128.0, 0.007922635925567339
1129.0, 0.007769139519800248
1130.0, 0.0035218934661139247
1131.0, 0.0028420839985469335
1132.0, 0.0036280166310515
1133.0, 0.0036697716322851718
1134.0, 0.00432858746394247
1135.0, 0.0037707708781833265
1136.0, 0.004143071476501513
1137.0, 0.006209930713145036
1138.0, 0.0064500065830827335
1139.0, 0.004862292016863142
1140.0, 0.005317605202889217
1141.0, 0.008486229208445786
1142.0, 0.011806443279470419
1143.0, 0.014215311791590067
1144.0, 0.015239129110537389
1145.0, 0.01705497546731772
1146.0, 0.016457635340972332
1147.0, 0.02049675885900915
1148.0, 0.025024410536446558
1149.0, 0.027645194776908234
1150.0, 0.027914692390350028
1151.0, 0.02517083994026485
1152.0, 0.026193631062528807
1153.0, 0.028738001167621544
1154.0, 0.027170907769396686
1155.0, 0.024320147563393176
1156.0, 0.020064089534559192
1157.0, 0.02037425754261666
1158.0, 0.01938274664624056
1159.0, 0.017450136695100434
1160.0, 0.01737112675788933
1161.0, 0.018716693985475406
1162.0, 0.020219252438034217
1163.0, 0.02041926623064495
1164.0, 0.021915921547904976
1165.0, 0.01848906376277204
1166.0, 0.01666218549616154
1167.0, 0.021606283995079145
1168.0, 0.02155953977320719
1169.0, 0.019904473251811397
1170.0, 0.01907986039704106
1171.0, 0.016287733268829062
1172.0, 0.01180680690330372
1173.0, 0.009460556662579788
1174.0, 0.008930463853162162
1175.0, 0.006940015355191937
1176.0, 0.007456415782039209
1177.0, 0.005277770095782323
1178.0, 0.0035932908481787445
1179.0, 0.001704605255163182
1180.0, 0.002841507134916485
1181.0, 0.004514640448060232
1182.0, 0.004364853259443756
1183.0, 0.0026078834439598763
1184.0, 0.0008366483406169065
1185.0, 0.0004931071945278239
1186.0, 0.0006058528775587755
1187.0, 0.002479428558103479
1188.0, 0.0007664984692454742
1189.0, 0.0024983055737735653
1190.0, 0.0007658953116447124
1191.0, 0.0002910648406634604
1192.0, 0.002613064162165584
1193.0, 0.004664420423635133
1194.0, 0.0037844051808889716
1195.0, 0.00280248098374094
1196.0, 0.00450179409979844
1197.0, 0.006937370588550623
1198.0, 0.002644840744422463
1199.0, 0.0017284027802129955
1200.0, 0.002116578274938818
1201.0, 0.003780822025637652
1202.0, 0.0020459495535394387
1203.0, 0.0036923936439070036
1204.0, 0.004206375373617213
1205.0, 0.003497529320750942
1206.0, 0.00440478293494066
1207.0, 0.005928544117041161
1208.0, 0.005644696589865259
1209.0, 0.003448416512291523
1210.0, 0.005120615161927131
1211.0, 0.009816471518665307
1212.0, 0.006067338577942329
1213.0, 0.006292882794050251
1214.0, 0.010604312172917144
1215.0, 0.014208683723785597
1216.0, 0.013527255220573383
1217.0, 0.013565124824047545
1218.0, 0.015183470500929342
1219.0, 0.014979751040521534
1220.0, 0.014855663729371756
1221.0, 0.0159796565397272
1222.0, 0.011234632131759431
1223.0, 0.010240582332411614
1224.0, 0.006093631238447222
1225.0, 0.006722486866749584
1226.0, 0.005644115771873285
1227.0, 0.007193276799846066
1228.0, 0.005382721870643597
1229.0, 0.0051774723511077096
1230.0, 0.005683885868598779
1231.0, 0.004057068671084553
1232.0, 0.0038084256795496694
1233.0, 0.005569366236873574
1234.0, 0.0053630258711864385
1235.0, 0.004430649309559464
1236.0, 0.004441289398976058
1237.0, 0.0035267248206922804
1238.0, 0.0010282693884409537
1239.0, 0.002765439827483479
1240.0, 0.005651834449243057
1241.0, 0.003574354538207464
1242.0, 0.00039020659183935794
1243.0, 0.0031439234428762095
1244.0, 0.004298724195942501
1245.0, 0.0008132561984732768
1246.0, 0.0010006935085120575
1247.0, 0.0025190352940653387
1248.0, 0.0008107428756585528
1249.0, 0.0014118049281422597
1250.0, 0.0021725439760966617
1251.0, 0.003169567739314336
1252.0, 0.0027392865835753097
1253.0, 0.0024662578062880952
1254.0, 0.003616144327684153
1255.0, 0.00461162469340747
1256.0, 0.005042459628768488
1257.0, 0.0024594223820667616
1258.0, 0.0008838327327933152
1259.0, 0.004574664070090936
1260.0, 0.0053427524504319045
1261.0, 0.0009438345182384459
1262.0, 0.0014075533235403434
1263.0, 0.000289199325600146
1264.0, 7.145558771545389e-05
1265.0, 0.000381743658485232
1266.0, 0.0049787793068411185
1267.0, 0.004604376392426169
1268.0, 0.0026662009662260476
1269.0, 0.0029245033289227616
1270.0, 0.0024057662511829214
1271.0, 0.0002415808103556491
1272.0, 0.00021105602848681983
1273.0, 0.002243239277333327
1274.0, 0.003108487456649016
1275.0, 0.0033026203090832347
1276.0, 0.0050505875149740405
1277.0, 0.004810250792358918
1278.0, 0.004011719188455891
1279.0, 0.0060245259379010305
1280.0, 0.003662833577169445
1281.0, 0.002678753418108394
1282.0, 0.0030203523457571577
1283.0, 0.001517355918071667
1284.0, 0.003695012569471243
1285.0, 0.006990680377344271
1286.0, 0.008324044985622597
1287.0, 0.010228914717956884
1288.0, 0.008194895787370308
1289.0, 0.0042334765912375874
1290.0, 0.0062077762113041885
1291.0, 0.007731860180849228
1292.0, 0.012114569429643571
1293.0, 0.009927022728780236
1294.0, 0.016651864375649843
1295.0, 0.016228432089806778
1296.0, 0.01378608563926236
1297.0, 0.01213397218107584
1298.0, 0.01170291265825148
1299.0, 0.011725412401517962
1300.0, 0.008658225926237854
1301.0, 0.003904222867207781
1302.0, 0.0038980856159548036
1303.0, 0.007362564120037653
1304.0, 0.006594675535508914
1305.0, 0.005874152041430599
1306.0, 0.007807646002116403
1307.0, 0.002793148916675264
1308.0, 0.001136811961118004
1309.0, 0.002944961753810982
1310.0, 0.0046008215701052275
1311.0, 0.0023496202252185775
1312.0, 0.0010837859324162062
1313.0, 0.0016478465278982994
1314.0, 0.0018437417869365898
1315.0, 0.00226722689646083
1316.0, 0.0012204287156342987
1317.0, 0.0008600267413537649
1318, 0.0
1319, 0.0
1320, 0.0
1321, 0.0
1322, 0.0
1323, 0.0
1324, 0.0
1325, 0.0
1326, 0.0
1327, 0.0
1328, 0.0
1329, 0.0
1330, 0.0
1331, 0.0
1332, 0.0
1333, 0.0
1334, 0.0
1335, 0.0
1336, 0.0
1337, 0.0
1338, 0.0
1339, 0.0
1340, 0.0
1341, 0.0
1342, 0.0
1343, 0.0
1344, 0.0
1345, 0.0
1346, 0.0
1347, 0.0
1348, 0.0
1349, 0.0
1350, 0.0
1351, 0.0
1352, 0.0
1353, 0.0
1354, 0.0
1355, 0.0
1356, 0.0
1357, 0.0
1358, 0.0
1359, 0.0
1360, 0.0
1361, 0.0
1362, 0.0
1363, 0.0
1364, 0.0
1365, 0.0
1366, 0.0
1367, 0.0
1368, 0.0
1369, 0.0
1370, 0.0
1371, 0.0
1372, 0.0
1373, 0.0
1374, 0.0
1375, 0.0
1376, 0.0
1377, 0.0
1378, 0.0
1379, 0.0
1380, 0.0
1381, 0.0
1382, 0.0
1383, 0.0
1384, 0.0
1385, 0.0
1386, 0.0
1387, 0.0
1388, 0.0
1389, 0.0
1390, 0.0
1391, 0.0
1392, 0.0
1393, 0.0
1394, 0.0
1395, 0.0
1396, 0.0
1397, 0.0
1398, 0.0
1399, 0.0
1400, 0.0
1401, 0.0
1402, 0.0
1403, 0.0
1404, 0.0
1405, 0.0
1406, 0.0
1407, 0.0
1408, 0.0
1409, 0.0
1410, 0.0
1411, 0.0
1412, 0.0
1413, 0.0
1414, 0.0
1415, 0.0
1416, 0.0
1417, 0.0
1418, 0.0
1419, 0.0
1420, 0.0
1421, 0.0
1422, 0.0
1423, 0.0
1424, 0.0
1425, 0.0
1426, 0.0
1427, 0.0
1428, 0.0
1429, 0.0
1430, 0.0
1431, 0.0
1432, 0.0
1433, 0.0
1434, 0.0
1435, 0.0
1436, 0.0
1437, 0.0
1438, 0.0
1439, 0.0
1440, 0.0
1441, 0.0
1442, 0.0
1443, 0.0
1444, 0.0
1445, 0.0
1446, 0.0
1447, 0.0
1448, 0.0
1449, 0.0
1450, 0.0
1451, 0.0
1452, 0.0
1453, 0.0
1454, 0.0
1455, 0.0
1456, 0.0
1457, 0.0
1458, 0.0
1459, 0.0
1460, 0.0
1461, 0.0
1462, 0.0
1463, 0.0
1464, 0.0
1465, 0.0
1466, 0.0
1467, 0.0
1468, 0.0
1469, 0.0
1470, 0.0
1471, 0.0
1472, 0.0
1473, 0.0
1474, 0.0
1475, 0.0
1476, 0.0
1477, 0.0
1478, 0.0
1479, 0.0
1480, 0.0
1481, 0.0
1482, 0.0
1483, 0.0
1484, 0.0
1485, 0.0
1486, 0.0
1487, 0.0
1488, 0.0
1489, 0.0
1490, 0.0
1491, 0.0
1492, 0.0
1493, 0.0
1494, 0.0
1495, 0.0
1496, 0.0
1497, 0.0
1498, 0.0
1499, 0.0
1500, 0.0
1501, 0.0
1502, 0.0
1503, 0.0
1504, 0.0
1505, 0.0
1506, 0.0
1507, 0.0
1508, 0.0
1509, 0.0
1510, 0.0
1511, 0.0
1512, 0.0
1513, 0.0
1514, 0.0
1515, 0.0
1516, 0.0
1517, 0.0
1518, 0.0
1519, 0.0
1520, 0.0
1521, 0.0
1522, 0.0
1523, 0.0
1524, 0.0
1525, 0.0
1526, 0.0
1527, 0.0
1528, 0.0
1529, 0.0
1530, 0.0
1531, 0.0
1532, 0.0
1533, 0.0
1534, 0.0
1535, 0.0
1536, 0.0
1537, 0.0
1538, 0.0
1539, 0.0
1540, 0.0
1541, 0.0
1542, 0.0
1543, 0.0
1544, 0.0
1545, 0.0
1546, 0.0
1547, 0.0
1548, 0.0
1549, 0.0
1550, 0.0
1551, 0.0
1552, 0.0
1553, 0.0
1554, 0.0
1555, 0.0
1556, 0.0
1557, 0.0
1558, 0.0
1559, 0.0
1560, 0.0
1561, 0.0
1562, 0.0
1563, 0.0
1564, 0.0
1565, 0.0
1566, 0.0
1567, 0.0
1568, 0.0
1569, 0.0
1570, 0.0
1571, 0.0
1572, 0.0
1573, 0.0
1574, 0.0
1575, 0.0
1576, 0.0
1577, 0.0
1578, 0.0
1579, 0.0
1580, 0.0
1581, 0.0
1582, 0.0
1583, 0.0
1584, 0.0
1585, 0.0
1586, 0.0
1587, 0.0
1588, 0.0
1589, 0.0
1590, 0.0
1591, 0.0
1592, 0.0
1593, 0.0
1594, 0.0
1595, 0.0
1596, 0.0
1597, 0.0
1598, 0.0
1599, 0.0
