30, 0.0
31, 0.0
32, 0.0
33, 0.0
34, 0.0
35, 0.0
36, 0.0
37, 0.0
38, 0.0
39, 0.0
40, 0.0
41, 0.0
42, 0.0
43, 0.0
44, 0.0
45, 0.0
46, 0.0
47, 0.0
48, 0.0
49, 0.0
50, 0.0
51, 0.0
52, 0.0
53, 0.0
54, 0.0
55, 0.0
56, 0.0
57, 0.0
58, 0.0
59, 0.0
60, 0.0
61, 0.0
62, 0.0
63, 0.0
64, 0.0
65, 0.0
66, 0.0
67, 0.0
68, 0.0
69, 0.0
70, 0.0
71, 0.0
72, 0.0
73, 0.0
74, 0.0
75, 0.0
76, 0.0
77, 0.0
78, 0.0
79, 0.0
80, 0.0
81, 0.0
82, 0.0
83, 0.0
84, 0.0
85, 0.0
86, 0.0
87, 0.0
88, 0.0
89, 0.0
90, 0.0
91, 0.0
92, 0.0
93, 0.0
94, 0.0
95, 0.0
96, 0.0
97, 0.0
98, 0.0
99, 0.0
100, 0.0
101, 0.0
102, 0.0
103, 0.0
104, 0.0
105, 0.0
106, 0.0
107, 0.0
108, 0.0
109, 0.0
110, 0.0
111, 0.0
112, 0.0
113, 0.0
114, 0.0
115, 0.0
116, 0.0
117, 0.0
118, 0.0
119, 0.0
120, 0.0
121, 0.0
122, 0.0
123, 0.0
124, 0.0
125, 0.0
126, 0.0
127, 0.0
128, 0.0
129, 0.0
130, 0.0
131, 0.0
132, 0.0
133, 0.0
134, 0.0
135, 0.0
136, 0.0
137, 0.0
138, 0.0
139, 0.0
140, 0.0
141, 0.0
142, 0.0
143, 0.0
144, 0.0
145, 0.0
146, 0.0
147, 0.0
148, 0.0
149, 0.0
150, 0.0
151, 0.0
152, 0.0
153, 0.0
154, 0.0
155, 0.0
156, 0.0
157, 0.0
158, 0.0
159, 0.0
160, 0.0
161, 0.0
162, 0.0
163, 0.0
164, 0.0
165, 0.0
166, 0.0
167, 0.0
168, 0.0
169, 0.0
170, 0.0
171, 0.0
172, 0.0
173, 0.0
174, 0.0
175, 0.0
176, 0.0
177, 0.0
178, 0.0
179, 0.0
180, 0.0
181, 0.0
182.0, 8.652431004077955e-05
183.0, 0.0010942019947088582
184.0, 0.0011658546202352638
185.0, 0.002411061648514261
186.0, 0.0026629783173285405
187.0, 0.0005251295937868185
188.0, 0.00018498932021500142
189.0, 0.0069591796598954
190.0, 0.012911877193271278
191.0, 0.012067176426409094
192.0, 0.012353049628877035
193.0, 0.015538252236138967
194.0, 0.018874947374731905
195.0, 0.01869600012129994
196.0, 0.013576935822849183
197.0, 0.01766941782353574
198.0, 0.021114041940762614
199.0, 0.020458184712531184
200.0, 0.019409780524417043
201.0, 0.024823506945327995
202.0, 0.026925309630359832
203.0, 0.025327505415970234
204.0, 0.0225695326109803
205.0, 0.02011683062624068
206.0, 0.021845404129812836
207.0, 0.02564834577040148
208.0, 0.028745598165658078
209.0, 0.030607442822374677
210.0, 0.02999263612986369
211.0, 0.028108325823646158
212.0, 0.026497832394785908
213.0, 0.02317186593062137
214.0, 0.023094632064415983
215.0, 0.020861213855875055
216.0, 0.02018666660235261
217.0, 0.018714393268740442
218.0, 0.0138454390922607
219.0, 0.013681140237221072
220.0, 0.009271386140778015
221.0, 0.007620390837961026
222.0, 0.011313334492581624
223.0, 0.006954184836304357
224.0, 0.00956054550573157
225.0, 0.007633602191279116
226.0, 0.0037423704537863692
227.0, 0.008352159912069773
228.0, 0.003982206179157864
229.0, 0.004434647478070306
230.0, 0.006809183622854346
231.0, 0.005256106233067586
232.0, 0.0003439082918101832
233.0, 0.00037083137480122897
234.0, 0.003095520142925203
235.0, 0.005104647026866896
236.0, 0.0002697750850341432
237.0, 0.0005595861173651468
238.0, 0.0001636295786214769
239.0, 0.0004345861233041021
240.0, 0.0005405635611269218
241.0, 0.0035724812838479085
242.0, 0.004227214205802698
243.0, 0.0028925934940214593
244.0, 0.006044141373836836
245.0, 0.0014701322029908048
246.0, 0.0011214109481375155
247.0, 0.001830443615711739
248.0, 0.004246034678210388
249.0, 0.003698546414044186
250.0, 0.0015756730999111294
251.0, 0.0027600079839616536
252.0, 0.003329235823627339
253.0, 0.0036316389573532643
254.0, 0.010785550015585151
255.0, 0.003606188762836489
256.0, 0.004644244562044644
257.0, 0.0083983494215981
258.0, 0.0083510029733832
259.0, 0.006846331374773554
260.0, 0.007451302056265811
261.0, 0.0061228739421683295
262.0, 0.006691884211190052
263.0, 0.01252296811686868
264.0, 0.013438669912686078
265.0, 0.010877857364970206
266.0, 0.007268094615321458
267.0, 0.005264903378109936
268.0, 0.006775370970766862
269.0, 0.008963871736098259
270.0, 0.011413214005535945
271.0, 0.009996530953861845
272.0, 0.004442783984334555
273.0, 0.0031076867035814137
274.0, 0.005769093157886826
275.0, 0.009280376176652866
276.0, 0.009312438333729692
277.0, 0.004308554467857702
278.0, 0.0057388988545417135
279.0, 0.005534864545863901
280.0, 0.004791167116821139
281.0, 0.00606012993373045
282.0, 0.00929900141453481
283.0, 0.012506306109010297
284.0, 0.014128454608141829
285.0, 0.0137384102136658
286.0, 0.012596544106293068
287.0, 0.015435958572921526
288.0, 0.01541610836719136
289.0, 0.015019730621126232
290.0, 0.018249905134014303
291.0, 0.02533478177685411
292.0, 0.02431420589331944
293.0, 0.02669833610986989
294.0, 0.027752215962458603
295.0, 0.026012149372387286
296.0, 0.0296565956569757
297.0, 0.03317257519927243
298.0, 0.030323469126871914
299.0, 0.02664713651271348
300.0, 0.027244141607924353
301.0, 0.02514718346196048
302.0, 0.024051997643449168
303.0, 0.02154091640778601
304.0, 0.018258116986423937
305.0, 0.015802992824856282
306.0, 0.009823279772034692
307.0, 0.007406271294807904
308.0, 0.008129782595705447
309.0, 0.009010424445458489
310.0, 0.007416079901046655
311.0, 0.0025816168083626244
312.0, 0.004774004679419972
313.0, 0.0057270757620533465
314.0, 0.0014659083981454774
315.0, 0.006399426155115561
316.0, 0.0014048687052724423
317.0, 0.0027489366318672512
318.0, 0.0060889609286822475
319.0, 0.00046539804128167454
320.0, 0.0020292979457745878
321.0, 0.005214707824237335
322.0, 0.007175037238963317
323.0, 0.009015560214848554
324.0, 0.012603851895175586
325.0, 0.014428455478810758
326.0, 0.015011480739135765
327.0, 0.014483345402614945
328.0, 0.012615109385738265
329.0, 0.008719738464385809
330.0, 0.006040236600719091
331.0, 0.008948613837874906
332.0, 0.014789230764391084
333.0, 0.0192215775465018
334.0, 0.019924763064337776
335.0, 0.020245671989314304
336.0, 0.022559505916090065
337.0, 0.026044203351660158
338.0, 0.02790485602026329
339.0, 0.025536471848680388
340.0, 0.024351310863290114
341.0, 0.022926010302584555
342.0, 0.021052707695230235
343.0, 0.020820343746781617
344.0, 0.025427762455610604
345.0, 0.028937120607799786
346.0, 0.029337235392770472
347.0, 0.031215773525360008
348.0, 0.03848916930566342
349.0, 0.03450064172622917
350.0, 0.035595702813892044
351.0, 0.040789306753525434
352.0, 0.04522828606123575
353.0, 0.04940282617282989
354.0, 0.053207849751282434
355.0, 0.05716249779859363
356.0, 0.0628103043986747
357.0, 0.06917889782648044
358.0, 0.0707888388971347
359.0, 0.06658736984513092
360.0, 0.06151592905574474
361.0, 0.057050779961892374
362.0, 0.05184894974622828
363.0, 0.04377714307643575
364.0, 0.03686592201189814
365.0, 0.032820454084113895
366.0, 0.0318358517487791
367.0, 0.032455965950402614
368.0, 0.03206204060312904
369.0, 0.03068682312498619
370.0, 0.03301407444108462
371.0, 0.03927383890226419
372.0, 0.045969276371557295
373.0, 0.0453602317758665
374.0, 0.04745122431411862
375.0, 0.05221094315705124
376.0, 0.05648039865807598
377.0, 0.056009691859183135
378.0, 0.0469151689125515
379.0, 0.037245121291526004
380.0, 0.02862673987995196
381.0, 0.02241304371982046
382.0, 0.019096469928020415
383.0, 0.016385638816356882
384.0, 0.012230627132562457
385.0, 0.011194414145627333
386.0, 0.012532424850809463
387.0, 0.01101369005496661
388.0, 0.009797914976250153
389.0, 0.007427143003618824
390.0, 0.008233548545462325
391.0, 0.01197610298320183
392.0, 0.013104215152792803
393.0, 0.006146987261387746
394.0, 0.010133307962594823
395.0, 0.017582332264554162
396.0, 0.020602716523514402
397.0, 0.01833156901759291
398.0, 0.016093720009180034
399.0, 0.015088510591459279
400.0, 0.019381505129584767
401.0, 0.02349018984064149
402.0, 0.01508677744494779
403.0, 0.011967987558556561
404.0, 0.008676667505944348
405.0, 0.0050928538992391
406.0, 0.0031826626006893053
407.0, 0.003372438256396189
408.0, 0.000598517088900779
409.0, 0.0011620590258715373
410.0, 0.0021271919583980303
411.0, 0.005214452374255212
412.0, 0.0014241730514280774
413.0, 0.0013999284619638408
414.0, 0.001126651755332063
415.0, 0.002642468766435009
416.0, 0.0015229304849398919
417.0, 0.001304245415876045
418.0, 0.00044581781875620703
419.0, 0.0019163426556410516
420.0, 0.00040985452248729136
421.0, 0.002487583430383016
422.0, 0.0002465315751953346
423.0, 0.0017559646097992528
424.0, 0.0009234080271277364
425.0, 7.254454256150336e-05
426.0, 0.0008074825366490927
427.0, 0.0022915025025343574
428.0, 0.0005217100942806062
429.0, 0.0009225258204180979
430.0, 0.0009039725344137496
431.0, 0.0014232396007286955
432.0, 0.004166608114067687
433.0, 0.00045956254496033527
434.0, 0.0018307814913707963
435.0, 0.0007312764942406149
436.0, 0.00030622958466109567
437.0, 0.004554866537807643
438.0, 0.002505830035511702
439.0, 0.0009814128751337399
440.0, 0.002040822370417634
441.0, 0.0006484018376496846
442.0, 0.0016118148060931669
443.0, 0.004287879657683869
444.0, 0.00326947702832341
445.0, 0.0032414905633381427
446.0, 0.004038295036433273
447.0, 0.004020176000050535
448.0, 0.004759720783595915
449.0, 0.004369296574541212
450.0, 0.0032237980687613004
451.0, 0.0035868806344220433
452.0, 0.005183361625200719
453.0, 0.0032399116552806135
454.0, 0.004954196888166171
455.0, 0.0034856875795713244
456.0, 0.006083796147908506
457.0, 0.012209318295840852
458.0, 0.009538967865023302
459.0, 0.005364827154441873
460.0, 0.003431247981585209
461.0, 0.0074063279861652075
462.0, 0.011406825924697309
463.0, 0.006819575116784978
464.0, 0.007970404191797013
465.0, 0.00404644822363372
466.0, 0.004469174729727891
467.0, 0.0079077452672659
468.0, 0.006495104011101661
469.0, 0.0034287878785330315
470.0, 0.004608197373943446
471.0, 0.005485251207730312
472.0, 0.006359059036965634
473.0, 0.00631028558438373
474.0, 0.0017399359997381362
475.0, 0.003857241067834783
476.0, 0.004017023194327936
477.0, 0.00022456650075052909
478.0, 0.0011338909090152652
479.0, 0.002297496707157677
480.0, 0.002695450961035707
481.0, 0.0039045809146924185
482.0, 0.004390384990610449
483.0, 0.005030926378867576
484.0, 0.008061100907939217
485.0, 0.005720605857173329
486.0, 0.0038377457232494096
487.0, 0.005129711843762811
488.0, 0.008251722926800681
489.0, 0.010300464531141203
490.0, 0.008297311510495266
491.0, 0.005483815189167877
492.0, 0.0036923415939568134
493.0, 0.004068890302863375
494.0, 0.005710090296311437
495.0, 0.006001528936332091
496.0, 0.006505162091448314
497.0, 0.008030172817627006
498.0, 0.008985251018435465
499.0, 0.009283259066899627
500.0, 0.009774703349052135
501.0, 0.00497491604575164
502.0, 0.008760857682712038
503.0, 0.009128274752951283
504.0, 0.006767626911097164
505.0, 0.009446813157096874
506.0, 0.011116381114370103
507.0, 0.012272346649392495
508.0, 0.013595543345392981
509.0, 0.015720038095639426
510.0, 0.018284230928657236
511.0, 0.02028103545411601
512.0, 0.02181045537475325
513.0, 0.02645314132058491
514.0, 0.030343594967120784
515.0, 0.03273400520293533
516.0, 0.036099284889466746
517.0, 0.03566387481077232
518.0, 0.03596225838111068
519.0, 0.03992440387549326
520.0, 0.04347181324251239
521.0, 0.044417953065454256
522.0, 0.051345167718830985
523.0, 0.049878973592261205
524.0, 0.0521186234586657
525.0, 0.0587352013510606
526.0, 0.06290963556522934
527.0, 0.061969383027980884
528.0, 0.06367067046835571
529.0, 0.05944011049869799
530.0, 0.05685330353049561
531.0, 0.058304088345111395
532.0, 0.059021626184530794
533.0, 0.052669190328000305
534.0, 0.0447694144625712
535.0, 0.0418422208764887
536.0, 0.040799263913562346
537.0, 0.03585277878889969
538.0, 0.026717122742393323
539.0, 0.027456391871110947
540.0, 0.02921118553093845
541.0, 0.02596313848329929
542.0, 0.022185117451966954
543.0, 0.0216508096220261
544.0, 0.016291460592691508
545.0, 0.019094188084057984
546.0, 0.014361654187137241
547.0, 0.012012294850348711
548.0, 0.01602345474942471
549.0, 0.01419261505375867
550.0, 0.017353668723014724
551.0, 0.01108068324106926
552.0, 0.009415588972369184
553.0, 0.009710999393004162
554.0, 0.0050531076688622055
555.0, 0.009033136266638906
556.0, 0.011007905723688647
557.0, 0.011021317957105476
558.0, 0.009749351503602286
559.0, 0.008087444671416522
560.0, 0.006733941000793216
561.0, 0.0034927707060470894
562.0, 0.004613065197343862
563.0, 0.00440440323996015
564.0, 0.0053893929350536515
565.0, 0.006976750976191619
566.0, 0.0014650360023501252
567.0, 0.001972941274237964
568.0, 0.005652090256467297
569.0, 0.007239197676576859
570.0, 0.0072031281229571805
571.0, 0.0058200329731253496
572.0, 0.003196967446344362
573.0, 0.0027604953751338064
574.0, 0.004776127952265008
575.0, 0.004792853500033812
576.0, 0.002917833748104014
577.0, 0.004953319100733215
578.0, 0.005994251291291804
579.0, 0.00408910480082969
580.0, 0.0025936905682951666
581.0, 0.0028624767431697073
582.0, 0.0035109398841877367
583.0, 0.002930825274077376
584.0, 0.004012104126866561
585.0, 0.004030177075132815
586.0, 0.0010906451522930752
587.0, 0.002375474691398165
588.0, 0.00010771571899868024
589.0, 0.0007498913399741784
590.0, 0.001444373240327677
591.0, 0.0007557280200855063
592.0, 0.0002845206766223831
593.0, 0.0007946745441004677
594.0, 0.0005707638230695191
595.0, 0.0025957895320242504
596.0, 0.0017119716713526892
597.0, 0.0018394151349354875
598.0, 0.0012436864922209774
599.0, 0.0009197742862317638
600.0, 0.0035551938125455173
601.0, 0.002004721392073343
602.0, 0.0030103333948815567
603.0, 0.0052831148504671925
604.0, 0.005331956352058086
605.0, 0.0029692463130034158
606.0, 0.002961498713615793
607.0, 0.005560332187281385
608.0, 0.008698777752278827
609.0, 0.008219563299658108
610.0, 0.005968527274051453
611.0, 0.007161234866481037
612.0, 0.011175004944286557
613.0, 0.008273173814495953
614.0, 0.009512490361969756
615.0, 0.009454831022593846
616.0, 0.006217602683657931
617.0, 0.005749057718606688
618.0, 0.005782485026694004
619.0, 0.0072348259751181835
620.0, 0.007404126820650886
621.0, 0.007452580496840078
622.0, 0.008046062776504284
623.0, 0.007524705758109419
624.0, 0.005492976180083819
625.0, 0.004619608591988813
626.0, 0.005457285859659309
627.0, 0.007246535409584357
628.0, 0.007542573777251776
629.0, 0.004464295703570802
630.0, 0.004380493135026045
631.0, 0.0050411829320886285
632.0, 0.003572111794962005
633.0, 0.004429076993019284
634.0, 0.007288499222593783
635.0, 0.004554286541865105
636.0, 0.003072601492177135
637.0, 0.0065293451323708614
638.0, 0.007032392065734141
639.0, 0.0036912822741087432
640.0, 0.0013290170580268217
641.0, 0.004219621615780592
642.0, 0.006149604650309855
643.0, 0.0024052725898675723
644.0, 0.0023087329441989065
645.0, 0.0029383248005981255
646.0, 0.0008506041925455478
647.0, 0.002316090306609202
648.0, 0.0028260082221821864
649.0, 0.003695390127275674
650.0, 0.004466878794604979
651.0, 0.00470904131459927
652.0, 0.003714984312247165
653.0, 0.0011630091946131522
654.0, 0.00293234572300869
655.0, 0.0036398737185229318
656.0, 0.0015383409940424484
657.0, 0.00158543865336353
658.0, 0.0038503739326543693
659.0, 0.0009102496786957192
660.0, 0.00401713915474563
661.0, 0.005104619098831068
662.0, 0.005232200882422166
663.0, 0.002145984432531135
664.0, 0.0016832014973922223
665.0, 0.0021858429494943307
666.0, 2.8448597181337234e-05
667.0, 0.002466742507856217
668.0, 0.0036805665325533856
669.0, 0.0023495097616984873
670.0, 0.0005428067889104603
671.0, 0.0008036809309597209
672.0, 0.0024824318993380253
673.0, 0.003301635093378951
674.0, 0.004367180150160629
675.0, 0.005968282770683683
676.0, 0.005323635300886256
677.0, 0.0015731897402429548
678.0, 0.0012768058577982716
679.0, 0.006368196126203294
680.0, 0.004564078265907053
681.0, 0.002632241644185558
682.0, 0.004402571377840349
683.0, 0.0045191195376245484
684.0, 0.005631151804597684
685.0, 0.008760055333825395
686.0, 0.006827597475197071
687.0, 0.0055436679821696784
688.0, 0.006714314036003102
689.0, 0.00825614712538739
690.0, 0.011214491081346586
691.0, 0.009457630417213467
692.0, 0.007718805989754274
693.0, 0.010387157698144777
694.0, 0.011920701821842399
695.0, 0.009173881551294049
696.0, 0.010601546312946372
697.0, 0.012601199905697611
698.0, 0.011752538170599538
699.0, 0.009234965746186862
700.0, 0.007105327373188602
701.0, 0.006237092314657171
702.0, 0.006632366634287407
703.0, 0.007709999152787525
704.0, 0.010300083508130551
705.0, 0.010566288912546712
706.0, 0.009526993865413587
707.0, 0.010225553427284984
708.0, 0.01362038823902287
709.0, 0.013474869181736888
710.0, 0.012973171572544575
711.0, 0.010215893669681762
712.0, 0.007317383714607018
713.0, 0.006675444284529353
714.0, 0.007335232539303818
715.0, 0.006071320222462804
716.0, 0.005675533366091089
717.0, 0.003594601894363129
718.0, 0.003138984551622026
719.0, 0.004549868184787365
720.0, 0.005567636847988093
721.0, 0.004520491828644589
722.0, 0.0025028954134085823
723.0, 0.00411337370013759
724.0, 0.006051857755802855
725.0, 0.0039419655336738356
726.0, 0.0006292441330538344
727.0, 0.002388296701094582
728.0, 0.005569681241256808
729.0, 0.0026748693173140976
730.0, 0.0008955143844552718
731.0, 0.001616396251390333
732.0, 0.0025163491675278334
733.0, 0.0006094977937449161
734.0, 0.00400029767602571
735.0, 0.005515483249648983
736.0, 0.0013598429418382586
737.0, 0.0013387772311995662
738.0, 0.0007525322500444708
739.0, 0.002538655845859218
740.0, 0.0012529153557108593
741.0, 0.0010855599460919839
742.0, 0.0009831462362777821
743.0, 0.0007420820338359233
744.0, 0.0018712101720794255
745.0, 0.0014847726933887757
746.0, 0.004628040973726033
747.0, 0.0047233435555747
748.0, 0.0045849919550775345
749.0, 0.0021283062412288593
750.0, 0.0020630995104965228
751.0, 0.0017457094444260752
752.0, 0.003269557974554689
753.0, 0.0007938155864181798
754.0, 0.0007877958427819791
755.0, 0.0021670825810602007
756.0, 0.0022139423456621664
757.0, 0.003967365406207024
758.0, 0.0023955996531094636
759.0, 0.00020807322286797519
760.0, 0.0034877535057588893
761.0, 0.0023287989067180244
762.0, 0.001114830330427896
763.0, 0.0019763459990581617
764.0, 0.0011538823352747697
765.0, 0.001400463136645657
766.0, 0.0025029444383506136
767.0, 0.0031303272273123604
768.0, 0.0003726897427005846
769.0, 0.0006286998570296174
770.0, 0.0016594214379612208
771.0, 0.0014023034938416884
772.0, 0.0010422188024417274
773.0, 0.006633769025779047
774.0, 0.0033786572698671054
775.0, 0.00353649034278719
776.0, 0.0029076205449452613
777.0, 0.0007398240919154568
778.0, 0.00269879751029986
779.0, 0.009190264302803453
780.0, 0.006736965683363703
781.0, 0.0012674187691493438
782.0, 0.007935643297169245
783.0, 0.0076154555804583265
784.0, 0.008779548106096387
785.0, 0.011949781943852093
786.0, 0.013190025550346108
787.0, 0.015538729628789525
788.0, 0.016411109429898228
789.0, 0.01669371145798654
790.0, 0.018787210269634914
791.0, 0.019227740176414668
792.0, 0.020291424238916684
793.0, 0.024429106355237307
794.0, 0.028011592523563177
795.0, 0.030811668044368395
796.0, 0.028804553902890124
797.0, 0.029755146463911208
798.0, 0.031698374125080996
799.0, 0.03394334678667907
800.0, 0.03823134087444278
801.0, 0.04178893632964161
802.0, 0.040882206308122754
803.0, 0.04455869058369169
804.0, 0.04996484754245729
805.0, 0.05265418961788778
806.0, 0.05554721854095012
807.0, 0.06089503711738245
808.0, 0.06384378234650352
809.0, 0.07023970493131973
810.0, 0.07330673410679489
811.0, 0.07946684616375614
812.0, 0.08621135899401362
813.0, 0.09368874018690156
814.0, 0.1040325412389733
815.0, 0.11247556961266564
816.0, 0.1259850736264503
817.0, 0.13553299897299143
818.0, 0.1541014991850083
819.0, 0.17374708932046082
820.0, 0.190445678464147
821.0, 0.21056565241045114
822.0, 0.2333343068177934
823.0, 0.2614040835418907
824.0, 0.2909759762064499
825.0, 0.32775704345124645
826.0, 0.3726848408975461
827.0, 0.41971943374532783
828.0, 0.46671411199455365
829.0, 0.5211383173294952
830.0, 0.5827295896048063
831.0, 0.6505613842007145
832.0, 0.7145625674382301
833.0, 0.7848655075629756
834.0, 0.8510239430560581
835.0, 0.9054190748731135
836.0, 0.9609151964177488
837.0, 0.9891164958598146
838.0, 0.9997614184482857
839.0, 0.97900050973933
840.0, 0.9291269234006696
841.0, 0.8568020666203467
842.0, 0.7711772896828721
843.0, 0.684687154599786
844.0, 0.6078446904078664
845.0, 0.5461057561803137
846.0, 0.4913341761139355
847.0, 0.44346639836628776
848.0, 0.40223315845245206
849.0, 0.3688029796390662
850.0, 0.34287944953941807
851.0, 0.31726541821632304
852.0, 0.29833459563482695
853.0, 0.2786917742058466
854.0, 0.2585612491144532
855.0, 0.23839254634600276
856.0, 0.2191277157712748
857.0, 0.20085895387240021
858.0, 0.18096062635136115
859.0, 0.16240356564948055
860.0, 0.14540730480391353
861.0, 0.1296123082186853
862.0, 0.1159854771141697
863.0, 0.10342956137901085
864.0, 0.0930033694278734
865.0, 0.08748311770353087
866.0, 0.0790049474593578
867.0, 0.06741755747316223
868.0, 0.058519492322689055
869.0, 0.052621207790184005
870.0, 0.05034885834127132
871.0, 0.04898053071909542
872.0, 0.04577833577239932
873.0, 0.04437654087140576
874.0, 0.04140067054972209
875.0, 0.03237158029375429
876.0, 0.03206242543464107
877.0, 0.03173167799955138
878.0, 0.027682527362385675
879.0, 0.02479640456665628
880.0, 0.0221460593727224
881.0, 0.017467499509835435
882.0, 0.017763393855759285
883.0, 0.019815622715909094
884.0, 0.020459185306781938
885.0, 0.018673017125834423
886.0, 0.015448850533851807
887.0, 0.01318937653991303
888.0, 0.0127893643654901
889.0, 0.010893600095504682
890.0, 0.007890913292039028
891.0, 0.010964177453111252
892.0, 0.007630942050500703
893.0, 0.0020885041653300193
894.0, 0.00411415614423689
895.0, 0.007163950159773535
896.0, 0.0030844657915329397
897.0, 0.00023300235442123786
898.0, 0.001576815413438564
899.0, 0.0008828988783760065
900.0, 0.0008270734014312707
901.0, 0.001651392661746454
902.0, 0.002517844511313217
903.0, 0.004639378130904458
904.0, 0.006261090681512116
905.0, 0.0012122688284231012
906.0, 0.003216541749447007
907.0, 0.0015892301542241739
908.0, 0.00421922432838717
909.0, 0.0007525151660482161
910.0, 0.000996528749660335
911.0, 0.000592903428547257
912.0, 0.004232172958788086
913.0, 0.0011513099287320523
914.0, 0.0010743293766400203
915.0, 0.000614020338100908
916.0, 0.0006551661435563431
917.0, 0.0010515122853190892
918.0, 0.0031091536222922454
919.0, 0.0028604295127521327
920.0, 0.002688579907306172
921.0, 0.002581772330007631
922.0, 0.0015651133659635567
923.0, 0.0010724890285293469
924.0, 0.0010792102322558534
925.0, 0.0004275524009189889
926.0, 0.0015593527475601262
927.0, 0.004065412823492354
928.0, 0.0015480831417344991
929.0, 0.004189270703567042
930.0, 0.002557845991590996
931.0, 0.0001378267264237166
932.0, 0.0011174772982361619
933.0, 0.0007610436684937157
934.0, 0.003257938670265334
935.0, 0.00264246625960194
936.0, 0.0007345532227300396
937.0, 0.0003219348037630232
938.0, 0.0032830312930695444
939.0, 0.0023733035369832385
940.0, 0.0007907472432244837
941.0, 0.0019349572792420572
942.0, 0.005881304714140961
943.0, 0.0013558644041390636
944.0, 0.0026345304920750265
945.0, 0.0034176882113371165
946.0, 0.004013362907553658
947.0, 0.002515643015885283
948.0, 0.0006049908153280524
949.0, 0.0011771690027372595
950.0, 0.0002715860579887365
951.0, 0.0024374616751202125
952.0, 0.0038640098813850486
953.0, 0.001281125776471059
954.0, 0.0038250861262260926
955.0, 0.00817089489870457
956.0, 0.004690659093007212
957.0, 0.0005838942180008645
958.0, 0.0017363190980941821
959.0, 0.0011994796694827074
960.0, 0.00469130399413998
961.0, 0.001135283418094752
962.0, 0.004816287889432542
963.0, 0.004080252114620817
964.0, 0.0005722039825814949
965.0, 0.0006610429031694161
966.0, 0.0031634214230678247
967.0, 0.004589672634738491
968.0, 0.007775071146052969
969.0, 0.006775477398903201
970.0, 0.006322203166405554
971.0, 0.004730091125613768
972.0, 0.004564469064938168
973.0, 0.006622698097128886
974.0, 0.007314332987218603
975.0, 0.0045225284253017795
976.0, 0.0021858418897924984
977.0, 0.00659545741012343
978.0, 0.005631713337427631
979.0, 0.006632338504715372
980.0, 0.007111603241681218
981.0, 0.00624503199685995
982.0, 0.006954262714384147
983.0, 0.0073706294576515365
984.0, 0.004277307188687802
985.0, 0.006298308648873932
986.0, 0.008686049521993993
987.0, 0.004941097812825916
988.0, 0.003932840164454311
989.0, 0.00337357478352765
990.0, 0.005106837239180572
991.0, 0.008843938545205795
992.0, 0.009322779828611627
993.0, 0.008563983499477025
994.0, 0.007349247576080015
995.0, 0.005551259337467522
996.0, 0.006122433174238318
997.0, 0.004490262928745329
998.0, 0.003063900849144289
999.0, 0.003996834592301876
1000.0, 0.006048813923066921
1001.0, 0.007589111968882164
1002.0, 0.006726356249851743
1003.0, 0.006777975628934547
1004.0, 0.005892966339454257
1005.0, 0.007919495664509552
1006.0, 0.006784301785830525
1007.0, 0.001626641798392118
1008.0, 0.0012418262528053905
1009.0, 0.0013362818188188258
1010.0, 0.004285700895178087
1011.0, 0.006011795765256917
1012.0, 0.006115033968277443
1013.0, 0.0034581218407234784
1014.0, 0.004418442047420866
1015.0, 0.005179561466969485
1016.0, 0.0018145478097486892
1017.0, 0.0008941889825765013
1018.0, 0.0032567833872040207
1019.0, 0.0031948130451748577
1020.0, 0.005354866227146988
1021.0, 0.004678293609876468
1022.0, 0.00682917811276858
1023.0, 0.005738089798210559
1024.0, 0.0009639783409760132
1025.0, 0.002632411224786857
1026.0, 0.0058526411371746445
1027.0, 0.0033720190433308202
1028.0, 0.0032539440160403326
1029.0, 0.006006905707368504
1030.0, 0.0066528158129945955
1031.0, 0.005007801958653859
1032.0, 0.0007012938040004885
1033.0, 0.000959085388848035
1034.0, 0.0036507066438141323
1035.0, 0.002615819899290386
1036.0, 0.001470986257464345
1037.0, 0.00496055702514658
1038.0, 0.00544820426894377
1039.0, 0.007497787614533457
1040.0, 0.0018636486249952876
1041.0, 0.0012430611070403754
1042.0, 0.0022763171258613026
1043.0, 0.002174665026417812
1044.0, 0.004127740956893854
1045.0, 0.00630389024489997
1046.0, 0.0023138065737368547
1047.0, 0.0013799840451895447
1048.0, 0.010715762720937055
1049.0, 0.008392107357168825
1050.0, 0.008482201896731883
1051.0, 0.009478910036890713
1052.0, 0.009585183864220177
1053.0, 0.00994594320130723
1054.0, 0.010396108310797387
1055.0, 0.010457599472170212
1056.0, 0.011320291206661413
1057.0, 0.013960762045945683
1058.0, 0.012528853431287854
1059.0, 0.013910530381961338
1060.0, 0.010222069146115733
1061.0, 0.012503819616784305
1062.0, 0.016627440764112194
1063.0, 0.017195477780166214
1064.0, 0.014750216307164212
1065.0, 0.010615166472196097
1066.0, 0.012620331807210975
1067.0, 0.014753493389957443
1068.0, 0.019519617196664184
1069.0, 0.020383934916089815
1070.0, 0.01816001947333361
1071.0, 0.020752093335667618
1072.0, 0.024733336859807595
1073.0, 0.023772337090629606
1074.0, 0.022012951200788722
1075.0, 0.025938606399450698
1076.0, 0.027806889549257516
1077.0, 0.028492422230314576
1078.0, 0.0332704599535605
1079.0, 0.034805448276276664
1080.0, 0.0346520426428853
1081.0, 0.0373266171990022
1082.0, 0.04167183480667522
1083.0, 0.04233113064968534
1084.0, 0.038474347982631274
1085.0, 0.03763093444325274
1086.0, 0.04262431000654386
1087.0, 0.040800611972650336
1088.0, 0.03619370858131851
1089.0, 0.03557213339683584
1090.0, 0.03527034498717123
1091.0, 0.034667411434416553
1092.0, 0.030324107252805987
1093.0, 0.02500654318795754
1094.0, 0.025365065427384047
1095.0, 0.02607372938454252
1096.0, 0.021929090183223705
1097.0, 0.019164083313464815
1098.0, 0.018386661385379557
1099.0, 0.013626175751776276
1100.0, 0.01450235084333001
1101.0, 0.01592198326538886
1102.0, 0.015312474173305056
1103.0, 0.014369724233944614
1104.0, 0.013829598801612865
1105.0, 0.015462403886453393
1106.0, 0.014019020189599146
1107.0, 0.009920184241007084
1108.0, 0.01028727523290219
1109.0, 0.012143072399845327
1110.0, 0.00877914110707235
1111.0, 0.007134494406055407
1112.0, 0.005301724512361251
1113.0, 0.005188789701315625
1114.0, 0.007514764375104842
1115.0, 0.004952438327111065
1116.0, 0.007270963065960612
1117.0, 0.0040515655686822446
1118.0, 0.008676326078688573
1119.0, 0.007732675514528219
1120.0, 0.003121471439144979
1121.0, 0.006978503895499311
1122.0, 0.006162232538852405
1123.0, 0.0041771253131191255
1124.0, 0.005399965894463795
1125.0, 0.002464905318346863
1126.0, 0.005133242943106246
1127.0, 0.002044620658192676
1128.0, 0.0011911398340287854
1129.0, 0.002656798945529857
1130.0, 0.006389139603401637
1131.0, 0.002359536890537392
1132.0, 0.00022842763917365076
1133.0, 0.0019203200063126612
1134.0, 0.0005709167683052129
1135.0, 0.0018638134895711425
1136.0, 0.0030926483955529506
1137.0, 0.0016413793308815733
1138.0, 0.00044470233211679235
1139.0, 0.0007483295908217163
1140.0, 0.0003984508686907446
1141.0, 0.0013559780344087804
1142.0, 0.0005591947913947315
1143.0, 0.0002490397500762971
1144.0, 0.0012982656193425326
1145.0, 0.001757368266393605
1146.0, 0.0016479655524594514
1147.0, 0.0025772726765078565
1148.0, 0.0013285190441557012
1149.0, 0.0001723066387668453
1150.0, 0.0010188000952939301
1151.0, 0.00347819409381935
1152.0, 0.003029546204172974
1153.0, 0.0032539212530123527
1154.0, 0.004555806986992149
1155.0, 0.0026123439965850905
1156.0, 0.0008778839315309856
1157.0, 0.0018728572630856695
1158.0, 0.00047138994463083564
1159.0, 0.0017907500138298984
1160.0, 0.005071437972419411
1161.0, 0.004872368623546961
1162.0, 0.00464851197937924
1163.0, 0.007428585855898558
1164.0, 0.004598768556144094
1165.0, 0.004562675344947823
1166.0, 0.004961636442395301
1167.0, 0.002262580053368427
1168.0, 0.0010619602180018959
1169.0, 0.0024860423542765963
1170.0, 0.0024061991202801412
1171.0, 0.002988765701312406
1172.0, 0.0024279461919587547
1173.0, 0.004470233739276925
1174.0, 0.003622759019844238
1175.0, 0.006138378639493058
1176.0, 0.007862045500918834
1177.0, 0.0055878961968762325
1178.0, 0.005224929792123432
1179.0, 0.005442044584881512
1180.0, 0.0036520440481094983
1181.0, 0.006375766750269353
1182.0, 0.0079489825763802
1183.0, 0.0064205549614394265
1184.0, 0.0067671532064226825
1185.0, 0.009141014651027703
1186.0, 0.01299431990921061
1187.0, 0.008903704213472401
1188.0, 0.005526573713323522
1189.0, 0.009043662948103395
1190.0, 0.011129738811480753
1191.0, 0.009396942873404009
1192.0, 0.00725399839187827
1193.0, 0.002966644171706249
1194.0, 0.007973507461103856
1195.0, 0.008135121465616013
1196.0, 0.00619112248158634
1197.0, 0.0017090886360351817
1198.0, 0.0040640421312320135
1199.0, 0.008356167203320372
1200.0, 0.011195888152148356
1201.0, 0.00793399504581316
1202.0, 0.006933922701986764
1203.0, 0.010536170494513749
1204.0, 0.011129740860007632
1205.0, 0.008135038420696628
1206.0, 0.0027359935096436423
1207.0, 0.007078947491386424
1208.0, 0.008157942416177838
1209.0, 0.00783421629490602
1210.0, 0.0096705423950183
1211.0, 0.0074494109990500094
1212.0, 0.0054177295886646
1213.0, 0.008969168774876746
1214.0, 0.010075808094255961
1215.0, 0.007343182148349398
1216.0, 0.00514066147063646
1217.0, 0.0027605348080530175
1218.0, 0.0020503461762778324
1219.0, 0.005789678685897021
1220.0, 0.008746613123620092
1221.0, 0.0011403722055304522
1222.0, 0.004623782005450713
1223.0, 0.0079749705532618
1224.0, 0.006014344367225048
1225.0, 0.0022785366629790036
1226.0, 0.0007447795053284712
1227.0, 0.0002233865672669808
1228.0, 0.0007859823609633249
1229.0, 0.0030239113796434883
1230.0, 0.004012779170528817
1231.0, 7.00468670985622e-05
1232.0, 0.0008447641471274513
1233.0, 0.0013959843905622538
1234.0, 0.0006144766583046128
1235.0, 0.0006251876216917168
1236.0, 0.0017516352726683498
1237.0, 0.0006348043851162232
1238.0, 0.0029202173536447646
1239.0, 0.005035092114627321
1240.0, 0.002224920213895653
1241.0, 0.002309828447175862
1242.0, 0.004941554259583675
1243.0, 0.004075294618343579
1244.0, 0.0017486220823546392
1245.0, 0.00083103958411162
1246.0, 0.003111656149625221
1247.0, 0.0009638058208033085
1248.0, 9.440115827944574e-05
1249.0, 0.00041158161358954555
1250.0, 0.005206255915198546
1251.0, 0.002941469252627934
1252.0, 0.0002974351843540996
1253.0, 0.003536116386475764
1254.0, 0.004577955187473739
1255.0, 0.0031100283588796898
1256.0, 0.00638586283716502
1257.0, 0.006949295299484776
1258.0, 0.005113215739410302
1259.0, 0.0045934380706766625
1260.0, 0.0016627439461495551
1261.0, 0.004330282085051477
1262.0, 0.005868340512927896
1263.0, 0.0035790806505360826
1264.0, 0.0017032090813775195
1265.0, 0.001419862730340594
1266.0, 0.00458748754012623
1267.0, 0.005012382716000992
1268.0, 0.0025948485720902205
1269.0, 0.0025739342325084473
1270.0, 0.0037314032912314455
1271.0, 0.0048490700823929644
1272.0, 0.005303078479523937
1273.0, 0.0008744985960099709
1274.0, 0.003524794767416723
1275.0, 0.0036986692530899938
1276.0, 0.00362657513812319
1277.0, 0.006406419208485977
1278.0, 0.00279200839810782
1279.0, 0.001561790885609464
1280.0, 0.0019711406963897338
1281.0, 0.00220361237884604
1282.0, 0.0023602335373421653
1283.0, 3.514667549095505e-05
1284.0, 0.0027993771818895815
1285.0, 0.004366452376168074
1286.0, 0.0006837824934153756
1287.0, 0.003163191979372343
1288.0, 0.006652901883874254
1289.0, 0.004283308488582405
1290.0, 0.002440147090756139
1291.0, 0.00552036467540724
1292.0, 0.005919957980175774
1293.0, 0.0037572498651738803
1294.0, 0.003976296815462526
1295.0, 0.0031571256251793716
1296.0, 0.001825836026539262
1297.0, 0.0037150095157790363
1298.0, 0.0022300492742198903
1299.0, 0.0001823477264433431
1300.0, 0.001926281252515558
1301.0, 0.0004427610198904443
1302, 0.0
1303, 0.0
1304, 0.0
1305, 0.0
1306, 0.0
1307, 0.0
1308, 0.0
1309, 0.0
1310, 0.0
1311, 0.0
1312, 0.0
1313, 0.0
1314, 0.0
1315, 0.0
1316, 0.0
1317, 0.0
1318, 0.0
1319, 0.0
1320, 0.0
1321, 0.0
1322, 0.0
1323, 0.0
1324, 0.0
1325, 0.0
1326, 0.0
1327, 0.0
1328, 0.0
1329, 0.0
1330, 0.0
1331, 0.0
1332, 0.0
1333, 0.0
1334, 0.0
1335, 0.0
1336, 0.0
1337, 0.0
1338, 0.0
1339, 0.0
1340, 0.0
1341, 0.0
1342, 0.0
1343, 0.0
1344, 0.0
1345, 0.0
1346, 0.0
1347, 0.0
1348, 0.0
1349, 0.0
1350, 0.0
1351, 0.0
1352, 0.0
1353, 0.0
1354, 0.0
1355, 0.0
1356, 0.0
1357, 0.0
1358, 0.0
1359, 0.0
1360, 0.0
1361, 0.0
1362, 0.0
1363, 0.0
1364, 0.0
1365, 0.0
1366, 0.0
1367, 0.0
1368, 0.0
1369, 0.0
1370, 0.0
1371, 0.0
1372, 0.0
1373, 0.0
1374, 0.0
1375, 0.0
1376, 0.0
1377, 0.0
1378, 0.0
1379, 0.0
1380, 0.0
1381, 0.0
1382, 0.0
1383, 0.0
1384, 0.0
1385, 0.0
1386, 0.0
1387, 0.0
1388, 0.0
1389, 0.0
1390, 0.0
1391, 0.0
1392, 0.0
1393, 0.0
1394, 0.0
1395, 0.0
1396, 0.0
1397, 0.0
1398, 0.0
1399, 0.0
1400, 0.0
1401, 0.0
1402, 0.0
1403, 0.0
1404, 0.0
1405, 0.0
1406, 0.0
1407, 0.0
1408, 0.0
1409, 0.0
1410, 0.0
1411, 0.0
1412, 0.0
1413, 0.0
1414, 0.0
1415, 0.0
1416, 0.0
1417, 0.0
1418, 0.0
1419, 0.0
1420, 0.0
1421, 0.0
1422, 0.0
1423, 0.0
1424, 0.0
1425, 0.0
1426, 0.0
1427, 0.0
1428, 0.0
1429, 0.0
1430, 0.0
1431, 0.0
1432, 0.0
1433, 0.0
1434, 0.0
1435, 0.0
1436, 0.0
1437, 0.0
1438, 0.0
1439, 0.0
1440, 0.0
1441, 0.0
1442, 0.0
1443, 0.0
1444, 0.0
1445, 0.0
1446, 0.0
1447, 0.0
1448, 0.0
1449, 0.0
1450, 0.0
1451, 0.0
1452, 0.0
1453, 0.0
1454, 0.0
1455, 0.0
1456, 0.0
1457, 0.0
1458, 0.0
1459, 0.0
1460, 0.0
1461, 0.0
1462, 0.0
1463, 0.0
1464, 0.0
1465, 0.0
1466, 0.0
1467, 0.0
1468, 0.0
1469, 0.0
1470, 0.0
1471, 0.0
1472, 0.0
1473, 0.0
1474, 0.0
1475, 0.0
1476, 0.0
1477, 0.0
1478, 0.0
1479, 0.0
1480, 0.0
1481, 0.0
1482, 0.0
1483, 0.0
1484, 0.0
1485, 0.0
1486, 0.0
1487, 0.0
1488, 0.0
1489, 0.0
1490, 0.0
1491, 0.0
1492, 0.0
1493, 0.0
1494, 0.0
1495, 0.0
1496, 0.0
1497, 0.0
1498, 0.0
1499, 0.0
1500, 0.0
1501, 0.0
1502, 0.0
1503, 0.0
1504, 0.0
1505, 0.0
1506, 0.0
1507, 0.0
1508, 0.0
1509, 0.0
1510, 0.0
1511, 0.0
1512, 0.0
1513, 0.0
1514, 0.0
1515, 0.0
1516, 0.0
1517, 0.0
1518, 0.0
1519, 0.0
1520, 0.0
1521, 0.0
1522, 0.0
1523, 0.0
1524, 0.0
1525, 0.0
1526, 0.0
1527, 0.0
1528, 0.0
1529, 0.0
1530, 0.0
1531, 0.0
1532, 0.0
1533, 0.0
1534, 0.0
1535, 0.0
1536, 0.0
1537, 0.0
1538, 0.0
1539, 0.0
1540, 0.0
1541, 0.0
1542, 0.0
1543, 0.0
1544, 0.0
1545, 0.0
1546, 0.0
1547, 0.0
1548, 0.0
1549, 0.0
1550, 0.0
1551, 0.0
1552, 0.0
1553, 0.0
1554, 0.0
1555, 0.0
1556, 0.0
1557, 0.0
1558, 0.0
1559, 0.0
1560, 0.0
1561, 0.0
1562, 0.0
1563, 0.0
1564, 0.0
1565, 0.0
1566, 0.0
1567, 0.0
1568, 0.0
1569, 0.0
1570, 0.0
1571, 0.0
1572, 0.0
1573, 0.0
1574, 0.0
1575, 0.0
1576, 0.0
1577, 0.0
1578, 0.0
1579, 0.0
1580, 0.0
1581, 0.0
1582, 0.0
1583, 0.0
1584, 0.0
1585, 0.0
1586, 0.0
1587, 0.0
1588, 0.0
1589, 0.0
1590, 0.0
1591, 0.0
1592, 0.0
1593, 0.0
1594, 0.0
1595, 0.0
1596, 0.0
1597, 0.0
1598, 0.0
1599, 0.0
