30, 0.0
31, 0.0
32, 0.0
33, 0.0
34, 0.0
35, 0.0
36, 0.0
37, 0.0
38, 0.0
39, 0.0
40, 0.0
41, 0.0
42, 0.0
43, 0.0
44, 0.0
45, 0.0
46, 0.0
47, 0.0
48, 0.0
49, 0.0
50, 0.0
51, 0.0
52, 0.0
53, 0.0
54, 0.0
55, 0.0
56, 0.0
57, 0.0
58, 0.0
59, 0.0
60, 0.0
61, 0.0
62, 0.0
63, 0.0
64, 0.0
65, 0.0
66, 0.0
67, 0.0
68, 0.0
69, 0.0
70, 0.0
71, 0.0
72, 0.0
73, 0.0
74, 0.0
75, 0.0
76, 0.0
77, 0.0
78, 0.0
79, 0.0
80, 0.0
81, 0.0
82, 0.0
83, 0.0
84, 0.0
85, 0.0
86, 0.0
87, 0.0
88, 0.0
89, 0.0
90, 0.0
91, 0.0
92, 0.0
93, 0.0
94, 0.0
95, 0.0
96, 0.0
97, 0.0
98, 0.0
99, 0.0
100, 0.0
101.0, 0.0023929382997810895
102.0, 0.00889182921035865
103.0, 0.018955501252596492
104.0, 0.03068674598329086
105.0, 0.04339145894618186
106.0, 0.05604249360309348
107.0, 0.06539861874057813
108.0, 0.06549873008294399
109.0, 0.05729573003519617
110.0, 0.041891470876332465
111.0, 0.027447899541212115
112.0, 0.016578064791682393
113.0, 0.0075459087786961185
114.0, 0.0021309447961453463
115.0, 0.0015367392712779713
116.0, 0.001080040275933698
117.0, 0.001365022780498284
118.0, 0.004073152641907487
119.0, 0.004948030165085909
120.0, 0.007651964757555912
121.0, 0.010501559246463593
122.0, 0.016489952344007935
123.0, 0.02582543585372659
124.0, 0.028961054450591158
125.0, 0.03738338964729
126.0, 0.04230255203004856
127.0, 0.04482681008054842
128.0, 0.04526016752493976
129.0, 0.0418206052755377
130.0, 0.04466540491055474
131.0, 0.04486565665838131
132.0, 0.04458322179224958
133.0, 0.044703746836631114
134.0, 0.044729508458028734
135.0, 0.03930970408740785
136.0, 0.03567111223098532
137.0, 0.0346344737335244
138.0, 0.03611146320318629
139.0, 0.03900046961646348
140.0, 0.039764736738934894
141.0, 0.045606651947128395
142.0, 0.055041281848277855
143.0, 0.06223594475055691
144.0, 0.06790152371958352
145.0, 0.08517692274261392
146.0, 0.10028378076259041
147.0, 0.11811276908605436
148.0, 0.1361953600555979
149.0, 0.15219783758266894
150.0, 0.16413575814506934
151.0, 0.16845537242902198
152.0, 0.1617178977441255
153.0, 0.15080401147923994
154.0, 0.1378233340411719
155.0, 0.12453161233248192
156.0, 0.11849477074147725
157.0, 0.11583607899574185
158.0, 0.11590667337317935
159.0, 0.1180561837877885
160.0, 0.12076986218512552
161.0, 0.12128062215617466
162.0, 0.122853944148135
163.0, 0.12055174684027646
164.0, 0.11952445972006001
165.0, 0.122653393937404
166.0, 0.13039224899329926
167.0, 0.1404297515815638
168.0, 0.15012181068569957
169.0, 0.1650496318608609
170.0, 0.18536016555562748
171.0, 0.2076837945986283
172.0, 0.2233507909043754
173.0, 0.23551029584714422
174.0, 0.25172762053641845
175.0, 0.26491095563748396
176.0, 0.27145460542361155
177.0, 0.27441940959638234
178.0, 0.27881701952624166
179.0, 0.28377192144591074
180.0, 0.2827080815784192
181.0, 0.2763660040079401
182.0, 0.2689951651767362
183.0, 0.2611244314839963
184.0, 0.24741788010738294
185.0, 0.2342570994180886
186.0, 0.2220708227870706
187.0, 0.2131297262005589
188.0, 0.2153099818163788
189.0, 0.20955343938930837
190.0, 0.20743514858710238
191.0, 0.2088255172829876
192.0, 0.20953515245193102
193.0, 0.20379896164161931
194.0, 0.1952601665881614
195.0, 0.1890323489607641
196.0, 0.17315822568304237
197.0, 0.15529705846664155
198.0, 0.14262891377690143
199.0, 0.12664414586259115
200.0, 0.11368610934394668
201.0, 0.10302443776045782
202.0, 0.09470628571914692
203.0, 0.08879181609569381
204.0, 0.08507119053706504
205.0, 0.08008557940928131
206.0, 0.07358567518160318
207.0, 0.06879106624121716
208.0, 0.06418575721824397
209.0, 0.057913090754600945
210.0, 0.051889517974928016
211.0, 0.04770722021794181
212.0, 0.04269862206703716
213.0, 0.03850938995582567
214.0, 0.03382687031499616
215.0, 0.024818463600433747
216.0, 0.01901748360833502
217.0, 0.016091523077347104
218.0, 0.0131549359478553
219.0, 0.010226382910909165
220.0, 0.008350008719344227
221.0, 0.008637991867612627
222.0, 0.006927556509686368
223.0, 0.005182843683743603
224.0, 0.0055072534458225995
225.0, 0.006000059265741083
226.0, 0.0019328788449021112
227.0, 0.002098753591664574
228.0, 0.003854248997389035
229.0, 0.0035501687284318624
230.0, 0.0024951545715879036
231.0, 0.0024146634142864763
232.0, 0.0018363719892402776
233.0, 0.0016894438192289025
234.0, 0.0030840755006506515
235.0, 0.0036561862829805115
236.0, 0.002993464719692898
237.0, 0.0026371317871008515
238.0, 0.00486498786177725
239.0, 0.004037914878864313
240.0, 0.0018856090039763686
241.0, 0.0004451685614627155
242.0, 0.0005205497002928369
243.0, 0.00022572160491977626
244.0, 9.070928255363366e-05
245.0, 0.0018353081619561903
246.0, 0.002414356127087311
247.0, 0.0015212320053118208
248.0, 0.0012725165436630677
249.0, 0.006741798046131595
250.0, 0.002094348937915506
251.0, 0.00029911541916255414
252.0, 0.0006728389758367809
253.0, 0.0015051213392814045
254.0, 0.002906522225493314
255.0, 0.004309079623977309
256.0, 0.002866935452697236
257.0, 0.005767838833458011
258.0, 0.009953735868175424
259.0, 0.01041067246808734
260.0, 0.010309426784383884
261.0, 0.011316896233106288
262.0, 0.013158792824763002
263.0, 0.012596560195097353
264.0, 0.011219772674082513
265.0, 0.013900331004133121
266.0, 0.01448131854798556
267.0, 0.012423812514928786
268.0, 0.011709246858887693
269.0, 0.011985553749126677
270.0, 0.012446048632050996
271.0, 0.013394946957560596
272.0, 0.013275379702809974
273.0, 0.011813403126075933
274.0, 0.01245086629126907
275.0, 0.013315906717776046
276.0, 0.01240867331272478
277.0, 0.017664006617860543
278.0, 0.01562681137376216
279.0, 0.013890174047110565
280.0, 0.011373894176425783
281.0, 0.010241091233848991
282.0, 0.01433970303165736
283.0, 0.009237378220068667
284.0, 0.00927629072627338
285.0, 0.008305849289800693
286.0, 0.006849001097460051
287.0, 0.0062827809117911235
288.0, 0.006627616647564826
289.0, 0.0048310753075580335
290.0, 0.005069823510020957
291.0, 0.004337886125639526
292.0, 0.0025822854619315027
293.0, 0.0014064119983768749
294.0, 0.0031426433210326845
295.0, 0.003387795894892489
296.0, 0.0030780786713977583
297.0, 0.0020189869019066405
298.0, 0.0009854450835295344
299.0, 0.0013893410456352882
300.0, 0.004165453661060992
301.0, 0.0025441651274337868
302.0, 0.0032784083706176594
303.0, 0.005035717265816448
304.0, 0.005209916231888402
305.0, 0.002153441761198864
306.0, 0.004116738716650831
307.0, 0.001782373771105063
308.0, 0.0016374668601852559
309.0, 0.0025272562623806327
310.0, 0.002584610615066453
311.0, 0.0028267650833252917
312.0, 0.002889687473566421
313.0, 0.005908445268379387
314.0, 0.007246904739344542
315.0, 0.007659746063585842
316.0, 0.009683321358226516
317.0, 0.013526451142257347
318.0, 0.013900038427915538
319.0, 0.0158765191936018
320.0, 0.020454301489685627
321.0, 0.024557359785607
322.0, 0.025329701575601812
323.0, 0.03197727104874582
324.0, 0.03366179469857303
325.0, 0.0355015762610526
326.0, 0.03808612254921059
327.0, 0.040460467000445435
328.0, 0.04104192030424094
329.0, 0.04027346318327529
330.0, 0.03777286265606135
331.0, 0.03572955072524513
332.0, 0.0324992356440493
333.0, 0.027743498533923307
334.0, 0.023797365563585603
335.0, 0.025866808078255636
336.0, 0.026244327327560962
337.0, 0.026983782531277232
338.0, 0.026772737232336107
339.0, 0.026536494973223426
340.0, 0.03131990770125577
341.0, 0.03104370538146924
342.0, 0.03550677210548343
343.0, 0.04147530120850631
344.0, 0.04817691128078692
345.0, 0.055172565651524216
346.0, 0.06107640678966531
347.0, 0.07155387248178471
348.0, 0.07899818013871561
349.0, 0.08432313019982889
350.0, 0.0900170101430166
351.0, 0.09688960627140628
352.0, 0.10032702575526269
353.0, 0.09972519796648638
354.0, 0.09892704793473318
355.0, 0.09824061767995233
356.0, 0.09611420388499671
357.0, 0.09157085652085399
358.0, 0.08782362282542633
359.0, 0.08076692002396942
360.0, 0.07392918122752673
361.0, 0.06980101370552978
362.0, 0.06826658394426577
363.0, 0.06766682059551397
364.0, 0.06661970349686162
365.0, 0.06673349108814079
366.0, 0.06740655797644132
367.0, 0.06872706843695875
368.0, 0.07004500773515436
369.0, 0.07117688834527838
370.0, 0.07539523140373
371.0, 0.0761374152498922
372.0, 0.07823472434870836
373.0, 0.07999438879081047
374.0, 0.08186502738552383
375.0, 0.08471875588208881
376.0, 0.08408241383085911
377.0, 0.08114546040496175
378.0, 0.08003542092893844
379.0, 0.08137498625205916
380.0, 0.08396558868867406
381.0, 0.08601921211688761
382.0, 0.08759865676158793
383.0, 0.0891021314931413
384.0, 0.09076810330085909
385.0, 0.09512280232321302
386.0, 0.09944833244713075
387.0, 0.10012580542923452
388.0, 0.10428217241616251
389.0, 0.10271708523561028
390.0, 0.09982722272542338
391.0, 0.09365812492682878
392.0, 0.08611585001759438
393.0, 0.08051277140798634
394.0, 0.07497223103147438
395.0, 0.06494512026231214
396.0, 0.060937583228023284
397.0, 0.05452426862641703
398.0, 0.046671048667212826
399.0, 0.04334187271743479
400.0, 0.044703373427675004
401.0, 0.04535149565877162
402.0, 0.04350880660678732
403.0, 0.04482920947831406
404.0, 0.04779138988700345
405.0, 0.049544999676370514
406.0, 0.05553416541949096
407.0, 0.05298296625464722
408.0, 0.05240978312002735
409.0, 0.05636299609979512
410.0, 0.059637311847168265
411.0, 0.05804990157847342
412.0, 0.05808382983286677
413.0, 0.060213989195737116
414.0, 0.05623331220021034
415.0, 0.0544871431832633
416.0, 0.05412629121814332
417.0, 0.05177440002842215
418.0, 0.04720861246533589
419.0, 0.04322137525947805
420.0, 0.03978528548723387
421.0, 0.035513734038339254
422.0, 0.0308305644518073
423.0, 0.026487864135124484
424.0, 0.02261450629098465
425.0, 0.017495023048499515
426.0, 0.014575804609472451
427.0, 0.01352386980266462
428.0, 0.011334325584579374
429.0, 0.00831828556587957
430.0, 0.008548786133524337
431.0, 0.008252231072876075
432.0, 0.010316009162548868
433.0, 0.010230905784007214
434.0, 0.007484205892075727
435.0, 0.004409061169147004
436.0, 0.0039412068398812245
437.0, 0.002833290373297267
438.0, 0.002520306014595236
439.0, 0.0028709218124508516
440.0, 0.0031453708297076674
441.0, 0.0028237653297441536
442.0, 0.001847393984639393
443.0, 0.0008315598030660461
444.0, 0.0005980758184882649
445.0, 0.0009434271615675962
446.0, 0.0023814493982040356
447.0, 0.003214240247923817
448.0, 0.0024394519990591093
449.0, 0.0027018524479373793
450.0, 0.0004476453629669564
451.0, 0.0019244311968761474
452.0, 0.001605986351708617
453.0, 0.0014860344212483706
454.0, 0.00251827490859491
455.0, 0.001130808845795231
456.0, 0.0026527790183280284
457.0, 0.0008703509597312932
458.0, 0.0007378224471806974
459.0, 0.0009526184936143841
460.0, 0.0022036780741854236
461.0, 0.006970592087928785
462.0, 0.010465714471061155
463.0, 0.012106967988568543
464.0, 0.01473572636785986
465.0, 0.014713897280104589
466.0, 0.015406673492141944
467.0, 0.0198942784536874
468.0, 0.016619089572684865
469.0, 0.020869353348530992
470.0, 0.017904024408839002
471.0, 0.015529123179930389
472.0, 0.014205873828102202
473.0, 0.012232884383672515
474.0, 0.01019408146948682
475.0, 0.009508338824479087
476.0, 0.007048942740085329
477.0, 0.006987665876296897
478.0, 0.006171899676572352
479.0, 0.004112376507241283
480.0, 0.004255617293473752
481.0, 0.006519449145389985
482.0, 0.004893201616133084
483.0, 0.0032051408870825034
484.0, 0.003069125288442443
485.0, 0.0037634567125215826
486.0, 0.0037010385122275254
487.0, 0.0027315022531081297
488.0, 0.0015138329617357064
489.0, 0.0011600490763297583
490.0, 0.0014589309754611006
491.0, 0.0021962445353884926
492.0, 0.0023952929441068615
493.0, 0.0008366970291651789
494.0, 0.003084392226242301
495.0, 0.003812258461338506
496.0, 0.0032594992315650028
497.0, 0.0030588544141521854
498.0, 0.004143969591475876
499.0, 0.006535496287282982
500.0, 0.010078064015280521
501.0, 0.006742899159064051
502.0, 0.008350087397386664
503.0, 0.009583468798738509
504.0, 0.010801446407933802
505.0, 0.013026358568351087
506.0, 0.013964834334993938
507.0, 0.016709124774454
508.0, 0.015196513189350749
509.0, 0.01663607073421613
510.0, 0.017036646100558536
511.0, 0.016511369457653625
512.0, 0.018872089633037884
513.0, 0.01997579880924305
514.0, 0.01755570240989361
515.0, 0.015868322768947535
516.0, 0.016590365665159073
517.0, 0.01786761703188233
518.0, 0.018177326045672963
519.0, 0.01911454270258458
520.0, 0.01899657917327817
521.0, 0.01970417459421523
522.0, 0.020130047520031603
523.0, 0.019739539649315876
524.0, 0.019653498515386426
525.0, 0.021151977104343047
526.0, 0.02170405495915171
527.0, 0.02235919847614673
528.0, 0.025849072902005266
529.0, 0.026967077776302653
530.0, 0.026718061890630435
531.0, 0.02677942492411776
532.0, 0.026193629627218617
533.0, 0.03017362033563467
534.0, 0.028883896156445127
535.0, 0.026373521634427754
536.0, 0.022853492041943108
537.0, 0.019391189747722155
538.0, 0.01769596476146266
539.0, 0.018424251132324397
540.0, 0.01892647761647577
541.0, 0.015242928750202975
542.0, 0.012473187972328008
543.0, 0.011303734598954378
544.0, 0.009771627296872514
545.0, 0.006648524240509322
546.0, 0.01072922564098621
547.0, 0.009226084316232518
548.0, 0.007039422198732188
549.0, 0.005917839092851245
550.0, 0.0055936070302754675
551.0, 0.00532951139780625
552.0, 0.005510795752134051
553.0, 0.008406799321606751
554.0, 0.00799334421318123
555.0, 0.006761373230929414
556.0, 0.007375550510787237
557.0, 0.010455283432166642
558.0, 0.01492582016241321
559.0, 0.019911879244379833
560.0, 0.018777875736937105
561.0, 0.018548194764288876
562.0, 0.021219855761857625
563.0, 0.02144264506168392
564.0, 0.019341060741236166
565.0, 0.021201454879623174
566.0, 0.020950048105817878
567.0, 0.02380451760054693
568.0, 0.02341032504799834
569.0, 0.023142011500663993
570.0, 0.024447043575545974
571.0, 0.02576943552578428
572.0, 0.02461114396166071
573.0, 0.031280855659425136
574.0, 0.033570659368278376
575.0, 0.031904546671804965
576.0, 0.03136223754610018
577.0, 0.03450384777316304
578.0, 0.0385797954059635
579.0, 0.03631402348921004
580.0, 0.044699080225375075
581.0, 0.04444184644833919
582.0, 0.04539978078451485
583.0, 0.04840998880451481
584.0, 0.0518536463862824
585.0, 0.05406080211943365
586.0, 0.05468040697557928
587.0, 0.06148011160190281
588.0, 0.06496713696425947
589.0, 0.0652986746086418
590.0, 0.06690125085851706
591.0, 0.07231481594254531
592.0, 0.07966910254309056
593.0, 0.08316075915035019
594.0, 0.0880370277453892
595.0, 0.09788138018254303
596.0, 0.10723093505216436
597.0, 0.11772718388323955
598.0, 0.13144125103319043
599.0, 0.14747270716579433
600.0, 0.16356764255570388
601.0, 0.1811914249945371
602.0, 0.20859684585139954
603.0, 0.23732388651808078
604.0, 0.2731129534556947
605.0, 0.3172936016730642
606.0, 0.36192085887064995
607.0, 0.42078046158215515
608.0, 0.48350672158910646
609.0, 0.5590830501158149
610.0, 0.6430491978602471
611.0, 0.7289388480500401
612.0, 0.8107251467723595
613.0, 0.8852741055277339
614.0, 0.9572265500810758
615.0, 0.9905444470486836
616.0, 0.9991458189584052
617.0, 0.9736688958788003
618.0, 0.9146368832601963
619.0, 0.8293870313221011
620.0, 0.7272246539437237
621.0, 0.6212301852813364
622.0, 0.5248213232981959
623.0, 0.4385281275577069
624.0, 0.3607651449494704
625.0, 0.29821686788978163
626.0, 0.252040592219179
627.0, 0.21228653389799695
628.0, 0.1840738627752729
629.0, 0.15206704482860747
630.0, 0.13114854611693813
631.0, 0.11292884189561495
632.0, 0.0974811440438949
633.0, 0.08576933387429433
634.0, 0.07439372540868096
635.0, 0.06633973492387067
636.0, 0.06103344932136578
637.0, 0.05427141341155829
638.0, 0.04893231092121658
639.0, 0.04430087694311822
640.0, 0.03929151282368114
641.0, 0.034803576837599486
642.0, 0.03234062208305298
643.0, 0.0295793752185343
644.0, 0.029091747631805248
645.0, 0.02829418779231376
646.0, 0.026981959605242134
647.0, 0.024987457568156488
648.0, 0.022369106168592792
649.0, 0.024106494144925165
650.0, 0.02430382130128552
651.0, 0.019674001589560192
652.0, 0.021803391770063508
653.0, 0.022443727662725992
654.0, 0.017446822671179626
655.0, 0.01298600953440004
656.0, 0.013530510569882859
657.0, 0.01574863366368459
658.0, 0.015341953604468857
659.0, 0.014186828029245493
660.0, 0.01607873324684406
661.0, 0.015906361443650034
662.0, 0.010162847845812095
663.0, 0.014533508666700397
664.0, 0.016214318530168026
665.0, 0.013677757916859427
666.0, 0.010915188612246399
667.0, 0.009879113992033391
668.0, 0.009396218515539687
669.0, 0.00850230252291416
670.0, 0.009242267936603238
671.0, 0.008694715333097656
672.0, 0.00926850173169556
673.0, 0.010532854280395854
674.0, 0.009837314772374596
675.0, 0.010420264256338267
676.0, 0.012847091956649525
677.0, 0.011571842399836378
678.0, 0.008795109315391743
679.0, 0.01105680896942676
680.0, 0.010362875544284337
681.0, 0.008885710916985402
682.0, 0.010564721664681271
683.0, 0.012721544684987662
684.0, 0.010518705771980323
685.0, 0.012842113072945607
686.0, 0.012400551261436868
687.0, 0.011377332323804992
688.0, 0.010902590394061043
689.0, 0.010066551146453441
690.0, 0.010731532873767729
691.0, 0.013049580997582909
692.0, 0.010846064571014299
693.0, 0.009901773879945484
694.0, 0.00878277221999275
695.0, 0.006034497456702737
696.0, 0.009096519605796405
697.0, 0.012086509157731531
698.0, 0.01028812758334339
699.0, 0.009807084687277666
700.0, 0.015774793352430705
701.0, 0.009463774005213381
702.0, 0.008984680857350453
703.0, 0.009856317972701248
704.0, 0.009939988035988149
705.0, 0.009726516970647168
706.0, 0.009544260292664506
707.0, 0.006852648904481429
708.0, 0.012250401819137769
709.0, 0.016407276359838446
710.0, 0.018614978384658653
711.0, 0.018099392701759063
712.0, 0.0165986172225656
713.0, 0.016373153133949766
714.0, 0.018204269927853654
715.0, 0.022174327333810185
716.0, 0.024564403986421117
717.0, 0.029238065941668487
718.0, 0.03131345427173678
719.0, 0.034210634852936905
720.0, 0.03978056592926729
721.0, 0.04565306072461747
722.0, 0.04962256593324305
723.0, 0.05877303934916002
724.0, 0.07276473090327908
725.0, 0.08425324546065063
726.0, 0.09421114892734618
727.0, 0.10434214698538855
728.0, 0.11535549678763637
729.0, 0.12662232937984128
730.0, 0.13640777796110515
731.0, 0.13863185209522308
732.0, 0.1356172314896508
733.0, 0.12972326776508683
734.0, 0.1218034944936297
735.0, 0.10880545883685437
736.0, 0.09152937675412912
737.0, 0.0803124676399863
738.0, 0.06806776333183913
739.0, 0.056347644653183884
740.0, 0.046662875157250205
741.0, 0.038255592367093874
742.0, 0.03084807008649691
743.0, 0.02582352444627269
744.0, 0.023540118683931063
745.0, 0.018625147579508998
746.0, 0.01634504562935795
747.0, 0.018136651100244768
748.0, 0.017223875088026506
749.0, 0.01218929391974141
750.0, 0.009447855423027757
751.0, 0.009463379801614201
752.0, 0.005318064715250561
753.0, 0.010543179486845331
754.0, 0.0014253489187334798
755.0, 0.003949704225465256
756.0, 0.003129469218867289
757.0, 0.006158022135888783
758.0, 0.008310981440540238
759.0, 0.003476351846692097
760.0, 0.0011803674415634528
761.0, 0.0005809417846806152
762.0, 0.004057425166089509
763.0, 0.002320203936426782
764.0, 0.004529812412422317
765.0, 0.004877382496830093
766.0, 0.0026530678794891593
767.0, 0.002891235967898707
768.0, 0.004678401450531559
769.0, 0.0018211081611025854
770.0, 0.0021421545565908236
771.0, 0.0027715230211642857
772.0, 0.0015820237378345351
773.0, 0.0015240411671663767
774.0, 0.0020621366565335086
775.0, 0.0010904669748546159
776.0, 0.0029741415889288506
777.0, 0.002324606252757404
778.0, 0.0007755370201092168
779.0, 0.001811435625627755
780.0, 0.0018577580442757106
781.0, 0.0012983056125813275
782.0, 0.001166973528581896
783.0, 0.001895205102949307
784.0, 0.004886880808708267
785.0, 0.0038817773081465837
786.0, 0.001957180487519454
787.0, 0.0025866150571477015
788.0, 0.0015844276744433764
789.0, 0.00027536330826977856
790.0, 0.000234108693851213
791.0, 0.001130437150825828
792.0, 0.003852243913641671
793.0, 0.0033452123431054583
794.0, 0.003021944436340391
795.0, 0.002994337397683366
796.0, 0.0024275411037831185
797.0, 0.0027453316932679462
798.0, 0.004783751317410652
799.0, 0.006394301581135713
800.0, 0.003592569135993385
801.0, 0.005083325549265923
802.0, 0.005708237378280154
803.0, 0.007141361523704144
804.0, 0.009897541848319877
805.0, 0.009368905696683234
806.0, 0.009483226579728173
807.0, 0.014739648306099683
808.0, 0.012782634499366547
809.0, 0.016880907601728935
810.0, 0.01182277456077023
811.0, 0.008733925323045639
812.0, 0.008853604401568455
813.0, 0.007519448730374304
814.0, 0.00527786612079201
815.0, 0.005556303875831703
816.0, 0.005779168344715025
817.0, 0.0030924455804578646
818.0, 0.003935950289959336
819.0, 0.0017238456954399423
820.0, 0.0013759230741544335
821.0, 0.0012302541380129239
822.0, 0.0005164094253992618
823.0, 0.0005287824314418861
824.0, 0.0018484825146963667
825.0, 0.0028269927158782997
826.0, 0.0036316199243667147
827.0, 0.0010943113938062985
828.0, 0.0016769779635406133
829.0, 0.0025365319576692055
830.0, 0.0021398009976555856
831.0, 0.002446448331342446
832.0, 0.0048632058028179334
833.0, 0.003936106347489797
834.0, 0.001636174213463279
835.0, 0.0017909078421595686
836.0, 0.002086858622901588
837.0, 0.002420032223125346
838.0, 0.002457165023898666
839.0, 0.004072791116081241
840.0, 0.0065264861962913406
841.0, 0.0014161290768207983
842.0, 0.005492105431549395
843.0, 0.0021061777371799476
844.0, 0.0029962239589525082
845.0, 0.002219149739181059
846.0, 0.0022324967319087264
847.0, 0.004361776175053988
848.0, 0.007394311319955601
849.0, 0.009186129669032943
850.0, 0.0008087699583217631
851.0, 0.00518066365320159
852.0, 0.004663789608619479
853.0, 0.0067189897299075926
854.0, 0.0072943974684481945
855.0, 0.006196943591723283
856.0, 0.008063785351161805
857.0, 0.013757626160892239
858.0, 0.012688424624292543
859.0, 0.013518529872196126
860.0, 0.01107917286798962
861.0, 0.007344928356807787
862.0, 0.009812077243020136
863.0, 0.015556268517316067
864.0, 0.018210253246719512
865.0, 0.016159727239879084
866.0, 0.01470495262822948
867.0, 0.017585205718887734
868.0, 0.01910560076163991
869.0, 0.016178283300217828
870.0, 0.015695916944261663
871.0, 0.01712459292368169
872.0, 0.017970040406035195
873.0, 0.018629865258040314
874.0, 0.019802742851547935
875.0, 0.016746300090239977
876.0, 0.011562128469251549
877.0, 0.01655283304477283
878.0, 0.01204571951052058
879.0, 0.009716081802390305
880.0, 0.01150662635672015
881.0, 0.01143646923262959
882.0, 0.010693533572405635
883.0, 0.015840409291370896
884.0, 0.01265293218288042
885.0, 0.008914331746369039
886.0, 0.010922491662233764
887.0, 0.012152581764208716
888.0, 0.012493852302047663
889.0, 0.016227476574840933
890.0, 0.016556789239596182
891.0, 0.01194628136554551
892.0, 0.01549016297933397
893.0, 0.011613211094339378
894.0, 0.012687704277230559
895.0, 0.013227680409591975
896.0, 0.015847001312928752
897.0, 0.017556732731648948
898.0, 0.016577240335921763
899.0, 0.014871564739653984
900.0, 0.015676046182226327
901.0, 0.01939213333363278
902.0, 0.023786210188099382
903.0, 0.02117905242907589
904.0, 0.030386709815450427
905.0, 0.031037357721422847
906.0, 0.032434042535394066
907.0, 0.03532580135924204
908.0, 0.03653907003196423
909.0, 0.03770676434231801
910.0, 0.04282816808533933
911.0, 0.04427539963285111
912.0, 0.04709195180470724
913.0, 0.04755805006833989
914.0, 0.04743542589911123
915.0, 0.047596071616108106
916.0, 0.052082238152473516
917.0, 0.05482191844196153
918.0, 0.05119597760469644
919.0, 0.054458411598283005
920.0, 0.0524560792105898
921.0, 0.061567194379696384
922.0, 0.061799321484845175
923.0, 0.06267776159692502
924.0, 0.06836573056709752
925.0, 0.07111298715778774
926.0, 0.07264889835765552
927.0, 0.0771406398141896
928.0, 0.07542652752086278
929.0, 0.08133240360578343
930.0, 0.08093224122144783
931.0, 0.07753909887809093
932.0, 0.0706716159578848
933.0, 0.0679314769210259
934.0, 0.0643795362237376
935.0, 0.061125248229862775
936.0, 0.0615000294187777
937.0, 0.05960766325017391
938.0, 0.05790027749107265
939.0, 0.04984653520881282
940.0, 0.04611043987507646
941.0, 0.04910329534000418
942.0, 0.0458856813787246
943.0, 0.04313071987000177
944.0, 0.0417621727493581
945.0, 0.038709348757975354
946.0, 0.036892224482983904
947.0, 0.03631657498590058
948.0, 0.035867339378443705
949.0, 0.03442447767298807
950.0, 0.03624512530266132
951.0, 0.03651424249768405
952.0, 0.036693582631175066
953.0, 0.03521396510070283
954.0, 0.03483649455029536
955.0, 0.03831551070080766
956.0, 0.03618778578437328
957.0, 0.03720703901263687
958.0, 0.04032425791154475
959.0, 0.031578436440929954
960.0, 0.031713208132131146
961.0, 0.03454358567183742
962.0, 0.03407256480915669
963.0, 0.03267188987992834
964.0, 0.03083161760482123
965.0, 0.024459505316343517
966.0, 0.027532309342058765
967.0, 0.02545861017133383
968.0, 0.018927104685223243
969.0, 0.019724317555997885
970.0, 0.02113448054766988
971.0, 0.023452679716832597
972.0, 0.02383325503445951
973.0, 0.022386171699257676
974.0, 0.021412218694693994
975.0, 0.016931335992867166
976.0, 0.020839653234628497
977.0, 0.017029039695068693
978.0, 0.016209762954161103
979.0, 0.019382836520080708
980.0, 0.017116964812581317
981.0, 0.015082694805719799
982.0, 0.012658610424705997
983.0, 0.008897123927070805
984.0, 0.009767999403437954
985.0, 0.008199468137087109
986.0, 0.013369399365500082
987.0, 0.005237945608869922
988.0, 0.0028578350898790764
989.0, 0.00886317360606154
990.0, 0.008725413702097222
991.0, 0.004281229955785716
992.0, 0.0035805678658204806
993.0, 0.0052743568217745755
994.0, 0.0019991304620921822
995.0, 0.00010334137712958399
996.0, 0.0003452634654671458
997.0, 0.002544727561169797
998.0, 0.005091280926361673
999.0, 0.002514735538734233
1000.0, 0.002646003823429148
1001.0, 0.006739820507513988
1002.0, 0.009018195031241589
1003.0, 0.007729586054684241
1004.0, 0.007826565989660384
1005.0, 0.004170622647311682
1006.0, 0.008071356326933732
1007.0, 0.007622017096435074
1008.0, 0.011924565339566337
1009.0, 0.00813877527872289
1010.0, 0.005924795907287646
1011.0, 0.007963916305987261
1012.0, 0.010458255443320835
1013.0, 0.010116026237112628
1014.0, 0.0069537974136326345
1015.0, 0.011838430494703487
1016.0, 0.007581336280680055
1017.0, 0.008924963847822525
1018.0, 0.009854251185179031
1019.0, 0.010908233351054359
1020.0, 0.00660022480614899
1021.0, 0.004875990646269546
1022.0, 0.005930004616864073
1023.0, 0.0047895383775009535
1024.0, 0.0069274747836384825
1025.0, 0.00382481566362836
1026.0, 0.0022662833359224986
1027.0, 0.006503110020886211
1028.0, 0.004918949071641946
1029.0, 0.0037037339269317985
1030.0, 0.004416843225836526
1031.0, 0.0045318877259332676
1032.0, 0.004573248161862739
1033.0, 0.005318166180153901
1034.0, 0.005317917171483339
1035.0, 0.008641762018746581
1036.0, 0.009267317792111452
1037.0, 0.010382596085531853
1038.0, 0.008040233874976207
1039.0, 0.004554505693399079
1040.0, 0.004644505960291019
1041.0, 0.009667356911099838
1042.0, 0.012777278176422215
1043.0, 0.010102434357993616
1044.0, 0.00864628519103556
1045.0, 0.013992211116386353
1046.0, 0.010963952193421082
1047.0, 0.016626938727423515
1048.0, 0.019635251668568887
1049.0, 0.018709527252474854
1050.0, 0.02124998307361266
1051.0, 0.019945346236205554
1052.0, 0.01916002845897667
1053.0, 0.021874860469679566
1054.0, 0.025062334803399686
1055.0, 0.028644978020678412
1056.0, 0.028979209037541396
1057.0, 0.029615256900754987
1058.0, 0.030740012036034145
1059.0, 0.03574358401343819
1060.0, 0.03367979156736247
1061.0, 0.03482952576168131
1062.0, 0.03687061469302265
1063.0, 0.03460110127609109
1064.0, 0.03201971478831308
1065.0, 0.03327354703934758
1066.0, 0.0318681149254638
1067.0, 0.03642656028788653
1068.0, 0.030927808155063047
1069.0, 0.0325392441957402
1070.0, 0.031537681743042875
1071.0, 0.030233240615524983
1072.0, 0.028020429472417303
1073.0, 0.024753136758463287
1074.0, 0.022301127646199233
1075.0, 0.021059354965040487
1076.0, 0.019443060373640225
1077.0, 0.01860037879862729
1078.0, 0.019173007257887745
1079.0, 0.018452032517523535
1080.0, 0.017987338697257795
1081.0, 0.01713423775563657
1082.0, 0.016763991408893023
1083.0, 0.01673903760723086
1084.0, 0.016382965613986885
1085.0, 0.01587048686555783
1086.0, 0.01621870784504768
1087.0, 0.0168423501222803
1088.0, 0.01463917348791977
1089.0, 0.011944330437590871
1090.0, 0.012521748824208553
1091.0, 0.013994801942711724
1092.0, 0.011884717544846197
1093.0, 0.008744316305157956
1094.0, 0.005807488415663886
1095.0, 0.005843655601497854
1096.0, 0.00693122060518608
1097.0, 0.008150000999094631
1098.0, 0.010921759443954137
1099.0, 0.010229398591005958
1100.0, 0.0078103106005532425
1101.0, 0.0032142992092052437
1102.0, 0.0006810740816025073
1103.0, 0.007591760848843005
1104.0, 0.008312270367971586
1105.0, 0.003627360529263738
1106.0, 0.004158806992352302
1107.0, 0.004620918222953203
1108.0, 0.002250426207045478
1109.0, 0.0041939079589329974
1110.0, 0.00641038243130673
1111.0, 0.004840286943158895
1112.0, 0.006068115801721613
1113.0, 0.00942047931384643
1114.0, 0.0041452378196171966
1115.0, 0.003622056169597948
1116.0, 0.0022024003973035535
1117.0, 0.002699653851473128
1118.0, 0.002957150725242914
1119.0, 0.002365912038687279
1120.0, 0.003118598011298293
1121.0, 0.004736530277396372
1122.0, 0.0076704568722769165
1123.0, 0.009142679794120355
1124.0, 0.011850214877073533
1125.0, 0.00505789585376539
1126.0, 0.0028230314362981215
1127.0, 0.0030419544250303134
1128.0, 0.0014658479276480727
1129.0, 0.000672901438102677
1130.0, 0.004299701990318749
1131.0, 0.005745690352934756
1132.0, 0.0018033591451396313
1133.0, 0.0031905614053268196
1134.0, 0.0025329732067034027
1135.0, 0.008272750453971557
1136.0, 0.001453947138052792
1137.0, 0.004785622175828606
1138.0, 0.0034241394793478245
1139.0, 0.003236243032745238
1140.0, 0.001553491385522738
1141.0, 0.0019409533691164534
1142.0, 0.002541920917444867
1143.0, 0.0014217183994629503
1144.0, 0.0014840836557471115
1145.0, 0.0022759482192843796
1146.0, 0.0044715437319958005
1147.0, 0.0009783586943488626
1148.0, 0.0013515327879598871
1149.0, 0.002127875348300708
1150.0, 0.0048525634849114095
1151.0, 0.0030137048133825417
1152.0, 0.0034309112302145944
1153.0, 0.0028851422647635594
1154.0, 0.002411526115615419
1155.0, 0.003274774901774127
1156.0, 0.002181720297127465
1157.0, 0.0009726686928178717
1158.0, 0.001649384671681581
1159.0, 0.004043002327038305
1160.0, 0.003934621389119415
1161.0, 0.0036978095752433827
1162.0, 0.0011187662197299805
1163.0, 0.002086654603854105
1164.0, 0.0012218351867845328
1165.0, 0.0007900663438105115
1166.0, 0.00342428306338206
1167.0, 0.006374304028194506
1168.0, 0.004879111885189568
1169.0, 0.0016502746687542113
1170.0, 0.007015012732545236
1171.0, 0.006105231171395942
1172.0, 0.0038241723354445305
1173.0, 0.008344380057386788
1174.0, 0.0054766647897706265
1175.0, 0.00508439872582667
1176.0, 0.0029673131705032756
1177.0, 0.005982878409884676
1178.0, 0.006450963305390641
1179.0, 0.006305272302376317
1180.0, 0.0074861586797605505
1181.0, 0.004291457061084153
1182.0, 0.005698640670242547
1183.0, 0.009675421228353541
1184.0, 0.005937446176469155
1185.0, 0.006170064868216006
1186.0, 0.011248227376226593
1187.0, 0.010865995195949298
1188.0, 0.011029598544873039
1189.0, 0.011690996054141565
1190.0, 0.0106275074877971
1191.0, 0.010358748861272438
1192.0, 0.009641288922100791
1193.0, 0.009692894301947044
1194.0, 0.013493521813002403
1195.0, 0.011650011031783999
1196.0, 0.011227517291821415
1197.0, 0.019007360469335162
1198.0, 0.014424219366806186
1199.0, 0.013304911683438581
1200.0, 0.014263953553822956
1201.0, 0.018965983939800143
1202.0, 0.017227110298380036
1203.0, 0.016858561226022487
1204.0, 0.016400839791473963
1205.0, 0.01600128338446863
1206.0, 0.017875750871272588
1207.0, 0.017712451455662713
1208.0, 0.01765813216487813
1209.0, 0.02238562563484227
1210.0, 0.01992920473847013
1211.0, 0.020276847343149145
1212.0, 0.017684206344730908
1213.0, 0.016228001553071546
1214.0, 0.01320012019452581
1215.0, 0.015168896687131178
1216.0, 0.01806077493186627
1217.0, 0.016503755843131362
1218.0, 0.013894056886698865
1219.0, 0.012777284050893473
1220.0, 0.012993674935661394
1221.0, 0.016782392286594977
1222.0, 0.017375650789406814
1223.0, 0.01841695586000133
1224.0, 0.01953580804930788
1225.0, 0.013040148053220482
1226.0, 0.015936854768802737
1227.0, 0.015729347301013753
1228.0, 0.009756947392878718
1229.0, 0.0132256298616531
1230.0, 0.018964595943239626
1231.0, 0.01739437654558899
1232.0, 0.014363851898459028
1233.0, 0.014188055055288843
1234.0, 0.013683999855921163
1235.0, 0.015703116794055814
1236.0, 0.012711658870818054
1237.0, 0.014458394548807336
1238.0, 0.017205948316364204
1239.0, 0.015968756398116003
1240.0, 0.01793393379176062
1241.0, 0.018172580145741458
1242.0, 0.01688732829159931
1243.0, 0.02065083310557448
1244.0, 0.022099622340772358
1245.0, 0.021311614112007098
1246.0, 0.021633134310404676
1247.0, 0.023265738240750726
1248.0, 0.024977780616423275
1249.0, 0.023576563709149706
1250.0, 0.023143123532740804
1251.0, 0.02836207891582765
1252.0, 0.022163320180724512
1253.0, 0.027089746774387528
1254.0, 0.023535041949351444
1255.0, 0.02311374009827121
1256.0, 0.029047891718594995
1257.0, 0.022572559523052635
1258.0, 0.021461638114919714
1259.0, 0.021958047652577563
1260.0, 0.024457868365994263
1261.0, 0.026099069866252315
1262.0, 0.02108133593239834
1263.0, 0.02189739321228133
1264.0, 0.021259692227667847
1265.0, 0.021013868412673248
1266.0, 0.022150217175278927
1267.0, 0.020596830073971766
1268.0, 0.01954030193790651
1269.0, 0.015412678669243908
1270.0, 0.015068045518101505
1271.0, 0.015262581075852183
1272.0, 0.013673965830037849
1273.0, 0.014391962087265309
1274.0, 0.013651576984507944
1275.0, 0.01088131402496719
1276.0, 0.009616466596833316
1277.0, 0.008704561637182624
1278.0, 0.0072879409509253295
1279.0, 0.007912883026354029
1280.0, 0.009616127447818716
1281.0, 0.007105778474357265
1282.0, 0.007686316458197064
1283.0, 0.006134656137292541
1284.0, 0.0066555929787651385
1285.0, 0.005605050747835123
1286.0, 0.002111828675594547
1287.0, 0.0021298868715404176
1288.0, 0.0024234647132029604
1289.0, 0.002860829727951968
1290.0, 0.0022978652639612535
1291.0, 0.0005576846850283885
1292.0, 0.001123571083044568
1293.0, 0.002577716916644618
1294.0, 0.00161205986338799
1295.0, 0.004762181769478224
1296.0, 0.0027126062016309474
1297.0, 0.001825191662185443
1298.0, 0.005585821443735791
1299.0, 0.0011895653918195877
1300.0, 0.0016660593359511756
1301.0, 0.002188094646674297
1302.0, 0.0029183539553878477
1303.0, 0.0016490019869864188
1304.0, 0.005880542558512624
1305.0, 0.008888090864750346
1306.0, 0.008439115607310567
1307.0, 0.005646805742026477
1308.0, 0.0028365581379239807
1309.0, 0.007716240085826105
1310.0, 0.004816781330148238
1311.0, 0.004877217913247078
1312.0, 0.008003869933236861
1313.0, 0.01074803399269343
1314.0, 0.013466686114473148
1315.0, 0.013377575904312052
1316.0, 0.011191716685918028
1317.0, 0.012513443068155525
1318.0, 0.015723200612703846
1319.0, 0.015740845336560075
1320.0, 0.01132983895968935
1321.0, 0.011361976880223723
1322.0, 0.01125330936392616
1323.0, 0.011984612717006415
1324.0, 0.017574930678474907
1325.0, 0.017089605309800686
1326.0, 0.017454623520178278
1327.0, 0.019505102376246742
1328.0, 0.01565808077607496
1329.0, 0.019384926323858343
1330.0, 0.013246471485673888
1331.0, 0.012193458117421648
1332.0, 0.014132717066871444
1333.0, 0.008753003723836436
1334.0, 0.013517100492295885
1335.0, 0.012560579017950126
1336.0, 0.012330234384572735
1337.0, 0.011930653270210857
1338.0, 0.01089741842132118
1339.0, 0.009410329220800614
1340.0, 0.008381781305395216
1341.0, 0.00821461971870383
1342.0, 0.006878811438603596
1343.0, 0.008675781300976135
1344.0, 0.0106586774404281
1345.0, 0.00776760794747575
1346.0, 0.0051791623763954965
1347.0, 0.009074169727316568
1348.0, 0.006356983669621389
1349.0, 0.007697825581891662
1350.0, 0.010029719247212462
1351.0, 0.007007337940669912
1352.0, 0.004930895745054421
1353.0, 0.00800290789890776
1354.0, 0.00620882769656481
1355.0, 0.0038521267989879977
1356.0, 0.006401241487914377
1357.0, 0.006956171582001766
1358.0, 0.002843693770219204
1359.0, 0.00257702826288688
1360.0, 0.006267689908556153
1361.0, 0.004334301680126762
1362.0, 0.0036112323738092165
1363.0, 0.004451993398346464
1364.0, 0.004751188489934147
1365.0, 0.004234743171687466
1366.0, 0.0029080594858740334
1367.0, 0.0044339585063617945
1368.0, 0.006232334429978528
1369.0, 0.005209748254707655
1370.0, 0.006963194164518126
1371.0, 0.009141223150301723
1372.0, 0.007256780639901848
1373.0, 0.01095668275255579
1374.0, 0.009012569523983301
1375.0, 0.004644058261296003
1376.0, 0.0059539167292691625
1377.0, 0.009327049149852192
1378.0, 0.015179835350536717
1379.0, 0.012023414106065725
1380.0, 0.011818263558963437
1381.0, 0.009217611831030403
1382.0, 0.0032737649185573896
1383.0, 0.008333087298779056
1384.0, 0.003922295064462694
1385.0, 0.010124870233647379
1386.0, 0.006508109855871561
1387.0, 0.0016903643528065155
1388.0, 0.002891933186682246
1389.0, 0.0030263355639388876
1390.0, 0.004524118136610706
1391.0, 0.006719259748060942
1392.0, 0.006391060754769251
1393.0, 0.0033111694476573167
1394.0, 0.0010117242746897515
1395.0, 0.00043140680057277014
1396.0, 0.0026706529223788815
1397.0, 0.007596547113097876
1398.0, 0.009481220789601603
1399.0, 0.011170383929664792
1400.0, 0.010304838653522184
1401.0, 0.0067603196375146946
1402.0, 0.005969983855358079
1403.0, 0.008519218480486554
1404.0, 0.0037442243656550336
1405.0, 0.006126105140391737
1406.0, 0.005885888299855079
1407.0, 0.007241885914939207
1408.0, 0.007974555686977745
1409.0, 0.009619339862411223
1410.0, 0.010391557343667323
1411.0, 0.007356340078157987
1412.0, 0.004433861194932496
1413.0, 0.005243239598943801
1414.0, 0.004486451062163427
1415.0, 0.0058371075715554265
1416.0, 0.007624743587062296
1417.0, 0.003992934855996456
1418.0, 0.005920655142604856
1419.0, 0.007885442250004562
1420.0, 0.003216807499077848
1421.0, 0.0026767673124706444
1422.0, 0.0034318219790767115
1423.0, 0.01055187048768665
1424.0, 0.005449531892263477
1425.0, 0.008192173723848563
1426.0, 0.004953250788746133
1427.0, 0.006779864567204855
1428.0, 0.009154483449641164
1429.0, 0.008974980020091202
1430.0, 0.00923743454524121
1431.0, 0.009867496412744644
1432.0, 0.008775607309102826
1433.0, 0.009117390743451805
1434.0, 0.010054392484693735
1435.0, 0.009406096828742126
1436.0, 0.005864776255294992
1437.0, 0.0060854598553676175
1438.0, 0.007093158765723823
1439.0, 0.0031283791210335423
1440.0, 0.006121713409657697
1441.0, 0.008964980184290426
1442.0, 0.00835710324818256
1443.0, 0.009491302375176003
1444.0, 0.008674924121367169
1445.0, 0.008969902618082613
1446.0, 0.007369595302754574
1447.0, 0.006435601200222921
1448.0, 0.012702047540377081
1449.0, 0.01406660462446581
1450.0, 0.010097014946091732
1451.0, 0.005949433483305731
1452.0, 0.009848919571630687
1453.0, 0.006950930240921033
1454.0, 0.008535332016106076
1455.0, 0.009535336482099302
1456.0, 0.006565766247772333
1457.0, 0.006671585461100215
1458.0, 0.00855592983511885
1459.0, 0.007678165997881345
1460.0, 0.0065272868145538725
1461.0, 0.007406327408191336
1462.0, 0.006566235816111833
1463.0, 0.005218899178012375
1464.0, 0.008480584848634403
1465.0, 0.00914744832391843
1466.0, 0.00985392589755302
1467.0, 0.00722401444955357
1468.0, 0.007896183704301642
1469.0, 0.010346375770711473
1470.0, 0.006325976091169604
1471.0, 0.008635843145452028
1472.0, 0.012281841964120901
1473.0, 0.00509479129058784
1474.0, 0.0104861577753533
1475.0, 0.010641433865429751
1476.0, 0.005745831639580543
1477.0, 0.0032602266226567354
1478.0, 0.004965362873244695
1479.0, 0.009194137287491183
1480.0, 0.008024208465438536
1481.0, 0.009816597438112066
1482.0, 0.008016982750226059
1483.0, 0.007147275404241867
1484.0, 0.007300861781545541
1485.0, 0.005327380480327656
1486.0, 0.006388545576782448
1487.0, 0.008012191091879332
1488.0, 0.0060864485371038245
1489.0, 0.006113890605912576
1490.0, 0.008443175194846329
1491.0, 0.00526015918230202
1492.0, 0.0029533882536060757
1493.0, 0.012125950790322772
1494.0, 0.0038673967963264028
1495.0, 0.0065603521273265184
1496.0, 0.005787626891285676
1497.0, 0.006024631430386536
1498.0, 0.007271312608192174
1499.0, 0.005608367060072198
1500.0, 0.00787185880212501
1501.0, 0.007268928588184074
1502.0, 0.00662783850821986
1503.0, 0.00833164132157653
1504.0, 0.006206848830305245
1505.0, 0.006195878198390372
1506.0, 0.00960948466443323
1507.0, 0.009279462237143564
1508.0, 0.0068284303052272
1509.0, 0.005057943353687417
1510.0, 0.0025094858099241075
1511.0, 0.001375079899414834
1512.0, 0.0033947636308940994
1513.0, 0.003939595479170149
1514.0, 0.004163511625000002
1515.0, 0.006125210429178125
1516.0, 0.008384456273533895
1517.0, 0.01118772842754748
1518.0, 0.007212946355484031
1519.0, 0.002224814331380955
1520.0, 0.004407635770437346
1521.0, 0.0034698348673954204
1522.0, 0.010982404523307857
1523.0, 0.006320342324397897
1524.0, 0.004599908397437991
1525.0, 0.009717670914611919
1526.0, 0.007147652641552054
1527.0, 0.008263192985460728
1528.0, 0.008171735549613082
1529.0, 0.013327478290756381
1530.0, 0.008929899458523738
1531.0, 0.004764863454572907
1532.0, 0.009144678482338202
1533.0, 0.004663014382842383
1534.0, 0.007490417191915041
1535.0, 0.010549591283878314
1536.0, 0.007512861399655438
1537.0, 0.0023762517309593462
1538.0, 0.0039039329462969754
1539.0, 0.002745049520954582
1540.0, 0.006435109988103113
1541.0, 0.004711836011720632
1542.0, 0.004705090579942601
1543.0, 0.008089198465514822
1544.0, 0.007283283367441894
1545.0, 0.007405168941704932
1546.0, 0.0066807387469371956
1547.0, 0.0057247105834913456
1548.0, 0.0075435495037259
1549.0, 0.005722586274464595
1550.0, 0.005042592393722998
1551.0, 0.0036941262746821813
1552.0, 0.004922660324438682
1553.0, 0.010832119119975163
1554.0, 0.0083434438096111
1555.0, 0.006296740913102974
1556.0, 0.006638665266428816
1557.0, 0.0026727873663348334
1558.0, 0.004823686973851993
1559.0, 0.0016277148397384348
1560.0, 0.007814844713849965
1561.0, 0.005147332311539715
1562.0, 0.014263845986703995
1563.0, 0.00946317807543927
1564.0, 0.004284263474152875
1565.0, 0.0025618161577917018
1566.0, 0.0023006162352882634
1567.0, 0.00722558437794418
1568.0, 0.001585145412195542
1569.0, 9.182125345396947e-05
1570.0, 1.2852596574396304e-07
1571, 0.0
1572, 0.0
1573, 0.0
1574, 0.0
1575, 0.0
1576, 0.0
1577, 0.0
1578, 0.0
1579, 0.0
1580, 0.0
1581, 0.0
1582, 0.0
1583, 0.0
1584, 0.0
1585, 0.0
1586, 0.0
1587, 0.0
1588, 0.0
1589, 0.0
1590, 0.0
1591, 0.0
1592, 0.0
1593, 0.0
1594, 0.0
1595, 0.0
1596, 0.0
1597, 0.0
1598, 0.0
1599, 0.0
