30, 0.0
31, 0.0
32, 0.0
33, 0.0
34, 0.0
35, 0.0
36, 0.0
37, 0.0
38, 0.0
39, 0.0
40, 0.0
41, 0.0
42, 0.0
43, 0.0
44, 0.0
45, 0.0
46, 0.0
47, 0.0
48, 0.0
49, 0.0
50, 0.0
51, 0.0
52, 0.0
53, 0.0
54, 0.0
55, 0.0
56, 0.0
57, 0.0
58, 0.0
59, 0.0
60, 0.0
61, 0.0
62, 0.0
63, 0.0
64, 0.0
65, 0.0
66, 0.0
67, 0.0
68, 0.0
69, 0.0
70, 0.0
71, 0.0
72, 0.0
73, 0.0
74, 0.0
75, 0.0
76, 0.0
77, 0.0
78, 0.0
79, 0.0
80, 0.0
81, 0.0
82, 0.0
83, 0.0
84, 0.0
85, 0.0
86, 0.0
87, 0.0
88, 0.0
89, 0.0
90, 0.0
91, 0.0
92, 0.0
93, 0.0
94, 0.0
95, 0.0
96, 0.0
97, 0.0
98, 0.0
99, 0.0
100, 0.0
101, 0.0
102, 0.0
103, 0.0
104, 0.0
105, 0.0
106, 0.0
107, 0.0
108, 0.0
109, 0.0
110, 0.0
111, 0.0
112, 0.0
113, 0.0
114, 0.0
115.0, 0.0010223667860624782
116.0, 0.0017885064786170135
117.0, 0.0014614287322146135
118.0, 0.002204735891771886
119.0, 0.0021250683985786197
120.0, 0.0013513508106006533
121.0, 0.00031452965570831764
122.0, 0.003922450730767955
123.0, 0.006205220722135449
124.0, 0.004854055729832889
125.0, 0.003781738496071008
126.0, 0.003317685540782425
127.0, 0.002969597730064128
128.0, 0.001870590884232625
129.0, 0.0015311053807658805
130.0, 0.001458387205099781
131.0, 0.0018211781425124976
132.0, 0.005477282616420317
133.0, 0.005850464461231006
134.0, 0.006360369418822624
135.0, 0.010544361984345819
136.0, 0.01093244746716532
137.0, 0.01626025954873419
138.0, 0.024858796911166197
139.0, 0.024980413765811567
140.0, 0.03539149933565154
141.0, 0.04804664121376522
142.0, 0.058898784514170764
143.0, 0.07801392166537896
144.0, 0.09723243168619762
145.0, 0.11870218602097012
146.0, 0.14856655909690092
147.0, 0.18052093004822323
148.0, 0.21467182921694225
149.0, 0.2503256467321147
150.0, 0.2743997080213928
151.0, 0.2781226002013803
152.0, 0.2667426089130381
153.0, 0.2425336830712392
154.0, 0.21091453711474814
155.0, 0.1833604089333986
156.0, 0.16097090365668623
157.0, 0.1429021026597801
158.0, 0.12543158148092243
159.0, 0.11049424022871783
160.0, 0.0995359984450119
161.0, 0.08887397240588737
162.0, 0.08301749667038642
163.0, 0.08142097367440426
164.0, 0.08374360279558762
165.0, 0.09163955134685828
166.0, 0.10215639267160465
167.0, 0.11513281382373297
168.0, 0.1357272972318507
169.0, 0.158953479163131
170.0, 0.18690767692452395
171.0, 0.22274146878201917
172.0, 0.2595384913467135
173.0, 0.3016410218985728
174.0, 0.3487086652693817
175.0, 0.3990127240225653
176.0, 0.4428882328722087
177.0, 0.48798124462670495
178.0, 0.5368147519316148
179.0, 0.563684272462553
180.0, 0.5880675774499858
181.0, 0.598022660955516
182.0, 0.5719239786099849
183.0, 0.521526209404802
184.0, 0.4666871805028507
185.0, 0.41160222252259726
186.0, 0.36355121893629366
187.0, 0.3198017197109282
188.0, 0.2822689414701139
189.0, 0.25286695833046136
190.0, 0.22600671194550853
191.0, 0.20731256028565387
192.0, 0.19460174603642388
193.0, 0.18462816053439207
194.0, 0.16902175106167522
195.0, 0.15643576041840773
196.0, 0.14689637858063231
197.0, 0.1264072425804057
198.0, 0.11375769992440787
199.0, 0.10254421439057282
200.0, 0.08844997227737243
201.0, 0.08088535031528499
202.0, 0.07268276154034455
203.0, 0.06423186133756391
204.0, 0.056924100879671716
205.0, 0.05228471562422401
206.0, 0.050279715458545045
207.0, 0.050500724771026725
208.0, 0.048534041706424315
209.0, 0.04413065189396719
210.0, 0.039255408102114045
211.0, 0.035349628096334455
212.0, 0.03373062482670559
213.0, 0.029257857096580634
214.0, 0.023007705456502617
215.0, 0.017713514338727115
216.0, 0.014146970878152408
217.0, 0.011273607153944588
218.0, 0.008669412073302537
219.0, 0.004610267126648817
220.0, 0.0032310309774593797
221.0, 0.002805735568031382
222.0, 0.0022038549002960373
223.0, 0.0007467580798943658
224.0, 0.00013835564932831044
225.0, 0.0002494304078623742
226.0, 0.0008299574985602933
227.0, 0.0017914826508004093
228.0, 0.002335570057767965
229.0, 0.00235512729607184
230.0, 0.0023263407674630724
231.0, 0.0010741355739929048
232.0, 0.0001723216153679434
233.0, 0.0006337302273015318
234.0, 0.0014717646877776508
235.0, 0.001058406645516224
236.0, 0.0004555898351466083
237.0, 0.001542244252424617
238.0, 0.0012729762481373066
239.0, 0.0014232353855787917
240.0, 0.0019228367488877878
241.0, 0.0010114232015482993
242.0, 0.000552598157849898
243.0, 0.001726375305122278
244.0, 0.005035729145346736
245.0, 0.004504709955101615
246.0, 0.006569608288901115
247.0, 0.009845398300260343
248.0, 0.012813226077167275
249.0, 0.01322960268390984
250.0, 0.019847709843184663
251.0, 0.029681423083900062
252.0, 0.030666400322444422
253.0, 0.03951124249152253
254.0, 0.047316273590330256
255.0, 0.05174588084569635
256.0, 0.057553378556170764
257.0, 0.06392084403421991
258.0, 0.06910584332479403
259.0, 0.07158990957772432
260.0, 0.0719210354319895
261.0, 0.0705802293872701
262.0, 0.06858611955065469
263.0, 0.06780151069114078
264.0, 0.06322600511234068
265.0, 0.05871796979815361
266.0, 0.05493416297608219
267.0, 0.051962335355124845
268.0, 0.04729313640346986
269.0, 0.04363710531889077
270.0, 0.04191931449322674
271.0, 0.03531719980490279
272.0, 0.031609877719533795
273.0, 0.029688175316348535
274.0, 0.028681949260429173
275.0, 0.0263884812364807
276.0, 0.02221035292164841
277.0, 0.018186629179808334
278.0, 0.019321806486361812
279.0, 0.01752267874472055
280.0, 0.014740830287883758
281.0, 0.011945360838255425
282.0, 0.012528566932094812
283.0, 0.012106707324450303
284.0, 0.011240686066143521
285.0, 0.010186441361724738
286.0, 0.00941501570315611
287.0, 0.005098415641585559
288.0, 0.0018952056506574377
289.0, 0.005004235738593949
290.0, 0.004281722832034498
291.0, 0.0033163197932021466
292.0, 0.0032086584993894656
293.0, 0.0061779864170761045
294.0, 0.003774998034793477
295.0, 0.0043908776970594315
296.0, 0.008110841464767605
297.0, 0.006661500762717182
298.0, 0.007466944746564933
299.0, 0.008190942751127772
300.0, 0.00798956874234988
301.0, 0.009869664087068622
302.0, 0.01405356939446192
303.0, 0.016858575542832068
304.0, 0.014826025600014055
305.0, 0.018964042108462205
306.0, 0.023613961983370558
307.0, 0.02785221793359278
308.0, 0.03023963192454185
309.0, 0.03305059417797974
310.0, 0.03782227136529867
311.0, 0.04394490050115645
312.0, 0.048495870657776614
313.0, 0.054353537531255956
314.0, 0.05882613795924471
315.0, 0.06218701830258277
316.0, 0.07397239981766851
317.0, 0.08275615417860334
318.0, 0.09112019040422699
319.0, 0.10062050358728383
320.0, 0.11378564179610201
321.0, 0.12695662909213165
322.0, 0.14048735186313088
323.0, 0.154823434755491
324.0, 0.16472371531580568
325.0, 0.1746130202060481
326.0, 0.18172153390383075
327.0, 0.17926748837435338
328.0, 0.1840924268102721
329.0, 0.1817098164186536
330.0, 0.17110017903671693
331.0, 0.15692608713107895
332.0, 0.14415675328446764
333.0, 0.13069852982625133
334.0, 0.1160280900906737
335.0, 0.10147322089365185
336.0, 0.09100762104232735
337.0, 0.08078491394174735
338.0, 0.06880215088145268
339.0, 0.059394441510385115
340.0, 0.05191331778163182
341.0, 0.04464560461932063
342.0, 0.03590740651198642
343.0, 0.03198641080640839
344.0, 0.027583954558133672
345.0, 0.023961777140278383
346.0, 0.02367545355643244
347.0, 0.02098900394056863
348.0, 0.018674022105134407
349.0, 0.01662076928515084
350.0, 0.013631590836963657
351.0, 0.014096580556642998
352.0, 0.015313366750937802
353.0, 0.016344075781669104
354.0, 0.015462388066868159
355.0, 0.014329999596190692
356.0, 0.014070551981144843
357.0, 0.01455784837731032
358.0, 0.01005303090365936
359.0, 0.010935967835400765
360.0, 0.012015444963620728
361.0, 0.010354628080064618
362.0, 0.012342164103327108
363.0, 0.012544737767615168
364.0, 0.012544404461334278
365.0, 0.013857219007850757
366.0, 0.015539575266682107
367.0, 0.017993845235043177
368.0, 0.020424717641969205
369.0, 0.02160884325838283
370.0, 0.022847800410038473
371.0, 0.0243733262711369
372.0, 0.02631450157055331
373.0, 0.028966464811560445
374.0, 0.02988389413394928
375.0, 0.03015918874498463
376.0, 0.030788795111017363
377.0, 0.0346815341878796
378.0, 0.036117452298135226
379.0, 0.03961480084818397
380.0, 0.045323862971816196
381.0, 0.04753892144564547
382.0, 0.04900091871062833
383.0, 0.05216173801627491
384.0, 0.05762016827311637
385.0, 0.06149365426022854
386.0, 0.06531005662915249
387.0, 0.06800920543452772
388.0, 0.06893240265352618
389.0, 0.06796913343503865
390.0, 0.06501286635946932
391.0, 0.06193031874380385
392.0, 0.06016782118017191
393.0, 0.05830829885876046
394.0, 0.055522064564700754
395.0, 0.05189531425631914
396.0, 0.04747430501934814
397.0, 0.04601771652420009
398.0, 0.0496603936681893
399.0, 0.05320427539394684
400.0, 0.04865997945119762
401.0, 0.0526744492312157
402.0, 0.055078658855153
403.0, 0.05640963833414616
404.0, 0.05925367426606464
405.0, 0.06215416687061274
406.0, 0.0635949934561461
407.0, 0.06377272476894684
408.0, 0.0636386738000897
409.0, 0.06371077815762763
410.0, 0.06123842118507819
411.0, 0.05670511992183977
412.0, 0.05353977832039522
413.0, 0.04776123602110084
414.0, 0.042694612233204886
415.0, 0.03871623799187775
416.0, 0.033709840673367464
417.0, 0.030090176062803026
418.0, 0.026674072916317917
419.0, 0.022758257928016324
420.0, 0.016310992201837588
421.0, 0.01512703021197325
422.0, 0.013002401044674154
423.0, 0.007987269860670275
424.0, 0.005055763023557238
425.0, 0.004246310038676009
426.0, 0.005430384112435774
427.0, 0.007882607048095725
428.0, 0.002983558780764364
429.0, 0.0015379688323060334
430.0, 0.0015844988464093859
431.0, 0.0019837814264788457
432.0, 0.002346570412126008
433.0, 0.0031383929650763
434.0, 0.0028378177598747507
435.0, 0.0006087764731645623
436.0, 0.005233597684114152
437.0, 0.004361116685849185
438.0, 0.002963378154242808
439.0, 0.005070339663936555
440.0, 0.003092259220395586
441.0, 0.001629751819411841
442.0, 0.0006186402538166648
443.0, 8.560830847499862e-06
444.0, 4.303391102629904e-05
445.0, 0.0003672589994748158
446.0, 0.0017886345948326143
447.0, 0.005223570886867215
448.0, 0.0017766907428456277
449.0, 0.0007941398416024097
450.0, 0.0013041818193774497
451.0, 0.00196507869004989
452.0, 0.00195902528469167
453.0, 0.002448087076167414
454.0, 0.004762069194426167
455.0, 0.010705227748236758
456.0, 0.009483269202914568
457.0, 0.011131286876932803
458.0, 0.015696206425094065
459.0, 0.02273253717915192
460.0, 0.025725310343287237
461.0, 0.033356158773137135
462.0, 0.04364058946840772
463.0, 0.0529420969961934
464.0, 0.05579066495191776
465.0, 0.05618083106131316
466.0, 0.053934374395539816
467.0, 0.04823276086032616
468.0, 0.04523708929190677
469.0, 0.03897803340120019
470.0, 0.03063542855229122
471.0, 0.022730443431737177
472.0, 0.021663678534352877
473.0, 0.01588483072696892
474.0, 0.009674731532779144
475.0, 0.011598490290732358
476.0, 0.006328781775982792
477.0, 0.0030155182487850776
478.0, 0.0016305542669490752
479.0, 0.0010722937734303814
480.0, 0.003822840660000008
481.0, 0.0033935902452376155
482.0, 0.001379938627552966
483.0, 0.00113646587876067
484.0, 0.0022082433126075496
485.0, 0.002918509946024669
486.0, 0.0026817527691899395
487.0, 0.0007169654599610456
488.0, 0.0025267829366905385
489.0, 0.0018351886564504905
490.0, 0.0002498538566762369
491.0, 0.0008349855835395688
492.0, 0.0015745842179236032
493.0, 0.003533629401568085
494.0, 0.005146663790008491
495.0, 0.004053486101321841
496.0, 0.009274897399575485
497.0, 0.012178105371572885
498.0, 0.013798445518819693
499.0, 0.016046068416580194
500.0, 0.021093989197922314
501.0, 0.02429826995328228
502.0, 0.026648066001421666
503.0, 0.029543770517766365
504.0, 0.031368275852563944
505.0, 0.03161479688711005
506.0, 0.0317250062130956
507.0, 0.03330475580243204
508.0, 0.03263124065344502
509.0, 0.03218528963204053
510.0, 0.031506695657883825
511.0, 0.03013388269971777
512.0, 0.029283962930846476
513.0, 0.027577111404850883
514.0, 0.025583846625723765
515.0, 0.023925327944574103
516.0, 0.02676749437814217
517.0, 0.024852275095690466
518.0, 0.022222462276530103
519.0, 0.02178321999603413
520.0, 0.020607569218745132
521.0, 0.017168311536280775
522.0, 0.016470015741444247
523.0, 0.020890099110534344
524.0, 0.018699072964147828
525.0, 0.01974425263981567
526.0, 0.02049247949663008
527.0, 0.01924500280271015
528.0, 0.01808977913159666
529.0, 0.01878418142870354
530.0, 0.019286963704300643
531.0, 0.01896063775009582
532.0, 0.019695675395205416
533.0, 0.015720990484610127
534.0, 0.013882840352285096
535.0, 0.015555156000287161
536.0, 0.015029051402745974
537.0, 0.01322204907362288
538.0, 0.012968827526175508
539.0, 0.01369428270229137
540.0, 0.010033491523092854
541.0, 0.00977199843780107
542.0, 0.008786985268798665
543.0, 0.007651035469275906
544.0, 0.010727924339217376
545.0, 0.0063973614589461275
546.0, 0.0056305606158090875
547.0, 0.008299891068196013
548.0, 0.010235857945327989
549.0, 0.007881496416954674
550.0, 0.00941458957261587
551.0, 0.012310096571901238
552.0, 0.010762478074880167
553.0, 0.013535697867537031
554.0, 0.012437791045486766
555.0, 0.010959986636454285
556.0, 0.014262307812755816
557.0, 0.01752674961435905
558.0, 0.01962675998804396
559.0, 0.02165869961936076
560.0, 0.024669066634446055
561.0, 0.026402704116812892
562.0, 0.02455686145585732
563.0, 0.022960042235683972
564.0, 0.024016842569716118
565.0, 0.021934512549166278
566.0, 0.02091363245292428
567.0, 0.02298592702216373
568.0, 0.027312687491785382
569.0, 0.019290045661272785
570.0, 0.02294674237964687
571.0, 0.028450111613708792
572.0, 0.03181705140929002
573.0, 0.03167254012663196
574.0, 0.030951310303854004
575.0, 0.03307348726619539
576.0, 0.03614153200917627
577.0, 0.03146159472513812
578.0, 0.035096791419412694
579.0, 0.0397244541758722
580.0, 0.04331601791056975
581.0, 0.04408985718790593
582.0, 0.049708460114975865
583.0, 0.04981603580084246
584.0, 0.04858142754303668
585.0, 0.053283104469432865
586.0, 0.05558688778423399
587.0, 0.05729271555825892
588.0, 0.0609870072255963
589.0, 0.06891755558185224
590.0, 0.07314158547017799
591.0, 0.07688527323307268
592.0, 0.08149226691211874
593.0, 0.08743714417824067
594.0, 0.09037614571873022
595.0, 0.0977593974208299
596.0, 0.10771567092999089
597.0, 0.11945728110027176
598.0, 0.13310538618470255
599.0, 0.1430645346741793
600.0, 0.15831320936145224
601.0, 0.17925662044025442
602.0, 0.1994856469349842
603.0, 0.22592548734698759
604.0, 0.25613785684772866
605.0, 0.293129068900751
606.0, 0.34347675151014395
607.0, 0.40210087944960393
608.0, 0.46592428053913176
609.0, 0.5368672017023343
610.0, 0.6173374052558822
611.0, 0.7224321815141477
612.0, 0.8127646402927207
613.0, 0.8929819825625237
614.0, 0.9643705804360014
615.0, 0.9929885881179279
616.0, 0.9919225065768922
617.0, 0.9541646687700944
618.0, 0.8790233364993574
619.0, 0.7817807822470555
620.0, 0.677893473687204
621.0, 0.5781544417142885
622.0, 0.4849914924241164
623.0, 0.3966529066856714
624.0, 0.3446028679223102
625.0, 0.28977001179203254
626.0, 0.23912508741816962
627.0, 0.21431217729932528
628.0, 0.17258019193402585
629.0, 0.14915448504219417
630.0, 0.13316601362422503
631.0, 0.11189706847991966
632.0, 0.09906040415892593
633.0, 0.09275807942262322
634.0, 0.08487977692532929
635.0, 0.07228532243042915
636.0, 0.06952755852975925
637.0, 0.0606693278469742
638.0, 0.05435914586441642
639.0, 0.052272971998720115
640.0, 0.04964954344125607
641.0, 0.04705874323231633
642.0, 0.04720325650245937
643.0, 0.047319833702894186
644.0, 0.041195725706670516
645.0, 0.03492502672239482
646.0, 0.03413728550009726
647.0, 0.03527548123156876
648.0, 0.03411486356880468
649.0, 0.031430088940162096
650.0, 0.030656246510533034
651.0, 0.029170746142389393
652.0, 0.025944166438487265
653.0, 0.025071333297995588
654.0, 0.031123546214143
655.0, 0.03334832364723381
656.0, 0.03126410677576381
657.0, 0.03441049904487378
658.0, 0.02938256060977128
659.0, 0.0293614065409431
660.0, 0.033231644239828835
661.0, 0.03592674886473552
662.0, 0.029623451798704327
663.0, 0.026381737368660688
664.0, 0.02503907362524628
665.0, 0.02422152010647774
666.0, 0.02449346908023643
667.0, 0.02439538923844554
668.0, 0.026691711667975637
669.0, 0.03103803009037402
670.0, 0.02975594259967634
671.0, 0.03301809034172803
672.0, 0.03542053878088169
673.0, 0.03602933377302931
674.0, 0.03545403869861508
675.0, 0.041268077489199105
676.0, 0.041688822040508354
677.0, 0.038084519596574176
678.0, 0.03350385142199153
679.0, 0.04111717517472657
680.0, 0.043347127408391584
681.0, 0.043388847644699816
682.0, 0.04285488986063772
683.0, 0.040061336975961745
684.0, 0.04357439796738925
685.0, 0.04389260043587752
686.0, 0.04081067717846337
687.0, 0.0402280356658284
688.0, 0.04210396382368195
689.0, 0.04165408997111556
690.0, 0.041609525951400585
691.0, 0.04554692012474016
692.0, 0.04459380608706343
693.0, 0.044226787398967314
694.0, 0.04121012362056596
695.0, 0.03617267808012282
696.0, 0.044691939885238924
697.0, 0.03636779948229768
698.0, 0.035469694390040496
699.0, 0.0417531047875524
700.0, 0.03847361577559453
701.0, 0.03881258523613116
702.0, 0.03725322968644324
703.0, 0.034944045736926
704.0, 0.03374169172457917
705.0, 0.03326094696406511
706.0, 0.0346258533716566
707.0, 0.036582644776939614
708.0, 0.037904707679682154
709.0, 0.0359074704962502
710.0, 0.032142587052086946
711.0, 0.034621786765264714
712.0, 0.038512820107182336
713.0, 0.030177126612622594
714.0, 0.04018504676792962
715.0, 0.038865561220049
716.0, 0.03679274394736655
717.0, 0.04401687791713367
718.0, 0.04002164801871728
719.0, 0.043048908863523715
720.0, 0.04876543867563447
721.0, 0.055130235933159084
722.0, 0.06156730191216964
723.0, 0.06651875948144022
724.0, 0.07535944987975256
725.0, 0.08723685895910978
726.0, 0.09950343155161905
727.0, 0.10821232861596379
728.0, 0.12661589654089808
729.0, 0.1396981012335138
730.0, 0.1406900135244441
731.0, 0.15339227495524854
732.0, 0.16755538295993908
733.0, 0.15997237574892686
734.0, 0.13456010359056403
735.0, 0.11535166907428054
736.0, 0.0953984595192437
737.0, 0.07766503641749144
738.0, 0.0653303002600383
739.0, 0.060248974425221986
740.0, 0.05042990915618374
741.0, 0.044712256071580955
742.0, 0.038635860129693195
743.0, 0.031256121317666946
744.0, 0.025741973949471676
745.0, 0.02257279389728153
746.0, 0.019758581273321876
747.0, 0.017740313447150196
748.0, 0.017307732892247248
749.0, 0.013667186125967665
750.0, 0.014952274860537988
751.0, 0.01360245019171757
752.0, 0.008141391024628854
753.0, 0.012075438039361746
754.0, 0.006387888898835871
755.0, 0.005591539898324296
756.0, 0.008848910081689074
757.0, 0.009737390042173357
758.0, 0.0025098207547653625
759.0, 0.004298913129365281
760.0, 0.0069522838657444476
761.0, 0.004944025818095378
762.0, 0.0017452555633307516
763.0, 0.004396291342792613
764.0, 0.0064744255984720295
765.0, 0.006939511342778547
766.0, 0.007076798709412876
767.0, 0.0022204051978693628
768.0, 0.005301449465200902
769.0, 0.008572810803545008
770.0, 0.0062209313990336515
771.0, 0.006336026101030423
772.0, 0.0079783455322261
773.0, 0.007155503412459389
774.0, 0.005394788217492066
775.0, 0.008858130466127332
776.0, 0.003938980392540596
777.0, 0.004182983336318921
778.0, 0.005445643991081692
779.0, 0.0036674850741214484
780.0, 0.001850957801819188
781.0, 0.0007331318587185595
782.0, 0.0005449332690774289
783.0, 0.0008701270309173985
784.0, 0.0005559768839983005
785.0, 0.00027861902374846725
786.0, 0.0017392465245749068
787.0, 0.004214536900330006
788.0, 0.006451202171326944
789.0, 0.004178765555442907
790.0, 0.001936484664780784
791.0, 0.0017912471201454228
792.0, 0.002763104510046962
793.0, 0.0011315962884472087
794.0, 0.000459200612499656
795.0, 0.0008997856220464488
796.0, 0.0012902254104490384
797.0, 0.0009896729636764765
798.0, 0.0028333831919963737
799.0, 0.0015042061080817312
800.0, 0.001214989974007744
801.0, 0.002348231859761396
802.0, 0.0031472156260055305
803.0, 0.004709117380457968
804.0, 0.002908023021554197
805.0, 0.0032558596680113084
806.0, 0.007638143079893295
807.0, 0.0010843190496389195
808.0, 0.003191198686605911
809.0, 0.006192989853800154
810.0, 0.007046055683763163
811.0, 0.003887738241435306
812.0, 0.0029574778840957988
813.0, 0.004211512099566622
814.0, 0.005195036727189916
815.0, 0.004632657918744264
816.0, 0.0039555634578393615
817.0, 0.005935048452269319
818.0, 0.004235040414987332
819.0, 0.0022259525989403355
820.0, 0.005888774585946038
821.0, 0.005377901576128453
822.0, 0.003880253548893443
823.0, 0.0020778541331909523
824.0, 0.0007026086747596059
825.0, 0.0010382857970456089
826.0, 0.0028959493037098334
827.0, 0.0024432191460797936
828.0, 0.001354991257524589
829.0, 0.001803336710364903
830.0, 0.002475196144059306
831.0, 0.0028802897880864905
832.0, 0.004092202225862979
833.0, 0.004673559592964705
834.0, 0.0005295579682402531
835.0, 0.0019328759878696217
836.0, 0.0014719034953161198
837.0, 0.0016663280862714085
838.0, 0.003967107633998658
839.0, 0.0038606198560362085
840.0, 0.0023737202391818308
841.0, 0.0020816628873963875
842.0, 0.0038342273525449064
843.0, 0.0077651158845054346
844.0, 0.004211616191439886
845.0, 0.005829795493392901
846.0, 0.006615800486556669
847.0, 0.005125306413624076
848.0, 0.00697328660669418
849.0, 0.005895269280905303
850.0, 0.0029149386254928166
851.0, 0.0022141517754179696
852.0, 0.006959491723216664
853.0, 0.00933560733820458
854.0, 0.003714315680920187
855.0, 0.004151909818682716
856.0, 0.009469275263379968
857.0, 0.009184286969769254
858.0, 0.017111426610321542
859.0, 0.014197481512727907
860.0, 0.009705356345266081
861.0, 0.00876711900927175
862.0, 0.007299258126690276
863.0, 0.011890918874730932
864.0, 0.012873071751294943
865.0, 0.01328735861212616
866.0, 0.017362262924815203
867.0, 0.015913446034981345
868.0, 0.015138254550716025
869.0, 0.015167597929798845
870.0, 0.01545977646093818
871.0, 0.014832265112603679
872.0, 0.015837694577841777
873.0, 0.015960080964121735
874.0, 0.016678132413146664
875.0, 0.018627828036007144
876.0, 0.020435881089551217
877.0, 0.020770912532715746
878.0, 0.016772811838963814
879.0, 0.014573839438825101
880.0, 0.019642176412692294
881.0, 0.015454263918627644
882.0, 0.013750940948704406
883.0, 0.013252128690768455
884.0, 0.013729606484746045
885.0, 0.015433701442884251
886.0, 0.014753724170637644
887.0, 0.015402894806542156
888.0, 0.016972191615624212
889.0, 0.018565545524139988
890.0, 0.018111680997816054
891.0, 0.021525751780306943
892.0, 0.024478591246349213
893.0, 0.025631743874387346
894.0, 0.024037789134433742
895.0, 0.018233228503707857
896.0, 0.018138547240348222
897.0, 0.018831175876603892
898.0, 0.020567681999603224
899.0, 0.02511343111410937
900.0, 0.02790218951420078
901.0, 0.024997087016531118
902.0, 0.021777767309627986
903.0, 0.0220574970636386
904.0, 0.029246343658183398
905.0, 0.03013330384680307
906.0, 0.027634534240774365
907.0, 0.028819850687087596
908.0, 0.035701498055862355
909.0, 0.037831701389736946
910.0, 0.03862629127586105
911.0, 0.039256110910301116
912.0, 0.03909954022930382
913.0, 0.038242492301836226
914.0, 0.043222514104835436
915.0, 0.04442068739065567
916.0, 0.048495275394723224
917.0, 0.05379517794970408
918.0, 0.055515790169393654
919.0, 0.05600760760464706
920.0, 0.061306254257656026
921.0, 0.06709516557426747
922.0, 0.07271203099366831
923.0, 0.08057263894779165
924.0, 0.08017551939560348
925.0, 0.08809235430247661
926.0, 0.09417279285224485
927.0, 0.09421500677965947
928.0, 0.09574819743024626
929.0, 0.10108671969285588
930.0, 0.10073898756830198
931.0, 0.09607552894416778
932.0, 0.09025002815031172
933.0, 0.08887129583682352
934.0, 0.08501666276529767
935.0, 0.07874956681564836
936.0, 0.07330767569966425
937.0, 0.07159105084081543
938.0, 0.06593274512551313
939.0, 0.060718012980838114
940.0, 0.05704289872264301
941.0, 0.05358752197751587
942.0, 0.04806555534624556
943.0, 0.04578093282237262
944.0, 0.045990896969237686
945.0, 0.04148452752999979
946.0, 0.034805378095255884
947.0, 0.037128329947217036
948.0, 0.04063611629847664
949.0, 0.03919035174587905
950.0, 0.03574779854787299
951.0, 0.033679619885668644
952.0, 0.03749875041741195
953.0, 0.03339953544193662
954.0, 0.03127337049387297
955.0, 0.02900177043900305
956.0, 0.026175022934835715
957.0, 0.028586104029108644
958.0, 0.029161649285573847
959.0, 0.025844696763177886
960.0, 0.0236396968764283
961.0, 0.025958589605293337
962.0, 0.026631948476177576
963.0, 0.022166168874021303
964.0, 0.021567130521535586
965.0, 0.022952947848561576
966.0, 0.022651488717902582
967.0, 0.021110274043714627
968.0, 0.024074599368310173
969.0, 0.02414909924003832
970.0, 0.022890300337538208
971.0, 0.024064125963864987
972.0, 0.022506312374009838
973.0, 0.018809520317907415
974.0, 0.02062087315627606
975.0, 0.024518584531433744
976.0, 0.02221328701666144
977.0, 0.01942568563368535
978.0, 0.02062273818902241
979.0, 0.01948129539640948
980.0, 0.01807747690457446
981.0, 0.023579201360374235
982.0, 0.018553556371795486
983.0, 0.016027419708118655
984.0, 0.017615197276545164
985.0, 0.01886645852094778
986.0, 0.009730121544809915
987.0, 0.014099231507491705
988.0, 0.01620690057051388
989.0, 0.013992658381426958
990.0, 0.010533805180686445
991.0, 0.014922366233882468
992.0, 0.009172207461372034
993.0, 0.012949198190032509
994.0, 0.013494536671130188
995.0, 0.009312192097004752
996.0, 0.015107506257875498
997.0, 0.012677636212249146
998.0, 0.013327637201213363
999.0, 0.014527349073941022
1000.0, 0.01300711196529392
1001.0, 0.00465821205441776
1002.0, 0.013005794037459094
1003.0, 0.010073180493646106
1004.0, 0.009678388705006577
1005.0, 0.01587724726710522
1006.0, 0.011575968539566122
1007.0, 0.011754626507153948
1008.0, 0.014037340151564095
1009.0, 0.014288740264907793
1010.0, 0.011984508317535999
1011.0, 0.013820329900006225
1012.0, 0.014206973229324142
1013.0, 0.01487959712934306
1014.0, 0.015776909547131353
1015.0, 0.016705495114235965
1016.0, 0.01745990300623806
1017.0, 0.016737453475451813
1018.0, 0.01601498585283281
1019.0, 0.0159233257354815
1020.0, 0.015354714720871777
1021.0, 0.009559879120710761
1022.0, 0.010910292596095378
1023.0, 0.01457234042119198
1024.0, 0.014159269782138377
1025.0, 0.011354956475048979
1026.0, 0.024443496365640985
1027.0, 0.01651689319952103
1028.0, 0.014065501852918974
1029.0, 0.013488238774071648
1030.0, 0.013186140634815567
1031.0, 0.019348494306003043
1032.0, 0.01820062886784377
1033.0, 0.01628304951867203
1034.0, 0.014935071353165717
1035.0, 0.014723363414122498
1036.0, 0.015488912996302442
1037.0, 0.015504446361975073
1038.0, 0.01778080049898283
1039.0, 0.018599835784888722
1040.0, 0.017619362624320786
1041.0, 0.019947304982004286
1042.0, 0.024167487064623534
1043.0, 0.02176015973516078
1044.0, 0.02003279798446856
1045.0, 0.02239708670885658
1046.0, 0.026803453340443716
1047.0, 0.02285615794199849
1048.0, 0.02168390410909308
1049.0, 0.02110010529514185
1050.0, 0.021937397758730545
1051.0, 0.028151522678533988
1052.0, 0.025495549755541462
1053.0, 0.026866550509764792
1054.0, 0.02986324839912191
1055.0, 0.030556046169345392
1056.0, 0.02444781638951403
1057.0, 0.02669776969401444
1058.0, 0.03178771382584498
1059.0, 0.03339396226745073
1060.0, 0.03135226339005789
1061.0, 0.029486673520002404
1062.0, 0.03197015930036423
1063.0, 0.03249393412312697
1064.0, 0.03382074362462463
1065.0, 0.036042546911180286
1066.0, 0.03738975148355003
1067.0, 0.030454631195472554
1068.0, 0.027976812823909267
1069.0, 0.03112440372841474
1070.0, 0.031650232086490766
1071.0, 0.02305487579128377
1072.0, 0.026795025985452418
1073.0, 0.031387833009131935
1074.0, 0.029421338352832355
1075.0, 0.024820415226230224
1076.0, 0.02320387643346953
1077.0, 0.02679548550852335
1078.0, 0.022575928221209535
1079.0, 0.017989674257523063
1080.0, 0.022039213844485022
1081.0, 0.03334109606436273
1082.0, 0.025525039506163645
1083.0, 0.026618518211809394
1084.0, 0.02393727555992287
1085.0, 0.023063429720201426
1086.0, 0.02558750810907226
1087.0, 0.02502263810205594
1088.0, 0.02307810000203644
1089.0, 0.02204387162872105
1090.0, 0.021163034469168764
1091.0, 0.020402279642488877
1092.0, 0.020449324219642934
1093.0, 0.020474376376833723
1094.0, 0.017472517684799155
1095.0, 0.016926581080984323
1096.0, 0.018980714225178153
1097.0, 0.02067773656693667
1098.0, 0.0206789978734619
1099.0, 0.01632712040716455
1100.0, 0.014970498426595582
1101.0, 0.01713543061966023
1102.0, 0.01978623255616069
1103.0, 0.014191385306975514
1104.0, 0.019100354854809036
1105.0, 0.01710721612792041
1106.0, 0.016467485980997256
1107.0, 0.02117615608810635
1108.0, 0.011064017957863931
1109.0, 0.013380527979270753
1110.0, 0.01283805551357523
1111.0, 0.01256866921140017
1112.0, 0.01279353646806444
1113.0, 0.00749135424583771
1114.0, 0.008741857593094515
1115.0, 0.01145771319687928
1116.0, 0.010543978106970978
1117.0, 0.007284358312209634
1118.0, 0.0072633913882040445
1119.0, 0.0031081251754592224
1120.0, 0.013146809325519052
1121.0, 0.012797556670396185
1122.0, 0.009377948055182973
1123.0, 0.017221694599421973
1124.0, 0.01542468092382503
1125.0, 0.009396589418555902
1126.0, 0.005885295034950149
1127.0, 0.004378791976665172
1128.0, 0.0038010347655705774
1129.0, 0.005457436871737442
1130.0, 0.0014925885905907148
1131.0, 0.0018700361174467598
1132.0, 0.003284911598390158
1133.0, 0.0037521373870673365
1134.0, 0.004125342949390671
1135.0, 0.0025273953788788966
1136.0, 0.002381236452750653
1137.0, 0.0041367520030934826
1138.0, 0.005609236913720402
1139.0, 0.004088066480202018
1140.0, 0.005118459016780586
1141.0, 0.006840419468610217
1142.0, 0.004682537350529898
1143.0, 0.0028747411991035406
1144.0, 0.004624141512905481
1145.0, 0.0024025976203006748
1146.0, 0.005147472365815576
1147.0, 0.0039454208370545306
1148.0, 0.001894079368376862
1149.0, 0.001061470964734889
1150.0, 0.0004433091778472331
1151.0, 8.05357098871346e-05
1152.0, 0.0013458146650334505
1153.0, 0.0022521946534056667
1154.0, 0.003409973141365299
1155.0, 0.006056591738769295
1156.0, 0.0035137968637853636
1157.0, 0.0049188269584203624
1158.0, 0.004107328469314342
1159.0, 0.0026561064218654845
1160.0, 0.002898982441425107
1161.0, 0.003899516817677858
1162.0, 0.003759252122724121
1163.0, 0.003722270082226138
1164.0, 0.0035472594162494903
1165.0, 0.003032325788949361
1166.0, 0.0023174952852857505
1167.0, 0.0061279534062104735
1168.0, 0.002798981048201755
1169.0, 0.0025690288645292274
1170.0, 0.003402462500840774
1171.0, 0.0007135275990347951
1172.0, 0.005509025402369734
1173.0, 0.0017762518285942123
1174.0, 0.0023827022460025994
1175.0, 0.0030455117159203463
1176.0, 0.0018264370548957429
1177.0, 0.005445804979218432
1178.0, 0.004759649569285744
1179.0, 0.0027050347316899346
1180.0, 0.00344328178094289
1181.0, 0.004516916709947765
1182.0, 0.0008393086087397265
1183.0, 0.002319775246690187
1184.0, 0.005744691070108073
1185.0, 0.004742696929040282
1186.0, 0.003292551494825993
1187.0, 0.004566712449054759
1188.0, 0.0038767305584256886
1189.0, 0.007820032599872361
1190.0, 0.005417633800910832
1191.0, 0.0019698343476900987
1192.0, 0.0022882825255975147
1193.0, 0.008505272325638325
1194.0, 0.009213729107182466
1195.0, 0.005199573534966608
1196.0, 0.0031488684981038103
1197.0, 0.0026637146182099964
1198.0, 0.002683047404194978
1199.0, 0.006179672866526731
1200.0, 0.0024690911301897944
1201.0, 0.0035441471472118413
1202.0, 0.005406651425964093
1203.0, 0.008318427405366424
1204.0, 0.015869106293796766
1205.0, 0.01300354824168305
1206.0, 0.01589489268601063
1207.0, 0.013323070753721683
1208.0, 0.009063188460187738
1209.0, 0.008193050991139383
1210.0, 0.006715561892017709
1211.0, 0.007375152203316329
1212.0, 0.010877872530191627
1213.0, 0.01370342155442075
1214.0, 0.013284266786757532
1215.0, 0.00888631697327528
1216.0, 0.005095007275024434
1217.0, 0.010989320216999667
1218.0, 0.010660839141012226
1219.0, 0.009425569071558393
1220.0, 0.012576717368557463
1221.0, 0.012265432978676341
1222.0, 0.007424297849135936
1223.0, 0.010920259113097394
1224.0, 0.01156068366555663
1225.0, 0.00834481602831777
1226.0, 0.00799152628323345
1227.0, 0.013623827617021158
1228.0, 0.012503999129278088
1229.0, 0.007514183152945454
1230.0, 0.009129110793831375
1231.0, 0.017136162354820895
1232.0, 0.011795334980157468
1233.0, 0.009529103567000895
1234.0, 0.01312020110375079
1235.0, 0.01407088519373015
1236.0, 0.012046324413870494
1237.0, 0.011124772621513533
1238.0, 0.014979162325178546
1239.0, 0.017695947809046743
1240.0, 0.01772845347828111
1241.0, 0.019745574207810108
1242.0, 0.022810745658103034
1243.0, 0.01995382146542469
1244.0, 0.017827153471551505
1245.0, 0.020519966216134725
1246.0, 0.02471328674576799
1247.0, 0.02618238142401909
1248.0, 0.02423896337725999
1249.0, 0.026869134927835322
1250.0, 0.017594109684778796
1251.0, 0.02252927841452392
1252.0, 0.024560033693672143
1253.0, 0.023621847586204732
1254.0, 0.028831208704789658
1255.0, 0.030059236922384533
1256.0, 0.025532408563390778
1257.0, 0.022839449418093394
1258.0, 0.01982185492045915
1259.0, 0.01643520444571076
1260.0, 0.016890804848628083
1261.0, 0.023323586738953305
1262.0, 0.019753353233382027
1263.0, 0.020477340055082446
1264.0, 0.023458725674160456
1265.0, 0.023008501965403196
1266.0, 0.018290206752470232
1267.0, 0.01596173784414292
1268.0, 0.01370905553658518
1269.0, 0.011924127860049365
1270.0, 0.012020840744404673
1271.0, 0.013515854628659174
1272.0, 0.004912424685416205
1273.0, 0.010615197134476466
1274.0, 0.009904737281961106
1275.0, 0.006698248852132581
1276.0, 0.005541564050053148
1277.0, 0.007734805216990258
1278.0, 0.009928344799304096
1279.0, 0.005993288868957268
1280.0, 0.008785177470902295
1281.0, 0.01032700517960929
1282.0, 0.006706143420386265
1283.0, 0.008722821993991998
1284.0, 0.00913662550069222
1285.0, 0.00412870782293219
1286.0, 0.0025973843323097013
1287.0, 0.004294989593449384
1288.0, 0.005593722273916719
1289.0, 0.004757525476831423
1290.0, 0.005045700554509506
1291.0, 0.004017201266850751
1292.0, 0.005190844453114919
1293.0, 0.00540612196451616
1294.0, 0.0005697784261751041
1295.0, 0.0011189457497820386
1296.0, 0.002899070980588635
1297.0, 0.002490036524620552
1298.0, 0.002866482133418509
1299.0, 0.0036353343941466333
1300.0, 0.002152580349007822
1301.0, 0.006255687877131328
1302.0, 0.0036490689127389227
1303.0, 0.0031880504573687245
1304.0, 0.003985590333357353
1305.0, 0.004507450481414851
1306.0, 0.004546017245317814
1307.0, 0.0014241831207342502
1308.0, 0.0024260698091614656
1309.0, 0.0063614771707854205
1310.0, 0.0062623181742713155
1311.0, 0.0032485114892906
1312.0, 0.012342869273330736
1313.0, 0.006921962948134566
1314.0, 0.006256865902624409
1315.0, 0.005130052261076547
1316.0, 0.00419436956602175
1317.0, 0.004804662166126316
1318.0, 0.0051302999647424635
1319.0, 0.008381092396896805
1320.0, 0.007922242709964852
1321.0, 0.00822403276436645
1322.0, 0.009964181549097508
1323.0, 0.010280357237407058
1324.0, 0.002389553607200193
1325.0, 0.010364293607745339
1326.0, 0.004448670560617759
1327.0, 0.004348746016244734
1328.0, 0.00746771334829488
1329.0, 0.004105381372874455
1330.0, 0.006277052106822485
1331.0, 0.0014530968032897586
1332.0, 0.0009552343667155554
1333.0, 0.005041389832660793
1334.0, 0.0068677315045106045
1335.0, 0.0009198394391835884
1336.0, 0.0010914443731576966
1337.0, 0.0005160847492694629
1338.0, 0.0008841869048472969
1339.0, 0.0010250849059080058
1340.0, 0.0012551315295391222
1341.0, 0.0022101577668497455
1342.0, 0.0007324959226299773
1343.0, 0.0009106071671236721
1344.0, 0.0020091531920063124
1345.0, 0.001904007729035155
1346.0, 0.0012725221254312135
1347.0, 0.0024928653026431587
1348.0, 0.005642490970416538
1349.0, 0.008526387734362552
1350.0, 0.007371965889249209
1351.0, 0.004167767275600691
1352.0, 0.0023555449035700783
1353.0, 0.0038898856971280797
1354.0, 0.002201022971997001
1355.0, 0.003247879412101732
1356.0, 0.005727786244563936
1357.0, 0.004524278082585864
1358.0, 0.001344354505433066
1359.0, 0.0015929312429422034
1360.0, 0.0025088082760982926
1361.0, 0.004396240121577013
1362.0, 0.004569529714561938
1363.0, 0.002887345471657631
1364.0, 0.001493000406108667
1365.0, 0.0032360851371265715
1366.0, 0.008275422502771027
1367.0, 0.005912649124164086
1368.0, 0.006719173894941684
1369.0, 0.007434555796122734
1370.0, 0.007253812044482919
1371.0, 0.0066339274143851126
1372.0, 0.0016916594690907817
1373.0, 0.00540181341885553
1374.0, 0.005681053775588091
1375.0, 0.007797928937596393
1376.0, 0.011965241084502877
1377.0, 0.013627194547842541
1378.0, 0.005673637540470596
1379.0, 0.00398784976571969
1380.0, 0.00836096391805904
1381.0, 0.008867961358688843
1382.0, 0.0068407821455122335
1383.0, 0.007914199534069419
1384.0, 0.012517181394886783
1385.0, 0.01424146926032815
1386.0, 0.014494542505974992
1387.0, 0.012769369162795856
1388.0, 0.010768138674846781
1389.0, 0.01000146282541265
1390.0, 0.009679494027433885
1391.0, 0.0073507089952378835
1392.0, 0.0069762260169919784
1393.0, 0.006956581705881999
1394.0, 0.0064724091442543
1395.0, 0.005978300852606487
1396.0, 0.007043893748769616
1397.0, 0.006395366768047037
1398.0, 0.009906716181270354
1399.0, 0.00783610207957423
1400.0, 0.008875708438885247
1401.0, 0.012925197014581632
1402.0, 0.007997178621164605
1403.0, 0.013562504214388791
1404.0, 0.011832929957687506
1405.0, 0.010346634609970312
1406.0, 0.009137847105223926
1407.0, 0.010800589861110549
1408.0, 0.016525712162344598
1409.0, 0.0058613566540852615
1410.0, 0.012033987890549772
1411.0, 0.01595768572873585
1412.0, 0.012876530441427173
1413.0, 0.008324542973721644
1414.0, 0.009000583316816847
1415.0, 0.007500781051898624
1416.0, 0.009735046168512214
1417.0, 0.010761426173862576
1418.0, 0.011122545089545091
1419.0, 0.011634004041280397
1420.0, 0.013447053605023813
1421.0, 0.01768428723556733
1422.0, 0.01241114509228109
1423.0, 0.015697544378822093
1424.0, 0.014653065186962156
1425.0, 0.015654527412490224
1426.0, 0.020350054577309994
1427.0, 0.018365982533047432
1428.0, 0.011839356911378928
1429.0, 0.018273665566740028
1430.0, 0.0188872439030553
1431.0, 0.014090766010748584
1432.0, 0.010802595581805772
1433.0, 0.014275889985159817
1434.0, 0.013347022885457216
1435.0, 0.01554053241152333
1436.0, 0.014171416043299157
1437.0, 0.016579615276217107
1438.0, 0.021255640896371757
1439.0, 0.021916434372215216
1440.0, 0.014924808569558795
1441.0, 0.018759125664024448
1442.0, 0.017547567670587343
1443.0, 0.0177646533366104
1444.0, 0.018423125647880473
1445.0, 0.01922166439873992
1446.0, 0.022415932585094528
1447.0, 0.016464408934984208
1448.0, 0.01892866842420953
1449.0, 0.015686454084141568
1450.0, 0.01480355417055327
1451.0, 0.015195719775150072
1452.0, 0.01227371119561992
1453.0, 0.02447920065047881
1454.0, 0.02058679129551248
1455.0, 0.018660707670584375
1456.0, 0.02434517743735418
1457.0, 0.02890553808860935
1458.0, 0.024607939180421746
1459.0, 0.017877169241610195
1460.0, 0.02363132564956844
1461.0, 0.019301823176587247
1462.0, 0.019941478410796017
1463.0, 0.018419370067446778
1464.0, 0.013462395708042163
1465.0, 0.013994861386940522
1466.0, 0.024995460237495253
1467.0, 0.012262891755722784
1468.0, 0.019136744479623477
1469.0, 0.016744804254755854
1470.0, 0.012021688837181951
1471.0, 0.018921852532090104
1472.0, 0.019800621159779166
1473.0, 0.019363667900801573
1474.0, 0.021062070210255447
1475.0, 0.022996989308120934
1476.0, 0.021672562494482746
1477.0, 0.01764911245769962
1478.0, 0.014868420961188258
1479.0, 0.010958345269874383
1480.0, 0.009374160347462785
1481.0, 0.007680650263840502
1482.0, 0.014650915134388598
1483.0, 0.01814590509847515
1484.0, 0.011062784761789263
1485.0, 0.017006120551744983
1486.0, 0.016941689387534906
1487.0, 0.01206229979955026
1488.0, 0.006229221884980665
1489.0, 0.004043233652505738
1490.0, 0.005627847106996063
1491.0, 0.007231210906048899
1492.0, 0.008088939371811306
1493.0, 0.007636718796272783
1494.0, 0.011260443352084952
1495.0, 0.012118377659166927
1496.0, 0.009410566218965865
1497.0, 0.008104568212073239
1498.0, 0.014205854469098594
1499.0, 0.006792398136147123
1500.0, 0.006539859446307247
1501.0, 0.0036065632363231287
1502.0, 0.0012452333321721078
1503.0, 0.0010607511803403485
1504.0, 0.0016335546310243356
1505.0, 0.002093628100441977
1506.0, 0.00729463204242948
1507.0, 0.004316097790205432
1508.0, 0.004550966078466017
1509.0, 0.007282816164066367
1510.0, 0.008414149353249157
1511.0, 0.006185020557006237
1512.0, 0.0037139495396438073
1513.0, 0.009369652548775465
1514.0, 0.0090683135026377
1515.0, 0.010206366577260723
1516.0, 0.007962187180329507
1517, 0.0
1518, 0.0
1519, 0.0
1520, 0.0
1521, 0.0
1522, 0.0
1523, 0.0
1524, 0.0
1525, 0.0
1526, 0.0
1527, 0.0
1528, 0.0
1529, 0.0
1530, 0.0
1531, 0.0
1532, 0.0
1533, 0.0
1534, 0.0
1535, 0.0
1536, 0.0
1537, 0.0
1538, 0.0
1539, 0.0
1540, 0.0
1541, 0.0
1542, 0.0
1543, 0.0
1544, 0.0
1545, 0.0
1546, 0.0
1547, 0.0
1548, 0.0
1549, 0.0
1550, 0.0
1551, 0.0
1552, 0.0
1553, 0.0
1554, 0.0
1555, 0.0
1556, 0.0
1557, 0.0
1558, 0.0
1559, 0.0
1560, 0.0
1561, 0.0
1562, 0.0
1563, 0.0
1564, 0.0
1565, 0.0
1566, 0.0
1567, 0.0
1568, 0.0
1569, 0.0
1570, 0.0
1571, 0.0
1572, 0.0
1573, 0.0
1574, 0.0
1575, 0.0
1576, 0.0
1577, 0.0
1578, 0.0
1579, 0.0
1580, 0.0
1581, 0.0
1582, 0.0
1583, 0.0
1584, 0.0
1585, 0.0
1586, 0.0
1587, 0.0
1588, 0.0
1589, 0.0
1590, 0.0
1591, 0.0
1592, 0.0
1593, 0.0
1594, 0.0
1595, 0.0
1596, 0.0
1597, 0.0
1598, 0.0
1599, 0.0
