30, 0.0
31, 0.0
32, 0.0
33, 0.0
34, 0.0
35, 0.0
36, 0.0
37, 0.0
38, 0.0
39, 0.0
40, 0.0
41, 0.0
42, 0.0
43, 0.0
44, 0.0
45, 0.0
46, 0.0
47, 0.0
48, 0.0
49, 0.0
50, 0.0
51, 0.0
52, 0.0
53, 0.0
54, 0.0
55, 0.0
56, 0.0
57, 0.0
58, 0.0
59, 0.0
60, 0.0
61, 0.0
62, 0.0
63, 0.0
64, 0.0
65, 0.0
66, 0.0
67, 0.0
68, 0.0
69, 0.0
70, 0.0
71, 0.0
72, 0.0
73, 0.0
74, 0.0
75, 0.0
76, 0.0
77, 0.0
78, 0.0
79, 0.0
80, 0.0
81, 0.0
82, 0.0
83, 0.0
84, 0.0
85, 0.0
86, 0.0
87, 0.0
88, 0.0
89, 0.0
90, 0.0
91, 0.0
92, 0.0
93, 0.0
94, 0.0
95, 0.0
96, 0.0
97, 0.0
98, 0.0
99, 0.0
100, 0.0
101, 0.0
102, 0.0
103, 0.0
104, 0.0
105, 0.0
106, 0.0
107, 0.0
108, 0.0
109, 0.0
110, 0.0
111, 0.0
112, 0.0
113, 0.0
114.0, 0.001663523143084668
115.0, 0.00507005065955708
116.0, 0.01025861487566829
117.0, 0.016442883387018135
118.0, 0.020507569678085664
119.0, 0.020503964863561562
120.0, 0.01733466756825585
121.0, 0.013120254391539543
122.0, 0.008672173745722276
123.0, 0.00585239479750073
124.0, 0.003224293140272667
125.0, 0.0013846695359773168
126.0, 0.0005421903149145552
127.0, 0.00038543902528600783
128.0, 0.0006729410235124523
129.0, 0.0009139931520216558
130.0, 0.0004566659738446182
131.0, 0.0024783972307962235
132.0, 0.0040774113094215825
133.0, 0.004881796924260744
134.0, 0.004984228331374656
135.0, 0.0037774975490799598
136.0, 0.003087460153527596
137.0, 0.004208639213795151
138.0, 0.002265290365208244
139.0, 0.0025726983743746723
140.0, 0.004504848361218543
141.0, 0.006166051449004147
142.0, 0.005823133999467856
143.0, 0.0050649267324068365
144.0, 0.004391320073652143
145.0, 0.004299632907298962
146.0, 0.005028776698004197
147.0, 0.0063524307759635
148.0, 0.008134231259102252
149.0, 0.00739948543409201
150.0, 0.007682938557761459
151.0, 0.008848546799722676
152.0, 0.007614560225547831
153.0, 0.007584197869567635
154.0, 0.007430235666216467
155.0, 0.006359746926122698
156.0, 0.00784614408115147
157.0, 0.008674339041817284
158.0, 0.00900177349652591
159.0, 0.009194850330968833
160.0, 0.009479250242690068
161.0, 0.009738628965048159
162.0, 0.009925100302666655
163.0, 0.00984116126114246
164.0, 0.009406957833625789
165.0, 0.009370857730434312
166.0, 0.010526065575370872
167.0, 0.012284495136201695
168.0, 0.01493676109281035
169.0, 0.018120276331606937
170.0, 0.020603408695894502
171.0, 0.02034456097678573
172.0, 0.019379961133019877
173.0, 0.0184108613875877
174.0, 0.01743521329821454
175.0, 0.013618993036368612
176.0, 0.00961503376870271
177.0, 0.008907946798370826
178.0, 0.0075207094067729656
179.0, 0.006080567388487969
180.0, 0.004673205387069053
181.0, 0.003341738341544563
182.0, 0.001381791228191835
183.0, 0.0002339986122286561
184.0, 0.0006734243236251657
185.0, 0.002075713927902545
186.0, 0.0020882637707377036
187.0, 0.0014166040526687965
188.0, 0.0010763085474862738
189.0, 0.002602183051744193
190.0, 0.0024440966519983158
191.0, 0.0007793115604537503
192.0, 0.0018300038865266578
193.0, 0.0034248229060931767
194.0, 0.004231770426680887
195.0, 0.0034249162552735
196.0, 0.007786798534950136
197.0, 0.009927664349368487
198.0, 0.011151087877505201
199.0, 0.013643859769786614
200.0, 0.016925170551108325
201.0, 0.01929736756172806
202.0, 0.020960596321233406
203.0, 0.024869807209812397
204.0, 0.026007751165310216
205.0, 0.028293682733619353
206.0, 0.03402902826006868
207.0, 0.036276394777683824
208.0, 0.037565939929898345
209.0, 0.038685257170255
210.0, 0.04097098940625218
211.0, 0.04069321250281082
212.0, 0.04003875864724193
213.0, 0.040063675649836594
214.0, 0.0446702826572492
215.0, 0.04864851760528345
216.0, 0.052907510708611036
217.0, 0.057796666200843394
218.0, 0.05579948941667906
219.0, 0.05600170703396797
220.0, 0.0563940952340453
221.0, 0.05406929079834553
222.0, 0.053778612063206256
223.0, 0.05337533196030681
224.0, 0.05225763558326783
225.0, 0.048921113322003135
226.0, 0.04771437011759053
227.0, 0.04649631814065138
228.0, 0.044609121888839524
229.0, 0.045955927855169686
230.0, 0.0451103129207545
231.0, 0.0446023156882329
232.0, 0.04726905057644782
233.0, 0.048570965410766644
234.0, 0.04884663476400038
235.0, 0.04905183175419036
236.0, 0.05190939283487444
237.0, 0.055544190548148874
238.0, 0.05870836343885073
239.0, 0.06125836273414722
240.0, 0.06522299163437252
241.0, 0.06899564332531233
242.0, 0.07305296012948763
243.0, 0.07777466603062413
244.0, 0.07995291466951641
245.0, 0.08440478315333287
246.0, 0.08937515647914876
247.0, 0.09150316990513548
248.0, 0.09487710575716293
249.0, 0.09914751506083394
250.0, 0.10356154144891362
251.0, 0.10474800511087562
252.0, 0.10464991986733682
253.0, 0.10243974163753618
254.0, 0.09789415788145027
255.0, 0.09695803568070258
256.0, 0.09346004682498076
257.0, 0.08867182328227836
258.0, 0.08372144132799895
259.0, 0.07802997788636608
260.0, 0.07224473391329711
261.0, 0.06593836678601073
262.0, 0.057865398638969265
263.0, 0.052165597276719024
264.0, 0.046708955705472316
265.0, 0.041057002470784656
266.0, 0.0353459049663833
267.0, 0.030383811952765894
268.0, 0.02688989632517054
269.0, 0.025214420029054885
270.0, 0.019876006431710374
271.0, 0.018232014844883827
272.0, 0.01605518276864841
273.0, 0.008179626871128179
274.0, 0.008998914977623186
275.0, 0.008652741802598484
276.0, 0.006873328989483793
277.0, 0.004699903327008155
278.0, 0.0018608212076094625
279.0, 0.0004674759930760005
280.0, 0.0008299511430476959
281.0, 0.0017122184243415055
282.0, 0.0033526043888804052
283.0, 0.0041654406573234035
284.0, 0.003384303113519082
285.0, 0.0038605360806686756
286.0, 0.003333536508697882
287.0, 0.0024560190864729814
288.0, 0.0018882341500769738
289.0, 0.0032317857829153055
290.0, 0.0031591249538207387
291.0, 0.002533503469211168
292.0, 0.003649083402108708
293.0, 0.0036753539466996563
294.0, 0.0022746608894113774
295.0, 0.00021885650818794075
296.0, 0.0015256556743851657
297.0, 0.001360176371474913
298.0, 0.0014811600830572308
299.0, 0.0024502712839527306
300.0, 0.002315996516438476
301.0, 0.0032466848374877655
302.0, 0.0041725595137470295
303.0, 0.004262519098134338
304.0, 0.0017229096155356666
305.0, 0.0018610409594620489
306.0, 0.0030203762169529473
307.0, 0.002657831971060651
308.0, 0.004636671888851693
309.0, 0.007009740852893659
310.0, 0.009094135491422463
311.0, 0.009442594891250601
312.0, 0.009590810384461482
313.0, 0.010949461461911844
314.0, 0.013679545418915171
315.0, 0.016616835424997693
316.0, 0.019298174288210162
317.0, 0.022370914805971524
318.0, 0.026111642002116933
319.0, 0.029786996990548906
320.0, 0.031668627497015975
321.0, 0.03330267070883328
322.0, 0.03595352415172963
323.0, 0.04015145623765363
324.0, 0.041987721405569715
325.0, 0.04335009797757095
326.0, 0.047166097992439246
327.0, 0.0447240371476892
328.0, 0.04379750782091876
329.0, 0.04473245534442186
330.0, 0.046664654260213184
331.0, 0.04737653218537592
332.0, 0.04752205417386927
333.0, 0.04745384956391263
334.0, 0.04823476628665001
335.0, 0.04763066596281843
336.0, 0.047302947907534865
337.0, 0.04768400263516392
338.0, 0.04675290459520354
339.0, 0.04529914260727938
340.0, 0.04401131469231924
341.0, 0.0433171343030614
342.0, 0.04262225584060722
343.0, 0.040551143523389684
344.0, 0.038608601719966114
345.0, 0.038388980252882544
346.0, 0.037891880577747616
347.0, 0.03281613634516157
348.0, 0.02700657889488862
349.0, 0.027286317046601997
350.0, 0.022832189234757504
351.0, 0.020935327165319206
352.0, 0.021191488466872386
353.0, 0.020514896879305196
354.0, 0.018224622333031706
355.0, 0.016478352776621345
356.0, 0.015497310352077449
357.0, 0.014299469485300685
358.0, 0.013203394455590307
359.0, 0.01223453016500078
360.0, 0.011371367328071993
361.0, 0.010353542753158928
362.0, 0.009688459015529016
363.0, 0.008486276248351587
364.0, 0.006490127826387815
365.0, 0.007586803466721102
366.0, 0.007570294436882414
367.0, 0.007152285216958072
368.0, 0.0068724289354783336
369.0, 0.009450356766381052
370.0, 0.009554547293874982
371.0, 0.009322756058127352
372.0, 0.011227658269321912
373.0, 0.007781074864128471
374.0, 0.006910687512445452
375.0, 0.007987710450015902
376.0, 0.009574777989974265
377.0, 0.009204370598900908
378.0, 0.00952112294124907
379.0, 0.010221942599584153
380.0, 0.009983641076774815
381.0, 0.0107467778461022
382.0, 0.012323986586423162
383.0, 0.014152253484844984
384.0, 0.014423708286248248
385.0, 0.016141987801105505
386.0, 0.018351943586713753
387.0, 0.02023186944254194
388.0, 0.01883223943742826
389.0, 0.02020099299173854
390.0, 0.02315501477949115
391.0, 0.02696283943196002
392.0, 0.028946649900490715
393.0, 0.02830324656570559
394.0, 0.02959448289072417
395.0, 0.034332787081910114
396.0, 0.033851805917864235
397.0, 0.037380936614248704
398.0, 0.04186395389336695
399.0, 0.04545402992070153
400.0, 0.04895219227285466
401.0, 0.0508405875587976
402.0, 0.05332821694797673
403.0, 0.0582656482578642
404.0, 0.06761727989851252
405.0, 0.0707396464454725
406.0, 0.0745916032280994
407.0, 0.0865872266164538
408.0, 0.09763695873854472
409.0, 0.10255653415223849
410.0, 0.10765461824140833
411.0, 0.12157854458653218
412.0, 0.13184254432521458
413.0, 0.1441203527856547
414.0, 0.15614200000221595
415.0, 0.16357849277286618
416.0, 0.179472613335818
417.0, 0.19365848176406086
418.0, 0.20538609077378991
419.0, 0.21474620926132876
420.0, 0.22323828436157855
421.0, 0.23042397722094018
422.0, 0.23602218141601308
423.0, 0.2393679657147758
424.0, 0.24186833773452088
425.0, 0.2420434711508301
426.0, 0.2398063857452545
427.0, 0.23545064246686162
428.0, 0.22860580957841178
429.0, 0.21846895262027277
430.0, 0.20611779711196707
431.0, 0.1957433516986716
432.0, 0.18130528682992791
433.0, 0.16670520931360946
434.0, 0.15405164719535652
435.0, 0.14824589163924268
436.0, 0.13845359602220686
437.0, 0.13099794921056754
438.0, 0.12719997322142726
439.0, 0.12524380329894688
440.0, 0.1228450946046982
441.0, 0.12034983245937447
442.0, 0.11850536070661916
443.0, 0.12071910666375292
444.0, 0.12187317994338019
445.0, 0.12311889209475431
446.0, 0.12396305652646836
447.0, 0.11907639312742899
448.0, 0.1157658349597709
449.0, 0.11354639861224364
450.0, 0.11165180731008698
451.0, 0.10604589841103042
452.0, 0.10162568632622576
453.0, 0.098043698868135
454.0, 0.09535414940861639
455.0, 0.09482486429564028
456.0, 0.09498499576738513
457.0, 0.09520459126780134
458.0, 0.09521943316658199
459.0, 0.09504894077867242
460.0, 0.09631069579117088
461.0, 0.09766702792561875
462.0, 0.09903705413028725
463.0, 0.10456078616483845
464.0, 0.10323997597879316
465.0, 0.10302261615358069
466.0, 0.1065969439269482
467.0, 0.10606721368678731
468.0, 0.10719403309653806
469.0, 0.10759385198716546
470.0, 0.10625424316301213
471.0, 0.10404281694652269
472.0, 0.10478921846203365
473.0, 0.10603192633296678
474.0, 0.10717457930211574
475.0, 0.1124677996757545
476.0, 0.11145358389567703
477.0, 0.11019403632495546
478.0, 0.11068272853141153
479.0, 0.10725665227350321
480.0, 0.10849213959750802
481.0, 0.1110145966553274
482.0, 0.11259783016103198
483.0, 0.10747166190967838
484.0, 0.10855142358851809
485.0, 0.11002043143905291
486.0, 0.10965767537499753
487.0, 0.10864979315540937
488.0, 0.10460211594809694
489.0, 0.09927566241168327
490.0, 0.09359531437835955
491.0, 0.0891909350485263
492.0, 0.08901812346767507
493.0, 0.08511033608697006
494.0, 0.07726976768433438
495.0, 0.08014267979094027
496.0, 0.0744181934379829
497.0, 0.0691527390416136
498.0, 0.0663997426902209
499.0, 0.061990228917187695
500.0, 0.06075687103273061
501.0, 0.059040884033014406
502.0, 0.055852002041252825
503.0, 0.05143824482676436
504.0, 0.04864293822510084
505.0, 0.04629374428608334
506.0, 0.04358843341519632
507.0, 0.038687950830260866
508.0, 0.03626360234522113
509.0, 0.0342760407150747
510.0, 0.031621246013655624
511.0, 0.02623009991089085
512.0, 0.025697287963919225
513.0, 0.025237673464031992
514.0, 0.02390569104750358
515.0, 0.021429130185613262
516.0, 0.016137725729644673
517.0, 0.01447711105288435
518.0, 0.014676417812850607
519.0, 0.010983105697284905
520.0, 0.010839046592904552
521.0, 0.008607888878072073
522.0, 0.0056878170770765365
523.0, 0.0056422186789450955
524.0, 0.009697511802897556
525.0, 0.008071604389145033
526.0, 0.00476495190362515
527.0, 0.006665110100107735
528.0, 0.003170281361604679
529.0, 0.003976513429561793
530.0, 0.005427520983527794
531.0, 0.0026986237224387285
532.0, 0.0009373450513596108
533.0, 0.0005202634594424774
534.0, 0.00198763671239893
535.0, 0.0056322463314530755
536.0, 0.0021725011177435053
537.0, 0.0021155223045695964
538.0, 0.002320255605997834
539.0, 0.0006430836850635418
540.0, 0.0016517945628888872
541.0, 0.0009027802077709851
542.0, 0.0002886859039281872
543.0, 0.0008355490305417909
544.0, 0.001567088370154766
545.0, 0.0023698643115477635
546.0, 0.0023160911786333244
547.0, 0.001299634538758965
548.0, 0.001346995637304175
549.0, 0.0008011056589212692
550.0, 0.0006789469372642212
551.0, 0.001197948340034782
552.0, 0.0017992620538330832
553.0, 0.00292163523286053
554.0, 0.0022203728588399063
555.0, 0.00029928080526875356
556.0, 0.0007369533879256455
557.0, 0.000963911083800732
558.0, 0.0018280116560277903
559.0, 0.003347372894663188
560.0, 0.005269211984429061
561.0, 0.00308759778946786
562.0, 0.0027955310480194616
563.0, 0.0036654053491257097
564.0, 0.0036394087728198322
565.0, 0.0031123008710255474
566.0, 0.004459054755692917
567.0, 0.005747625627027872
568.0, 0.004697771518908277
569.0, 0.001458485116970896
570.0, 0.0037770311953508697
571.0, 0.005174050770753468
572.0, 0.001255726576775596
573.0, 0.007079975960460595
574.0, 0.00534882821024517
575.0, 0.004068533848669236
576.0, 0.006935295431740383
577.0, 0.0073675478257072815
578.0, 0.008192816830959194
579.0, 0.009580301975206651
580.0, 0.01107515185614796
581.0, 0.010290175826328995
582.0, 0.012578689832451485
583.0, 0.014273641542065982
584.0, 0.01444707139527815
585.0, 0.013026354099594229
586.0, 0.016956638982729318
587.0, 0.019472509956733733
588.0, 0.02099174252571584
589.0, 0.024122439923354735
590.0, 0.025171000743323686
591.0, 0.028096601917088432
592.0, 0.03297789256206787
593.0, 0.03954762439464668
594.0, 0.036553711372927594
595.0, 0.04078097384643458
596.0, 0.047513682373501
597.0, 0.05246491622441262
598.0, 0.05093364147825916
599.0, 0.05597847024038627
600.0, 0.06043613762357281
601.0, 0.06152029323838702
602.0, 0.06565548927871825
603.0, 0.06642125404033591
604.0, 0.06746081478894025
605.0, 0.06976120566384758
606.0, 0.07265791886286187
607.0, 0.07044388667477584
608.0, 0.06826190373745529
609.0, 0.06703616989076484
610.0, 0.06675104212617056
611.0, 0.06851510805957656
612.0, 0.06860488001583973
613.0, 0.06681309587086286
614.0, 0.06331932041990036
615.0, 0.0652225485316569
616.0, 0.06360120459797108
617.0, 0.0605423731256915
618.0, 0.05799683387077838
619.0, 0.05844189077710547
620.0, 0.05538589615643529
621.0, 0.05084562066770731
622.0, 0.046602558439494825
623.0, 0.04704829534109517
624.0, 0.04343081221551551
625.0, 0.04136085689267484
626.0, 0.04074929516875343
627.0, 0.03701309435406212
628.0, 0.03525913571329616
629.0, 0.03228365756782386
630.0, 0.029117946364696567
631.0, 0.028084604619074756
632.0, 0.030637815618742698
633.0, 0.02922027249560385
634.0, 0.0276392827425811
635.0, 0.02920000072137893
636.0, 0.02323181282662312
637.0, 0.024363547594521407
638.0, 0.02599590184470681
639.0, 0.024991510175010962
640.0, 0.02420075033125457
641.0, 0.029654512577349468
642.0, 0.030736542565413524
643.0, 0.027689295535179143
644.0, 0.03035501605771278
645.0, 0.032578899831627484
646.0, 0.03358472992587196
647.0, 0.03426901275649262
648.0, 0.03619286533481563
649.0, 0.036668910579170544
650.0, 0.03445876134017014
651.0, 0.03176508476815717
652.0, 0.030657097226696246
653.0, 0.03233408007542527
654.0, 0.03438540037834137
655.0, 0.03199639074255942
656.0, 0.025711870920143355
657.0, 0.029118214523628123
658.0, 0.02711747474817427
659.0, 0.025422721758566368
660.0, 0.025103712836110063
661.0, 0.025543564538972274
662.0, 0.020697341531894828
663.0, 0.020548949405324632
664.0, 0.021475601121658066
665.0, 0.01827252052847177
666.0, 0.018958860293283974
667.0, 0.016819060536508786
668.0, 0.0139570366894695
669.0, 0.012001810817622423
670.0, 0.012742613277614468
671.0, 0.011640405591910636
672.0, 0.01222003002469772
673.0, 0.013887466781547848
674.0, 0.011600074121729599
675.0, 0.00663607082789581
676.0, 0.01012340538847994
677.0, 0.014484465439009478
678.0, 0.006992675977805691
679.0, 0.009362934310268122
680.0, 0.011438383252258771
681.0, 0.010349488873788094
682.0, 0.0057926659033998825
683.0, 0.012931002525809369
684.0, 0.011034458512817967
685.0, 0.00858345014561356
686.0, 0.007734647376637056
687.0, 0.0056880721085297
688.0, 0.006952376305915328
689.0, 0.007003248486612602
690.0, 0.006722736660429177
691.0, 0.008354483362086662
692.0, 0.0033867692081948307
693.0, 0.0057110512965066985
694.0, 0.006425873371953314
695.0, 0.0010722012283803295
696.0, 0.009167436498472924
697.0, 0.006409340423293808
698.0, 0.002972330572381944
699.0, 0.00338618297104148
700.0, 0.010725558161313858
701.0, 0.004486935120441196
702.0, 0.0034042960526762737
703.0, 0.006179686934839824
704.0, 0.007811859213596807
705.0, 0.005824656946498926
706.0, 0.005964167395527273
707.0, 0.005903581267833059
708.0, 0.00452665499698785
709.0, 0.004587236948556685
710.0, 0.005566995471982742
711.0, 0.005098673019384329
712.0, 0.003334550782656769
713.0, 0.0022533097974054258
714.0, 0.0043387406849857875
715.0, 0.0042508987468413955
716.0, 0.003601766582884669
717.0, 0.004428117531835891
718.0, 0.0030023459426379304
719.0, 0.0013202411019586557
720.0, 0.0021138898987305738
721.0, 0.004775741364666158
722.0, 0.0011396613849044028
723.0, 0.004975925659026558
724.0, 0.0066903112577858595
725.0, 0.005772683398612588
726.0, 0.004457563738088794
727.0, 0.004125399251979187
728.0, 0.0031082622340023783
729.0, 0.0019729799489606515
730.0, 0.0011859984434808165
731.0, 0.0007522341326707104
732.0, 0.005819266494511174
733.0, 0.006183724431025271
734.0, 0.0032177702167628754
735.0, 0.008542018338508019
736.0, 0.004912896911389365
737.0, 0.0027403575419256464
738.0, 0.003383855040171445
739.0, 0.0066837658630648136
740.0, 0.003108051836935652
741.0, 0.0039029899545947144
742.0, 0.003269595075597683
743.0, 0.0009424001346285214
744.0, 0.005632373161178778
745.0, 0.00632746086019856
746.0, 0.0060517276158140116
747.0, 0.005733583349778181
748.0, 0.006028704890982844
749.0, 0.006373915210184686
750.0, 0.006689624599931832
751.0, 0.006842818653539989
752.0, 0.00695535618688702
753.0, 0.008035474812503591
754.0, 0.007917115115941412
755.0, 0.0075836835839589375
756.0, 0.00616075663952559
757.0, 0.0018180614540214894
758.0, 0.007071816872205486
759.0, 0.0052291499736297304
760.0, 0.004302963856391017
761.0, 0.008530527093924656
762.0, 0.005439384178393188
763.0, 0.006279447789771741
764.0, 0.005250609170131907
765.0, 0.0035910753611191042
766.0, 0.007014629197291575
767.0, 0.009717234046922749
768.0, 0.008852358927153914
769.0, 0.007132872975044668
770.0, 0.006695466031653925
771.0, 0.005400738685389307
772.0, 0.005492424189476699
773.0, 0.006435305112260025
774.0, 0.006250557217182071
775.0, 0.0008910872923615118
776.0, 0.004464579089496787
777.0, 0.009265430747235643
778.0, 0.01112728533025793
779.0, 0.008024312666718564
780.0, 0.009933792774892085
781.0, 0.00658519065958879
782.0, 0.007448914084381139
783.0, 0.011314195898927225
784.0, 0.008452486030501732
785.0, 0.007019589549621994
786.0, 0.0071632635061239435
787.0, 0.0075899547673241525
788.0, 0.007567643325928881
789.0, 0.010733550601222682
790.0, 0.010035301902362792
791.0, 0.01066722168354476
792.0, 0.011450744229506205
793.0, 0.006321937871442199
794.0, 0.006722313620751123
795.0, 0.00652508136844136
796.0, 0.006896515270193677
797.0, 0.00853396290452317
798.0, 0.00792451912840884
799.0, 0.006900823042088387
800.0, 0.007824230428339947
801.0, 0.009448203492063231
802.0, 0.008082913666389165
803.0, 0.00745124722474464
804.0, 0.0059682391507170475
805.0, 0.006985907387715236
806.0, 0.011225853434894224
807.0, 0.009102408803775094
808.0, 0.0071914062630923726
809.0, 0.004039748619077146
810.0, 0.003388971686035743
811.0, 0.01156867912758952
812.0, 0.008433982035715779
813.0, 0.008562403765280863
814.0, 0.008411209831345148
815.0, 0.007402294034078647
816.0, 0.012324008949962606
817.0, 0.009725655790819755
818.0, 0.00894539366989023
819.0, 0.009127932603696355
820.0, 0.007218912750052727
821.0, 0.004582107264522284
822.0, 0.009398985468808326
823.0, 0.008263431917535598
824.0, 0.0016770127661806231
825.0, 0.009628620399652569
826.0, 0.0073704244623106815
827.0, 0.006325704818357112
828.0, 0.007645496482004661
829.0, 0.010380218405637204
830.0, 0.005718903342484277
831.0, 0.006743764908705221
832.0, 0.007815573044242973
833.0, 0.008007381898555672
834.0, 0.009146608926760924
835.0, 0.002927866242075244
836.0, 0.0033239515373913973
837.0, 0.005053116294622775
838.0, 0.004774238707132544
839.0, 0.00666976413709261
840.0, 0.008564875855492428
841.0, 0.008094301474538856
842.0, 0.007194780450580881
843.0, 0.008910903359868988
844.0, 0.005244419040245503
845.0, 0.00406218523161964
846.0, 0.00573976480062609
847.0, 0.00810162099422003
848.0, 0.004433999074745265
849.0, 0.004036855650369554
850.0, 0.005553458758475573
851.0, 0.00613919053205096
852.0, 0.004270227198960683
853.0, 0.007166829364143212
854.0, 0.0028463566945893413
855.0, 0.0027512655038445313
856.0, 0.0065561947823757965
857.0, 0.008428937971388818
858.0, 0.005005362393314863
859.0, 0.003972166914219582
860.0, 0.004985201545317034
861.0, 0.006558636865773192
862.0, 0.004419680709720332
863.0, 0.002491496765832803
864.0, 0.004272624564764082
865.0, 0.0067175367818048054
866.0, 0.006327652845263228
867.0, 0.0031885612662194683
868.0, 0.0014244548943324158
869.0, 0.0015078089928676132
870.0, 0.0021990213893899524
871.0, 0.001044702504397321
872.0, 0.004439413512478152
873.0, 0.0041413794121872025
874.0, 0.00317162517193016
875.0, 0.0028423185104663375
876.0, 0.0014774705685316474
877.0, 0.0007937736418919849
878.0, 0.0003903287721183458
879.0, 0.0006253166558888947
880.0, 0.0019452698635058403
881.0, 0.005094909861986489
882.0, 0.0055108878813480335
883.0, 0.004153857569575631
884.0, 0.0028391035536848015
885.0, 0.004010777215778616
886.0, 0.004932395524006199
887.0, 0.0037648623394440023
888.0, 0.0027998503859798683
889.0, 0.0027289083367043714
890.0, 0.002244617069532825
891.0, 0.0014067204421259621
892.0, 0.0030541094396406157
893.0, 0.00391430400402445
894.0, 0.0022723152153193366
895.0, 0.0043556166736217925
896.0, 0.0015317581687068634
897.0, 0.0009662914484270918
898.0, 0.0028527588808365265
899.0, 0.005204414287382537
900.0, 0.0027889599676366545
901.0, 0.004012999693746425
902.0, 0.004793158112466634
903.0, 0.003845618421007368
904.0, 0.0016352439731798366
905.0, 0.002774234963555794
906.0, 0.0025722774300676763
907.0, 0.0031294787405461207
908.0, 0.005111843513525815
909.0, 0.006473069975559384
910.0, 0.002431212849688509
911.0, 0.0005816416409416429
912.0, 0.000445924503856689
913.0, 0.001061890714466082
914.0, 0.003695368593508352
915.0, 0.003273283089303663
916.0, 0.0038398237577742123
917.0, 0.0041277250044199675
918.0, 0.0017706435849288852
919.0, 0.0013448985443614203
920.0, 0.0005138316282613012
921.0, 0.003222032434974935
922.0, 0.006216874890352572
923.0, 0.0010068786060005372
924.0, 0.0017878925836734543
925.0, 0.0009251370359101969
926.0, 0.003930857538745773
927.0, 0.00905104001862885
928.0, 0.003233425020842575
929.0, 0.007795207882577498
930.0, 0.006372693529140753
931.0, 0.003986972545038351
932.0, 0.005127592063934462
933.0, 0.009293020312359878
934.0, 0.0066216592900978834
935.0, 0.006172847531472032
936.0, 0.006873697782531466
937.0, 0.006493744673142858
938.0, 0.006570978245541664
939.0, 0.009658114975866322
940.0, 0.007243246569023434
941.0, 0.005455143337040632
942.0, 0.013519118004483726
943.0, 0.00541039094785874
944.0, 0.007873214214886097
945.0, 0.010472387764289083
946.0, 0.010594359865653328
947.0, 0.010156182642936055
948.0, 0.009462241597601017
949.0, 0.007810079272196899
950.0, 0.00774443966821717
951.0, 0.010168382703047906
952.0, 0.014291784183378559
953.0, 0.0125026512792579
954.0, 0.01380232047311231
955.0, 0.014594427610665183
956.0, 0.013474188865122865
957.0, 0.013799475330186948
958.0, 0.017947163740470163
959.0, 0.018245796526556307
960.0, 0.018854907897885832
961.0, 0.022413687243313427
962.0, 0.024003781190276186
963.0, 0.02377682049904196
964.0, 0.02186854351362057
965.0, 0.021551981455622246
966.0, 0.025402551054972133
967.0, 0.030605126546313137
968.0, 0.03426109209910651
969.0, 0.032852747135828364
970.0, 0.03277525556342131
971.0, 0.03998686214688903
972.0, 0.03646799625514836
973.0, 0.04835098965501423
974.0, 0.05723375893271461
975.0, 0.06214564234552863
976.0, 0.06867999259093488
977.0, 0.08415029463634291
978.0, 0.09942207636662882
979.0, 0.11436362773107021
980.0, 0.13703008102489636
981.0, 0.17881970334415587
982.0, 0.2233524018787714
983.0, 0.2998770484553062
984.0, 0.39922994940345785
985.0, 0.5158821051410443
986.0, 0.644971935808953
987.0, 0.7594008561254266
988.0, 0.8324631264144084
989.0, 0.8895632474061682
990.0, 0.9441074787166248
991.0, 1.0
992.0, 0.9746060127025145
993.0, 0.9175488666574254
994.0, 0.8181976148321445
995.0, 0.6817759995908641
996.0, 0.5308437689460924
997.0, 0.4117100239302761
998.0, 0.2994981106887097
999.0, 0.219172854319221
1000.0, 0.17265940858282955
1001.0, 0.1315324632208199
1002.0, 0.10567752833795449
1003.0, 0.08302069792923125
1004.0, 0.06794292337624004
1005.0, 0.059329058841953115
1006.0, 0.04722474798924501
1007.0, 0.04709246350352096
1008.0, 0.03954395911445191
1009.0, 0.0328107830100443
1010.0, 0.03113414617121348
1011.0, 0.030684270538398187
1012.0, 0.027529826168022818
1013.0, 0.027702557949196866
1014.0, 0.024747270295778345
1015.0, 0.018377054789994476
1016.0, 0.020138338146508446
1017.0, 0.015620392894909338
1018.0, 0.01593602708682149
1019.0, 0.017791801477886414
1020.0, 0.0173131575944048
1021.0, 0.010669113600383747
1022.0, 0.014349951159258644
1023.0, 0.011653720238993824
1024.0, 0.009913382479228268
1025.0, 0.011468031579659957
1026.0, 0.0077416318260288795
1027.0, 0.010759682206589443
1028.0, 0.009198643874846773
1029.0, 0.008810896209987611
1030.0, 0.010390701136346294
1031.0, 0.0050288336901309835
1032.0, 0.009863630380569512
1033.0, 0.015481553393770178
1034.0, 0.011681170331879993
1035.0, 0.0017933968278360888
1036.0, 0.009657581086714977
1037.0, 0.007974171498196233
1038.0, 0.005305133674359739
1039.0, 0.0085932061328641
1040.0, 0.014951046172295252
1041.0, 0.008429100980277774
1042.0, 0.0045655381052510016
1043.0, 0.006651025897552759
1044.0, 0.008723375784464337
1045.0, 0.010418857485707608
1046.0, 0.018000714159322403
1047.0, 0.016112606279889342
1048.0, 0.006900442156920792
1049.0, 0.006650005573513145
1050.0, 0.013830529291130995
1051.0, 0.010211616121149054
1052.0, 0.011057352663964706
1053.0, 0.011719028413931715
1054.0, 0.012952456759606903
1055.0, 0.014438896433969325
1056.0, 0.015138066189456576
1057.0, 0.017057400028278356
1058.0, 0.01670952934643404
1059.0, 0.018028296109898555
1060.0, 0.019596555657832526
1061.0, 0.017898431144034898
1062.0, 0.025480550489160387
1063.0, 0.024001232844118616
1064.0, 0.02533200174095762
1065.0, 0.028319614082202987
1066.0, 0.02686272538087642
1067.0, 0.022793974791833607
1068.0, 0.030059486287918456
1069.0, 0.034520595996784254
1070.0, 0.03268920754742102
1071.0, 0.027285456456522684
1072.0, 0.035939574494590315
1073.0, 0.035733588933379405
1074.0, 0.03473112692501152
1075.0, 0.03711718301272413
1076.0, 0.044795611235752306
1077.0, 0.054828714827126764
1078.0, 0.054581399976029524
1079.0, 0.058311748730754016
1080.0, 0.062236130925653985
1081.0, 0.06229382648145062
1082.0, 0.05977755102734131
1083.0, 0.06482749598920608
1084.0, 0.06802534192561459
1085.0, 0.0655534862894678
1086.0, 0.059786837282932034
1087.0, 0.0619649838156196
1088.0, 0.056759614425161226
1089.0, 0.05159226980732968
1090.0, 0.04829792010801515
1091.0, 0.04776788321016609
1092.0, 0.04975034196072143
1093.0, 0.04176071722568416
1094.0, 0.04232044320987024
1095.0, 0.0407577450304528
1096.0, 0.037269046534086345
1097.0, 0.0381640143503122
1098.0, 0.039476166329866405
1099.0, 0.03955685985941113
1100.0, 0.03879061604905779
1101.0, 0.04106987528961214
1102.0, 0.04807529261433872
1103.0, 0.0416473138775877
1104.0, 0.04229705844870086
1105.0, 0.03914294322309057
1106.0, 0.039181761477510624
1107.0, 0.04648046608018624
1108.0, 0.045290050042134745
1109.0, 0.04843439222588136
1110.0, 0.051373810483699905
1111.0, 0.05147060875139106
1112.0, 0.05040496513709685
1113.0, 0.0564880192361582
1114.0, 0.06037791785816068
1115.0, 0.06065708714643851
1116.0, 0.062099359642848524
1117.0, 0.06614118887968007
1118.0, 0.0708247012112435
1119.0, 0.07247454986024905
1120.0, 0.07874588775269924
1121.0, 0.08496246344754091
1122.0, 0.08853154613983838
1123.0, 0.08929730404146287
1124.0, 0.09645180573748045
1125.0, 0.10428321820979772
1126.0, 0.1117161889806451
1127.0, 0.12421383321635439
1128.0, 0.1405255634523984
1129.0, 0.13355516643046605
1130.0, 0.15785151296895947
1131.0, 0.16257848690238969
1132.0, 0.16037767295486213
1133.0, 0.16262873295945876
1134.0, 0.16873977313255525
1135.0, 0.15147819611902258
1136.0, 0.13960798381665
1137.0, 0.13176640677789514
1138.0, 0.11959004590275477
1139.0, 0.09369493518073418
1140.0, 0.09039804260697351
1141.0, 0.07860699809863908
1142.0, 0.06633121853250967
1143.0, 0.05720862012921522
1144.0, 0.051517638928147036
1145.0, 0.042192406115636696
1146.0, 0.040193772156693695
1147.0, 0.038978174904823054
1148.0, 0.03695372583402769
1149.0, 0.032465426471410215
1150.0, 0.022593756736216823
1151.0, 0.026875145377051136
1152.0, 0.021782960683830045
1153.0, 0.0219261352890912
1154.0, 0.02563705293863277
1155.0, 0.019261322383757377
1156.0, 0.01830158312749913
1157.0, 0.018535764184778872
1158.0, 0.016260790643852344
1159.0, 0.016772964460905926
1160.0, 0.02317905146625534
1161.0, 0.01774248002375303
1162.0, 0.015676125656933465
1163.0, 0.023428450305667554
1164.0, 0.028971704965514714
1165.0, 0.02702844313534846
1166.0, 0.026582725337849885
1167.0, 0.03079670000243028
1168.0, 0.029432491476582973
1169.0, 0.029443822606474337
1170.0, 0.033030373467220944
1171.0, 0.037424508783467536
1172.0, 0.027308753187904516
1173.0, 0.029154758397099658
1174.0, 0.032645842579903175
1175.0, 0.034119925551892125
1176.0, 0.034310213929505395
1177.0, 0.04099845904585524
1178.0, 0.029676930589670532
1179.0, 0.026753964509484036
1180.0, 0.024255594881903677
1181.0, 0.021606765264962823
1182.0, 0.026489679631546286
1183.0, 0.021740250008976073
1184.0, 0.017365716463210196
1185.0, 0.014474281217036068
1186.0, 0.012507144976709317
1187.0, 0.010393014603457231
1188.0, 0.00770565437563187
1189.0, 0.01118639388739842
1190.0, 0.0102808200911176
1191.0, 0.007080901909902166
1192.0, 0.006068377893936189
1193.0, 0.011907480190152663
1194.0, 0.0033760632436097
1195.0, 0.0029751119733005603
1196.0, 0.00614196256420703
1197.0, 0.008101855870834446
1198.0, 0.0062320541680662735
1199.0, 0.007879601781479825
1200.0, 0.005251238718709566
1201.0, 0.004325754909348335
1202.0, 0.005611865550334334
1203.0, 0.008257585164379968
1204.0, 0.010666276395936182
1205.0, 0.008110381832096801
1206.0, 0.0028376931923575774
1207.0, 0.002505865473759627
1208.0, 0.0047275024029349135
1209.0, 0.004173157080005421
1210.0, 0.008731305485488191
1211.0, 0.0040459417755466225
1212.0, 0.004741779144488555
1213.0, 0.007543499673652149
1214.0, 0.00796325436222979
1215.0, 0.004443052914705966
1216.0, 0.010048395234718278
1217.0, 0.004149784728850035
1218.0, 0.004752917494631698
1219.0, 0.010252246037360125
1220.0, 0.01052330429585133
1221.0, 0.0034568456702110508
1222.0, 0.007453515396274707
1223.0, 0.00577812487100057
1224.0, 0.003569860595867669
1225.0, 0.004485892244478337
1226.0, 0.0061873927590345
1227.0, 0.001752889873018969
1228.0, 0.0076210423705737745
1229.0, 0.00975421405929495
1230.0, 0.0064048827403619165
1231.0, 0.0026312266204725414
1232.0, 0.008241291256879973
1233.0, 0.00467218600361965
1234.0, 0.004476006344456806
1235.0, 0.0031981362185478463
1236.0, 0.0017357344534555095
1237.0, 0.006005044462335835
1238.0, 0.0023382642400396354
1239.0, 0.007421554719373818
1240.0, 0.007252843013063977
1241.0, 0.00556530498274625
1242.0, 0.007099758941123688
1243.0, 0.007139941381610908
1244.0, 0.004179989636548935
1245.0, 0.012676354447491534
1246.0, 0.010266057127750233
1247.0, 0.0010079936157129379
1248.0, 0.002898465975243173
1249.0, 0.0066471805525138645
1250.0, 0.002797793033632536
1251.0, 0.0031062547519596895
1252.0, 0.0055512055204381535
1253.0, 0.005731517415223743
1254.0, 0.00018533796121837426
1255.0, 0.0023403363764875887
1256.0, 0.007318011876559413
1257.0, 0.007160111662072577
1258.0, 0.006606680988849063
1259.0, 0.009308542333199759
1260.0, 0.0019422984714253851
1261.0, 0.003679275653723531
1262.0, 0.0034521926781865644
1263.0, 0.002696634546541178
1264.0, 0.0038765473151895356
1265.0, 0.00780046104379376
1266.0, 0.0038378911974937167
1267.0, 0.009343748553386641
1268.0, 0.010627061615836163
1269.0, 0.007721859588472024
1270.0, 0.004149478439099308
1271.0, 0.004301814328233566
1272.0, 0.0077806763527032445
1273.0, 0.005778321599316043
1274.0, 0.004891742387305324
1275.0, 0.0050268151252276655
1276.0, 0.00412698401885179
1277.0, 0.001570488454129349
1278.0, 0.008701838886814629
1279.0, 0.0070049362715074925
1280.0, 0.002927063161277172
1281.0, 0.003191835462372171
1282.0, 0.009268091409600733
1283.0, 0.002347495165697945
1284.0, 0.009618732148527528
1285.0, 0.006096532265025804
1286.0, 0.0027203821117682356
1287.0, 0.005948294570599949
1288.0, 0.011371603044337611
1289.0, 0.001497570953288941
1290.0, 0.00200328506070399
1291.0, 0.004479326223715528
1292.0, 0.005119084507546703
1293.0, 0.0037416090372518534
1294.0, 0.004057132947982104
1295.0, 0.006439452728945597
1296.0, 0.002943290474768758
1297.0, 0.004942045171991386
1298.0, 0.007945564516392582
1299.0, 0.005587132211711243
1300.0, 0.0023600961852405233
1301.0, 0.004954476869937629
1302.0, 0.00300487760472521
1303.0, 0.003551792665865349
1304.0, 0.004586861887836474
1305.0, 0.0018890107429198355
1306.0, 0.0037879976358399952
1307.0, 0.0036406465016081487
1308.0, 0.0072610124800329785
1309.0, 0.006321794696316943
1310.0, 0.00373517157092022
1311.0, 0.008068477860362338
1312.0, 0.003193540268082599
1313.0, 0.001263672840528434
1314.0, 0.0011723948571214023
1315.0, 0.0017454255716766985
1316.0, 0.0017353581454506832
1317.0, 0.00036928089184751705
1318.0, 0.0003741756525992493
1319.0, 0.0038825668367646763
1320.0, 0.004229704660138716
1321.0, 0.002541581998244297
1322.0, 0.0010960268745820619
1323.0, 0.0012347544957189678
1324.0, 0.004928734577516356
1325.0, 0.005298472290948834
1326.0, 0.005806993466744404
1327.0, 0.004809476644950717
1328.0, 0.0018346196192108965
1329.0, 0.0005858260732070201
1330.0, 0.00038159250740719454
1331.0, 0.003788336395964359
1332.0, 0.00320629101479548
1333.0, 0.003997675720533888
1334.0, 0.008944394225175204
1335.0, 0.0067374625221332625
1336.0, 0.005594124279904801
1337.0, 0.005523591027296177
1338.0, 0.0029501967605791222
1339.0, 0.0016660068185958914
1340.0, 0.006413620132103191
1341.0, 0.016517896703387717
1342.0, 0.0047242535616878745
1343.0, 0.010475326868178612
1344.0, 0.012368014204937331
1345.0, 0.0073247850966429535
1346.0, 0.004594883085408367
1347.0, 0.018725824126509843
1348.0, 0.008080171098053205
1349.0, 0.005789500294971665
1350.0, 0.010949111590607604
1351.0, 0.013210931651653404
1352.0, 0.0071025176107615134
1353.0, 0.011838401381016217
1354.0, 0.008963135675585508
1355.0, 0.005701498202989239
1356.0, 0.0074715397550388085
1357.0, 0.009379722263565355
1358.0, 0.0067069603319589765
1359.0, 0.010908121047663468
1360.0, 0.013789001546349447
1361.0, 0.009771779881424894
1362.0, 0.0074540451034663365
1363.0, 0.011414300390228099
1364.0, 0.017503749585736687
1365.0, 0.006108275535283247
1366.0, 0.012561106323522695
1367.0, 0.010022885787543494
1368.0, 0.008850142689300714
1369.0, 0.012868866793795638
1370.0, 0.017505453369979128
1371.0, 0.008522299781432034
1372.0, 0.013280803271986857
1373.0, 0.01785978029366379
1374.0, 0.013703420004942249
1375.0, 0.008823040145899562
1376.0, 0.01229808892187919
1377.0, 0.016226469973372105
1378.0, 0.014234933038918417
1379.0, 0.014807786630829487
1380.0, 0.01391200655603355
1381.0, 0.012489929866653026
1382.0, 0.013415425126898384
1383.0, 0.01827147270913202
1384.0, 0.013834763342752287
1385.0, 0.012886810072024137
1386.0, 0.014900352028742504
1387.0, 0.015736136183042662
1388.0, 0.013865385520182029
1389.0, 0.014438559242211255
1390.0, 0.014612225294641793
1391.0, 0.0130091190500707
1392.0, 0.014697357537766693
1393.0, 0.016721305241584543
1394.0, 0.015081798562722265
1395.0, 0.009254593562208613
1396.0, 0.010715626622377971
1397.0, 0.01201156336363309
1398.0, 0.015270476182660083
1399.0, 0.01505239141414198
1400.0, 0.012115142815306785
1401.0, 0.014699808805426678
1402.0, 0.013817938688612332
1403.0, 0.013165517602041425
1404.0, 0.008488651401007102
1405.0, 0.007998026405419884
1406.0, 0.012985481905378533
1407.0, 0.015632310717810252
1408.0, 0.006477116737710395
1409.0, 0.0142016068618583
1410.0, 0.010195971631399384
1411.0, 0.01063216035560589
1412.0, 0.01627110766584929
1413.0, 0.015823727286554318
1414.0, 0.00920137893004171
1415.0, 0.015396144864387258
1416.0, 0.018699840665075074
1417.0, 0.012744293653169892
1418.0, 0.009226523726262814
1419.0, 0.015887556920536294
1420.0, 0.01037873750180417
1421.0, 0.008700113288619575
1422.0, 0.011570366228648148
1423.0, 0.010993254645281874
1424.0, 0.00879241148409705
1425.0, 0.011726828359074456
1426.0, 0.024510291765425952
1427.0, 0.005837883060794108
1428.0, 0.010944613384110409
1429.0, 0.013912520971207192
1430.0, 0.010877203906493842
1431.0, 0.0076937798876843475
1432.0, 0.011313379166045318
1433.0, 0.007347986015340509
1434.0, 0.006337409027213539
1435.0, 0.011616036596425202
1436.0, 0.010470691406009484
1437.0, 0.005678289925745705
1438.0, 0.008827101285977954
1439.0, 0.016484864513781748
1440.0, 0.0038116671013659256
1441.0, 0.01655952829582273
1442.0, 0.019313634878774206
1443.0, 0.009351245361304368
1444.0, 0.002647844650715425
1445.0, 0.012678030286277304
1446.0, 0.014116845979247563
1447.0, 0.007280679599902962
1448.0, 0.013434978501830336
1449.0, 0.012658823118040114
1450.0, 0.0031042375109542404
1451.0, 0.0106967590736696
1452.0, 0.006170196385316157
1453.0, 0.008807112944327912
1454.0, 0.010768955905942151
1455.0, 0.014710798813262153
1456.0, 0.013160184767225643
1457.0, 0.002654593808742399
1458.0, 0.016650876049641446
1459.0, 0.017501602085343654
1460.0, 0.009663746637616301
1461.0, 0.010663293287330008
1462.0, 0.013392869555540783
1463.0, 0.010411898808224644
1464.0, 0.011813458499122098
1465.0, 0.017323322684256563
1466.0, 0.014506707435420372
1467.0, 0.01250227799573788
1468.0, 0.015693754013055155
1469.0, 0.01828525559871139
1470.0, 0.012062566638333822
1471.0, 0.014783493753829233
1472.0, 0.013883261283830894
1473.0, 0.015541126252406801
1474.0, 0.01879072497733605
1475.0, 0.017321227655568306
1476.0, 0.012080312530053157
1477.0, 0.020736247144135384
1478.0, 0.019676447027908224
1479.0, 0.013685493051699686
1480.0, 0.014591071169040242
1481.0, 0.019683707337599308
1482.0, 0.019588129739032418
1483.0, 0.008963792064754013
1484.0, 0.013378999863675443
1485.0, 0.0223693592907674
1486.0, 0.013406954477341037
1487.0, 0.014142733016133108
1488.0, 0.01781005846525082
1489.0, 0.010722105913310957
1490.0, 0.00978900748136054
1491.0, 0.01802389940294726
1492.0, 0.011540567896513603
1493.0, 0.00926026842277527
1494.0, 0.01516289742203427
1495.0, 0.018390318916433286
1496.0, 0.007666158094082821
1497.0, 0.01563960993185544
1498.0, 0.012385820574812377
1499.0, 0.012630036355682819
1500.0, 0.012252017312893285
1501.0, 0.015326784884079661
1502.0, 0.01892407663392458
1503.0, 0.004792706663501545
1504.0, 0.017982895510408853
1505.0, 0.012658164098240433
1506.0, 0.014172167405980257
1507.0, 0.01785134976524772
1508.0, 0.01569926706686122
1509.0, 0.00753693529463793
1510.0, 0.008991387928526468
1511.0, 0.016133262643698555
1512.0, 0.007860262976683293
1513.0, 0.007863001696418778
1514.0, 0.0148464584928226
1515.0, 0.015670469957504863
1516.0, 0.003527806413545274
1517.0, 0.020498285200945474
1518.0, 0.014664534623313125
1519.0, 0.01365873281479855
1520.0, 0.015760986613961605
1521.0, 0.015616274070889924
1522.0, 0.011822178341443177
1523.0, 0.011105593931992449
1524.0, 0.01717788894811208
1525.0, 0.005099494137318536
1526.0, 0.006647844691081378
1527.0, 0.007914591815204063
1528.0, 0.0027486842166145158
1529, 0.0
1530, 0.0
1531, 0.0
1532, 0.0
1533, 0.0
1534, 0.0
1535, 0.0
1536, 0.0
1537, 0.0
1538, 0.0
1539, 0.0
1540, 0.0
1541, 0.0
1542, 0.0
1543, 0.0
1544, 0.0
1545, 0.0
1546, 0.0
1547, 0.0
1548, 0.0
1549, 0.0
1550, 0.0
1551, 0.0
1552, 0.0
1553, 0.0
1554, 0.0
1555, 0.0
1556, 0.0
1557, 0.0
1558, 0.0
1559, 0.0
1560, 0.0
1561, 0.0
1562, 0.0
1563, 0.0
1564, 0.0
1565, 0.0
1566, 0.0
1567, 0.0
1568, 0.0
1569, 0.0
1570, 0.0
1571, 0.0
1572, 0.0
1573, 0.0
1574, 0.0
1575, 0.0
1576, 0.0
1577, 0.0
1578, 0.0
1579, 0.0
1580, 0.0
1581, 0.0
1582, 0.0
1583, 0.0
1584, 0.0
1585, 0.0
1586, 0.0
1587, 0.0
1588, 0.0
1589, 0.0
1590, 0.0
1591, 0.0
1592, 0.0
1593, 0.0
1594, 0.0
1595, 0.0
1596, 0.0
1597, 0.0
1598, 0.0
1599, 0.0
