30, 0.0
31, 0.0
32, 0.0
33, 0.0
34, 0.0
35, 0.0
36, 0.0
37, 0.0
38, 0.0
39, 0.0
40, 0.0
41, 0.0
42, 0.0
43, 0.0
44, 0.0
45, 0.0
46, 0.0
47, 0.0
48, 0.0
49, 0.0
50, 0.0
51, 0.0
52, 0.0
53, 0.0
54, 0.0
55, 0.0
56, 0.0
57, 0.0
58, 0.0
59, 0.0
60, 0.0
61, 0.0
62, 0.0
63, 0.0
64, 0.0
65, 0.0
66, 0.0
67, 0.0
68, 0.0
69, 0.0
70, 0.0
71, 0.0
72, 0.0
73, 0.0
74, 0.0
75, 0.0
76, 0.0
77, 0.0
78, 0.0
79, 0.0
80, 0.0
81, 0.0
82, 0.0
83, 0.0
84, 0.0
85, 0.0
86, 0.0
87, 0.0
88, 0.0
89, 0.0
90, 0.0
91, 0.0
92, 0.0
93, 0.0
94, 0.0
95, 0.0
96, 0.0
97, 0.0
98, 0.0
99, 0.0
100, 0.0
101, 0.0
102, 0.0
103, 0.0
104, 0.0
105, 0.0
106, 0.0
107, 0.0
108, 0.0
109, 0.0
110, 0.0
111, 0.0
112, 0.0
113, 0.0
114, 0.0
115, 0.0
116, 0.0
117, 0.0
118, 0.0
119, 0.0
120, 0.0
121, 0.0
122, 0.0
123, 0.0
124, 0.0
125, 0.0
126, 0.0
127, 0.0
128, 0.0
129, 0.0
130.0, 0.0012072324468364558
131.0, 0.00458380808918448
132.0, 0.008530433405918943
133.0, 0.010539878281724096
134.0, 0.011045917538786858
135.0, 0.006494548677180247
136.0, 0.002282825825053191
137.0, 0.002197629499693034
138.0, 0.006762024908558779
139.0, 0.009885101258661814
140.0, 0.018282193566479508
141.0, 0.018694903632406848
142.0, 0.01939723811264235
143.0, 0.020464576616700012
144.0, 0.01364171687515245
145.0, 0.008729629685149417
146.0, 0.010356337066305232
147.0, 0.014811938672984082
148.0, 0.017180075993156754
149.0, 0.014774315187334318
150.0, 0.016286175469591154
151.0, 0.019245468769028093
152.0, 0.020353143532631804
153.0, 0.01985791384169794
154.0, 0.01885981306056372
155.0, 0.018882445476366926
156.0, 0.012967753418512064
157.0, 0.013374356654450857
158.0, 0.011696931007308665
159.0, 0.007083627692450186
160.0, 0.00350997111359891
161.0, 0.002308111707579402
162.0, 0.0038649069442269327
163.0, 0.004319126622831025
164.0, 0.008140467840031149
165.0, 0.01791919253101636
166.0, 0.0277129048519356
167.0, 0.026899219632656058
168.0, 0.02149257520441954
169.0, 0.013588708208115866
170.0, 0.00927893981132078
171.0, 0.01601517406032343
172.0, 0.020451282400089386
173.0, 0.017361398927638123
174.0, 0.013625130515227624
175.0, 0.009624704923675929
176.0, 0.0060847321610205535
177.0, 0.010858665736030433
178.0, 0.012244189845674337
179.0, 0.01216470041197469
180.0, 0.01377733150047143
181.0, 0.014973911539574915
182.0, 0.009418948171551847
183.0, 0.011117060777849156
184.0, 0.009612913331135274
185.0, 0.009240649671568702
186.0, 0.012028633207222453
187.0, 0.017618326908381433
188.0, 0.020946867597326828
189.0, 0.01982385482146446
190.0, 0.020801160691950885
191.0, 0.02035326441083277
192.0, 0.01979161713922403
193.0, 0.02562650936830019
194.0, 0.025435394220343306
195.0, 0.02490804736908929
196.0, 0.026295546757738986
197.0, 0.028858079978224184
198.0, 0.030962428266537362
199.0, 0.031932514255555336
200.0, 0.031566648135676306
201.0, 0.03479141735054749
202.0, 0.04042051559415344
203.0, 0.04565897299557897
204.0, 0.04677807155136353
205.0, 0.03816921961895126
206.0, 0.029333780716531553
207.0, 0.02276713476961686
208.0, 0.01708068978971071
209.0, 0.010419510395083369
210.0, 0.0035150008210769867
211.0, 0.003809299299436845
212.0, 0.00413810985928417
213.0, 0.007046433084010463
214.0, 0.012434913963406735
215.0, 0.016869274491997724
216.0, 0.012342554766227844
217.0, 0.004371144202280613
218.0, 0.000890929669473949
219.0, 0.0018490652889714167
220.0, 0.003987866817779634
221.0, 0.0023034855275109803
222.0, 0.0016356648752326511
223.0, 0.003183254951328652
224.0, 0.003129747948065131
225.0, 0.003227899435518821
226.0, 0.007215821172430351
227.0, 0.006885890389801181
228.0, 0.005708323003862215
229.0, 0.0035709091725387976
230.0, 0.001946593216701118
231.0, 0.0014109230268133034
232.0, 0.0007681915331656277
233.0, 0.00187824266268915
234.0, 0.0008459185908401894
235.0, 0.0007346308558608187
236.0, 0.0012537274928971654
237.0, 0.001125321272647487
238.0, 0.0012822716975270179
239.0, 0.002510639158525233
240.0, 0.0035902705062817843
241.0, 0.004424398195766176
242.0, 0.004554516703055191
243.0, 0.003350457045987745
244.0, 0.0025939541895489016
245.0, 0.0041048797843050945
246.0, 0.005601935421114775
247.0, 0.006460887049983741
248.0, 0.007207697630876303
249.0, 0.009663638046853265
250.0, 0.006645086342287049
251.0, 0.005504044839691661
252.0, 0.007139407334603934
253.0, 0.010069200088903656
254.0, 0.011971313339004704
255.0, 0.01249052618931938
256.0, 0.007885511110945667
257.0, 0.007966415253382363
258.0, 0.008720877060212209
259.0, 0.007924244403232944
260.0, 0.007277670846736412
261.0, 0.01035064542777407
262.0, 0.0071523293189528145
263.0, 0.007502680757113914
264.0, 0.009260759988640678
265.0, 0.009610996203071433
266.0, 0.01099703273405573
267.0, 0.009507631589479395
268.0, 0.008703750229588548
269.0, 0.009742990648486148
270.0, 0.011438747457435377
271.0, 0.010870734247743303
272.0, 0.003164529177321819
273.0, 0.006022502513890339
274.0, 0.0060506135052288594
275.0, 0.0074819729871948935
276.0, 0.010891001788087709
277.0, 0.012906882010145292
278.0, 0.0162144490505903
279.0, 0.012772886128275545
280.0, 0.00942002700825252
281.0, 0.006187461447489483
282.0, 0.003547253324106805
283.0, 0.00432465401886218
284.0, 0.008087175454009431
285.0, 0.007305392683366381
286.0, 0.0065343697588914305
287.0, 0.006990216147487033
288.0, 0.008179041444205962
289.0, 0.008716140133888337
290.0, 0.0073961711599272225
291.0, 0.008605344767589803
292.0, 0.010806062511468246
293.0, 0.011188717471819255
294.0, 0.008783331613844961
295.0, 0.011701845821109506
296.0, 0.013297161229429259
297.0, 0.014539122849148892
298.0, 0.013025566968248158
299.0, 0.010976646086804173
300.0, 0.012862391690063372
301.0, 0.0100976987360608
302.0, 0.009326431799352752
303.0, 0.009124222930223708
304.0, 0.00889170894333254
305.0, 0.008504100628983718
306.0, 0.008271739557346879
307.0, 0.008507833650509859
308.0, 0.006633342203883067
309.0, 0.007661750749581451
310.0, 0.009866001944163559
311.0, 0.011213781748374818
312.0, 0.012425532283789283
313.0, 0.007950203761074229
314.0, 0.006148872745980776
315.0, 0.006810194866840626
316.0, 0.006687768649074817
317.0, 0.004219891486058176
318.0, 0.0044467963573222085
319.0, 0.005697421739583737
320.0, 0.007679951175774182
321.0, 0.007732283136658695
322.0, 0.006853628811249163
323.0, 0.00643664557245215
324.0, 0.002665908515955058
325.0, 0.0027235328732257698
326.0, 0.00371509012642197
327.0, 0.005315624590132804
328.0, 0.005783468999380978
329.0, 0.0040925122031489
330.0, 0.006245000257555366
331.0, 0.00461747627287287
332.0, 0.005855000775936823
333.0, 0.00776403189873806
334.0, 0.00792422868815678
335.0, 0.005266138793237611
336.0, 0.002101673775618723
337.0, 0.005027014139284894
338.0, 0.003544337295621033
339.0, 0.0031917370981538874
340.0, 0.003999034245609162
341.0, 0.0008521682819437131
342.0, 0.005397473304563751
343.0, 0.0022704715053715593
344.0, 0.000525386956902197
345.0, 0.0015869176773977973
346.0, 0.0034033812181551003
347.0, 0.002339648604965083
348.0, 0.000500978996564852
349.0, 0.00017770736168555535
350.0, 0.0013657693467308276
351.0, 0.0018873283142534837
352.0, 0.00173344843254086
353.0, 0.003417039829132087
354.0, 0.0022437963578172716
355.0, 0.0031032327304279855
356.0, 0.001644637227965256
357.0, 0.00031675643983666716
358.0, 0.0009041418668539675
359.0, 0.002040920187747223
360.0, 0.0009321381043376767
361.0, 0.0011423630327746272
362.0, 0.0009759254157422631
363.0, 0.0008128075937153042
364.0, 0.001491413780903312
365.0, 0.0033514896017636225
366.0, 0.0020944474398153076
367.0, 0.0006914452249381409
368.0, 0.00025118414416971046
369.0, 0.0006613568113027885
370.0, 0.0013643667912729975
371.0, 0.0016795138782710857
372.0, 0.0007475181163096066
373.0, 0.0009199523339676032
374.0, 0.0016776909063750407
375.0, 0.001612424111514188
376.0, 0.0011277257048441895
377.0, 0.0025939662028912026
378.0, 0.0005788199391352105
379.0, 0.0021851569489072468
380.0, 0.0021695111628220144
381.0, 0.0018872442072695394
382.0, 0.00228753438496907
383.0, 0.0021584165049670324
384.0, 0.003983283667667337
385.0, 0.0014088027884551614
386.0, 0.0005908095558057542
387.0, 0.0016906100310790618
388.0, 0.003089824231733453
389.0, 0.0032989433667939966
390.0, 0.005687081370199529
391.0, 0.004930993106976467
392.0, 0.006681703743898017
393.0, 0.007119161410115347
394.0, 0.005738967528603948
395.0, 0.006310576613071524
396.0, 0.006011978825376879
397.0, 0.00577430327325446
398.0, 0.007980806589842192
399.0, 0.009973698094362155
400.0, 0.010321499041574258
401.0, 0.009538193803469411
402.0, 0.008130720117359123
403.0, 0.011311661095500013
404.0, 0.013304022737963684
405.0, 0.015622675194233297
406.0, 0.01752723537991925
407.0, 0.017357104222444148
408.0, 0.018822173063870854
409.0, 0.02023538819693609
410.0, 0.019833311494104056
411.0, 0.02103094079831344
412.0, 0.022537824535955698
413.0, 0.02279106918529248
414.0, 0.028765455084990295
415.0, 0.028682771946648665
416.0, 0.02996205553979421
417.0, 0.03191325768104964
418.0, 0.03428498385614728
419.0, 0.038187797812089974
420.0, 0.0466254082214037
421.0, 0.05084665531640138
422.0, 0.05506670854777109
423.0, 0.06124153288238767
424.0, 0.06671063348762703
425.0, 0.07027099227985369
426.0, 0.0755458781558066
427.0, 0.0781987872051895
428.0, 0.07744579518286403
429.0, 0.07559668154032197
430.0, 0.0722334188171143
431.0, 0.0672197813047568
432.0, 0.061957126249445764
433.0, 0.06063873630784302
434.0, 0.05802739498642791
435.0, 0.05423869210968589
436.0, 0.05081979867171775
437.0, 0.04753756614259904
438.0, 0.043159492683540884
439.0, 0.040349344630994696
440.0, 0.03771264987127295
441.0, 0.034811896914812346
442.0, 0.03238820137762223
443.0, 0.030485258170258996
444.0, 0.028759263832171044
445.0, 0.0272969731015601
446.0, 0.028028094499138352
447.0, 0.02961010684755169
448.0, 0.030871642717307485
449.0, 0.032659054153310885
450.0, 0.035281597991871444
451.0, 0.03652285727082385
452.0, 0.03395033686281997
453.0, 0.03652385775316998
454.0, 0.036414123047914616
455.0, 0.03627355346432705
456.0, 0.038746177710878155
457.0, 0.04190818238764965
458.0, 0.036875218629263934
459.0, 0.03856031273483653
460.0, 0.0380853180222471
461.0, 0.036996800342070535
462.0, 0.03615511084360243
463.0, 0.0344005570862322
464.0, 0.029587480983250473
465.0, 0.02932144593274603
466.0, 0.025750516437386163
467.0, 0.024272201617445668
468.0, 0.023340119233412525
469.0, 0.020963806634058592
470.0, 0.0211333366849845
471.0, 0.01582635857773628
472.0, 0.016861614934751943
473.0, 0.01715724661923411
474.0, 0.019683748113216208
475.0, 0.022646442350403057
476.0, 0.0183583388919912
477.0, 0.017095182131011508
478.0, 0.01166612371775177
479.0, 0.010842350900570175
480.0, 0.009732132079839351
481.0, 0.008176402434258094
482.0, 0.008794218194155127
483.0, 0.008749020353813138
484.0, 0.010312667859852485
485.0, 0.010212312950420938
486.0, 0.008251203586641652
487.0, 0.0071041416335457614
488.0, 0.008478664085255204
489.0, 0.010270987741792848
490.0, 0.004342342349422596
491.0, 0.005390168131583923
492.0, 0.007468732252795249
493.0, 0.007918518754103697
494.0, 0.007340825106606142
495.0, 0.0077279123199381254
496.0, 0.0074490812069975204
497.0, 0.0065852214767190415
498.0, 0.008002858732410804
499.0, 0.006292171056207585
500.0, 0.004355244345342919
501.0, 0.004898223292970765
502.0, 0.0034743908718442833
503.0, 0.007802541449306722
504.0, 0.0050985327144560675
505.0, 0.005433548600831045
506.0, 0.005569352431276954
507.0, 0.00508302366356574
508.0, 0.006724999829598285
509.0, 0.0037910629512700436
510.0, 0.002852397501537491
511.0, 0.0032574601885213394
512.0, 0.0026744193247447614
513.0, 0.002642356618115406
514.0, 0.004319353944075502
515.0, 0.004928314787910491
516.0, 0.005353312328563506
517.0, 0.002652129946153079
518.0, 0.004090017348126428
519.0, 0.00383716904163295
520.0, 0.002403412819450933
521.0, 0.004689980269374308
522.0, 0.0018965074414687593
523.0, 0.0006006283494147104
524.0, 0.0007447716301755786
525.0, 0.0005130927427710855
526.0, 0.00016171093267880265
527.0, 0.0003816293536129991
528.0, 0.001103238525201606
529.0, 0.0034544542185791787
530.0, 0.0024158496888996195
531.0, 0.0022277318446513278
532.0, 0.001297799052480123
533.0, 0.0013229547819881607
534.0, 0.0035768791379509135
535.0, 0.00015344610547717957
536.0, 0.0008330216049495863
537.0, 0.0030509085305149303
538.0, 0.002897217845075204
539.0, 0.0024877783399920557
540.0, 0.0025667310074108766
541.0, 0.0009050420714559563
542.0, 0.0012584920439098807
543.0, 0.0009591551822569722
544.0, 0.0020956619856679023
545.0, 0.0016911076448664335
546.0, 0.0006974606811816507
547.0, 0.0009632353936323278
548.0, 0.0016222469649904284
549.0, 0.004183225221612177
550.0, 0.002805286448524379
551.0, 0.0037559918986118076
552.0, 0.003049382160558501
553.0, 0.002916789430550584
554.0, 0.007013956235675985
555.0, 0.004278565267070526
556.0, 0.003364125438081127
557.0, 0.0067714132304583854
558.0, 0.005817525820492783
559.0, 0.005115950040959114
560.0, 0.006942099744578308
561.0, 0.006803029717919049
562.0, 0.00634507589433748
563.0, 0.006615079090087293
564.0, 0.007936305760281736
565.0, 0.007346967911967595
566.0, 0.006814459400651367
567.0, 0.007931991877029632
568.0, 0.008395132287446708
569.0, 0.012466270575635213
570.0, 0.014189985422738286
571.0, 0.014745741488429097
572.0, 0.015582835582395807
573.0, 0.016860159778291493
574.0, 0.01813630961159018
575.0, 0.01962219333200753
576.0, 0.020815227027091633
577.0, 0.023101268835987072
578.0, 0.02491956147154116
579.0, 0.02651047759164418
580.0, 0.027715282065478054
581.0, 0.028152605798155518
582.0, 0.028632535915867334
583.0, 0.028352244676058527
584.0, 0.029032866308489256
585.0, 0.029706633124618246
586.0, 0.030931351934516557
587.0, 0.03180137802953873
588.0, 0.03167024894907484
589.0, 0.03768852917923589
590.0, 0.03884293833341919
591.0, 0.04253279807201857
592.0, 0.04810199691446677
593.0, 0.05131031794337773
594.0, 0.053639656235121125
595.0, 0.06232663691872524
596.0, 0.07338974085448864
597.0, 0.07664836887280022
598.0, 0.0831315837767663
599.0, 0.09062247447637077
600.0, 0.09747411017221276
601.0, 0.10350055971218658
602.0, 0.10868697878654442
603.0, 0.10718377061018593
604.0, 0.10896492757186782
605.0, 0.1078232247289963
606.0, 0.10777446391260846
607.0, 0.10417251935710395
608.0, 0.09780105878177466
609.0, 0.09966519220235072
610.0, 0.09165259563547876
611.0, 0.08875343292971304
612.0, 0.088485876417419
613.0, 0.08424177049069899
614.0, 0.08085899709078112
615.0, 0.08072690730378518
616.0, 0.07531773833594621
617.0, 0.07448270978727448
618.0, 0.07248248076591592
619.0, 0.0687102118695249
620.0, 0.0655842740807227
621.0, 0.063849930063151
622.0, 0.06170709364681692
623.0, 0.0565412175134721
624.0, 0.054821810914403135
625.0, 0.04772224976635003
626.0, 0.046144830303921726
627.0, 0.0448740851005525
628.0, 0.04278681857494662
629.0, 0.04238242035241635
630.0, 0.04447074951700757
631.0, 0.03443141385644124
632.0, 0.03758323547982641
633.0, 0.036037874619047505
634.0, 0.0356182508277637
635.0, 0.03656467419461071
636.0, 0.03518751215846575
637.0, 0.02986487669530599
638.0, 0.029357358309442753
639.0, 0.032384306336111966
640.0, 0.03154101591238146
641.0, 0.02928210442795526
642.0, 0.028757960309675198
643.0, 0.029890513825382707
644.0, 0.029423724331871723
645.0, 0.028528722814754007
646.0, 0.02862084176807806
647.0, 0.02769262057889858
648.0, 0.026933854613291973
649.0, 0.026614026865392527
650.0, 0.027645091705462404
651.0, 0.03047511378796954
652.0, 0.029410057633124504
653.0, 0.026354562490643607
654.0, 0.028780590718621653
655.0, 0.02913335462586518
656.0, 0.027379529689478457
657.0, 0.026593494156984032
658.0, 0.028411514199412638
659.0, 0.02938301687542398
660.0, 0.029356161217016404
661.0, 0.026876975936913718
662.0, 0.024975661266944643
663.0, 0.02337684631602308
664.0, 0.022909737677401044
665.0, 0.02384784277319491
666.0, 0.022334172382524015
667.0, 0.022667277457029476
668.0, 0.019595761010159224
669.0, 0.018633360873067897
670.0, 0.018509628709079892
671.0, 0.01805987221138753
672.0, 0.017846120778410385
673.0, 0.019075235710409297
674.0, 0.016685051711824453
675.0, 0.015502850869056835
676.0, 0.014829827003386845
677.0, 0.017494880522660884
678.0, 0.01729827817277168
679.0, 0.013416645533814177
680.0, 0.014518291403836847
681.0, 0.015262031872146205
682.0, 0.009362671085587448
683.0, 0.009882724037110316
684.0, 0.012610985037760687
685.0, 0.013158844740725992
686.0, 0.011895738420128121
687.0, 0.012074265483219443
688.0, 0.012673872888708762
689.0, 0.011178828660963204
690.0, 0.011680211090701607
691.0, 0.010814888817198692
692.0, 0.009964098720980741
693.0, 0.01099958759871539
694.0, 0.01209917672355849
695.0, 0.007877715095982275
696.0, 0.009570125623880911
697.0, 0.012131151435768773
698.0, 0.010379676616122723
699.0, 0.010861800941417183
700.0, 0.011765144225404475
701.0, 0.00972842813604648
702.0, 0.006578003866972356
703.0, 0.009581278095367832
704.0, 0.0068459848889774275
705.0, 0.005098893427842231
706.0, 0.005222863480362619
707.0, 0.00677670514360205
708.0, 0.009101257665178712
709.0, 0.011190963126650074
710.0, 0.011407316424042718
711.0, 0.011306466116049128
712.0, 0.005718376768777141
713.0, 0.006915575175701097
714.0, 0.004404089977442452
715.0, 0.0030231278178015166
716.0, 0.006308906008504051
717.0, 0.006147450907142459
718.0, 0.003158217457063798
719.0, 0.0048149027406332034
720.0, 0.0066661762093293735
721.0, 0.0042615399847295695
722.0, 0.003809594864626997
723.0, 0.005165168080436261
724.0, 0.003579226446471475
725.0, 0.0008656492583003682
726.0, 0.0018778570854048175
727.0, 0.0005572243768021739
728.0, 0.00023553050462146946
729.0, 0.0009862109152112958
730.0, 0.0014949463189381032
731.0, 0.0015065200794853587
732.0, 0.001722898321956975
733.0, 9.872341831869652e-05
734.0, 0.0014808099346592107
735.0, 0.0013555062910273277
736.0, 0.002218212498408693
737.0, 0.0019265891784081947
738.0, 0.00113260119124443
739.0, 0.0011245663156231225
740.0, 0.000565267727434313
741.0, 0.0027511366100880664
742.0, 0.001896898655604488
743.0, 0.001614993884692832
744.0, 0.003281137509912588
745.0, 0.002741602995421262
746.0, 0.0011780373578855557
747.0, 0.0027499371351381516
748.0, 0.0032108403064016614
749.0, 0.0034515758813967066
750.0, 0.003527958406294993
751.0, 0.005121848847166372
752.0, 0.004687131486254526
753.0, 0.004077866304896416
754.0, 0.0034364470876073793
755.0, 0.00040266490378317813
756.0, 0.00204002555215343
757.0, 0.0008140986219364445
758.0, 0.0037562753347593378
759.0, 0.003768367435235044
760.0, 0.002858755215613688
761.0, 0.0042053861684911015
762.0, 0.007448432264683316
763.0, 0.008512571243127813
764.0, 0.006695545595303504
765.0, 0.011658200957772969
766.0, 0.00786862877308034
767.0, 0.004694598606076355
768.0, 0.006083176146600318
769.0, 0.009138338368134012
770.0, 0.00929681479988408
771.0, 0.00677805734115696
772.0, 0.006956714447294106
773.0, 0.007205808714641923
774.0, 0.006794155141687282
775.0, 0.006633068711844425
776.0, 0.0071758253946622086
777.0, 0.007789736048722367
778.0, 0.00803142993651596
779.0, 0.008675453895210189
780.0, 0.006048699597667389
781.0, 0.005679608203817797
782.0, 0.007835435967446614
783.0, 0.007180834681009652
784.0, 0.0069415117275740896
785.0, 0.007997889580008626
786.0, 0.0075639195684854285
787.0, 0.0063798160397267635
788.0, 0.008482060609183634
789.0, 0.006792381097702926
790.0, 0.004410084844641637
791.0, 0.004693751762920489
792.0, 0.005737449658979949
793.0, 0.006311785338702675
794.0, 0.006919825595927664
795.0, 0.006286266258341068
796.0, 0.003727287719036799
797.0, 0.004838002170036243
798.0, 0.006737417221673556
799.0, 0.0050932342849079925
800.0, 0.003290576167293167
801.0, 0.0038400393461259334
802.0, 0.004126049661256822
803.0, 0.0006332324229248658
804.0, 0.006843043498483928
805.0, 0.00799887362794144
806.0, 0.006750295495726251
807.0, 0.008372561836602219
808.0, 0.006445077872534342
809.0, 0.005201913907048532
810.0, 0.010099655451374048
811.0, 0.007148820386153095
812.0, 0.005161067845804021
813.0, 0.0060685529300388745
814.0, 0.007601784534543675
815.0, 0.004689999123635045
816.0, 0.0035160847866682835
817.0, 0.005805704239860053
818.0, 0.007269504715762313
819.0, 0.005567390951634177
820.0, 0.004192968720647554
821.0, 0.004721820113718602
822.0, 0.0020034102722231327
823.0, 0.0026181070100147977
824.0, 0.002293723848654927
825.0, 0.0023563121452296813
826.0, 0.004392573858782831
827.0, 0.004327305742686357
828.0, 0.007126622354086583
829.0, 0.0035240143973286724
830.0, 0.005875585780954023
831.0, 0.0035873615903813734
832.0, 0.00255344332020463
833.0, 0.002788595757290703
834.0, 0.0019405485774967473
835.0, 0.0016704593549745075
836.0, 0.004759096376440468
837.0, 0.0017248039674817347
838.0, 0.0009714256560726307
839.0, 0.001531593811328193
840.0, 0.0020487363676983893
841.0, 0.0030160240106486026
842.0, 0.0031761130965383003
843.0, 0.0011641287112786466
844.0, 0.00026948453586171715
845.0, 0.0027049815559773613
846.0, 0.001160486426791295
847.0, 0.0006670640928003192
848.0, 0.0011781390072831983
849.0, 0.003656956407560318
850.0, 0.005353088584278628
851.0, 0.0037971914163865135
852.0, 0.0014662020322109646
853.0, 0.000783138745065557
854.0, 0.0008870958488594748
855.0, 0.0021360543820219302
856.0, 0.00596944502482759
857.0, 0.004111531177951657
858.0, 0.0018274001390190982
859.0, 0.0030200851477886286
860.0, 0.0030553861417668845
861.0, 0.001735994576478043
862.0, 0.005754242401287945
863.0, 0.004346371282683363
864.0, 0.0032955088611653477
865.0, 0.0030423773049179518
866.0, 0.0027326796356188007
867.0, 0.002387510076800107
868.0, 0.001830976079793387
869.0, 0.00032678853225209906
870.0, 0.0012984865407438852
871.0, 0.0005193537455503964
872.0, 0.0012876611858751376
873.0, 0.0017499442918813026
874.0, 0.0017244779714361749
875.0, 0.0012562662306138117
876.0, 0.0016040887372117138
877.0, 0.0028126390516626945
878.0, 0.0014633642807391446
879.0, 0.006707381482244656
880.0, 0.0031373195133835266
881.0, 0.002205076580175845
882.0, 0.004280942540118475
883.0, 0.005243532818533526
884.0, 0.00428733301735005
885.0, 0.002841231550116615
886.0, 0.002108526999760451
887.0, 0.004254522953487134
888.0, 0.0011292173638121563
889.0, 0.006355423929519649
890.0, 0.0042372291780519026
891.0, 0.0013027228038766927
892.0, 0.0014808335254870482
893.0, 0.0025615066614549757
894.0, 0.002060820712622131
895.0, 0.002861341402992332
896.0, 0.008058847751457165
897.0, 0.004364387058461709
898.0, 0.0027957773536622836
899.0, 0.0035323328578781735
900.0, 0.002539824880017135
901.0, 0.0021497139647885456
902.0, 0.004549072324412453
903.0, 0.006446441325348704
904.0, 0.0030725822187207476
905.0, 0.0039300739653800165
906.0, 0.01146439684284236
907.0, 0.00772691921299088
908.0, 0.006849801065798855
909.0, 0.005365773878251604
910.0, 0.0033368073709348772
911.0, 0.003505578628657197
912.0, 0.005163255052320295
913.0, 0.004121197782396884
914.0, 0.006975197427773707
915.0, 0.0055352711975993375
916.0, 0.004333845280151625
917.0, 0.005571508952119707
918.0, 0.005846415978291829
919.0, 0.006262989800528886
920.0, 0.007057359887821407
921.0, 0.006854068333131859
922.0, 0.008097116425902353
923.0, 0.008529309041229281
924.0, 0.009074827493408063
925.0, 0.009583808498748096
926.0, 0.009588147272127066
927.0, 0.009399633122344599
928.0, 0.009685786863629382
929.0, 0.009665043500301309
930.0, 0.008410141469271324
931.0, 0.00766193460482064
932.0, 0.008440538322327622
933.0, 0.011283722148101933
934.0, 0.012133582255068462
935.0, 0.013323124705898238
936.0, 0.015498852562307005
937.0, 0.016731357334923178
938.0, 0.01823096826746039
939.0, 0.020291156119026564
940.0, 0.018252795715356165
941.0, 0.02245622198760377
942.0, 0.020865113929226423
943.0, 0.018870486323998088
944.0, 0.019161753394478172
945.0, 0.025019746769748167
946.0, 0.02930873664307834
947.0, 0.029978735906248753
948.0, 0.031321396004224365
949.0, 0.033463641781563844
950.0, 0.030488812444013608
951.0, 0.03262647764400506
952.0, 0.03589029683226847
953.0, 0.03878656207441889
954.0, 0.04393116893100863
955.0, 0.04716484767667595
956.0, 0.04843275542939689
957.0, 0.05228473784158835
958.0, 0.0587985197249034
959.0, 0.05930028498556168
960.0, 0.06985330235242236
961.0, 0.07639840762590691
962.0, 0.08388480977674458
963.0, 0.0922119885709293
964.0, 0.1044710216153833
965.0, 0.1159090906639244
966.0, 0.1262040254797182
967.0, 0.13999042750837343
968.0, 0.1545490272613839
969.0, 0.1678290007007504
970.0, 0.19388257282459026
971.0, 0.21790395211008368
972.0, 0.241003399824902
973.0, 0.2804033742372205
974.0, 0.3206816927231976
975.0, 0.36302744647319884
976.0, 0.4173017347629747
977.0, 0.4779134267502272
978.0, 0.5437600865648178
979.0, 0.6042922411563234
980.0, 0.6877684864359691
981.0, 0.7545048700345367
982.0, 0.8257113942761534
983.0, 0.9059137730146419
984.0, 0.9570551751144795
985.0, 0.9799426058928878
986.0, 0.9972064525124684
987.0, 0.9769285434894088
988.0, 0.9042700418202902
989.0, 0.8341180462099976
990.0, 0.730559659422469
991.0, 0.6195143112674122
992.0, 0.5183575497489189
993.0, 0.4334114952305455
994.0, 0.3610343460105921
995.0, 0.29651237208512693
996.0, 0.24370879862916495
997.0, 0.21041886712909164
998.0, 0.17353768738713124
999.0, 0.15251719369734382
1000.0, 0.14159951981470978
1001.0, 0.12717951219740187
1002.0, 0.11926104486613115
1003.0, 0.11353868324819585
1004.0, 0.10300615266989788
1005.0, 0.09353680164159252
1006.0, 0.0937472419061925
1007.0, 0.09038137198479589
1008.0, 0.08634310147363006
1009.0, 0.08430010614621702
1010.0, 0.0843883727553551
1011.0, 0.07832766326421128
1012.0, 0.08133905333440289
1013.0, 0.08122173575968616
1014.0, 0.07366279671141315
1015.0, 0.07046984673363725
1016.0, 0.07544706752159938
1017.0, 0.0730066502812013
1018.0, 0.06952828383521559
1019.0, 0.08093879465906555
1020.0, 0.07247201781569618
1021.0, 0.06981204049781738
1022.0, 0.06803235711119825
1023.0, 0.07271121363554157
1024.0, 0.07675507897798887
1025.0, 0.07578483893123215
1026.0, 0.078526536812589
1027.0, 0.0759807354590122
1028.0, 0.07348073606911269
1029.0, 0.07992041300244869
1030.0, 0.08085444555439067
1031.0, 0.07897705929310955
1032.0, 0.08380927636359052
1033.0, 0.0844261466273605
1034.0, 0.08505172994062841
1035.0, 0.09133063484425885
1036.0, 0.09414887259022547
1037.0, 0.09098406938704123
1038.0, 0.09010230106925152
1039.0, 0.09411200078472733
1040.0, 0.09128844440277718
1041.0, 0.0936227955787665
1042.0, 0.09811278121158842
1043.0, 0.09975874870112955
1044.0, 0.09905802982149796
1045.0, 0.09873746180795288
1046.0, 0.099240492663612
1047.0, 0.09854111587892664
1048.0, 0.09478156644859179
1049.0, 0.09995940655350599
1050.0, 0.09582119407953134
1051.0, 0.09391337503718263
1052.0, 0.08899320802401983
1053.0, 0.08542843800455516
1054.0, 0.08537047380299315
1055.0, 0.0826670500367701
1056.0, 0.07592958416674424
1057.0, 0.07418118973045683
1058.0, 0.07648474583912244
1059.0, 0.07202302935861689
1060.0, 0.06721033112950116
1061.0, 0.06840414982992876
1062.0, 0.06960121973413254
1063.0, 0.06754405187992972
1064.0, 0.06772924732424265
1065.0, 0.06612679015703186
1066.0, 0.06510986305207017
1067.0, 0.07004985000669346
1068.0, 0.07074537636022858
1069.0, 0.0711757500962473
1070.0, 0.07455190353124927
1071.0, 0.08214108101185968
1072.0, 0.08609324949778877
1073.0, 0.08723538878605007
1074.0, 0.09268387014297744
1075.0, 0.09495026008877266
1076.0, 0.09564120870131045
1077.0, 0.09797582064061401
1078.0, 0.09743520119568856
1079.0, 0.09439782934610447
1080.0, 0.08035502028726411
1081.0, 0.08739938437000246
1082.0, 0.07490196067895144
1083.0, 0.07195988806788016
1084.0, 0.06895746710461642
1085.0, 0.0665124574551564
1086.0, 0.06374935584140479
1087.0, 0.05990960901781155
1088.0, 0.05640164652068107
1089.0, 0.05455784758442995
1090.0, 0.053462961715409166
1091.0, 0.05014869286110279
1092.0, 0.04575572284980199
1093.0, 0.04553158845092674
1094.0, 0.047154202558874043
1095.0, 0.045910635861839355
1096.0, 0.04300314623490668
1097.0, 0.04010912991046224
1098.0, 0.039488176540465006
1099.0, 0.038542236722367396
1100.0, 0.034084270206149264
1101.0, 0.035278604823728375
1102.0, 0.040698931829859696
1103.0, 0.032766792248317175
1104.0, 0.03733869779013392
1105.0, 0.0332179212412019
1106.0, 0.029188002867330757
1107.0, 0.03223698734358108
1108.0, 0.03387566821464435
1109.0, 0.03151657384876038
1110.0, 0.031760837465793564
1111.0, 0.03512793277822788
1112.0, 0.03272216375403963
1113.0, 0.02839310939059191
1114.0, 0.030953137803405723
1115.0, 0.03611241382882768
1116.0, 0.029534055891862313
1117.0, 0.03206146980597057
1118.0, 0.04003923009582286
1119.0, 0.038376875903864745
1120.0, 0.03852333226217764
1121.0, 0.04342149981687392
1122.0, 0.04353080195868097
1123.0, 0.04647918529758293
1124.0, 0.048773539361243366
1125.0, 0.05287034012814837
1126.0, 0.05134979387809361
1127.0, 0.053588778996102246
1128.0, 0.06157795553596777
1129.0, 0.06039951774195675
1130.0, 0.06178177282991659
1131.0, 0.06124160493321188
1132.0, 0.06202752876220187
1133.0, 0.06930426467025266
1134.0, 0.07343362184419348
1135.0, 0.06962314140555667
1136.0, 0.06625335150362933
1137.0, 0.06364894595823957
1138.0, 0.05433072792748879
1139.0, 0.050773186197355755
1140.0, 0.04972913859411569
1141.0, 0.04138203314878109
1142.0, 0.03018147315386013
1143.0, 0.027644401230892523
1144.0, 0.026614609798285758
1145.0, 0.019548150424514875
1146.0, 0.018440416957346904
1147.0, 0.021526308672744198
1148.0, 0.011429159208724384
1149.0, 0.016878813334054034
1150.0, 0.012081097239216408
1151.0, 0.008817132330433483
1152.0, 0.010797652553181946
1153.0, 0.0117641529416527
1154.0, 0.0083658174531456
1155.0, 0.006185520269654847
1156.0, 0.007434157281415111
1157.0, 0.005915730313791262
1158.0, 0.00021911519956913545
1159.0, 0.0012477449889144517
1160.0, 0.005053138695490994
1161.0, 0.0005767510943243963
1162.0, 0.006419571350686682
1163.0, 0.0029682433018413303
1164.0, 0.0016731311338593659
1165.0, 0.00559536439317496
1166.0, 0.006585980061041734
1167.0, 0.0035485149129333695
1168.0, 0.002087851895744533
1169.0, 0.0031629330883052773
1170.0, 0.0044455035995275
1171.0, 0.008607027281454018
1172.0, 0.007814669663196425
1173.0, 0.005691440331279369
1174.0, 0.007835605921717453
1175.0, 0.003517166390572481
1176.0, 0.00629027627906211
1177.0, 0.005338311426425414
1178.0, 0.003313126923370354
1179.0, 0.005874681019609918
1180.0, 0.006648143666540388
1181.0, 0.007866999477664905
1182.0, 0.011168241391488861
1183.0, 0.0021428266881019556
1184.0, 0.002518026158126291
1185.0, 0.0006554307273344841
1186.0, 0.0075760765288977894
1187.0, 0.0016200569159394653
1188.0, 0.000882273806601945
1189.0, 0.004556787751124532
1190.0, 0.003164983209437648
1191.0, 0.0026576199160751844
1192.0, 0.0035163583115589074
1193.0, 0.0021477336976715353
1194.0, 0.0017509196573273402
1195.0, 0.0037962331950331285
1196.0, 0.0011168286715791253
1197.0, 0.005407359227445898
1198.0, 0.0021586632540582613
1199.0, 0.008676943970246046
1200.0, 0.0018546484928457794
1201.0, 0.00567536521138976
1202.0, 0.007630007520440781
1203.0, 0.004672151678253394
1204.0, 0.003712772021129896
1205.0, 0.002405113125854597
1206.0, 0.0004917213199229461
1207.0, 0.0013725578393190725
1208.0, 0.0020234038270864944
1209.0, 0.0004274327758624005
1210.0, 0.0020956620515412672
1211.0, 0.00112412480375679
1212.0, 0.006760337967006943
1213.0, 0.004626426035462198
1214.0, 0.0023990259926784797
1215.0, 0.0006687725407096639
1216.0, 0.0020235615633765218
1217.0, 0.0031841531641378716
1218.0, 0.00439666657002818
1219.0, 0.0031374694570692886
1220.0, 0.0010210062315420593
1221.0, 0.0028047360333544034
1222.0, 0.0024062138612697447
1223.0, 0.0005585854876394273
1224.0, 0.000807248795064067
1225.0, 0.0027125505887588145
1226.0, 0.0010091411927570077
1227.0, 0.0016616993717301042
1228.0, 0.004765166136070167
1229.0, 0.006671922263126529
1230.0, 0.008619282284631359
1231.0, 0.006057106386643449
1232.0, 0.0019844659038054106
1233.0, 0.0005555544078792417
1234.0, 0.0012868455262204418
1235.0, 0.0029998485310189314
1236.0, 0.002385257052338112
1237.0, 0.005884380772896641
1238.0, 0.00769824016869948
1239.0, 0.008159747261640723
1240.0, 0.002582549997891039
1241.0, 0.002743907705311766
1242.0, 0.002385622036416167
1243.0, 0.003881829456718676
1244.0, 0.003460770740769084
1245.0, 0.0016797085245615758
1246.0, 0.0034721095058648276
1247.0, 0.0055534831934363265
1248.0, 0.003052819119754537
1249.0, 0.0021015905534670573
1250.0, 0.004324046591794392
1251.0, 0.0026169808211930997
1252.0, 0.0024427228772504334
1253.0, 0.0030803228224480592
1254.0, 0.0024954145785761207
1255.0, 0.0023024388192990153
1256.0, 0.0012629282060055628
1257.0, 0.004332810012856903
1258.0, 0.003550922963253128
1259.0, 0.0013852592020775377
1260.0, 0.005497429539152855
1261.0, 0.0067288829641518
1262.0, 0.003455629056932591
1263.0, 0.010025546525927787
1264.0, 0.012163582795441795
1265.0, 0.0060917888734720324
1266.0, 0.006010868421421616
1267.0, 0.006693429186104794
1268.0, 0.010453874187924175
1269.0, 0.010015842547770198
1270.0, 0.01085781348666824
1271.0, 0.010086261985227564
1272.0, 0.010457566070736076
1273.0, 0.009412318135367144
1274.0, 0.007551729275597998
1275.0, 0.006714206469486607
1276.0, 0.007912032031825476
1277.0, 0.009893791255695839
1278.0, 0.009706967469244909
1279.0, 0.009695734979644028
1280.0, 0.008418673757619084
1281.0, 0.01321146746421363
1282.0, 0.005728123683925096
1283.0, 0.008982255757326021
1284.0, 0.00165611303557732
1285.0, 0.004808791751612902
1286.0, 0.009964134567881628
1287.0, 0.011172349374630798
1288.0, 0.01044900519110611
1289.0, 0.01128718128537399
1290.0, 0.012106169492768333
1291.0, 0.0076686951938478715
1292.0, 0.004530978131775164
1293.0, 0.010305600296133996
1294.0, 0.005970752782059443
1295.0, 0.005274339387176292
1296.0, 0.013128258550107076
1297.0, 0.012342473842515172
1298.0, 0.0124689667552957
1299.0, 0.016581639918329234
1300.0, 0.015565590743286003
1301.0, 0.01462631828635982
1302.0, 0.01575708855746655
1303.0, 0.014030423244875918
1304.0, 0.01034244438211539
1305.0, 0.012097862146481288
1306.0, 0.012965984066578225
1307.0, 0.008478482036866668
1308.0, 0.009715594605940318
1309.0, 0.0157888422426358
1310.0, 0.019588238766564302
1311.0, 0.01718772093198988
1312.0, 0.01710748523763076
1313.0, 0.021532701372854148
1314.0, 0.019154027165683738
1315.0, 0.017954621223458346
1316.0, 0.017934902028729473
1317.0, 0.016451716548986316
1318.0, 0.014522244985178207
1319.0, 0.020165552625956252
1320.0, 0.023623007479763578
1321.0, 0.0199238420914738
1322.0, 0.01951912039793726
1323.0, 0.021537434561750637
1324.0, 0.018987540904832574
1325.0, 0.01970807867291866
1326.0, 0.015524824156174415
1327.0, 0.019035192647729477
1328.0, 0.019042106342274556
1329.0, 0.02094085827139127
1330.0, 0.0199498819567505
1331.0, 0.020589808474201506
1332.0, 0.022658561474965852
1333.0, 0.02092658764840635
1334.0, 0.020397275790037854
1335.0, 0.01908503893685314
1336.0, 0.018621702466910608
1337.0, 0.01675980584578202
1338.0, 0.015422358160962359
1339.0, 0.018008810229445147
1340.0, 0.01957185142310248
1341.0, 0.017736813246331418
1342.0, 0.019336043391347608
1343.0, 0.019376059092051645
1344.0, 0.01667049397132398
1345.0, 0.015011443408972694
1346.0, 0.01611655310576287
1347.0, 0.010220294004995578
1348.0, 0.014359026678280064
1349.0, 0.019076439736636048
1350.0, 0.013958689417535312
1351.0, 0.020604714451871106
1352.0, 0.019668477407462952
1353.0, 0.01491663393905189
1354.0, 0.020681234270158232
1355.0, 0.020359439148768664
1356.0, 0.012978584323689854
1357.0, 0.012540469490350604
1358.0, 0.014188804662590706
1359.0, 0.017909000217139297
1360.0, 0.01713602637679316
1361.0, 0.017566959503270533
1362.0, 0.0166013560771533
1363.0, 0.01518993009413929
1364.0, 0.016386585686164648
1365.0, 0.011981593422681042
1366.0, 0.013004053004160654
1367.0, 0.0152293362425217
1368.0, 0.016962699068983615
1369.0, 0.010917620244524308
1370.0, 0.005896443285980863
1371.0, 0.010428401762435755
1372.0, 0.012468688147242491
1373.0, 0.013093825910546487
1374.0, 0.013742538202189951
1375.0, 0.012583215269985558
1376.0, 0.013304779873714458
1377.0, 0.013022830924087575
1378.0, 0.0165146257635257
1379.0, 0.010520025011994625
1380.0, 0.010933051465423524
1381.0, 0.012003670194947972
1382.0, 0.007310382702497312
1383.0, 0.013696878777564758
1384.0, 0.013285174237598323
1385.0, 0.012682270536625155
1386.0, 0.008562407833775518
1387.0, 0.013250636945569522
1388.0, 0.011232232526680618
1389.0, 0.012195528071782497
1390.0, 0.0174672292090672
1391.0, 0.015068837811409504
1392.0, 0.006896601647945312
1393.0, 0.006514110098460884
1394.0, 0.012166927691998739
1395.0, 0.009380252176033327
1396.0, 0.0030056083524940946
1397.0, 0.008661812263415343
1398.0, 0.009595151942873357
1399.0, 0.003317711448240144
1400.0, 0.01152759369824449
1401.0, 0.00917075255992076
1402.0, 0.0040469679242253675
1403.0, 0.004716700069624337
1404.0, 0.003262242530035174
1405.0, 0.004823925871457067
1406.0, 0.004915791088203584
1407.0, 0.009069054885721798
1408.0, 0.00872809846489625
1409.0, 0.00853900197663811
1410.0, 0.012401036849337188
1411.0, 0.00935679480773012
1412.0, 0.007078878420931247
1413.0, 0.007227183337069232
1414.0, 0.004699406984324017
1415.0, 0.006171725860007987
1416.0, 0.006053346393006755
1417.0, 0.006897748488276338
1418.0, 0.012303528701634975
1419.0, 0.008907938895850105
1420.0, 0.008379713315098264
1421.0, 0.01120521529170624
1422.0, 0.0027110084702580226
1423.0, 0.0007330656263927519
1424.0, 0.005566012231214914
1425.0, 0.008245086209615608
1426.0, 0.001787502033338361
1427.0, 0.0004926534718132233
1428.0, 0.0013425113381645665
1429.0, 0.0015578497399114223
1430.0, 0.00462072338160834
1431.0, 0.0029004182212516985
1432.0, 0.004827953165850997
1433.0, 0.005175836932541807
1434.0, 0.001429603104410009
1435.0, 0.004734286389322101
1436.0, 0.009744993642241942
1437.0, 0.006516922322350194
1438.0, 0.0014383737624953075
1439.0, 0.00234265873249601
1440.0, 0.0011499578832844912
1441.0, 0.002815340484019362
1442.0, 0.008520156070747732
1443.0, 0.0065086988977998495
1444.0, 0.005919279920627555
1445.0, 0.0025227134444586177
1446.0, 0.006232258765794891
1447.0, 0.0010097380864363577
1448.0, 0.0029457287471033452
1449.0, 0.010141812514035366
1450.0, 0.0032060041687758285
1451.0, 0.0043281171172389376
1452.0, 0.004818890857041359
1453.0, 0.0036139311496650064
1454.0, 0.0038805932692576317
1455.0, 0.004822036125486163
1456.0, 0.005199994397469456
1457.0, 0.004443875305697884
1458.0, 0.004349861008658645
1459.0, 0.007083639151994861
1460.0, 0.006796825499200234
1461.0, 0.0022685599232551835
1462.0, 0.008606073050916332
1463.0, 0.009065373888758816
1464.0, 0.005065578287397192
1465.0, 0.006333521676457103
1466.0, 0.0012881747933097668
1467.0, 0.007045283197978556
1468.0, 0.0064160734074570494
1469.0, 0.006787299860902142
1470.0, 0.0009113078669506325
1471.0, 0.006464706547883257
1472.0, 0.0017957036933244348
1473.0, 0.0006775994515666496
1474.0, 0.0028332079076110873
1475.0, 0.002850892883042128
1476.0, 0.003477993943392443
1477.0, 0.003396557225358334
1478.0, 0.0036020644888081184
1479.0, 0.0035582423424893213
1480.0, 0.0026210930871756587
1481.0, 0.007377635433115939
1482.0, 0.007965542314042121
1483.0, 0.0017479472244524917
1484.0, 0.005990818526040969
1485.0, 0.008353219862754294
1486.0, 0.001631119078122375
1487.0, 0.0026313565234555598
1488.0, 0.004112245149064029
1489.0, 0.002276314210957458
1490.0, 0.004446352095840327
1491.0, 0.0014470868071783246
1492.0, 0.0005779763998717373
1493.0, 0.0026453052677401037
1494.0, 0.007381112161078092
1495.0, 0.005523975729828472
1496.0, 0.006019164310382859
1497.0, 0.0016745216932856585
1498.0, 0.0027544260087547052
1499.0, 0.002667669366804261
1500.0, 0.007303105963310214
1501.0, 0.005695363456243964
1502.0, 0.008692480823817357
1503.0, 0.005944416837347912
1504.0, 0.00976935309478032
1505.0, 0.007170564585853595
1506.0, 0.0018055427915810612
1507.0, 0.008488833999317462
1508.0, 0.008181040070902448
1509.0, 0.013744891298372742
1510.0, 0.024298528965410213
1511.0, 0.01551711464779948
1512.0, 0.011609357059778669
1513.0, 0.006172683585528572
1514.0, 0.006730823697188635
1515.0, 0.008758379990667297
1516.0, 0.007006438358133953
1517.0, 0.011119828902754298
1518.0, 0.0069094233645624155
1519.0, 0.005703032194239871
1520.0, 0.0060098842306167315
1521.0, 0.0005330488800138274
1522.0, 0.006983057654046787
1523.0, 0.004655889528943014
1524.0, 0.004247541999643473
1525.0, 0.00817416828723795
1526.0, 0.004906595327378201
1527.0, 0.008178895165935356
1528.0, 0.0046028373319524155
1529.0, 0.00754967581259615
1530.0, 0.010697879213269718
1531.0, 0.00929696394150276
1532.0, 0.003852815343459426
1533.0, 0.004415830850022369
1534.0, 0.0023623381002663047
1535.0, 0.0035762231788761785
1536.0, 0.007185950710133759
1537.0, 0.010017887219897801
1538.0, 0.007781440047173218
1539.0, 0.007846697944072386
1540.0, 0.008593295298602371
1541.0, 0.0029969721482118214
1542.0, 0.004205876727202905
1543.0, 0.012291144488419373
1544.0, 0.013737901582427032
1545.0, 0.009762577465449958
1546.0, 0.010778002489632172
1547.0, 0.00774619331080777
1548.0, 0.009404473172565656
1549.0, 0.012844380230607003
1550.0, 0.014651997435543216
1551.0, 0.014188725627713185
1552.0, 0.0089611281599928
1553.0, 0.01016216847802688
1554.0, 0.008665225915358666
1555.0, 0.007549776610289407
1556.0, 0.010979674108548354
1557.0, 0.005776757042829152
1558.0, 0.008260415264336515
1559.0, 0.008326270148354369
1560.0, 0.009615456708304127
1561.0, 0.008014974685481928
1562.0, 0.0068853064400315
1563.0, 0.008718826119983002
1564.0, 0.009671606072409016
1565.0, 0.007939407488548765
1566.0, 0.008500199005377
1567.0, 0.005636055139386998
1568.0, 0.0037459957497451173
1569.0, 0.003065992320853445
1570.0, 0.001087377933565712
1571.0, 0.0015049629931148036
1572.0, 0.0010487118024348529
1573, 0.0
1574, 0.0
1575, 0.0
1576, 0.0
1577, 0.0
1578, 0.0
1579, 0.0
1580, 0.0
1581, 0.0
1582, 0.0
1583, 0.0
1584, 0.0
1585, 0.0
1586, 0.0
1587, 0.0
1588, 0.0
1589, 0.0
1590, 0.0
1591, 0.0
1592, 0.0
1593, 0.0
1594, 0.0
1595, 0.0
1596, 0.0
1597, 0.0
1598, 0.0
1599, 0.0
