30, 0.0
31, 0.0
32, 0.0
33, 0.0
34, 0.0
35, 0.0
36, 0.0
37, 0.0
38, 0.0
39, 0.0
40, 0.0
41, 0.0
42, 0.0
43, 0.0
44, 0.0
45, 0.0
46, 0.0
47, 0.0
48, 0.0
49, 0.0
50, 0.0
51, 0.0
52, 0.0
53, 0.0
54, 0.0
55, 0.0
56, 0.0
57, 0.0
58, 0.0
59, 0.0
60, 0.0
61, 0.0
62, 0.0
63, 0.0
64, 0.0
65, 0.0
66, 0.0
67, 0.0
68, 0.0
69, 0.0
70, 0.0
71, 0.0
72, 0.0
73, 0.0
74, 0.0
75, 0.0
76, 0.0
77, 0.0
78, 0.0
79, 0.0
80, 0.0
81, 0.0
82, 0.0
83, 0.0
84, 0.0
85, 0.0
86, 0.0
87, 0.0
88, 0.0
89, 0.0
90, 0.0
91, 0.0
92, 0.0
93, 0.0
94, 0.0
95, 0.0
96, 0.0
97, 0.0
98, 0.0
99, 0.0
100, 0.0
101, 0.0
102, 0.0
103, 0.0
104, 0.0
105, 0.0
106, 0.0
107, 0.0
108, 0.0
109, 0.0
110, 0.0
111, 0.0
112, 0.0
113, 0.0
114, 0.0
115, 0.0
116, 0.0
117, 0.0
118, 0.0
119, 0.0
120, 0.0
121, 0.0
122, 0.0
123, 0.0
124, 0.0
125, 0.0
126, 0.0
127, 0.0
128, 0.0
129, 0.0
130, 0.0
131, 0.0
132, 0.0
133, 0.0
134, 0.0
135, 0.0
136, 0.0
137, 0.0
138, 0.0
139, 0.0
140, 0.0
141, 0.0
142, 0.0
143, 0.0
144, 0.0
145, 0.0
146.0, 0.0023204274144663344
147.0, 0.010477162154254592
148.0, 0.01823956928656765
149.0, 0.024725198628976132
150.0, 0.027714749047747088
151.0, 0.02981867315932709
152.0, 0.02074577505497936
153.0, 0.010002105628575626
154.0, 0.00796343810956149
155.0, 0.0021840133676455974
156.0, 0.005427419986826344
157.0, 0.002980493787674728
158.0, 0.015677960313831663
159.0, 0.03192453874330793
160.0, 0.05064689382082236
161.0, 0.06664601321274734
162.0, 0.07805840967851846
163.0, 0.09007373352794652
164.0, 0.10511803063946022
165.0, 0.1122922374304227
166.0, 0.1139119307797762
167.0, 0.1232480862910547
168.0, 0.12438594815763264
169.0, 0.113757915416126
170.0, 0.10504282350539842
171.0, 0.1100514991358819
172.0, 0.10956637141706085
173.0, 0.11528250225417458
174.0, 0.11986429047126848
175.0, 0.11792817983695232
176.0, 0.12259122950671549
177.0, 0.12485498952054651
178.0, 0.13109823256048647
179.0, 0.14068633373646014
180.0, 0.14433159914657379
181.0, 0.15687147961361952
182.0, 0.16817020604759741
183.0, 0.1770119189924499
184.0, 0.18874934133904447
185.0, 0.19895789591371701
186.0, 0.2094523363828255
187.0, 0.22251029552020574
188.0, 0.2349628798226176
189.0, 0.23244069509819046
190.0, 0.2290978854707065
191.0, 0.2253197223958212
192.0, 0.21900475273222825
193.0, 0.20935509427212054
194.0, 0.1994237753953159
195.0, 0.18934539646435614
196.0, 0.17892093517462235
197.0, 0.16681783380426374
198.0, 0.14969170155730924
199.0, 0.145229808872193
200.0, 0.14715842349455416
201.0, 0.14176867885159045
202.0, 0.12078444113287762
203.0, 0.11802435428814517
204.0, 0.11652347508721031
205.0, 0.11236526547244302
206.0, 0.11235819606466745
207.0, 0.10912289861784577
208.0, 0.1060184417633632
209.0, 0.09663560543541884
210.0, 0.07934881779820517
211.0, 0.0744851138846819
212.0, 0.07109202150004133
213.0, 0.06575678171318829
214.0, 0.05840152268277036
215.0, 0.04970815319811307
216.0, 0.045525804665045036
217.0, 0.04828645614386845
218.0, 0.05449897323525682
219.0, 0.05928550384104525
220.0, 0.06251880539093947
221.0, 0.06154427375630344
222.0, 0.05646442979968691
223.0, 0.04975625334282567
224.0, 0.0460760296481093
225.0, 0.04703248655152502
226.0, 0.04468551762429921
227.0, 0.044508913144370915
228.0, 0.05624400852614829
229.0, 0.05581471889657901
230.0, 0.05667162990233798
231.0, 0.05703550411671328
232.0, 0.054296248148554715
233.0, 0.055971975269556544
234.0, 0.055174700667276255
235.0, 0.057454165161636386
236.0, 0.05745743582231437
237.0, 0.044442509973061865
238.0, 0.042036990089720803
239.0, 0.04551000583929377
240.0, 0.04679643383655526
241.0, 0.04454561727387771
242.0, 0.0502890587498824
243.0, 0.037509423929660224
244.0, 0.034720606452591694
245.0, 0.04606597842257866
246.0, 0.05206064945611529
247.0, 0.05062758328614227
248.0, 0.048330938934024126
249.0, 0.047209648661017636
250.0, 0.04675783955113974
251.0, 0.045431460642200085
252.0, 0.039869962317531836
253.0, 0.03183390124896962
254.0, 0.027131026292984608
255.0, 0.031099400777614188
256.0, 0.026040899906008788
257.0, 0.020386307588427775
258.0, 0.02197713764810552
259.0, 0.031145564113942207
260.0, 0.033162720730228794
261.0, 0.0431055070742813
262.0, 0.051189680538709495
263.0, 0.05258766169621564
264.0, 0.050720161674192375
265.0, 0.04952105995671066
266.0, 0.04998031172833822
267.0, 0.04487398577628138
268.0, 0.03581581289935418
269.0, 0.037518546190659106
270.0, 0.03170831059575441
271.0, 0.026278511099079003
272.0, 0.0207041060586386
273.0, 0.010349751943973006
274.0, 0.010815552822710664
275.0, 0.014580799170081888
276.0, 0.0198809080943499
277.0, 0.025773502726550327
278.0, 0.029008568413472772
279.0, 0.033442561274596015
280.0, 0.02946943725887674
281.0, 0.023722911768198594
282.0, 0.02758352872991378
283.0, 0.032653830896535826
284.0, 0.02990825429260675
285.0, 0.030660483818487128
286.0, 0.0349652325174875
287.0, 0.03152255873703729
288.0, 0.032658910354622754
289.0, 0.03178794432818734
290.0, 0.028709194489796353
291.0, 0.02835399026513852
292.0, 0.033914615812696614
293.0, 0.032197018334336115
294.0, 0.03538565075859232
295.0, 0.039881069571704855
296.0, 0.035609220057360266
297.0, 0.037587760023629235
298.0, 0.04013588992331518
299.0, 0.04763787760421601
300.0, 0.060819171704133874
301.0, 0.07265413395833314
302.0, 0.08088221347565004
303.0, 0.09090958640529938
304.0, 0.1000271927837948
305.0, 0.10353078753735381
306.0, 0.10345163246996568
307.0, 0.11214780223365393
308.0, 0.11683369005858894
309.0, 0.10823728838774505
310.0, 0.08935605173340254
311.0, 0.08114834852279318
312.0, 0.0703276073239905
313.0, 0.05694966874413672
314.0, 0.045123482894862475
315.0, 0.03743229190090376
316.0, 0.024417722397518604
317.0, 0.015013247643630693
318.0, 0.009977049144756878
319.0, 0.00517431015917808
320.0, 0.0025113894923661463
321.0, 0.0009273374640500543
322.0, 0.0003469052609131563
323.0, 0.0024473722804161627
324.0, 0.0030556993476975646
325.0, 0.011863418476773909
326.0, 0.003354954401626491
327.0, 0.0022055251580935507
328.0, 0.007918472857638081
329.0, 0.012665929354429003
330.0, 0.006737341966712367
331.0, 0.00552601737383209
332.0, 0.0036547203411712316
333.0, 0.002789880789724837
334.0, 0.0031616325425273826
335.0, 0.0040022078181561555
336.0, 0.0019554199008536763
337.0, 0.006326051345432967
338.0, 0.0021986087529146667
339.0, 0.0018577789273605664
340.0, 0.002120448525047397
341.0, 0.002580937762784313
342.0, 0.0014187293328434725
343.0, 0.0006878674100178036
344.0, 0.0015770304773673886
345.0, 0.0013426235657863315
346.0, 0.0031453690127115383
347.0, 0.001611265251141374
348.0, 0.012895963441750502
349.0, 0.014175321363492187
350.0, 0.01826213783474092
351.0, 0.021007992403909208
352.0, 0.019076486305370007
353.0, 0.023229902576323284
354.0, 0.02501165455913494
355.0, 0.026707156470690892
356.0, 0.0253667820381461
357.0, 0.01937044652212143
358.0, 0.016239546775743397
359.0, 0.02221503428550634
360.0, 0.022196851848151428
361.0, 0.018962934344826907
362.0, 0.023176649480862545
363.0, 0.03420608021886311
364.0, 0.03671023816437691
365.0, 0.03456241458405323
366.0, 0.03315342228192252
367.0, 0.0353133452142287
368.0, 0.03651991014859891
369.0, 0.038074053700406715
370.0, 0.03930793345946301
371.0, 0.03985141744818275
372.0, 0.04116486971179267
373.0, 0.04903378847426223
374.0, 0.050285541717449304
375.0, 0.05265414041462319
376.0, 0.057368535417371386
377.0, 0.05051405399582397
378.0, 0.04867827695228186
379.0, 0.04734084301118777
380.0, 0.04350710498034072
381.0, 0.037446382430700975
382.0, 0.031315098353268
383.0, 0.02711473179699495
384.0, 0.030293735525316747
385.0, 0.031911148206853306
386.0, 0.027595519254679457
387.0, 0.03136069653997267
388.0, 0.025891777597766043
389.0, 0.027071172905024355
390.0, 0.032983120365657086
391.0, 0.03271962348414667
392.0, 0.020237097696675563
393.0, 0.01520954283555044
394.0, 0.009269541083215878
395.0, 0.007157308551780712
396.0, 0.014523954077741525
397.0, 0.00929638253128615
398.0, 0.00913356207782224
399.0, 0.0047072065386573264
400.0, 0.001790153564911653
401.0, 0.008833015210979811
402.0, 0.007413903692114687
403.0, 0.0022542850187428666
404.0, 0.002982463895242177
405.0, 0.006764349777487532
406.0, 0.005352716060203941
407.0, 0.0025603767038879003
408.0, 0.012689449564131264
409.0, 0.018558928858536404
410.0, 0.01697114467840684
411.0, 0.0193128927740126
412.0, 0.0221512223757671
413.0, 0.026071895422842325
414.0, 0.03209087422889623
415.0, 0.03599838176386681
416.0, 0.035392525083717055
417.0, 0.040870972582707374
418.0, 0.03775395784015086
419.0, 0.035516203785943314
420.0, 0.034897882548127514
421.0, 0.029601803541772283
422.0, 0.02498011054550854
423.0, 0.02469357027003252
424.0, 0.02893988617520312
425.0, 0.028715831141312587
426.0, 0.01681068368476718
427.0, 0.013971450633353037
428.0, 0.011556682133352472
429.0, 0.012237354904324909
430.0, 0.013718638287948115
431.0, 0.011645682708446316
432.0, 0.014713626564021136
433.0, 0.013074261973223478
434.0, 0.01621675623484958
435.0, 0.017489556676949118
436.0, 0.008510180507913492
437.0, 0.014146128658220024
438.0, 0.015222032953974587
439.0, 0.011794656639273496
440.0, 0.010342536361740009
441.0, 0.013016667165167438
442.0, 0.013589849108105187
443.0, 0.021689016972583033
444.0, 0.023189466415358927
445.0, 0.017160633073078187
446.0, 0.012816185134489715
447.0, 0.02354728355854405
448.0, 0.016359163306104846
449.0, 0.018862850576737363
450.0, 0.023114422967287426
451.0, 0.01696330430243178
452.0, 0.022199177491920262
453.0, 0.017205651116492502
454.0, 0.018299414409373178
455.0, 0.024168051777054726
456.0, 0.023866466382388374
457.0, 0.01488833991920596
458.0, 0.00977558712345342
459.0, 0.010865738578181459
460.0, 0.013238852960720457
461.0, 0.011902132618293246
462.0, 0.005265281580753087
463.0, 0.004217675753753052
464.0, 0.006397666311537931
465.0, 0.009316959153071033
466.0, 0.01100723059270527
467.0, 0.010560986621156232
468.0, 0.0201184918039422
469.0, 0.02261950694494987
470.0, 0.023036935583719515
471.0, 0.022885150909520927
472.0, 0.017301997561507045
473.0, 0.018497074417465006
474.0, 0.024648308636699225
475.0, 0.020691490887230005
476.0, 0.009842506880046684
477.0, 0.006088606947135795
478.0, 0.004496741490903075
479.0, 0.0011768403115290716
480.0, 0.0015807406220574786
481.0, 0.00609908739460177
482.0, 0.009110425880547906
483.0, 0.012201394511890297
484.0, 0.013091311993061586
485.0, 0.016659771252960337
486.0, 0.019304480000456824
487.0, 0.018032365424834156
488.0, 0.015985835329308674
489.0, 0.007817211518453444
490.0, 0.002315616710735266
491.0, 0.000323857188432645
492.0, 0.0020844025756214593
493.0, 0.0025563783180225013
494.0, 0.004932820199623297
495.0, 0.0025846500301780267
496.0, 0.006772475924170423
497.0, 0.006496542931596741
498.0, 0.005081952221606419
499.0, 0.012579988441225222
500.0, 0.007175612155005605
501.0, 0.004421874770499916
502.0, 0.005094038741453694
503.0, 0.004486091201980376
504.0, 0.009311944522204624
505.0, 0.006429398149066427
506.0, 0.0022713365863439587
507.0, 0.0015448804708243162
508.0, 0.0032588307941205973
509.0, 4.528707161054737e-05
510.0, 0.005868783356552001
511.0, 0.00895700572944664
512.0, 0.01001668820557105
513.0, 0.010784761286950465
514.0, 0.009643566580581533
515.0, 0.007729056062511946
516.0, 0.008657630312939892
517.0, 0.014566250686196217
518.0, 0.01890815802688488
519.0, 0.018532519288926637
520.0, 0.02678793727079361
521.0, 0.025529824203247585
522.0, 0.023127664028788915
523.0, 0.023816899748600122
524.0, 0.026275867194266476
525.0, 0.027529446110349444
526.0, 0.025718382642881208
527.0, 0.03032212806778081
528.0, 0.03248431308854451
529.0, 0.0270253528002983
530.0, 0.019904048326441597
531.0, 0.022950778131982486
532.0, 0.021994170837689505
533.0, 0.020270373808457868
534.0, 0.01422066296495447
535.0, 0.005915929156333021
536.0, 0.011029909391972924
537.0, 0.011935675559888568
538.0, 0.002752701804995782
539.0, 0.0031000903050306377
540.0, 0.014675671417785186
541.0, 0.02118578310415045
542.0, 0.030296724765802
543.0, 0.026927446568139203
544.0, 0.029820452347623736
545.0, 0.03417428115839168
546.0, 0.030290548920718658
547.0, 0.03197417800680326
548.0, 0.029985663291452257
549.0, 0.035020517050499
550.0, 0.04010724579124664
551.0, 0.037751621592488425
552.0, 0.03054830808892599
553.0, 0.036900767683520075
554.0, 0.034339871844606774
555.0, 0.023852700927168142
556.0, 0.021382611435315488
557.0, 0.030068006289518338
558.0, 0.02616925809113774
559.0, 0.026104466606585344
560.0, 0.02537740966282428
561.0, 0.030587897029024536
562.0, 0.037132288628711305
563.0, 0.033178119298171306
564.0, 0.03724706070052224
565.0, 0.04318833660136495
566.0, 0.04842184229781979
567.0, 0.053774638241800586
568.0, 0.059742654700152505
569.0, 0.06348212080858
570.0, 0.06578553796957162
571.0, 0.06799063578692008
572.0, 0.0706368949247984
573.0, 0.07217476739242545
574.0, 0.06987741538703668
575.0, 0.06298070386292035
576.0, 0.07234008607897634
577.0, 0.07519821311554911
578.0, 0.07229245879222414
579.0, 0.07265690977234651
580.0, 0.07408891478330061
581.0, 0.07795173472306995
582.0, 0.09267229810652954
583.0, 0.09502420385647117
584.0, 0.08939490947508726
585.0, 0.09655336455007092
586.0, 0.10690972783164839
587.0, 0.11504313419782758
588.0, 0.1164444010362939
589.0, 0.11605135304651654
590.0, 0.11643335447101799
591.0, 0.11506941905577026
592.0, 0.11463087274607549
593.0, 0.11040659945885854
594.0, 0.11541687326560618
595.0, 0.12012504106669661
596.0, 0.11657262476211348
597.0, 0.11848825211006092
598.0, 0.11350415663352363
599.0, 0.1134238601740589
600.0, 0.11371187003144907
601.0, 0.1113534430991485
602.0, 0.11317220088092553
603.0, 0.131171685079266
604.0, 0.14907617810773063
605.0, 0.15067478097068854
606.0, 0.15383792232507704
607.0, 0.16312996669373128
608.0, 0.16342072928132764
609.0, 0.16685122298318472
610.0, 0.17503173519071297
611.0, 0.17946118902188635
612.0, 0.18196936781439754
613.0, 0.18569810827314742
614.0, 0.1864257667269857
615.0, 0.18059396292273838
616.0, 0.18141778633212388
617.0, 0.19155662093995746
618.0, 0.19665030126410896
619.0, 0.19479009565572397
620.0, 0.20869310552287243
621.0, 0.20194696872832504
622.0, 0.20862475384366858
623.0, 0.2176193758947871
624.0, 0.22061055771436466
625.0, 0.2199267164069807
626.0, 0.21566554721457007
627.0, 0.21841290114736586
628.0, 0.21748386254855553
629.0, 0.21204109860528997
630.0, 0.20861813343415994
631.0, 0.20819413444009552
632.0, 0.19967999102729694
633.0, 0.19314089505649407
634.0, 0.18953080475144599
635.0, 0.19147060794010695
636.0, 0.191285275628892
637.0, 0.17664151488304128
638.0, 0.16912768998266145
639.0, 0.16449019783089142
640.0, 0.15326929640499007
641.0, 0.13874186491860094
642.0, 0.13079373810493852
643.0, 0.1302969389346666
644.0, 0.12535500138992647
645.0, 0.11330203516165914
646.0, 0.11034130173818467
647.0, 0.11359721491917596
648.0, 0.11195154347185164
649.0, 0.10209871417391557
650.0, 0.10637620239231088
651.0, 0.10680901994546428
652.0, 0.10218501181134784
653.0, 0.09279745708268933
654.0, 0.08101193746723077
655.0, 0.07246307203888909
656.0, 0.07661885256926336
657.0, 0.06725886377452318
658.0, 0.05827574099896248
659.0, 0.055807117153918215
660.0, 0.053104826953879705
661.0, 0.04441488618765821
662.0, 0.04370290329767151
663.0, 0.031086495161641036
664.0, 0.028163265434599807
665.0, 0.02717521227003024
666.0, 0.020632301794980667
667.0, 0.026072044104836933
668.0, 0.0177453504477046
669.0, 0.020243478896605393
670.0, 0.023503365030069008
671.0, 0.020092825442043362
672.0, 0.01648886850572137
673.0, 0.01853016786525677
674.0, 0.008003360009435462
675.0, 0.00033084135411746
676.0, 0.0009962995523864005
677.0, 0.001950757053769865
678.0, 0.00596117504978739
679.0, 0.008490787356972998
680.0, 0.0069034823673381224
681.0, 0.004041987525423508
682.0, 0.0011464340394778765
683.0, 0.0036664708721417206
684.0, 0.004695107058882338
685.0, 0.003949056083921824
686.0, 0.0014532852573930302
687.0, 0.007683736810639221
688.0, 0.014732186600710467
689.0, 0.01149116284632432
690.0, 0.0057043894443615595
691.0, 0.013138655941994166
692.0, 0.008040727890352194
693.0, 0.009663989958807575
694.0, 0.010102068413142656
695.0, 0.013961341812612025
696.0, 0.017008012137495813
697.0, 0.009926082705672674
698.0, 0.008779795481634316
699.0, 0.0014595835809420212
700.0, 0.0019673055998334866
701.0, 0.0031817270350448885
702.0, 0.008327792514248353
703.0, 0.0010914824291222936
704.0, 0.0026707386350889924
705.0, 0.0006854848200883544
706.0, 0.006968532927482065
707.0, 0.003916144358213475
708.0, 0.0030310019766861436
709.0, 0.011872539125424035
710.0, 0.0060200723860615625
711.0, 0.0015439690217087486
712.0, 0.00946918394361071
713.0, 0.01046003798721536
714.0, 0.004646558234170699
715.0, 0.0005702068333157715
716.0, 0.000983145294889498
717.0, 0.002567311073314904
718.0, 0.0013230938023673655
719.0, 0.0021564903331619074
720.0, 0.0034264512625567763
721.0, 0.010129684294245715
722.0, 0.01197591036803464
723.0, 0.010768118329423345
724.0, 0.004056573175649959
725.0, 0.008778538486999362
726.0, 0.010609664300800141
727.0, 0.009027963720340641
728.0, 0.011997535631307512
729.0, 0.009279818964981855
730.0, 0.0074968084730166
731.0, 0.012402059244647615
732.0, 0.010719447500250327
733.0, 0.004288708260439986
734.0, 0.0027121377548993617
735.0, 0.007064218722599245
736.0, 0.004027642074012265
737.0, 0.0007377828858547422
738.0, 0.0018589320470317975
739.0, 0.0022350689911455526
740.0, 0.0007745247041806475
741.0, 0.004254820501876502
742.0, 0.016089802553690698
743.0, 0.0071929954927149225
744.0, 0.011152025876470375
745.0, 0.014073145945787726
746.0, 0.017372601604510596
747.0, 0.028985184343231874
748.0, 0.033967580516090314
749.0, 0.020725856947204423
750.0, 0.02783592677525157
751.0, 0.028345780954359735
752.0, 0.022698795974927355
753.0, 0.021731671309348957
754.0, 0.023818980607678262
755.0, 0.023435864110164024
756.0, 0.027265982396334126
757.0, 0.029169950563877764
758.0, 0.04509107109432882
759.0, 0.05158260329577133
760.0, 0.03452120897075415
761.0, 0.03647033815787662
762.0, 0.046474004839920244
763.0, 0.04188469329726261
764.0, 0.04865945297951649
765.0, 0.057670931888083275
766.0, 0.06256911959762411
767.0, 0.07016458738705977
768.0, 0.0721854740313841
769.0, 0.09257974630293095
770.0, 0.10736244199765926
771.0, 0.12028375766222728
772.0, 0.1294817392450526
773.0, 0.1325458173262114
774.0, 0.13782834870990848
775.0, 0.15095016047601542
776.0, 0.17034895465994793
777.0, 0.18099125959500387
778.0, 0.19887501929409898
779.0, 0.22035521553178478
780.0, 0.23539008578170312
781.0, 0.2604188714493726
782.0, 0.291230382302353
783.0, 0.3169878154825643
784.0, 0.3456754491999442
785.0, 0.3743380876319423
786.0, 0.4030985992139132
787.0, 0.4375770105808249
788.0, 0.47364920871743554
789.0, 0.5023838005126063
790.0, 0.5373780809231822
791.0, 0.5738617455816755
792.0, 0.6147481346382446
793.0, 0.6538486695660249
794.0, 0.6835266720718729
795.0, 0.7357265731995015
796.0, 0.769746047270121
797.0, 0.7979555448431092
798.0, 0.8401865378965236
799.0, 0.8773880097166844
800.0, 0.8972132540663946
801.0, 0.9274082838524287
802.0, 0.9508228352984526
803.0, 0.966491738064051
804.0, 0.9905363944374527
805.0, 0.9926526386571811
806.0, 0.9822618617044128
807.0, 0.9776473553162786
808.0, 0.9480298015617009
809.0, 0.911940404664337
810.0, 0.8688976881641499
811.0, 0.8160608451720347
812.0, 0.7510036426801352
813.0, 0.6870527926124628
814.0, 0.6386378637498538
815.0, 0.5927381978320114
816.0, 0.5388129128746469
817.0, 0.48813135243159317
818.0, 0.4493180129453415
819.0, 0.407216037126754
820.0, 0.36725799358889466
821.0, 0.3439288298663081
822.0, 0.3205089407071453
823.0, 0.2970017983382426
824.0, 0.2737352821085361
825.0, 0.2588234829638729
826.0, 0.2519238449225347
827.0, 0.24684612450214113
828.0, 0.23901057418445493
829.0, 0.2304285416469307
830.0, 0.21659180320750565
831.0, 0.20791935815774454
832.0, 0.20082155364776197
833.0, 0.18602231744468747
834.0, 0.17214522963533643
835.0, 0.1685016489028032
836.0, 0.16042880967718526
837.0, 0.16212385968857318
838.0, 0.15391815075679566
839.0, 0.14658221215181183
840.0, 0.13610194573328807
841.0, 0.12562176404638875
842.0, 0.1208665180597159
843.0, 0.1087012946453905
844.0, 0.10726929377443713
845.0, 0.09893709507548021
846.0, 0.09429506556015252
847.0, 0.09006580515082949
848.0, 0.07878772352892596
849.0, 0.06438764641016113
850.0, 0.05761966232514458
851.0, 0.05316532082581416
852.0, 0.042620676548121066
853.0, 0.035958769701561734
854.0, 0.03197839944255222
855.0, 0.02933335222021259
856.0, 0.028211591891142498
857.0, 0.027679389735081425
858.0, 0.03274062895965811
859.0, 0.029845643521744125
860.0, 0.025473443406474568
861.0, 0.024538192164886632
862.0, 0.021063310877837978
863.0, 0.01732890387413427
864.0, 0.022539599075313284
865.0, 0.01919013760176281
866.0, 0.006136706077450619
867.0, 0.0041835309492779344
868.0, 0.0057005540446739165
869.0, 0.003621729040608891
870.0, 0.004142647122166651
871.0, 0.012467277836119704
872.0, 0.007345466803212171
873.0, 0.0013973022318232388
874.0, 0.005242872660043007
875.0, 0.006898946737345934
876.0, 0.002677840604846991
877.0, 0.00532563963432036
878.0, 0.0032618209590342417
879.0, 0.0030690861018554394
880.0, 0.0034938780331826166
881.0, 0.00039067826708006644
882.0, 0.0017983290584516287
883.0, 0.004474479168998735
884.0, 0.006802720030195985
885.0, 0.003509915267357877
886.0, 0.009218023592828252
887.0, 0.01218180559101818
888.0, 0.009585823067643894
889.0, 0.002912008476019559
890.0, 0.013235918964496373
891.0, 0.015986387586895807
892.0, 0.01060803255219644
893.0, 0.013933183112424925
894.0, 0.01486702754007136
895.0, 0.01953438141205073
896.0, 0.023876858276629505
897.0, 0.026314685029458967
898.0, 0.023249744361279724
899.0, 0.018531715911763804
900.0, 0.014500648649435384
901.0, 0.008004650021708394
902.0, 0.0019603160568222094
903.0, 0.010199917397065718
904.0, 0.012516941753725534
905.0, 0.006108937705394905
906.0, 0.00851202793233142
907.0, 0.01870640501276532
908.0, 0.022527036816064012
909.0, 0.020215363225715887
910.0, 0.023575618221941447
911.0, 0.028524149783317108
912.0, 0.028016965852217905
913.0, 0.030905261669407092
914.0, 0.03376676941011155
915.0, 0.04505649095569088
916.0, 0.06252333475541212
917.0, 0.049121875872769935
918.0, 0.05605809312378711
919.0, 0.06478278633694352
920.0, 0.07438779951433548
921.0, 0.08229145455640531
922.0, 0.08651762924322315
923.0, 0.09554303669641248
924.0, 0.1152889969422244
925.0, 0.12511996442326895
926.0, 0.13189969250953035
927.0, 0.1393253270153032
928.0, 0.14966991997010604
929.0, 0.1638722470570186
930.0, 0.17967091517045278
931.0, 0.19069177195420056
932.0, 0.19449195343674547
933.0, 0.20864074337820812
934.0, 0.21386919989609446
935.0, 0.22619090857853133
936.0, 0.2310162080709962
937.0, 0.2358879458378536
938.0, 0.23145355250861535
939.0, 0.21898829299635364
940.0, 0.2182890065720716
941.0, 0.19453176866992763
942.0, 0.19336806387605207
943.0, 0.17111907229831633
944.0, 0.14811686956394307
945.0, 0.12744530235739837
946.0, 0.10802714732314525
947.0, 0.09059132930684731
948.0, 0.0722327435207283
949.0, 0.06339079960743314
950.0, 0.05742827192326661
951.0, 0.043125167679219714
952.0, 0.041129894810330254
953.0, 0.03884138052176023
954.0, 0.02924170396615621
955.0, 0.021760333111747944
956.0, 0.02062613008844101
957.0, 0.024645146838345226
958.0, 0.009517334568642826
959.0, 0.011123986632590477
960.0, 0.015349797176502453
961.0, 0.013615384203214065
962.0, 0.0068074462106148415
963.0, 0.0038930654943332885
964.0, 0.011512411792236624
965.0, 0.014325983676203547
966.0, 0.0037585799357040556
967.0, 0.0010731751927358613
968.0, 0.0019314748812617757
969.0, 0.002515334985379376
970.0, 0.0034782060468412307
971.0, 0.003626994474672331
972.0, 0.0008934618851488083
973.0, 0.009547728231215679
974.0, 0.005411906205946881
975.0, 0.00421735385206907
976.0, 0.005060420419051402
977.0, 0.010001413728525518
978.0, 0.006886832850091494
979.0, 0.00441703308155762
980.0, 0.004487397077098078
981.0, 0.0024187008259897546
982.0, 0.004921497916531214
983.0, 0.005724390790719978
984.0, 0.004373395067165809
985.0, 0.005173940731131542
986.0, 0.0020309635922141096
987.0, 0.0027486509056339186
988.0, 0.015290848235720576
989.0, 0.004540445447254062
990.0, 0.004104440570199104
991.0, 0.002008082165188851
992.0, 0.01371709758360749
993.0, 0.00764953619200778
994.0, 0.0012229747598353927
995.0, 0.008757982506955184
996.0, 0.011891138312422275
997.0, 0.005888187803931618
998.0, 0.011608102382524497
999.0, 0.01527894147537343
1000.0, 0.032192691653943485
1001.0, 0.029004327956684364
1002.0, 0.029704925282823418
1003.0, 0.036090722272759425
1004.0, 0.042652337671680786
1005.0, 0.048064280771389536
1006.0, 0.050926314871604664
1007.0, 0.057973969813300004
1008.0, 0.061946363236698665
1009.0, 0.06486699369307516
1010.0, 0.07320857464241057
1011.0, 0.08116419888777247
1012.0, 0.09062174133533682
1013.0, 0.09864158117807645
1014.0, 0.10268037927872443
1015.0, 0.10978858796042627
1016.0, 0.10825128770111109
1017.0, 0.10998108896164087
1018.0, 0.10711161401232988
1019.0, 0.10512072198275843
1020.0, 0.09628182424288631
1021.0, 0.08978988025074225
1022.0, 0.08706105633601334
1023.0, 0.079746187570323
1024.0, 0.07675641197042242
1025.0, 0.07133814315240633
1026.0, 0.0712650053822582
1027.0, 0.06498338229372841
1028.0, 0.054686242602601486
1029.0, 0.04614567591639905
1030.0, 0.04093688703885087
1031.0, 0.03843849932550644
1032.0, 0.03514181386790372
1033.0, 0.025069957761147905
1034.0, 0.022125984008320602
1035.0, 0.02125580381183361
1036.0, 0.030284291501444686
1037.0, 0.028205475842297736
1038.0, 0.025582857496954475
1039.0, 0.025250164949446423
1040.0, 0.024367910623875624
1041.0, 0.02562185118860443
1042.0, 0.025254546010880945
1043.0, 0.023410124618342444
1044.0, 0.014648916265957948
1045.0, 0.01668577159483678
1046.0, 0.009540864950171628
1047.0, 0.0032100723687857008
1048.0, 0.0031718044696428995
1049.0, 0.006234376246258907
1050.0, 0.010961693279215784
1051.0, 0.010166914896890488
1052.0, 0.011950861220539922
1053.0, 0.01312975082481039
1054.0, 0.009946289395807944
1055.0, 0.016937807728089893
1056.0, 0.019063701274423254
1057.0, 0.023328962799203472
1058.0, 0.026654164072781057
1059.0, 0.01771160950417365
1060.0, 0.013972542280835505
1061.0, 0.0178316966972554
1062.0, 0.007897577442904993
1063.0, 0.009900269187059451
1064.0, 0.0028538399315003
1065.0, 0.0005259561318545069
1066.0, 0.0019479160713216294
1067.0, 0.0003609306197129155
1068.0, 0.001393679143996802
1069.0, 0.01154933051304642
1070.0, 0.009796349305897364
1071.0, 0.012761093073695726
1072.0, 0.00982526833675128
1073.0, 0.014035482640051163
1074.0, 0.013721270166313209
1075.0, 0.008913211791732252
1076.0, 0.0073909990689770555
1077.0, 0.007315065000386738
1078.0, 0.0047131029769707814
1079.0, 0.004759723311377098
1080.0, 0.010494162391360952
1081.0, 0.0005526545481858817
1082.0, 0.004641474752478812
1083.0, 0.0050813876241358495
1084.0, 0.006312994873771059
1085.0, 0.011470195194555445
1086.0, 0.011989988157668408
1087.0, 0.01782589488084801
1088.0, 0.018371628628549987
1089.0, 0.011781274683436083
1090.0, 0.004628984225555989
1091.0, 0.016052904090166107
1092.0, 0.014933433333485785
1093.0, 0.015849372985201535
1094.0, 0.02441196818561399
1095.0, 0.02921551072050994
1096.0, 0.02977000836123926
1097.0, 0.034221285356340635
1098.0, 0.03537958323958117
1099.0, 0.025190482762065855
1100.0, 0.0371236231803241
1101.0, 0.03208272336148198
1102.0, 0.0317393006083702
1103.0, 0.03184061921885978
1104.0, 0.0294722387159217
1105.0, 0.035835446080534815
1106.0, 0.04527543046543954
1107.0, 0.043903460977957574
1108.0, 0.03801805774157665
1109.0, 0.0419859713572054
1110.0, 0.035137925324077716
1111.0, 0.03116734457409174
1112.0, 0.025195008056921344
1113.0, 0.01832426385810129
1114.0, 0.022967558089670714
1115.0, 0.028932337320108265
1116.0, 0.027842146026407485
1117.0, 0.027215297244011536
1118.0, 0.026985595324998127
1119.0, 0.01710608183071854
1120.0, 0.015029280269596382
1121.0, 0.007525781224038502
1122.0, 0.010659052640911324
1123.0, 0.008989244641736479
1124.0, 0.014994580694719286
1125.0, 0.012181634384208589
1126.0, 0.007394105938252766
1127.0, 0.01736883315212157
1128.0, 0.025987637191150947
1129.0, 0.02157098711397132
1130.0, 0.021972520061900182
1131.0, 0.027250584499962198
1132.0, 0.02357026972856697
1133.0, 0.02641340161822621
1134.0, 0.021433622907099967
1135.0, 0.021539194070125757
1136.0, 0.01873626193616859
1137.0, 0.015901154519110543
1138.0, 0.015357753380322595
1139.0, 0.003469622424191163
1140.0, 0.009004548818052401
1141.0, 0.010045162279668174
1142.0, 0.013557364458142337
1143.0, 0.014178893098608876
1144.0, 0.00547969612940891
1145.0, 0.003969590029143926
1146.0, 0.00401845422945834
1147.0, 0.006736426850556464
1148.0, 0.0017325239294901543
1149.0, 0.0030732857266489305
1150.0, 0.00060118297969311
1151.0, 0.002068160889507944
1152.0, 0.005950084293445863
1153.0, 0.0052298958456074044
1154.0, 0.0117429872619758
1155.0, 0.015040894876192699
1156.0, 0.019489214143606444
1157.0, 0.01942180347938843
1158.0, 0.013268153241044842
1159.0, 0.010647397389639417
1160.0, 0.012989661769523637
1161.0, 0.013649477728001054
1162.0, 0.022045560864153397
1163.0, 0.01634853576352625
1164.0, 0.018217648577521842
1165.0, 0.009523510317787916
1166.0, 0.018158395021339736
1167.0, 0.018548884250230713
1168.0, 0.008139766001388441
1169.0, 0.005775820725602855
1170.0, 0.013551956601418908
1171.0, 0.017553088330314912
1172.0, 0.011056602203822175
1173.0, 0.01061317889776098
1174.0, 0.015896310699204084
1175.0, 0.021333974107663675
1176.0, 0.013348997694391872
1177.0, 0.017098285841243937
1178.0, 0.021299817293221765
1179.0, 0.022169665998822644
1180.0, 0.022505926013105592
1181.0, 0.023927054142603432
1182.0, 0.023200503950286597
1183.0, 0.017180111737682177
1184.0, 0.01858108475234239
1185.0, 0.026388064859107625
1186.0, 0.014925170291819521
1187.0, 0.021868211320629275
1188.0, 0.014683792052050835
1189.0, 0.01493780703756159
1190.0, 0.012961381765831259
1191.0, 0.007884061559807996
1192.0, 0.0033902901860799937
1193.0, 0.0022581686284327725
1194.0, 0.0053079760219868115
1195.0, 0.002868371384323636
1196.0, 0.0025960009617247925
1197.0, 0.0010597603341240464
1198.0, 0.004691956431091826
1199.0, 0.005122659094619039
1200.0, 0.0017195110047930101
1201.0, 0.0002758518078380182
1202.0, 0.005029342287298691
1203.0, 0.004861295689008596
1204.0, 0.0021308604474175935
1205.0, 0.0033496064196607495
1206.0, 0.0027482409777596457
1207.0, 0.0047210825352763585
1208.0, 0.0057043919915875894
1209.0, 0.007827791617006244
1210.0, 0.012659444512587707
1211.0, 0.007000423148305471
1212.0, 0.016949044095530247
1213.0, 0.014926372666126172
1214.0, 0.006539405339673493
1215.0, 0.011034436074163007
1216.0, 0.014170505824010063
1217.0, 0.009063418026099215
1218.0, 0.009565876586376578
1219.0, 0.005718236103420655
1220.0, 0.0032873569141648787
1221.0, 0.0012791872104174766
1222.0, 0.0047987381759601825
1223.0, 0.001991662338916693
1224.0, 0.0039095177042668015
1225.0, 0.009125334716539674
1226.0, 0.007200786543421481
1227.0, 0.009925041547437232
1228.0, 0.01520360035953523
1229.0, 0.0131313451397604
1230.0, 0.008374821695341298
1231.0, 0.01134487681722331
1232.0, 0.01298989223494408
1233.0, 0.012715925793905127
1234.0, 0.01784029365915344
1235.0, 0.01714663415814067
1236.0, 0.01753772611459554
1237.0, 0.023384686385471688
1238.0, 0.019076099026658196
1239.0, 0.020323360410663967
1240.0, 0.018825120022769575
1241.0, 0.013713810397213514
1242.0, 0.016010155501858397
1243.0, 0.01583581561832927
1244.0, 0.00835663626097778
1245.0, 0.019302447288736136
1246.0, 0.024449605735736048
1247.0, 0.024123359162357534
1248.0, 0.028110410454086014
1249.0, 0.027829209525332372
1250.0, 0.02042250987601746
1251.0, 0.019578680463510533
1252.0, 0.019025708894679045
1253.0, 0.015185850453091945
1254.0, 0.007861924384880715
1255.0, 0.007323091794881881
1256.0, 0.01913559348529791
1257.0, 0.025526999081483502
1258.0, 0.024993408677480414
1259.0, 0.014599389787338251
1260.0, 0.013238823579433324
1261.0, 0.014228247641979531
1262.0, 0.007789951677781181
1263.0, 0.0026992106461644154
1264.0, 0.0035074774258550536
1265.0, 0.003370329873719546
1266.0, 0.005512417045811058
1267.0, 0.0011387816324276005
1268.0, 0.004447946882415996
1269.0, 0.015454837300780884
1270.0, 0.022692141038354516
1271.0, 0.026068830354197405
1272.0, 0.028022859893795105
1273.0, 0.026251581581879496
1274.0, 0.032187989160700245
1275.0, 0.031039309538474055
1276.0, 0.021389458100162705
1277.0, 0.023390255463682598
1278.0, 0.016693243042382754
1279.0, 0.008953688715150067
1280.0, 0.004825156062734293
1281.0, 0.001126579624079685
1282.0, 0.0014745984496381335
1283, 0.0
1284, 0.0
1285, 0.0
1286, 0.0
1287, 0.0
1288, 0.0
1289, 0.0
1290, 0.0
1291, 0.0
1292, 0.0
1293, 0.0
1294, 0.0
1295, 0.0
1296, 0.0
1297, 0.0
1298, 0.0
1299, 0.0
1300, 0.0
1301, 0.0
1302, 0.0
1303, 0.0
1304, 0.0
1305, 0.0
1306, 0.0
1307, 0.0
1308, 0.0
1309, 0.0
1310, 0.0
1311, 0.0
1312, 0.0
1313, 0.0
1314, 0.0
1315, 0.0
1316, 0.0
1317, 0.0
1318, 0.0
1319, 0.0
1320, 0.0
1321, 0.0
1322, 0.0
1323, 0.0
1324, 0.0
1325, 0.0
1326, 0.0
1327, 0.0
1328, 0.0
1329, 0.0
1330, 0.0
1331, 0.0
1332, 0.0
1333, 0.0
1334, 0.0
1335, 0.0
1336, 0.0
1337, 0.0
1338, 0.0
1339, 0.0
1340, 0.0
1341, 0.0
1342, 0.0
1343, 0.0
1344, 0.0
1345, 0.0
1346, 0.0
1347, 0.0
1348, 0.0
1349, 0.0
1350, 0.0
1351, 0.0
1352, 0.0
1353, 0.0
1354, 0.0
1355, 0.0
1356, 0.0
1357, 0.0
1358, 0.0
1359, 0.0
1360, 0.0
1361, 0.0
1362, 0.0
1363, 0.0
1364, 0.0
1365, 0.0
1366, 0.0
1367, 0.0
1368, 0.0
1369, 0.0
1370, 0.0
1371, 0.0
1372, 0.0
1373, 0.0
1374, 0.0
1375, 0.0
1376, 0.0
1377, 0.0
1378, 0.0
1379, 0.0
1380, 0.0
1381, 0.0
1382, 0.0
1383, 0.0
1384, 0.0
1385, 0.0
1386, 0.0
1387, 0.0
1388, 0.0
1389, 0.0
1390, 0.0
1391, 0.0
1392, 0.0
1393, 0.0
1394, 0.0
1395, 0.0
1396, 0.0
1397, 0.0
1398, 0.0
1399, 0.0
1400, 0.0
1401, 0.0
1402, 0.0
1403, 0.0
1404, 0.0
1405, 0.0
1406, 0.0
1407, 0.0
1408, 0.0
1409, 0.0
1410, 0.0
1411, 0.0
1412, 0.0
1413, 0.0
1414, 0.0
1415, 0.0
1416, 0.0
1417, 0.0
1418, 0.0
1419, 0.0
1420, 0.0
1421, 0.0
1422, 0.0
1423, 0.0
1424, 0.0
1425, 0.0
1426, 0.0
1427, 0.0
1428, 0.0
1429, 0.0
1430, 0.0
1431, 0.0
1432, 0.0
1433, 0.0
1434, 0.0
1435, 0.0
1436, 0.0
1437, 0.0
1438, 0.0
1439, 0.0
1440, 0.0
1441, 0.0
1442, 0.0
1443, 0.0
1444, 0.0
1445, 0.0
1446, 0.0
1447, 0.0
1448, 0.0
1449, 0.0
1450, 0.0
1451, 0.0
1452, 0.0
1453, 0.0
1454, 0.0
1455, 0.0
1456, 0.0
1457, 0.0
1458, 0.0
1459, 0.0
1460, 0.0
1461, 0.0
1462, 0.0
1463, 0.0
1464, 0.0
1465, 0.0
1466, 0.0
1467, 0.0
1468, 0.0
1469, 0.0
1470, 0.0
1471, 0.0
1472, 0.0
1473, 0.0
1474, 0.0
1475, 0.0
1476, 0.0
1477, 0.0
1478, 0.0
1479, 0.0
1480, 0.0
1481, 0.0
1482, 0.0
1483, 0.0
1484, 0.0
1485, 0.0
1486, 0.0
1487, 0.0
1488, 0.0
1489, 0.0
1490, 0.0
1491, 0.0
1492, 0.0
1493, 0.0
1494, 0.0
1495, 0.0
1496, 0.0
1497, 0.0
1498, 0.0
1499, 0.0
1500, 0.0
1501, 0.0
1502, 0.0
1503, 0.0
1504, 0.0
1505, 0.0
1506, 0.0
1507, 0.0
1508, 0.0
1509, 0.0
1510, 0.0
1511, 0.0
1512, 0.0
1513, 0.0
1514, 0.0
1515, 0.0
1516, 0.0
1517, 0.0
1518, 0.0
1519, 0.0
1520, 0.0
1521, 0.0
1522, 0.0
1523, 0.0
1524, 0.0
1525, 0.0
1526, 0.0
1527, 0.0
1528, 0.0
1529, 0.0
1530, 0.0
1531, 0.0
1532, 0.0
1533, 0.0
1534, 0.0
1535, 0.0
1536, 0.0
1537, 0.0
1538, 0.0
1539, 0.0
1540, 0.0
1541, 0.0
1542, 0.0
1543, 0.0
1544, 0.0
1545, 0.0
1546, 0.0
1547, 0.0
1548, 0.0
1549, 0.0
1550, 0.0
1551, 0.0
1552, 0.0
1553, 0.0
1554, 0.0
1555, 0.0
1556, 0.0
1557, 0.0
1558, 0.0
1559, 0.0
1560, 0.0
1561, 0.0
1562, 0.0
1563, 0.0
1564, 0.0
1565, 0.0
1566, 0.0
1567, 0.0
1568, 0.0
1569, 0.0
1570, 0.0
1571, 0.0
1572, 0.0
1573, 0.0
1574, 0.0
1575, 0.0
1576, 0.0
1577, 0.0
1578, 0.0
1579, 0.0
1580, 0.0
1581, 0.0
1582, 0.0
1583, 0.0
1584, 0.0
1585, 0.0
1586, 0.0
1587, 0.0
1588, 0.0
1589, 0.0
1590, 0.0
1591, 0.0
1592, 0.0
1593, 0.0
1594, 0.0
1595, 0.0
1596, 0.0
1597, 0.0
1598, 0.0
1599, 0.0
