30, 0.0
31, 0.0
32, 0.0
33, 0.0
34, 0.0
35, 0.0
36, 0.0
37, 0.0
38, 0.0
39, 0.0
40, 0.0
41, 0.0
42, 0.0
43, 0.0
44, 0.0
45, 0.0
46, 0.0
47, 0.0
48, 0.0
49, 0.0
50, 0.0
51, 0.0
52, 0.0
53, 0.0
54, 0.0
55, 0.0
56, 0.0
57, 0.0
58, 0.0
59, 0.0
60, 0.0
61, 0.0
62, 0.0
63, 0.0
64, 0.0
65, 0.0
66, 0.0
67, 0.0
68, 0.0
69, 0.0
70, 0.0
71, 0.0
72, 0.0
73, 0.0
74, 0.0
75, 0.0
76, 0.0
77, 0.0
78, 0.0
79, 0.0
80, 0.0
81, 0.0
82, 0.0
83, 0.0
84, 0.0
85, 0.0
86, 0.0
87, 0.0
88, 0.0
89, 0.0
90, 0.0
91, 0.0
92, 0.0
93, 0.0
94, 0.0
95, 0.0
96, 0.0
97, 0.0
98, 0.0
99, 0.0
100, 0.0
101, 0.0
102, 0.0
103, 0.0
104, 0.0
105, 0.0
106, 0.0
107, 0.0
108, 0.0
109, 0.0
110, 0.0
111, 0.0
112, 0.0
113, 0.0
114, 0.0
115, 0.0
116, 0.0
117, 0.0
118, 0.0
119, 0.0
120, 0.0
121, 0.0
122, 0.0
123, 0.0
124, 0.0
125, 0.0
126, 0.0
127, 0.0
128, 0.0
129.0, 0.0018296239867216803
130.0, 0.01299038741127275
131.0, 0.03158993856373966
132.0, 0.0508797254941595
133.0, 0.05970810270811498
134.0, 0.054297761445028125
135.0, 0.043120721639737444
136.0, 0.02611127921899862
137.0, 0.012820685679455868
138.0, 0.002536798635228533
139.0, 0.002022353285114174
140.0, 0.0035990575258964944
141.0, 0.0027163007672745317
142.0, 0.012802700621352433
143.0, 0.02867964524509469
144.0, 0.046613213227910795
145.0, 0.06614371090232274
146.0, 0.0869505209641311
147.0, 0.10918081047862582
148.0, 0.1226656684429221
149.0, 0.12879152553474615
150.0, 0.12969903604953048
151.0, 0.12402944418147802
152.0, 0.11433209907793103
153.0, 0.10261833234403868
154.0, 0.09172683955082846
155.0, 0.08350034156567647
156.0, 0.07632334632912033
157.0, 0.0688042639192587
158.0, 0.06452142898822416
159.0, 0.06455440570287999
160.0, 0.0640912509644666
161.0, 0.07006069321472551
162.0, 0.0757936485051805
163.0, 0.07944392115886198
164.0, 0.08445268989273423
165.0, 0.08870235800472105
166.0, 0.0923399494645595
167.0, 0.09688228893255593
168.0, 0.10251489320556362
169.0, 0.1040878504563641
170.0, 0.10872918519299254
171.0, 0.11249852220533003
172.0, 0.11291164000818278
173.0, 0.1126256608698036
174.0, 0.11216714157754422
175.0, 0.11659038437545405
176.0, 0.12060558200921521
177.0, 0.12219578771623313
178.0, 0.1332207879709307
179.0, 0.13876932914818943
180.0, 0.14364837682772233
181.0, 0.15280128242595273
182.0, 0.16554330917063764
183.0, 0.17258560382859825
184.0, 0.18263116740632962
185.0, 0.195192222700969
186.0, 0.20702899642523323
187.0, 0.21988182131789746
188.0, 0.22615244218484568
189.0, 0.23141189339183374
190.0, 0.23435722832179873
191.0, 0.225493738924081
192.0, 0.22350518257107352
193.0, 0.21510402809293103
194.0, 0.20575046199038893
195.0, 0.20167359360906353
196.0, 0.18748102108181944
197.0, 0.17265665639778802
198.0, 0.15950476974994135
199.0, 0.1474002181160048
200.0, 0.13516454539701528
201.0, 0.12082134965930043
202.0, 0.11092355283609627
203.0, 0.10123958887926619
204.0, 0.08940943528008725
205.0, 0.08176694391304332
206.0, 0.07315183162058923
207.0, 0.06353428928395728
208.0, 0.055344683428724624
209.0, 0.04992816417581395
210.0, 0.04199402378430444
211.0, 0.03358531353608445
212.0, 0.028004073713302505
213.0, 0.025496840676227445
214.0, 0.02296432099448348
215.0, 0.023125438501350952
216.0, 0.019830666396706168
217.0, 0.015115002844674525
218.0, 0.01433641367463543
219.0, 0.01667856683426355
220.0, 0.014814881428870297
221.0, 0.012414711127498689
222.0, 0.013298226846874678
223.0, 0.016582718350144306
224.0, 0.016622900341629124
225.0, 0.016040992339786495
226.0, 0.015812881316647976
227.0, 0.015023249889874496
228.0, 0.013058099245693759
229.0, 0.01416539612760029
230.0, 0.012742843282232847
231.0, 0.011235171257128914
232.0, 0.012874435376806407
233.0, 0.008872321870573912
234.0, 0.011937458182147408
235.0, 0.01590657526193987
236.0, 0.01717763864717371
237.0, 0.01793088282906106
238.0, 0.01368045529409488
239.0, 0.007563906519792902
240.0, 0.005883303692246505
241.0, 0.009564958523203257
242.0, 0.009986891949707286
243.0, 0.005758437620658172
244.0, 0.003861734802684522
245.0, 0.003942843272004724
246.0, 0.001538145501215499
247.0, 0.0004738951422032725
248.0, 0.00039005084306609726
249.0, 0.0005050917394912268
250.0, 0.002036169373504959
251.0, 0.0055227587599015774
252.0, 0.008501171351341163
253.0, 0.007834704211147327
254.0, 0.010529349966696569
255.0, 0.015245451005117792
256.0, 0.013058365022664982
257.0, 0.02784232871710944
258.0, 0.03031425220463991
259.0, 0.02660960294324865
260.0, 0.02846717382737569
261.0, 0.029183394271442835
262.0, 0.029725262210345074
263.0, 0.02968395256806269
264.0, 0.029898176109997236
265.0, 0.029946370301237327
266.0, 0.024421319691542074
267.0, 0.02223674422686653
268.0, 0.01874853665636008
269.0, 0.013903813193803715
270.0, 0.012904024372951168
271.0, 0.010515594720244856
272.0, 0.005958693916094826
273.0, 0.0013408635155639362
274.0, 0.0009522550349267918
275.0, 0.004121044500515779
276.0, 0.002768380910763626
277.0, 0.0026515135296819306
278.0, 0.0035571159193645537
279.0, 0.0018988443946173978
280.0, 0.0024951217108396054
281.0, 0.0027903233003344612
282.0, 0.004508305470910637
283.0, 0.006846097399652754
284.0, 0.007542227810160762
285.0, 0.004080009309742968
286.0, 0.004650818950805561
287.0, 0.006695069177930876
288.0, 0.00832477005318925
289.0, 0.009954859829719763
290.0, 0.01179537218960173
291.0, 0.017078476628836586
292.0, 0.01897764088347385
293.0, 0.018542498320521635
294.0, 0.02268628856598237
295.0, 0.02945481553585359
296.0, 0.0341608783187934
297.0, 0.03836081308799868
298.0, 0.044705756756321546
299.0, 0.05312010879163119
300.0, 0.05832626167463959
301.0, 0.0654273741403721
302.0, 0.07162344069779827
303.0, 0.07427978153047328
304.0, 0.07435526293088834
305.0, 0.07844072707089524
306.0, 0.0791391655873282
307.0, 0.07734747674836472
308.0, 0.07345606550830602
309.0, 0.0653682939027286
310.0, 0.061123651956015074
311.0, 0.054853484914877425
312.0, 0.04557514313877593
313.0, 0.03644882461837816
314.0, 0.033606334349561014
315.0, 0.024644443078833053
316.0, 0.017568836697085487
317.0, 0.013071946930642031
318.0, 0.008518025964741174
319.0, 0.003518747829834108
320.0, 0.0010623529612339261
321.0, 0.0018783822923089017
322.0, 0.0027452001150170082
323.0, 0.0007597294437428518
324.0, 6.0412366982699224e-05
325.0, 0.000669260681077601
326.0, 0.0010717642366623568
327.0, 0.000787970930993363
328.0, 0.0004126241572854123
329.0, 0.0008295405750258125
330.0, 0.0028807810951341326
331.0, 0.0019345913239447606
332.0, 0.002502910264404862
333.0, 0.0016954902957121239
334.0, 0.003072183658721433
335.0, 0.0016658695259043968
336.0, 0.0012290437346553103
337.0, 0.0027589286883400762
338.0, 0.0029618740790432353
339.0, 0.0031350199026415992
340.0, 0.0029466702127676518
341.0, 0.0011325219597153177
342.0, 0.0035756004260120086
343.0, 0.0015597270956057892
344.0, 0.001895215978762465
345.0, 0.0006986820279240997
346.0, 0.002492499547041886
347.0, 0.005296058165466824
348.0, 0.007617508799848334
349.0, 0.0090182874463049
350.0, 0.01135800052270282
351.0, 0.011314547534346743
352.0, 0.012265102219756284
353.0, 0.014762739188471014
354.0, 0.016636475036840445
355.0, 0.018357665802561766
356.0, 0.01667150937544953
357.0, 0.01721346208875999
358.0, 0.019212729954174917
359.0, 0.019534285172875008
360.0, 0.022371530259035627
361.0, 0.026401188832473152
362.0, 0.029256363085838615
363.0, 0.03350033466405922
364.0, 0.0410329518118734
365.0, 0.04221751416866757
366.0, 0.046896926379071106
367.0, 0.052107592229762606
368.0, 0.05662626769019565
369.0, 0.061180208346594864
370.0, 0.06654128834084057
371.0, 0.07043965379803568
372.0, 0.07131285376054955
373.0, 0.07184120900035225
374.0, 0.0732669877299423
375.0, 0.07298137199397478
376.0, 0.07129779012729863
377.0, 0.07228564958538089
378.0, 0.06816925396105282
379.0, 0.057283595351033424
380.0, 0.05040895702237763
381.0, 0.04514413312304497
382.0, 0.0388755911477945
383.0, 0.034163531652966976
384.0, 0.030713892039143067
385.0, 0.02518903444622261
386.0, 0.020861090194407014
387.0, 0.016527904814865976
388.0, 0.013652614608970257
389.0, 0.011437270386181336
390.0, 0.008810246420299034
391.0, 0.007643819908345146
392.0, 0.0065920492738706865
393.0, 0.003735435785913025
394.0, 0.002773165373474873
395.0, 0.004457037210693968
396.0, 0.0025958524051938074
397.0, 0.002823030667877387
398.0, 0.004205317397092505
399.0, 0.0022534505172929343
400.0, 0.0015279530122751326
401.0, 0.0034534152294501837
402.0, 0.0012012810985610662
403.0, 0.00245011639754126
404.0, 0.003277858084711204
405.0, 0.003605683628148543
406.0, 0.005864731840376959
407.0, 0.006453649481242331
408.0, 0.008286130102254477
409.0, 0.008917649190518948
410.0, 0.009981402110050388
411.0, 0.012460680833862888
412.0, 0.014261388229975998
413.0, 0.0175434476714806
414.0, 0.021660622986256428
415.0, 0.02204079521555792
416.0, 0.020232494114169716
417.0, 0.021354805455260906
418.0, 0.023608987082988392
419.0, 0.02377483641356976
420.0, 0.024030209256189886
421.0, 0.022955560095720244
422.0, 0.01969714527564706
423.0, 0.01707889300217532
424.0, 0.017393166617698234
425.0, 0.015871494006578196
426.0, 0.0133817375987835
427.0, 0.011755852867010617
428.0, 0.010271439206593293
429.0, 0.006487341399656573
430.0, 0.004253049622354635
431.0, 0.0038900184992818354
432.0, 0.0032363962721609313
433.0, 0.0022367994940595535
434.0, 0.0035726092298494164
435.0, 0.00045443093748479793
436.0, 0.002707470834612361
437.0, 0.005412568969890309
438.0, 0.0038245483473722704
439.0, 0.0010587104826407367
440.0, 0.002094067548590839
441.0, 0.00538355549998249
442.0, 0.004756721270058778
443.0, 0.0027369628697856336
444.0, 0.003681389734752478
445.0, 0.005593295289608432
446.0, 0.005581916739540338
447.0, 0.005099486571530404
448.0, 0.005121592674183388
449.0, 0.00597424695326936
450.0, 0.007033255872908157
451.0, 0.006194223130562664
452.0, 0.008426250149787661
453.0, 0.008477176854994741
454.0, 0.0077751609459091615
455.0, 0.008198973431273775
456.0, 0.0066493141466980165
457.0, 0.009047188443896974
458.0, 0.01177537248121949
459.0, 0.01067454033379988
460.0, 0.00967697075267858
461.0, 0.01454047809691571
462.0, 0.01663739570480282
463.0, 0.01880550603178005
464.0, 0.019144590510103074
465.0, 0.018449846954729905
466.0, 0.01904097647645845
467.0, 0.0215013001712781
468.0, 0.02077957283253443
469.0, 0.02303651874190255
470.0, 0.024618467322077356
471.0, 0.024271132748000357
472.0, 0.023499528689606395
473.0, 0.023304062436807424
474.0, 0.023662410109117963
475.0, 0.021823141970347265
476.0, 0.01857035177558539
477.0, 0.015339248384100645
478.0, 0.012646231370506866
479.0, 0.010098648877681205
480.0, 0.011522439550868105
481.0, 0.011354018661125797
482.0, 0.009488519546870446
483.0, 0.00850711151854535
484.0, 0.00912550996872538
485.0, 0.006794999122255371
486.0, 0.0046380014881609605
487.0, 0.005390900112494806
488.0, 0.008382803582699917
489.0, 0.009861524128771467
490.0, 0.006695158224298959
491.0, 0.005214994713766115
492.0, 0.003070403503820966
493.0, 0.0020494775082312844
494.0, 0.0025350713419019563
495.0, 0.0030010831349465386
496.0, 0.0025283994685122275
497.0, 0.002852263801428313
498.0, 0.004539816320411938
499.0, 0.002968674176705545
500.0, 0.00039180945361559383
501.0, 0.0006597090505349027
502.0, 0.0014911366951958058
503.0, 0.0006997424472796922
504.0, 0.0003500750375306871
505.0, 0.00019966552238377607
506.0, 0.001048659351699244
507.0, 0.0024402158223669917
508.0, 0.0004768063042601633
509.0, 0.0012547662337614154
510.0, 0.00045947990548425826
511.0, 0.0006397174000745045
512.0, 0.0006217155925050109
513.0, 0.00021342088479817326
514.0, 0.000560132182576267
515.0, 0.00012585767572756293
516.0, 0.0014434933357736631
517.0, 0.0008346433495883772
518.0, 0.0013736718021448747
519.0, 0.0002548596123803105
520.0, 0.0009261041091450141
521.0, 0.0019327197715532526
522.0, 0.0013326492228666526
523.0, 0.0017869111976499766
524.0, 0.00350600568040361
525.0, 0.003971526467837402
526.0, 0.007198751556667221
527.0, 0.006585153951774281
528.0, 0.006913568147750576
529.0, 0.007133281763688229
530.0, 0.006327473431149811
531.0, 0.0065534034966058365
532.0, 0.007157900716870646
533.0, 0.00850255871338954
534.0, 0.010721804491971533
535.0, 0.010963255443711335
536.0, 0.010046454334224587
537.0, 0.011585557953735367
538.0, 0.011710535338101286
539.0, 0.01141703781334946
540.0, 0.011001020722504348
541.0, 0.009170135656380697
542.0, 0.0066252038555346645
543.0, 0.005777488924574303
544.0, 0.006476110008072906
545.0, 0.0032364208797027814
546.0, 0.0020508161118353947
547.0, 0.0021826219004784844
548.0, 0.001822224686527648
549.0, 0.002397907145241885
550.0, 0.0021719165875533886
551.0, 0.000470241296028827
552.0, 0.0035733235945087888
553.0, 0.0029680723497662216
554.0, 0.000524641398357651
555.0, 0.0018774524240969758
556.0, 0.0032194917111659158
557.0, 0.002592188568388315
558.0, 0.0018814439334014228
559.0, 0.001424116684808265
560.0, 0.001616849146101933
561.0, 0.0031077225381854487
562.0, 0.005306726116519302
563.0, 0.0059732752494721835
564.0, 0.003621720160191425
565.0, 0.002678718121380178
566.0, 0.0026637517516518794
567.0, 0.0020422544196490454
568.0, 0.004322735556326891
569.0, 0.006040817405958716
570.0, 0.008213517524742668
571.0, 0.009853965633391044
572.0, 0.012124425804524637
573.0, 0.014088342942968415
574.0, 0.014126683363873873
575.0, 0.01818476801415878
576.0, 0.019982835488527185
577.0, 0.022962065691834406
578.0, 0.02827708558470429
579.0, 0.03343143936881606
580.0, 0.036770081853338646
581.0, 0.04291648231909601
582.0, 0.045588522120317436
583.0, 0.050411372103535745
584.0, 0.057634179413780184
585.0, 0.06129221952462536
586.0, 0.06143270190235023
587.0, 0.06472508059444156
588.0, 0.0641838735639466
589.0, 0.06442274209868828
590.0, 0.062031184667552704
591.0, 0.0585392716266669
592.0, 0.0558173444176274
593.0, 0.05196956124462783
594.0, 0.04434671359761157
595.0, 0.039087521570538845
596.0, 0.03399157671113009
597.0, 0.029557852644484798
598.0, 0.026246850495341464
599.0, 0.024086713441748526
600.0, 0.02306525421390213
601.0, 0.020817180484713798
602.0, 0.01798365923780618
603.0, 0.015888188836446708
604.0, 0.01488082740721677
605.0, 0.01427406225116418
606.0, 0.013115275237857285
607.0, 0.011218314164335288
608.0, 0.01174484025382424
609.0, 0.00975027171502927
610.0, 0.01004153960826805
611.0, 0.01146084155148328
612.0, 0.010068201144874857
613.0, 0.00901557842260104
614.0, 0.00800462843362525
615.0, 0.00803250411207375
616.0, 0.007024388149139526
617.0, 0.007779205521670463
618.0, 0.00997404113673409
619.0, 0.009506700822093964
620.0, 0.008978192127359091
621.0, 0.00883807479593564
622.0, 0.009113358542231284
623.0, 0.008813694924932796
624.0, 0.008901080097603082
625.0, 0.008457059650286593
626.0, 0.0056826218427633145
627.0, 0.00986582269972105
628.0, 0.00944562083303894
629.0, 0.009855310821971363
630.0, 0.00941234991643101
631.0, 0.006928454636391433
632.0, 0.005987761104323293
633.0, 0.009935094740836986
634.0, 0.007198336038166693
635.0, 0.007194715744275221
636.0, 0.007964381257670112
637.0, 0.008755732513771269
638.0, 0.008952564731903982
639.0, 0.00809515800156913
640.0, 0.007687015363773843
641.0, 0.00681451689901597
642.0, 0.00558650254990655
643.0, 0.005267262530380851
644.0, 0.006546845695652112
645.0, 0.00638371957573205
646.0, 0.0037370665902965025
647.0, 0.005203505686845624
648.0, 0.006558753155326925
649.0, 0.0038940852177146057
650.0, 0.004138461883099555
651.0, 0.007025623155977179
652.0, 0.007810771913275733
653.0, 0.00546136282992093
654.0, 0.0054291943209580735
655.0, 0.0034066959723483823
656.0, 0.004366980574384239
657.0, 0.004419550993448462
658.0, 0.004121542306899601
659.0, 0.005209069858583163
660.0, 0.004765210742277926
661.0, 0.0035418488903491744
662.0, 0.003449346287269877
663.0, 0.0020577577117087157
664.0, 0.00038549864912738874
665.0, 0.0010232901776690646
666.0, 0.002230169731173363
667.0, 0.00027532260564142464
668.0, 0.0019187157020393248
669.0, 0.0007854380353042992
670.0, 0.0004938677855983501
671.0, 0.0018937764278458896
672.0, 0.0018674709584724607
673.0, 0.000909746690511211
674.0, 0.0008973632247857694
675.0, 0.0012807842373087064
676.0, 0.0012171524032437502
677.0, 0.001806287756960779
678.0, 0.0008725747444799887
679.0, 0.0006034774437005997
680.0, 0.0018086873768007729
681.0, 0.0025500635141307887
682.0, 0.0004830360691877409
683.0, 0.00023116132869219284
684.0, 0.0010607440517041852
685.0, 0.0007395773082057371
686.0, 0.0013009519904486973
687.0, 0.0010604160204629775
688.0, 0.0015731687014633765
689.0, 0.00015262893129410268
690.0, 0.0018055825065822183
691.0, 0.0005848455079970785
692.0, 0.0012062610178807782
693.0, 0.0014400722636407027
694.0, 0.0006731755282263546
695.0, 0.0017641834332666154
696.0, 0.0016212439965119488
697.0, 0.0005124131649267535
698.0, 0.0024771439416720387
699.0, 0.0016744939779771027
700.0, 0.0015919863940807074
701.0, 0.0020443272880303048
702.0, 0.00048801774848318113
703.0, 0.00043176869097174826
704.0, 0.0005895140710352905
705.0, 0.0006321105310072849
706.0, 9.242426062811845e-05
707.0, 0.0010310843478475661
708.0, 0.0014872566400025392
709.0, 0.0005890248030509126
710.0, 0.0009210789827997421
711.0, 0.0021710387177624256
712.0, 0.0029924072649934654
713.0, 0.0029250491999927345
714.0, 0.003427506766789092
715.0, 0.002993301628623648
716.0, 0.002798641284939674
717.0, 0.003417978028066722
718.0, 0.002472244391600008
719.0, 0.0038433671108059684
720.0, 0.004984731371294031
721.0, 0.002877162679164437
722.0, 0.002352308029230341
723.0, 0.0035474807581909406
724.0, 0.0038405750703377796
725.0, 0.003972599858173306
726.0, 0.0042071727171533
727.0, 0.002560855326877337
728.0, 0.0023278363406229545
729.0, 0.00287510035342827
730.0, 0.004067860026333603
731.0, 0.005622938098632333
732.0, 0.005975531623912087
733.0, 0.004193563484501251
734.0, 0.00458739196055721
735.0, 0.004221558251564004
736.0, 0.003283129909419296
737.0, 0.0055833139527363745
738.0, 0.0069178695327881436
739.0, 0.006437682249386683
740.0, 0.007044934609107435
741.0, 0.00774557289508332
742.0, 0.008920468848793613
743.0, 0.008495162781185322
744.0, 0.007017343102592304
745.0, 0.007874024906206803
746.0, 0.01088526700141711
747.0, 0.013113809135957758
748.0, 0.014079704846880037
749.0, 0.01601017339123874
750.0, 0.013915414594554762
751.0, 0.012474578079460319
752.0, 0.01636181375610882
753.0, 0.02170983244210411
754.0, 0.022406171949475678
755.0, 0.019079949503014337
756.0, 0.01937042792507687
757.0, 0.02702428882601948
758.0, 0.026573831511139838
759.0, 0.027638069143404442
760.0, 0.030993390052284648
761.0, 0.03528960303857278
762.0, 0.039567692632142146
763.0, 0.04411586494769247
764.0, 0.049390935007493426
765.0, 0.05391341798662465
766.0, 0.058103442099736224
767.0, 0.06269359828635657
768.0, 0.06803251350748955
769.0, 0.07682141390501705
770.0, 0.08404195236224726
771.0, 0.08965972582107978
772.0, 0.1018622702035715
773.0, 0.11643494445139432
774.0, 0.1290186999746866
775.0, 0.1394559232554737
776.0, 0.1525232011435517
777.0, 0.17051862084734537
778.0, 0.18880477912350482
779.0, 0.2056259509096777
780.0, 0.225324319909569
781.0, 0.24995705120644598
782.0, 0.2709685817031815
783.0, 0.2961498650093122
784.0, 0.32069770280923054
785.0, 0.3469635106275066
786.0, 0.37527630844134824
787.0, 0.40310927582519024
788.0, 0.43179644361036046
789.0, 0.46596557591977744
790.0, 0.5004167061912558
791.0, 0.5342788029458637
792.0, 0.5710141907494709
793.0, 0.6094832690238702
794.0, 0.6502530724427227
795.0, 0.692069926597414
796.0, 0.7337962697589326
797.0, 0.7771812495162486
798.0, 0.8197998967492712
799.0, 0.8487927830615796
800.0, 0.891208584385464
801.0, 0.9294035352481662
802.0, 0.9573664333726932
803.0, 0.9769369514700198
804.0, 0.9920147871945603
805.0, 0.9991901308608004
806.0, 0.9892727440507867
807.0, 0.9734713019769902
808.0, 0.9363997482123733
809.0, 0.8883683190661876
810.0, 0.8311464103783008
811.0, 0.7654115807149003
812.0, 0.6942682569689644
813.0, 0.6217214974907999
814.0, 0.551939240085947
815.0, 0.4837877982243727
816.0, 0.415120888762776
817.0, 0.36314594875320516
818.0, 0.31686201384831364
819.0, 0.27390720905324367
820.0, 0.23568203289592995
821.0, 0.2032564160915639
822.0, 0.17720897261916113
823.0, 0.1552759773884801
824.0, 0.13421432028892438
825.0, 0.11875568398184336
826.0, 0.10503919763482987
827.0, 0.09198942583413197
828.0, 0.07941896883577265
829.0, 0.06786812926470985
830.0, 0.05851271718180389
831.0, 0.05155069719604251
832.0, 0.04580028817476575
833.0, 0.04127210342562886
834.0, 0.034107470102972666
835.0, 0.03270998564543776
836.0, 0.02879897641308009
837.0, 0.02397118490608706
838.0, 0.020733754746551085
839.0, 0.01886041407435109
840.0, 0.01721869408490634
841.0, 0.014306557780553814
842.0, 0.011047670745728584
843.0, 0.007713091481750488
844.0, 0.006304723999692418
845.0, 0.008710810522212254
846.0, 0.007286723702057123
847.0, 0.004401474454412534
848.0, 0.004505875505795643
849.0, 0.003262579709398292
850.0, 0.0011037596813339107
851.0, 0.0003359238963049901
852.0, 0.001458450840775752
853.0, 0.00330739843874951
854.0, 0.0008503553215956618
855.0, 0.0006426049871187988
856.0, 0.0008716471970849921
857.0, 0.00038207134578848546
858.0, 0.0003319478874472823
859.0, 0.001275933942192513
860.0, 0.0010374327726183632
861.0, 0.0001152661282226707
862.0, 0.0017543267908634904
863.0, 0.0017958368985030789
864.0, 0.0026805883158064654
865.0, 0.0017197986190102368
866.0, 0.0007033465628050986
867.0, 0.0009768950687558964
868.0, 0.0018511476218337512
869.0, 0.0034967339308980207
870.0, 0.001475487727996131
871.0, 0.0009282528090440476
872.0, 0.0005940570847728
873.0, 0.00019163000166864453
874.0, 6.147027889303159e-05
875.0, 0.0016951385192267
876.0, 0.0025549055419999663
877.0, 0.0018700844363364654
878.0, 0.0028421707892972367
879.0, 0.0023693970171126295
880.0, 0.002333445195713099
881.0, 0.003984680878127129
882.0, 0.005592011152444442
883.0, 0.00552510488447743
884.0, 0.0038227737692262645
885.0, 0.0033971508753630362
886.0, 0.002962562256978645
887.0, 0.0029614523679571143
888.0, 0.008833190696779705
889.0, 0.008951515001891223
890.0, 0.007345881085305484
891.0, 0.007776197069808916
892.0, 0.0076419580762688245
893.0, 0.0074821952198241845
894.0, 0.006876609520333301
895.0, 0.007364282171545396
896.0, 0.008276658509009606
897.0, 0.007502933302854568
898.0, 0.0076517865281482715
899.0, 0.009848787230697133
900.0, 0.00844028591708396
901.0, 0.012842399371025893
902.0, 0.013679986247479764
903.0, 0.014736785478177736
904.0, 0.01793432446740248
905.0, 0.01979292716841748
906.0, 0.019780276962911642
907.0, 0.021851523394151622
908.0, 0.02659705317487485
909.0, 0.030631687670517826
910.0, 0.034838390231581244
911.0, 0.03990630924122315
912.0, 0.04518504746710684
913.0, 0.0469556333482726
914.0, 0.051175414072962035
915.0, 0.0568736000725112
916.0, 0.06178724512520559
917.0, 0.06649401424585596
918.0, 0.06905924532773179
919.0, 0.07356414942922657
920.0, 0.08071958181473833
921.0, 0.0816839100167758
922.0, 0.08637945234340394
923.0, 0.08946354585282713
924.0, 0.09415610469909852
925.0, 0.10091163235928675
926.0, 0.10805046434484175
927.0, 0.11546352314636435
928.0, 0.12488609817780594
929.0, 0.1363861381905843
930.0, 0.1472238891153926
931.0, 0.16041416148946847
932.0, 0.1708985261547914
933.0, 0.18418939104828072
934.0, 0.1928312768466214
935.0, 0.1983671780332884
936.0, 0.2015313634755579
937.0, 0.199498840617845
938.0, 0.19360453297686658
939.0, 0.18443074750745345
940.0, 0.16830934328396008
941.0, 0.15193684129390336
942.0, 0.14052259608801038
943.0, 0.12448136123735208
944.0, 0.11127184675457148
945.0, 0.10043411331783834
946.0, 0.08547352576387972
947.0, 0.07278724516709756
948.0, 0.06458092158667919
949.0, 0.0548497836198974
950.0, 0.047226665547509705
951.0, 0.04409404997867186
952.0, 0.035461326785878496
953.0, 0.031116672864706107
954.0, 0.0258466973423182
955.0, 0.024821951595680826
956.0, 0.02164722237908746
957.0, 0.01583820199331354
958.0, 0.014670664264888656
959.0, 0.015538436663885576
960.0, 0.013389078110432105
961.0, 0.0103876982154223
962.0, 0.008117141405650995
963.0, 0.005772371825210859
964.0, 0.0076657349037760805
965.0, 0.0055453191908152585
966.0, 0.005216903260479398
967.0, 0.00583389710037293
968.0, 0.004369239215802506
969.0, 0.004058974755151266
970.0, 0.004691755861869117
971.0, 0.003259936561592344
972.0, 0.0016547448693047843
973.0, 0.0028513277705576683
974.0, 0.0033936698790747923
975.0, 0.0012418148253932268
976.0, 0.0003127165508993767
977.0, 0.0017664229205808961
978.0, 0.0006504286717737772
979.0, 3.46130534165025e-05
980.0, 0.0001518676489505605
981.0, 0.0005694057502009809
982.0, 0.001381087223351842
983.0, 0.001992028162598653
984.0, 0.0007647941414180292
985.0, 0.0006295111306787444
986.0, 0.0016660397410618948
987.0, 0.0012195202447201152
988.0, 0.0008597648017005831
989.0, 0.00013201348447927392
990.0, 0.00015760779442367177
991.0, 0.0006596470858391565
992.0, 0.00022259258322828338
993.0, 0.00013257405598499772
994.0, 0.001409352407787681
995.0, 0.003076344337762342
996.0, 0.004999651055606048
997.0, 0.007537521745299629
998.0, 0.009259828766499733
999.0, 0.01140525086547419
1000.0, 0.010683708132815523
1001.0, 0.018873287255972364
1002.0, 0.020515921735880592
1003.0, 0.021716413750656565
1004.0, 0.024335778672869065
1005.0, 0.027061861494471696
1006.0, 0.03202285779238884
1007.0, 0.038283245931384075
1008.0, 0.04466256126695267
1009.0, 0.05379728607037955
1010.0, 0.06322428128394149
1011.0, 0.06782799208468378
1012.0, 0.07654464289722415
1013.0, 0.08797669229880964
1014.0, 0.09645787766240453
1015.0, 0.10401515467985874
1016.0, 0.10769897670382
1017.0, 0.11269448798327068
1018.0, 0.11280596802863534
1019.0, 0.10866033634720192
1020.0, 0.10257765775546376
1021.0, 0.09348982544968996
1022.0, 0.08332583441762943
1023.0, 0.07415911652869614
1024.0, 0.06417870411728013
1025.0, 0.05443100168856788
1026.0, 0.04649020075248787
1027.0, 0.042380372455505445
1028.0, 0.03421688847487608
1029.0, 0.029483137383987754
1030.0, 0.02619496910467692
1031.0, 0.02410228969234164
1032.0, 0.020569203470957784
1033.0, 0.01837836646203197
1034.0, 0.016230551346898308
1035.0, 0.01238038499936361
1036.0, 0.01097429982016946
1037.0, 0.009122494655776858
1038.0, 0.006930146332401949
1039.0, 0.008436239035007164
1040.0, 0.005846597316715162
1041.0, 0.005910021864927021
1042.0, 0.0041146404949478224
1043.0, 0.004357473987251147
1044.0, 0.004202702868878033
1045.0, 0.002211981310688746
1046.0, 0.002316760223275124
1047.0, 0.003990404474910842
1048.0, 0.004627695125995498
1049.0, 0.003630833733653442
1050.0, 0.0019214910774974171
1051.0, 0.001870035254377352
1052.0, 0.0011002917770401147
1053.0, 0.0010718869126488354
1054.0, 0.0011640349341114219
1055.0, 0.0009245101499927143
1056.0, 0.000718125332698121
1057.0, 0.00035657550064027704
1058.0, 0.0001371285109160846
1059.0, 0.000513656784710836
1060.0, 0.0002266259988006993
1061.0, 0.001513132416220296
1062.0, 0.0024614518995608667
1063.0, 0.0015307802862888486
1064.0, 0.0011070866379925266
1065.0, 0.0007284085444071325
1066.0, 0.0005586214315072994
1067.0, 0.00017044247212713402
1068.0, 0.0007593230877374614
1069.0, 0.0009554912324094579
1070.0, 0.00028185575721930616
1071.0, 0.0005062892381778315
1072.0, 0.0010553761927039982
1073.0, 0.00047170278478516427
1074.0, 0.0014623728207539726
1075.0, 0.0016917548172537184
1076.0, 0.0027366938800253504
1077.0, 0.0007097870309563555
1078.0, 0.0008033661256532289
1079.0, 0.00311877868291159
1080.0, 0.0036815418647658618
1081.0, 0.0015963495818690418
1082.0, 0.002556481083350668
1083.0, 0.003020780297108163
1084.0, 0.0036656571323590804
1085.0, 0.002181060291344705
1086.0, 0.004129217741414022
1087.0, 0.0049937470845513535
1088.0, 0.005422868215227665
1089.0, 0.006783559698479518
1090.0, 0.0035115078880095713
1091.0, 0.004275846777777342
1092.0, 0.005517805725356714
1093.0, 0.005360124695099931
1094.0, 0.006959723254241315
1095.0, 0.00814767989560953
1096.0, 0.008595102736885449
1097.0, 0.008971352071579878
1098.0, 0.00933842987448458
1099.0, 0.011050677194435842
1100.0, 0.012385893223527471
1101.0, 0.01101344506271898
1102.0, 0.011971439736992358
1103.0, 0.016011953379677084
1104.0, 0.013571659365972068
1105.0, 0.012972759735723994
1106.0, 0.014928577340807946
1107.0, 0.016349472346767365
1108.0, 0.01563853067046682
1109.0, 0.014964834210240386
1110.0, 0.015757012875386448
1111.0, 0.016354847447947112
1112.0, 0.01722316080698321
1113.0, 0.017852003552594836
1114.0, 0.01608843689432552
1115.0, 0.01729728378109272
1116.0, 0.016770067916696205
1117.0, 0.01639835785393175
1118.0, 0.013529585686202515
1119.0, 0.012343766572733077
1120.0, 0.015946665845754875
1121.0, 0.011801263293957108
1122.0, 0.01079770580493963
1123.0, 0.009716334787885972
1124.0, 0.011174286678708107
1125.0, 0.011001245806621112
1126.0, 0.007615041813090759
1127.0, 0.0057139661462070395
1128.0, 0.006771111002950294
1129.0, 0.006217312624293713
1130.0, 0.004353780714145118
1131.0, 0.004261739208736582
1132.0, 0.004044772130522699
1133.0, 0.005073404407257519
1134.0, 0.0051865580465603675
1135.0, 0.003160501465039009
1136.0, 0.0019336324938156895
1137.0, 0.002062077016472047
1138.0, 0.0021791293159522246
1139.0, 0.002110443294575855
1140.0, 0.0020352894030698505
1141.0, 0.0005293101689794042
1142.0, 0.0028385254837355526
1143.0, 0.0020509324791961065
1144.0, 0.00017442404049311286
1145.0, 0.0006330006962332171
1146.0, 0.00027714786705148757
1147.0, 0.0008085758586358011
1148.0, 0.001523770982846253
1149.0, 0.0011732580647261146
1150.0, 0.0016198020765788102
1151.0, 0.004049972294955848
1152.0, 0.0028472382171033086
1153.0, 0.0003655601536309568
1154.0, 0.002417855035971338
1155.0, 0.004098744336920021
1156.0, 0.003415174676692871
1157.0, 0.003833655092070498
1158.0, 0.003418561819752972
1159.0, 0.001315496969617889
1160.0, 0.0035306006295569843
1161.0, 0.004580369015111966
1162.0, 0.005742567041512528
1163.0, 0.005568335414185835
1164.0, 0.004542983717621843
1165.0, 0.0064119212777266725
1166.0, 0.006255818954229336
1167.0, 0.0061455390093694065
1168.0, 0.00873076253573106
1169.0, 0.00906543640361157
1170.0, 0.008298360100571276
1171.0, 0.008319449975017216
1172.0, 0.007850245535404875
1173.0, 0.007620881181599663
1174.0, 0.00634985751447794
1175.0, 0.007122604632278799
1176.0, 0.008169219517293424
1177.0, 0.006484397297430472
1178.0, 0.00657149381608847
1179.0, 0.00460181904895999
1180.0, 0.004802221147327122
1181.0, 0.0036302107159781106
1182.0, 0.004329679102910358
1183.0, 0.004233503003870943
1184.0, 0.003652636159151541
1185.0, 0.0033350851990104715
1186.0, 0.0008617405164925883
1187.0, 0.0005602745134236641
1188.0, 0.0008857821513844418
1189.0, 0.0022378525124525637
1190.0, 0.001576503150497878
1191.0, 0.0025653691420752123
1192.0, 0.002429101244758022
1193.0, 0.0014350976882279156
1194.0, 0.0030788867469112515
1195.0, 0.00112219030374066
1196.0, 0.0017230850645897867
1197.0, 0.0024315770039064852
1198.0, 0.0015828711089790242
1199.0, 0.0030660587493033463
1200.0, 0.0012443116489367378
1201.0, 0.0007510869810444202
1202.0, 0.0003146239363289395
1203.0, 0.002308936297597298
1204.0, 0.0028919085935188702
1205.0, 0.0013782432127253704
1206.0, 0.0012455652521298312
1207.0, 0.0005936936990889604
1208.0, 0.0024104863053052697
1209.0, 0.003120685919369942
1210.0, 0.0010127525818400833
1211.0, 0.0015613855118717427
1212.0, 0.0023340203724892174
1213.0, 0.0013995630845296935
1214.0, 5.2680887536311416e-05
1215.0, 0.002487246169219889
1216.0, 0.004760067130590217
1217.0, 0.003472645775407366
1218.0, 0.001216147373426506
1219.0, 0.002055483409108235
1220.0, 0.004436623672178162
1221.0, 0.004096849495463519
1222.0, 0.0032958352016300126
1223.0, 0.0025304722264905435
1224.0, 0.002656145255380345
1225.0, 0.004483353684759856
1226.0, 0.0032649239999399753
1227.0, 6.654568463538359e-05
1228.0, 0.003228666504222068
1229.0, 0.004342792592064175
1230.0, 0.005167526272521028
1231.0, 0.0033113681359960854
1232.0, 0.0002339764403034352
1233.0, 0.0012462926113320275
1234.0, 0.004238455280971229
1235.0, 0.002326718033772684
1236.0, 0.0009367851012860182
1237.0, 0.0006311004266080769
1238.0, 9.1128386958815e-05
1239.0, 0.0026401060410935974
1240.0, 0.000979813395895124
1241.0, 0.0022327193957654094
1242.0, 0.00391066857972779
1243.0, 0.004571286449022314
1244.0, 0.0037459382896344808
1245.0, 0.004073315819662694
1246.0, 0.004823816570119359
1247.0, 0.004828920508070288
1248.0, 0.003946974433743445
1249.0, 0.0033503404838795105
1250.0, 0.0031135669331088804
1251.0, 0.0007565480165203118
1252.0, 0.001379349210210113
1253.0, 0.004226066425636195
1254.0, 0.0033216649045117196
1255.0, 0.0017268566523973255
1256.0, 0.002137139414996244
1257.0, 0.0014931290753425002
1258.0, 0.0024580094727586353
1259.0, 0.002108529129042523
1260.0, 0.0014001137471979614
1261.0, 0.0011296178906975048
1262.0, 8.536968100749528e-05
1263.0, 0.0006357667356906768
1264.0, 0.00012636170023954828
1265, 0.0
1266, 0.0
1267, 0.0
1268, 0.0
1269, 0.0
1270, 0.0
1271, 0.0
1272, 0.0
1273, 0.0
1274, 0.0
1275, 0.0
1276, 0.0
1277, 0.0
1278, 0.0
1279, 0.0
1280, 0.0
1281, 0.0
1282, 0.0
1283, 0.0
1284, 0.0
1285, 0.0
1286, 0.0
1287, 0.0
1288, 0.0
1289, 0.0
1290, 0.0
1291, 0.0
1292, 0.0
1293, 0.0
1294, 0.0
1295, 0.0
1296, 0.0
1297, 0.0
1298, 0.0
1299, 0.0
1300, 0.0
1301, 0.0
1302, 0.0
1303, 0.0
1304, 0.0
1305, 0.0
1306, 0.0
1307, 0.0
1308, 0.0
1309, 0.0
1310, 0.0
1311, 0.0
1312, 0.0
1313, 0.0
1314, 0.0
1315, 0.0
1316, 0.0
1317, 0.0
1318, 0.0
1319, 0.0
1320, 0.0
1321, 0.0
1322, 0.0
1323, 0.0
1324, 0.0
1325, 0.0
1326, 0.0
1327, 0.0
1328, 0.0
1329, 0.0
1330, 0.0
1331, 0.0
1332, 0.0
1333, 0.0
1334, 0.0
1335, 0.0
1336, 0.0
1337, 0.0
1338, 0.0
1339, 0.0
1340, 0.0
1341, 0.0
1342, 0.0
1343, 0.0
1344, 0.0
1345, 0.0
1346, 0.0
1347, 0.0
1348, 0.0
1349, 0.0
1350, 0.0
1351, 0.0
1352, 0.0
1353, 0.0
1354, 0.0
1355, 0.0
1356, 0.0
1357, 0.0
1358, 0.0
1359, 0.0
1360, 0.0
1361, 0.0
1362, 0.0
1363, 0.0
1364, 0.0
1365, 0.0
1366, 0.0
1367, 0.0
1368, 0.0
1369, 0.0
1370, 0.0
1371, 0.0
1372, 0.0
1373, 0.0
1374, 0.0
1375, 0.0
1376, 0.0
1377, 0.0
1378, 0.0
1379, 0.0
1380, 0.0
1381, 0.0
1382, 0.0
1383, 0.0
1384, 0.0
1385, 0.0
1386, 0.0
1387, 0.0
1388, 0.0
1389, 0.0
1390, 0.0
1391, 0.0
1392, 0.0
1393, 0.0
1394, 0.0
1395, 0.0
1396, 0.0
1397, 0.0
1398, 0.0
1399, 0.0
1400, 0.0
1401, 0.0
1402, 0.0
1403, 0.0
1404, 0.0
1405, 0.0
1406, 0.0
1407, 0.0
1408, 0.0
1409, 0.0
1410, 0.0
1411, 0.0
1412, 0.0
1413, 0.0
1414, 0.0
1415, 0.0
1416, 0.0
1417, 0.0
1418, 0.0
1419, 0.0
1420, 0.0
1421, 0.0
1422, 0.0
1423, 0.0
1424, 0.0
1425, 0.0
1426, 0.0
1427, 0.0
1428, 0.0
1429, 0.0
1430, 0.0
1431, 0.0
1432, 0.0
1433, 0.0
1434, 0.0
1435, 0.0
1436, 0.0
1437, 0.0
1438, 0.0
1439, 0.0
1440, 0.0
1441, 0.0
1442, 0.0
1443, 0.0
1444, 0.0
1445, 0.0
1446, 0.0
1447, 0.0
1448, 0.0
1449, 0.0
1450, 0.0
1451, 0.0
1452, 0.0
1453, 0.0
1454, 0.0
1455, 0.0
1456, 0.0
1457, 0.0
1458, 0.0
1459, 0.0
1460, 0.0
1461, 0.0
1462, 0.0
1463, 0.0
1464, 0.0
1465, 0.0
1466, 0.0
1467, 0.0
1468, 0.0
1469, 0.0
1470, 0.0
1471, 0.0
1472, 0.0
1473, 0.0
1474, 0.0
1475, 0.0
1476, 0.0
1477, 0.0
1478, 0.0
1479, 0.0
1480, 0.0
1481, 0.0
1482, 0.0
1483, 0.0
1484, 0.0
1485, 0.0
1486, 0.0
1487, 0.0
1488, 0.0
1489, 0.0
1490, 0.0
1491, 0.0
1492, 0.0
1493, 0.0
1494, 0.0
1495, 0.0
1496, 0.0
1497, 0.0
1498, 0.0
1499, 0.0
1500, 0.0
1501, 0.0
1502, 0.0
1503, 0.0
1504, 0.0
1505, 0.0
1506, 0.0
1507, 0.0
1508, 0.0
1509, 0.0
1510, 0.0
1511, 0.0
1512, 0.0
1513, 0.0
1514, 0.0
1515, 0.0
1516, 0.0
1517, 0.0
1518, 0.0
1519, 0.0
1520, 0.0
1521, 0.0
1522, 0.0
1523, 0.0
1524, 0.0
1525, 0.0
1526, 0.0
1527, 0.0
1528, 0.0
1529, 0.0
1530, 0.0
1531, 0.0
1532, 0.0
1533, 0.0
1534, 0.0
1535, 0.0
1536, 0.0
1537, 0.0
1538, 0.0
1539, 0.0
1540, 0.0
1541, 0.0
1542, 0.0
1543, 0.0
1544, 0.0
1545, 0.0
1546, 0.0
1547, 0.0
1548, 0.0
1549, 0.0
1550, 0.0
1551, 0.0
1552, 0.0
1553, 0.0
1554, 0.0
1555, 0.0
1556, 0.0
1557, 0.0
1558, 0.0
1559, 0.0
1560, 0.0
1561, 0.0
1562, 0.0
1563, 0.0
1564, 0.0
1565, 0.0
1566, 0.0
1567, 0.0
1568, 0.0
1569, 0.0
1570, 0.0
1571, 0.0
1572, 0.0
1573, 0.0
1574, 0.0
1575, 0.0
1576, 0.0
1577, 0.0
1578, 0.0
1579, 0.0
1580, 0.0
1581, 0.0
1582, 0.0
1583, 0.0
1584, 0.0
1585, 0.0
1586, 0.0
1587, 0.0
1588, 0.0
1589, 0.0
1590, 0.0
1591, 0.0
1592, 0.0
1593, 0.0
1594, 0.0
1595, 0.0
1596, 0.0
1597, 0.0
1598, 0.0
1599, 0.0
