30, 0.0
31, 0.0
32, 0.0
33, 0.0
34, 0.0
35, 0.0
36, 0.0
37, 0.0
38, 0.0
39, 0.0
40, 0.0
41, 0.0
42, 0.0
43, 0.0
44, 0.0
45, 0.0
46, 0.0
47, 0.0
48, 0.0
49, 0.0
50, 0.0
51, 0.0
52, 0.0
53, 0.0
54, 0.0
55, 0.0
56, 0.0
57, 0.0
58, 0.0
59, 0.0
60, 0.0
61, 0.0
62, 0.0
63, 0.0
64, 0.0
65, 0.0
66, 0.0
67, 0.0
68, 0.0
69, 0.0
70, 0.0
71, 0.0
72, 0.0
73, 0.0
74, 0.0
75, 0.0
76, 0.0
77, 0.0
78, 0.0
79, 0.0
80, 0.0
81, 0.0
82, 0.0
83, 0.0
84, 0.0
85, 0.0
86, 0.0
87, 0.0
88, 0.0
89, 0.0
90, 0.0
91, 0.0
92, 0.0
93, 0.0
94, 0.0
95, 0.0
96, 0.0
97, 0.0
98, 0.0
99, 0.0
100, 0.0
101, 0.0
102, 0.0
103, 0.0
104, 0.0
105, 0.0
106, 0.0
107, 0.0
108, 0.0
109, 0.0
110, 0.0
111, 0.0
112, 0.0
113, 0.0
114, 0.0
115, 0.0
116, 0.0
117, 0.0
118, 0.0
119, 0.0
120, 0.0
121, 0.0
122, 0.0
123, 0.0
124, 0.0
125, 0.0
126, 0.0
127, 0.0
128, 0.0
129, 0.0
130, 0.0
131, 0.0
132, 0.0
133, 0.0
134, 0.0
135, 0.0
136, 0.0
137, 0.0
138, 0.0
139, 0.0
140, 0.0
141, 0.0
142, 0.0
143, 0.0
144, 0.0
145, 0.0
146, 0.0
147, 0.0
148, 0.0
149, 0.0
150.0, 0.0003559176765412582
151.0, 0.0075749478409997024
152.0, 0.020845506171966545
153.0, 0.03945346610589197
154.0, 0.05016053006104581
155.0, 0.04740273529016953
156.0, 0.030443580012790426
157.0, 0.013103267544275994
158.0, 0.003689386327786419
159.0, 0.0005461995843612915
160.0, 0.0011542968735677038
161.0, 0.00024880015387547093
162.0, 0.00039515082989592307
163.0, 0.002520794999911539
164.0, 0.0055981718526411095
165.0, 0.008580066904812217
166.0, 0.01206932478211325
167.0, 0.015964090586653712
168.0, 0.020296230133029548
169.0, 0.02593351295753313
170.0, 0.03454153118137962
171.0, 0.04367881945753234
172.0, 0.05448495584319615
173.0, 0.06744353102376599
174.0, 0.08231979077348728
175.0, 0.09961190860013386
176.0, 0.12043938239226366
177.0, 0.1424913756657212
178.0, 0.16246077733026854
179.0, 0.17750320099903763
180.0, 0.17944361059609915
181.0, 0.1690216348366336
182.0, 0.1512524134374942
183.0, 0.13275092238914898
184.0, 0.11643950809593384
185.0, 0.10704973356786976
186.0, 0.10644155757430651
187.0, 0.11432661568253447
188.0, 0.1254521414449346
189.0, 0.13891389372556537
190.0, 0.15603999869304302
191.0, 0.17767077031808826
192.0, 0.19889075830872224
193.0, 0.22162177821678794
194.0, 0.24226263987053337
195.0, 0.2559384330473756
196.0, 0.258236737358601
197.0, 0.2475002748275564
198.0, 0.2260686905770935
199.0, 0.1969863418502226
200.0, 0.16503872322678326
201.0, 0.13698604421766178
202.0, 0.11667860149266007
203.0, 0.10025014584343125
204.0, 0.08544814909839542
205.0, 0.07406671762916028
206.0, 0.06534067557496402
207.0, 0.059858292915781625
208.0, 0.05705993635458581
209.0, 0.055481092143635335
210.0, 0.05473218016221789
211.0, 0.054722961139741504
212.0, 0.04980300214650578
213.0, 0.03803162802613962
214.0, 0.02633339808725553
215.0, 0.017174422976543452
216.0, 0.010243399748545125
217.0, 0.005276619461869646
218.0, 0.002248295710652041
219.0, 0.0010229376264277305
220.0, 0.002728602248740588
221.0, 0.0034565313891949685
222.0, 0.004266500232503257
223.0, 0.004145677057275319
224.0, 0.002041725121784555
225.0, 0.002329941659695051
226.0, 0.004702215969759068
227.0, 0.005044676178737384
228.0, 0.004102152029538872
229.0, 0.00372135352349019
230.0, 0.0035319425189471207
231.0, 0.002647966299328248
232.0, 0.0009127579904021333
233.0, 0.00023538401191688642
234.0, 0.0006893091808413343
235.0, 0.002482696432489208
236.0, 0.00425658370554864
237.0, 0.005657092367236827
238.0, 0.00840924799508626
239.0, 0.011925428037162695
240.0, 0.015045702351724302
241.0, 0.018224518841056615
242.0, 0.02425434442082318
243.0, 0.030261457489278536
244.0, 0.03734354548289107
245.0, 0.048136701215054076
246.0, 0.06055638964822194
247.0, 0.07430784390519483
248.0, 0.08951372378104379
249.0, 0.10628339232159476
250.0, 0.12465785592860508
251.0, 0.14268939049370197
252.0, 0.1628996241266879
253.0, 0.18377699219492544
254.0, 0.20238545571738728
255.0, 0.2217677105284658
256.0, 0.23943264146558332
257.0, 0.2575215871914337
258.0, 0.2791005913588883
259.0, 0.30665942075776376
260.0, 0.34252502928808704
261.0, 0.39245795665184685
262.0, 0.458099788744907
263.0, 0.5381540979014494
264.0, 0.635922058217835
265.0, 0.7530386077393194
266.0, 0.8700920168903256
267.0, 0.96081572739037
268.0, 0.999281425575145
269.0, 0.96708844798417
270.0, 0.8550018792404879
271.0, 0.7091047155837903
272.0, 0.5673516151249096
273.0, 0.44493283519792837
274.0, 0.35283810502864976
275.0, 0.2807690996045226
276.0, 0.22620473422083254
277.0, 0.1879549379069073
278.0, 0.1556509315234231
279.0, 0.13177570740160444
280.0, 0.11376600494017663
281.0, 0.09914995995058665
282.0, 0.08731384173808614
283.0, 0.07980538297878981
284.0, 0.0730060547430854
285.0, 0.066504305030845
286.0, 0.061198635539499155
287.0, 0.05794475102909661
288.0, 0.05597176345534145
289.0, 0.05456611659895994
290.0, 0.054196300784466536
291.0, 0.055539257990569205
292.0, 0.05862154727755469
293.0, 0.0626074080907887
294.0, 0.0678403741242403
295.0, 0.07476030263858745
296.0, 0.08325859790904216
297.0, 0.0906854242396097
298.0, 0.09973098818942659
299.0, 0.10889521014248608
300.0, 0.11700380162836545
301.0, 0.12423470226526262
302.0, 0.12483251715338911
303.0, 0.12142706349723545
304.0, 0.11506712186731387
305.0, 0.10459003035013723
306.0, 0.08922082865831457
307.0, 0.07498655055108641
308.0, 0.06287834597609529
309.0, 0.0519966123525169
310.0, 0.04173150391002346
311.0, 0.03316106827037556
312.0, 0.027590952106337923
313.0, 0.02463882572026855
314.0, 0.022525853687967987
315.0, 0.01974886712334149
316.0, 0.01863153947399945
317.0, 0.01984790713437184
318.0, 0.020747914028769947
319.0, 0.021608780051440846
320.0, 0.025825815234136257
321.0, 0.028610388906865077
322.0, 0.03153516054635414
323.0, 0.03680800025323098
324.0, 0.04408679469659775
325.0, 0.04932602159265847
326.0, 0.05894802975709243
327.0, 0.06826873639674068
328.0, 0.07817048532579834
329.0, 0.09041900032231405
330.0, 0.10108549212676868
331.0, 0.11592106253752267
332.0, 0.13158971209108974
333.0, 0.14864332448803202
334.0, 0.16817052628887388
335.0, 0.18281157524509123
336.0, 0.19948653231813873
337.0, 0.21050826333851036
338.0, 0.21054805573600224
339.0, 0.20082789928019754
340.0, 0.18467584139876192
341.0, 0.16656445697258904
342.0, 0.14622065387482533
343.0, 0.12565242453626085
344.0, 0.10829032701628935
345.0, 0.09102563231437137
346.0, 0.07674326308302576
347.0, 0.06482789994294477
348.0, 0.05439264426796189
349.0, 0.04572336453067857
350.0, 0.038559285873556996
351.0, 0.03301253714770073
352.0, 0.0264179954312463
353.0, 0.019298912312986995
354.0, 0.014612498657354707
355.0, 0.009953842814868056
356.0, 0.00693384344929568
357.0, 0.004435574254076331
358.0, 0.0016975319637653529
359.0, 0.00036178444884602874
360.0, 0.000753306757826379
361.0, 9.159243224638938e-05
362.0, 0.0012083116039160525
363.0, 0.0024311817071942868
364.0, 0.0024043724546620186
365.0, 0.0036578633357061494
366.0, 0.0049483143073483
367.0, 0.006162771593183954
368.0, 0.007994228696259525
369.0, 0.011609899675448307
370.0, 0.0158461486480556
371.0, 0.018907573157998358
372.0, 0.022869442080345623
373.0, 0.028621336508060796
374.0, 0.03366976136170689
375.0, 0.04098026363132512
376.0, 0.04927199980529315
377.0, 0.05836594887004365
378.0, 0.06928083351686444
379.0, 0.08240681235371863
380.0, 0.093781779970677
381.0, 0.10226456003487856
382.0, 0.10633125341342717
383.0, 0.10403429323459036
384.0, 0.0941786335613758
385.0, 0.0800076446921395
386.0, 0.0651564792274172
387.0, 0.050774985800712755
388.0, 0.03800126292701778
389.0, 0.028667130193219387
390.0, 0.021529932583112366
391.0, 0.015698542373882383
392.0, 0.011646284658299982
393.0, 0.008905715537080966
394.0, 0.005505479175046795
395.0, 0.002732234340363159
396.0, 0.0019043768941673462
397.0, 0.0016035842302267525
398.0, 0.0006414740559058811
399.0, 0.0005333915788272843
400.0, 0.0015494918156769375
401.0, 0.0016226546413977145
402.0, 0.0015744565893160468
403.0, 0.001178081214878973
404.0, 0.00023410445968984186
405.0, 0.0007964429710901595
406.0, 0.002176534703944866
407.0, 0.0028739807525769018
408.0, 0.0025683828254809537
409.0, 0.0018902075671136246
410.0, 0.002803834607846438
411.0, 0.0019866963192453195
412.0, 0.0017543837152672744
413.0, 0.0026918734313880993
414.0, 0.0028742423278092025
415.0, 0.0018530123740720665
416.0, 0.0010190111008764053
417.0, 0.0008822798177654762
418.0, 0.0006452941045835684
419.0, 0.00022428762832648835
420.0, 0.0005820431046578014
421.0, 0.0001908500099338525
422.0, 0.0013933646520864948
423.0, 0.0015647903718225484
424.0, 0.0006085309749358877
425.0, 0.0008277122322953443
426.0, 0.0017600588875034437
427.0, 0.0023813541542065265
428.0, 0.0031795301801925005
429.0, 0.00452852598443925
430.0, 0.005997824199436868
431.0, 0.005230112280907082
432.0, 0.005101630915790153
433.0, 0.006136148402851754
434.0, 0.007431174987458935
435.0, 0.00786315076776154
436.0, 0.008050432305747448
437.0, 0.008075554586466463
438.0, 0.009284987253827499
439.0, 0.010237170242231886
440.0, 0.010348706056839982
441.0, 0.012745800627725538
442.0, 0.014343331163344745
443.0, 0.01595111539068426
444.0, 0.017841187027357167
445.0, 0.019528586520352928
446.0, 0.019992939529517882
447.0, 0.024371478360728054
448.0, 0.026509272679642492
449.0, 0.027596317372791203
450.0, 0.029705817314028743
451.0, 0.03264944208924334
452.0, 0.03622862612778259
453.0, 0.0403581892474049
454.0, 0.045182375923129056
455.0, 0.049952118730492705
456.0, 0.05432483115823752
457.0, 0.0593499568711882
458.0, 0.0660045288247096
459.0, 0.07189995325655926
460.0, 0.0765318102767517
461.0, 0.08033490891851308
462.0, 0.08338622922017735
463.0, 0.08342127820587478
464.0, 0.08059771997121877
465.0, 0.0757399287430973
466.0, 0.06981318694805759
467.0, 0.06376647912449296
468.0, 0.05832696978634483
469.0, 0.05311722779307493
470.0, 0.0461026675108102
471.0, 0.0391609377772045
472.0, 0.03399522113211618
473.0, 0.029590843649915443
474.0, 0.02627241819427398
475.0, 0.024280299483798846
476.0, 0.022005646006126194
477.0, 0.018547502152556152
478.0, 0.014999322700743617
479.0, 0.015108378630431605
480.0, 0.013615626126123784
481.0, 0.011714921550495767
482.0, 0.010454914246565826
483.0, 0.009838819152842971
484.0, 0.009456947882393306
485.0, 0.008698458547548292
486.0, 0.00781927509646398
487.0, 0.007036953060891266
488.0, 0.006867691601969138
489.0, 0.007461107167084244
490.0, 0.007389068540002385
491.0, 0.007186952561659211
492.0, 0.008686744441295479
493.0, 0.009019476491050728
494.0, 0.007979518595493094
495.0, 0.01098740719353988
496.0, 0.012140061551568727
497.0, 0.013666077536404775
498.0, 0.015648718061971115
499.0, 0.017462356973368537
500.0, 0.018650449237558916
501.0, 0.019661624617663794
502.0, 0.022237719696037064
503.0, 0.024726648593562293
504.0, 0.02745757074664094
505.0, 0.03067455672920047
506.0, 0.03327655059915222
507.0, 0.03716099605165755
508.0, 0.04157371605916607
509.0, 0.046370337326391536
510.0, 0.05113130759536341
511.0, 0.05533365855558244
512.0, 0.0588899395548264
513.0, 0.06338221934853536
514.0, 0.06658995421147149
515.0, 0.06879436178102809
516.0, 0.06947346663063395
517.0, 0.06652537812498642
518.0, 0.06302526216432972
519.0, 0.059134230392978805
520.0, 0.053120705084348664
521.0, 0.046432007358385576
522.0, 0.0410425278022151
523.0, 0.03642794235843929
524.0, 0.03142674387216966
525.0, 0.02750044620820414
526.0, 0.023884463807675786
527.0, 0.020372570415783792
528.0, 0.017408297743442002
529.0, 0.014876347207479261
530.0, 0.013899572943090577
531.0, 0.012030805648486723
532.0, 0.01001821275509831
533.0, 0.008614491055450457
534.0, 0.007385388430709051
535.0, 0.007340195574945424
536.0, 0.005603637499546023
537.0, 0.00412245890883096
538.0, 0.003990726895955465
539.0, 0.004384189661275933
540.0, 0.0038422712342121115
541.0, 0.0023871791303174328
542.0, 0.001967063051181999
543.0, 0.0012631543574605775
544.0, 0.0006707749755087425
545.0, 0.001057486857868355
546.0, 0.00100941560084336
547.0, 0.0005602606444410713
548.0, 0.000486505249678086
549.0, 0.0002867927508624301
550.0, 0.00010407813861516544
551.0, 0.0003155610398032554
552.0, 0.0004196062290343723
553.0, 0.00015334902824814842
554.0, 0.0010012652137342765
555.0, 0.0008913437675286239
556.0, 0.0002206053671753508
557.0, 9.070201641463639e-05
558.0, 0.0003243877946815824
559.0, 0.00026119738321577813
560.0, 0.00038629603888044075
561.0, 0.0005968872631452598
562.0, 0.0008394575243229962
563.0, 0.000782194339141597
564.0, 0.0003018022293569906
565.0, 0.00012097311605600161
566.0, 4.035992098986899e-05
567.0, 0.0008742487522277634
568.0, 0.0019098725745237345
569.0, 0.002219400656658281
570.0, 0.002532697005235856
571.0, 0.0032980375778447046
572.0, 0.0035279650111199154
573.0, 0.004290561830336146
574.0, 0.00593801086031501
575.0, 0.0073488656598952075
576.0, 0.00883155429661123
577.0, 0.010640079965429317
578.0, 0.013631759854782616
579.0, 0.016339473859880185
580.0, 0.019470786450028237
581.0, 0.024336575895230562
582.0, 0.028658297434617806
583.0, 0.03304861000550702
584.0, 0.037444918510169144
585.0, 0.04273901596410538
586.0, 0.0486935581932311
587.0, 0.05499396765000475
588.0, 0.06424150931456533
589.0, 0.07602552675416761
590.0, 0.08887645095329985
591.0, 0.10420840515341218
592.0, 0.1245606614989261
593.0, 0.14932250904374159
594.0, 0.17489243324589168
595.0, 0.2030863692764695
596.0, 0.22856160735382597
597.0, 0.2442375704464866
598.0, 0.24389231745464107
599.0, 0.22691253326734073
600.0, 0.20149851864609714
601.0, 0.173688941640175
602.0, 0.1490403685585607
603.0, 0.1311897080094851
604.0, 0.11880699716451186
605.0, 0.10916743646508913
606.0, 0.10138104879896141
607.0, 0.09152728255618459
608.0, 0.08381758386477729
609.0, 0.0765323921846769
610.0, 0.06768334952930377
611.0, 0.058165835800972954
612.0, 0.0508979309474875
613.0, 0.04374212079141762
614.0, 0.03822099563197875
615.0, 0.03408414988863889
616.0, 0.030528306961410876
617.0, 0.026846912962998362
618.0, 0.023014598100016253
619.0, 0.020160148024042826
620.0, 0.018703052387314845
621.0, 0.016697796173128485
622.0, 0.015188728808867936
623.0, 0.014440926738705435
624.0, 0.01312297780242101
625.0, 0.011137323968190255
626.0, 0.011528969010979353
627.0, 0.010833238839978934
628.0, 0.009317643324418754
629.0, 0.008990961876343056
630.0, 0.008934917867513914
631.0, 0.00667260913406071
632.0, 0.006227059657224912
633.0, 0.0061551938042090516
634.0, 0.00627693060434122
635.0, 0.006142146578460638
636.0, 0.005571404357398934
637.0, 0.005118164840434395
638.0, 0.005021976959830929
639.0, 0.00621337792874077
640.0, 0.005792050890331441
641.0, 0.004062487904296707
642.0, 0.0032076525118517967
643.0, 0.0038340067695071364
644.0, 0.004252355449316419
645.0, 0.003922585413414453
646.0, 0.002917266586515448
647.0, 0.0033090024863907178
648.0, 0.0034637434995294413
649.0, 0.0024927052619863397
650.0, 0.0027394708892182883
651.0, 0.0024432519239755727
652.0, 0.0022571878764984514
653.0, 0.0024576236377456414
654.0, 0.0018208520695561455
655.0, 0.0014168112888526404
656.0, 0.0023367698728907526
657.0, 0.0024400955075230663
658.0, 0.0016220070140098265
659.0, 0.00037828726839352175
660.0, 0.0009879353800750683
661.0, 0.0010883669804611956
662.0, 0.00010062004567028707
663.0, 0.0005474673457060906
664.0, 0.0011577108215594346
665.0, 0.00032038871755058856
666.0, 0.00046434331916004825
667.0, 0.0007339677817524045
668.0, 0.0009018065918911518
669.0, 0.0010007577609165237
670.0, 0.0002575794689743868
671.0, 0.00022734588962132208
672.0, 0.0007269272903015935
673.0, 0.0005458697479382457
674.0, 0.00018995494754876825
675.0, 3.545134831420276e-05
676.0, 0.00029395238937432043
677.0, 0.0016307297645733966
678.0, 0.0017218640654232437
679.0, 0.0004145872531889503
680.0, 0.0005486974703456492
681.0, 0.0004717817355661973
682.0, 0.0009651700750383912
683.0, 0.00034099068792593117
684.0, 0.00011571459739207112
685.0, 0.0011803278774938876
686.0, 0.00033096242057541783
687.0, 0.00035768495462528327
688.0, 0.0010002894107029197
689.0, 0.0004991399406528171
690.0, 0.0003991865781889749
691.0, 0.00015002153053903753
692.0, 0.00011585478163746465
693.0, 0.00023745497940178312
694.0, 0.0005101557182304378
695.0, 0.0004231251707801579
696.0, 0.0003109376866161155
697.0, 0.0009296757599939787
698.0, 0.00013479822417686722
699.0, 0.000721596367625016
700.0, 0.00011361899299853893
701.0, 0.00042887859375221785
702.0, 0.00042448977574759
703.0, 0.0006208242672788412
704.0, 0.00017438123165691756
705.0, 0.00010534423829919006
706.0, 0.0002889752857578782
707.0, 0.0005314695599065612
708.0, 0.00044160301844076296
709.0, 0.0006185047110250849
710.0, 0.0007518278963342148
711.0, 0.0012513592810965033
712.0, 0.0011684279919019784
713.0, 0.0003383562198940194
714.0, 0.0009056408158418957
715.0, 0.0018711934287560569
716.0, 0.0018587015123350164
717.0, 0.0013879750226029075
718.0, 0.0018832781429630296
719.0, 0.0012983077193780505
720.0, 0.0015842696203421012
721.0, 0.001769685538686987
722.0, 0.0007971577559620912
723.0, 2.8636134295623133e-05
724.0, 0.0003932643682583085
725.0, 0.0004989209653202611
726.0, 0.00041616794807783174
727.0, 0.0008230728145788887
728.0, 0.0008725105030911016
729.0, 0.000615934689285401
730.0, 0.000633886329225871
731.0, 0.0009517711123211676
732.0, 0.0009233742324702698
733.0, 0.0006970566344682643
734.0, 0.001698908941997281
735.0, 0.0010756869741959916
736.0, 0.0012697486934636726
737.0, 0.0013519924849805748
738.0, 0.0001769214593704356
739.0, 0.0005552698932987223
740.0, 0.0005978701536596505
741.0, 0.00209929228275109
742.0, 0.0017166848354314519
743.0, 0.0006804545127020319
744.0, 0.00041932839896414645
745.0, 0.000984147791617819
746.0, 0.0017836207291380452
747.0, 0.0017272898852028612
748.0, 0.0009984869202216248
749.0, 0.0002700148622545748
750.0, 0.0009259624562858995
751.0, 0.0012791816505370443
752.0, 0.0005092817498200733
753.0, 8.091144679637786e-05
754.0, 0.0005207496317132464
755.0, 0.00030930309549992896
756.0, 9.154368777549953e-05
757.0, 0.0006498670220074173
758.0, 0.0008430387426024501
759.0, 0.0006967236085087675
760.0, 0.0012073837195448213
761.0, 0.00014376912530152314
762.0, 0.0020479689008328617
763.0, 0.0017067906356626433
764.0, 0.00037529024606308746
765.0, 0.0007163068328966704
766.0, 0.002696633853578107
767.0, 0.004101919304386294
768.0, 0.0031897976283779294
769.0, 0.0016543822757643372
770.0, 0.003365137084794724
771.0, 0.002846054753547327
772.0, 0.002580932031602666
773.0, 0.004730682373767071
774.0, 0.006309727895366066
775.0, 0.005483169119960369
776.0, 0.005615936425673642
777.0, 0.007242094246246407
778.0, 0.007131022029868683
779.0, 0.008949432296493025
780.0, 0.011431500249141755
781.0, 0.012574212988207488
782.0, 0.013611600638979038
783.0, 0.01622642585155256
784.0, 0.019471683087581407
785.0, 0.021829930352093286
786.0, 0.02584320768413651
787.0, 0.02933886267714612
788.0, 0.03338022662126161
789.0, 0.038137217685979476
790.0, 0.04285346999483498
791.0, 0.04869226793436466
792.0, 0.05556717043150034
793.0, 0.06194546156549543
794.0, 0.06949731428909613
795.0, 0.07911870408865601
796.0, 0.08934514635463331
797.0, 0.09923155599295594
798.0, 0.10925939322235027
799.0, 0.11942269003068962
800.0, 0.12730395946832213
801.0, 0.1300072866519347
802.0, 0.1268454754895289
803.0, 0.11807790776507933
804.0, 0.10498327144399026
805.0, 0.09051590328118138
806.0, 0.07714295559224221
807.0, 0.06482035968246627
808.0, 0.05344134728309375
809.0, 0.044456212694088115
810.0, 0.037048720745868534
811.0, 0.031380041776943236
812.0, 0.02593093380770781
813.0, 0.020855775501322654
814.0, 0.017455293471287707
815.0, 0.014526606487650789
816.0, 0.012161865584928553
817.0, 0.011244203863620171
818.0, 0.008398114173484017
819.0, 0.0065140700221274364
820.0, 0.0063983240322335695
821.0, 0.005730852062253274
822.0, 0.004200505555121885
823.0, 0.005112889547105365
824.0, 0.0025021172984407616
825.0, 0.0020289997180083716
826.0, 0.0021184716920444697
827.0, 0.001729154339481215
828.0, 0.0011216901750082898
829.0, 0.0009176550553443974
830.0, 0.0011332696296497472
831.0, 0.0012370347241015766
832.0, 0.0010858465354819996
833.0, 0.001398753966100822
834.0, 0.0006817829907722763
835.0, 6.939156029334191e-05
836.0, 0.0006442200634195109
837.0, 0.0008941040310350545
838.0, 0.0013581223396024018
839.0, 0.0010791480337735374
840.0, 0.00045584876116568356
841.0, 0.000610227319490629
842.0, 0.0002260502851760303
843.0, 0.00042326360122786725
844.0, 0.0002793436557775465
845.0, 3.277774737538372e-05
846.0, 0.0005041266434242808
847.0, 0.001099493940824447
848.0, 0.0006411520369434082
849.0, 0.001200492539508641
850.0, 0.0005790874547212956
851.0, 0.0004481043759405697
852.0, 0.0018809278637044503
853.0, 0.0022793714731746267
854.0, 0.0020807736013175814
855.0, 0.0027871244280312903
856.0, 0.00491685177436751
857.0, 0.0054565446215844885
858.0, 0.006339121083306588
859.0, 0.006870759696621246
860.0, 0.008440702111377122
861.0, 0.010582409279691575
862.0, 0.01115756721364641
863.0, 0.01122423875836574
864.0, 0.012485523394654795
865.0, 0.0131361643191054
866.0, 0.01459414367964128
867.0, 0.016180335740587453
868.0, 0.01804433466880931
869.0, 0.020594252294974007
870.0, 0.023610910722031857
871.0, 0.02680442126458535
872.0, 0.031085520883929057
873.0, 0.03574092894520648
874.0, 0.03997685495023259
875.0, 0.045741209464499846
876.0, 0.05023558963438054
877.0, 0.057192838462049526
878.0, 0.0647680578055395
879.0, 0.07223017055209231
880.0, 0.08081400654901447
881.0, 0.09022852486118359
882.0, 0.09864934489681783
883.0, 0.10599032880073808
884.0, 0.11204235199702949
885.0, 0.11430962518898218
886.0, 0.11352485268367808
887.0, 0.10899506161288453
888.0, 0.0999917615567652
889.0, 0.09028547568393462
890.0, 0.08027820016710681
891.0, 0.07149379636129614
892.0, 0.0627095322072873
893.0, 0.053736563371927934
894.0, 0.04527323930264208
895.0, 0.038551312485520565
896.0, 0.03343725333387764
897.0, 0.02871369887304443
898.0, 0.02449114724373957
899.0, 0.021146744060658237
900.0, 0.018053965853633818
901.0, 0.014839451766790732
902.0, 0.013006118879428114
903.0, 0.010041990916636327
904.0, 0.007937560541149758
905.0, 0.00697115095103523
906.0, 0.005565300656836966
907.0, 0.003937949745589799
908.0, 0.0027235050366223885
909.0, 0.0020180915342842007
910.0, 0.0029565762068594703
911.0, 0.0017407274458480391
912.0, 0.0002547658110938915
913.0, 0.0001625002164807469
914.0, 0.000181701560699867
915.0, 0.0008637471540493231
916.0, 0.0019257913218799797
917.0, 0.0020873115358247614
918.0, 0.0009474933105272745
919.0, 0.0010022534794269316
920.0, 0.0009918570734779926
921.0, 0.0004067512967958581
922.0, 0.0004864245263377229
923.0, 0.00022274899760605448
924.0, 0.0003483691555826061
925.0, 0.00046650906969542086
926.0, 0.0001341881984178729
927.0, 0.0006674849694715457
928.0, 0.00109637833810121
929.0, 0.0017828081444317238
930.0, 0.0018855230812800223
931.0, 0.002571167476527511
932.0, 0.003553396686702222
933.0, 0.005746108241379819
934.0, 0.007102686689076651
935.0, 0.008297043041375143
936.0, 0.009968323537471792
937.0, 0.011256524558871066
938.0, 0.013622512841223853
939.0, 0.015943263375732375
940.0, 0.01732695349806455
941.0, 0.019919751258737694
942.0, 0.024131275972293278
943.0, 0.027312493305618708
944.0, 0.03210267623262059
945.0, 0.0369796160691879
946.0, 0.04247303199413931
947.0, 0.05058063349918765
948.0, 0.05891623569499715
949.0, 0.06955949133447321
950.0, 0.08325305008326146
951.0, 0.10124267656964077
952.0, 0.11942513684572725
953.0, 0.14140392020019704
954.0, 0.16740889280172963
955.0, 0.19509617367740403
956.0, 0.22458735126763232
957.0, 0.2591634218352663
958.0, 0.3023048974556608
959.0, 0.35027921459474376
960.0, 0.4106376478679932
961.0, 0.48089063389574127
962.0, 0.5580852920273045
963.0, 0.6453885228182324
964.0, 0.7335694212839057
965.0, 0.8027874099648771
966.0, 0.8318667781932494
967.0, 0.8096013876092346
968.0, 0.7367265335989066
969.0, 0.6235590699306915
970.0, 0.5082893032988585
971.0, 0.39874045892843585
972.0, 0.3133449248092033
973.0, 0.24767654567391212
974.0, 0.19585187520916475
975.0, 0.15569832236888184
976.0, 0.12539589499328085
977.0, 0.10195684658146034
978.0, 0.0832059602588474
979.0, 0.06794488077455302
980.0, 0.05594134070246567
981.0, 0.047070493864875954
982.0, 0.03941556502952782
983.0, 0.03335598645581607
984.0, 0.028006640964747975
985.0, 0.02314076260862477
986.0, 0.018730392094533897
987.0, 0.015494219554622051
988.0, 0.013300580362692256
989.0, 0.01129196363061327
990.0, 0.011119726199540068
991.0, 0.009033679611980469
992.0, 0.007849569558135691
993.0, 0.008204397004432509
994.0, 0.009034535162273807
995.0, 0.009794767655351703
996.0, 0.012760949442988539
997.0, 0.017532343911777024
998.0, 0.02392013493672336
999.0, 0.033024685735722634
1000.0, 0.04413030493095627
1001.0, 0.05453038904970354
1002.0, 0.06271655368678328
1003.0, 0.07222863612178317
1004.0, 0.08480583805256488
1005.0, 0.10366800560895298
1006.0, 0.12839189179989757
1007.0, 0.16011772814366224
1008.0, 0.20297055073388282
1009.0, 0.26496387757091805
1010.0, 0.3565520331458614
1011.0, 0.47737041043075035
1012.0, 0.5823605366681127
1013.0, 0.5876149972646548
1014.0, 0.4650386912260856
1015.0, 0.3082387480205975
1016.0, 0.18724699834730307
1017.0, 0.11387794801505889
1018.0, 0.07407226524152893
1019.0, 0.049975094264038976
1020.0, 0.034228040554336876
1021.0, 0.024854187870651627
1022.0, 0.017388785839875038
1023.0, 0.010396065426597342
1024.0, 0.008053026936441611
1025.0, 0.005488517919945226
1026.0, 0.00277333960067817
1027.0, 0.0019156908947597622
1028.0, 0.0003632379275430943
1029.0, 0.000776874038561533
1030.0, 0.000877810890377928
1031.0, 0.00077871704685366
1032.0, 0.0008857444446209876
1033.0, 0.0018598030356376703
1034.0, 0.0021529217914657275
1035.0, 0.0009220542431485364
1036.0, 0.0009822323242826096
1037.0, 0.0006667810487329581
1038.0, 0.002110595637962389
1039.0, 0.0026905983358715673
1040.0, 0.005092732689496804
1041.0, 0.008244385847500318
1042.0, 0.010396103343063404
1043.0, 0.013419467726728695
1044.0, 0.01744085178347891
1045.0, 0.02226525994165124
1046.0, 0.028099711629148493
1047.0, 0.03474286401426785
1048.0, 0.046519425420668
1049.0, 0.06029524257913474
1050.0, 0.07458228605350592
1051.0, 0.08977685808749764
1052.0, 0.09895421733566803
1053.0, 0.09750374732358777
1054.0, 0.08818894709555469
1055.0, 0.08142473209684943
1056.0, 0.07928460165845232
1057.0, 0.07897265112307138
1058.0, 0.08202242460879428
1059.0, 0.08977463082196735
1060.0, 0.09870945957259653
1061.0, 0.10873529247511383
1062.0, 0.12348990340287591
1063.0, 0.14173385951161263
1064.0, 0.16569881734009229
1065.0, 0.19160969027555017
1066.0, 0.22306846032012764
1067.0, 0.2588794367157671
1068.0, 0.28818785492699833
1069.0, 0.2992066313920921
1070.0, 0.286566478000053
1071.0, 0.2517697647926507
1072.0, 0.2033128357497691
1073.0, 0.15595055029475158
1074.0, 0.11676126505404567
1075.0, 0.08757940830282412
1076.0, 0.06728556795741775
1077.0, 0.05268510823203003
1078.0, 0.04205727827446308
1079.0, 0.033464697647430305
1080.0, 0.026771160532644
1081.0, 0.023165345010512393
1082.0, 0.019093451699010985
1083.0, 0.015530539373265862
1084.0, 0.013653867157925716
1085.0, 0.010924369301639826
1086.0, 0.009691829692726505
1087.0, 0.008886101912607774
1088.0, 0.007360190592042522
1089.0, 0.005919592589574535
1090.0, 0.005820461600987848
1091.0, 0.0035303479778899896
1092.0, 0.003270804852219886
1093.0, 0.003022461226512651
1094.0, 0.00286746893449439
1095.0, 0.0021975455553485315
1096.0, 0.0019146911388720985
1097.0, 0.0015369682081587718
1098.0, 0.0005978637026112717
1099.0, 0.0008322186277218766
1100.0, 0.001036530305659627
1101.0, 0.0011145029940977315
1102.0, 0.0015227124438033385
1103.0, 0.0007568624162494564
1104.0, 2.3929051865387847e-05
1105.0, 0.00032990172897431457
1106.0, 0.000546883856572864
1107.0, 0.00029838149815560137
1108.0, 0.0005067096651888061
1109.0, 0.0008427459678867115
1110.0, 0.0004517446231248299
1111.0, 5.170528662359972e-05
1112.0, 0.00014853965812043613
1113.0, 0.0001369825131262321
1114.0, 0.0002929559220382085
1115.0, 0.00017452605584698339
1116.0, 0.0005189652847246256
1117.0, 6.670995623037929e-05
1118.0, 0.0010302298800825822
1119.0, 3.7951271687115184e-05
1120.0, 0.0004182953953519845
1121.0, 0.0003388411874561834
1122.0, 0.00042753872816194815
1123.0, 0.0002140894302655092
1124.0, 0.00025852137932148953
1125.0, 0.00030519377532607487
1126.0, 0.0003619231893281049
1127.0, 0.0011136445031962182
1128.0, 0.0018691826171289537
1129.0, 0.00017438183544647788
1130.0, 0.0007647030860456693
1131.0, 0.0010192110095890374
1132.0, 0.00023568345277494998
1133.0, 0.0008702803206192236
1134.0, 0.0009922388327530778
1135.0, 0.0006690617492403981
1136.0, 0.0007562827159723623
1137.0, 0.0003259620337977484
1138.0, 0.0001513874667914113
1139.0, 0.001107205389427354
1140.0, 0.0015436565268127772
1141.0, 0.0007767449441510227
1142.0, 0.0022296434751282847
1143.0, 0.0034432711187896087
1144.0, 0.0008415369632243136
1145.0, 0.0004052707503580865
1146.0, 0.0014332033915695022
1147.0, 0.001023810486144787
1148.0, 0.0013961982540799099
1149.0, 0.002946386781287826
1150.0, 0.0011353449194693678
1151.0, 0.002146551601769814
1152.0, 0.0019868709223510106
1153.0, 0.003457484484255153
1154.0, 0.0036761760888111387
1155.0, 0.0032465777338419512
1156.0, 0.003794138388442613
1157.0, 0.004240840639088226
1158.0, 0.004933979201693717
1159.0, 0.005573027371217145
1160.0, 0.005522042450037944
1161.0, 0.006065804610415072
1162.0, 0.00693713282532988
1163.0, 0.007760423081867633
1164.0, 0.006998220763281887
1165.0, 0.007888263873955333
1166.0, 0.005958202502275851
1167.0, 0.007504460022407738
1168.0, 0.007346855632339791
1169.0, 0.007966138107058806
1170.0, 0.007412381659646422
1171.0, 0.0074781676769168255
1172.0, 0.00741040870716873
1173.0, 0.006737891731683462
1174.0, 0.007086397974672115
1175.0, 0.007270260600570075
1176.0, 0.006560551940760436
1177.0, 0.006022623101495281
1178.0, 0.00564188004049259
1179.0, 0.006295634395694877
1180.0, 0.005932183144446732
1181.0, 0.005343968310864443
1182.0, 0.006361495973171034
1183.0, 0.005366755148300003
1184.0, 0.005383858547139862
1185.0, 0.00552503312221242
1186.0, 0.004982309255485224
1187.0, 0.005697360781217281
1188.0, 0.0069628022730110935
1189.0, 0.004979515313114191
1190.0, 0.007130795360813012
1191.0, 0.006567769100417581
1192.0, 0.004619606309669571
1193.0, 0.003649976357557973
1194.0, 0.004313154723126501
1195.0, 0.00525566777517267
1196.0, 0.004801939293889581
1197.0, 0.00435322647249929
1198.0, 0.0031911164709207797
1199.0, 0.0032309536746193313
1200.0, 0.003208543476994517
1201.0, 0.0035152894271520212
1202.0, 0.003950958135374823
1203.0, 0.0031505383822590612
1204.0, 0.0035475618182439516
1205.0, 0.003916197383570312
1206.0, 0.0032920973603157654
1207.0, 0.0027011369010036725
1208.0, 0.0031054847652466668
1209.0, 0.003506519526095446
1210.0, 0.0036146224527576288
1211.0, 0.003326211859728504
1212.0, 0.003187466060949238
1213.0, 0.0021606887878247156
1214.0, 0.002139576877600912
1215.0, 0.0028314245850071047
1216.0, 0.002816594352411225
1217.0, 0.0034180337858986942
1218.0, 0.003562210903832594
1219.0, 0.002830359713036325
1220.0, 0.0029058390364420056
1221.0, 0.002422235332409464
1222.0, 0.0019834826633408457
1223.0, 0.003899518938974267
1224.0, 0.002772059050477073
1225.0, 0.0037775818507334155
1226.0, 0.0037298991988128434
1227.0, 0.0037285088041730135
1228.0, 0.003136763767802321
1229.0, 0.002785399752127414
1230.0, 0.002724048314346784
1231.0, 0.002618784781874998
1232.0, 0.0020941058017676867
1233.0, 0.000676086549293833
1234.0, 0.0008419030151094294
1235.0, 0.0011426864059122107
1236.0, 0.0011949459011270998
1237.0, 0.001983227452835987
1238.0, 0.0021149712439340646
1239.0, 0.0012662280078720681
1240.0, 0.0009047099232275808
1241.0, 0.0015064268987832195
1242.0, 0.0008204445167869378
1243.0, 0.0007194419016927305
1244.0, 0.0030758723613550664
1245.0, 0.004082927299551568
1246.0, 0.0025147774328270057
1247.0, 0.002100928549417702
1248.0, 0.001782934774325282
1249.0, 0.0010388424285078725
1250.0, 0.000786825256543446
1251.0, 0.0001678231904360242
1252.0, 0.0006105171726682771
1253.0, 0.0005321147938772609
1254.0, 0.00010333829992557318
1255.0, 0.0008114345772598458
1256.0, 0.00043396787687339665
1257.0, 0.0007447550043220663
1258.0, 0.0007938949908782677
1259.0, 0.0004986777297007506
1260.0, 0.0003345403401173007
1261.0, 0.000639355591546249
1262.0, 0.0013340347262183942
1263.0, 0.0012714119689348868
1264.0, 0.0013605041089203229
1265.0, 0.0012533394513658568
1266.0, 0.0006599791822474675
1267.0, 0.0005536542153465869
1268.0, 0.00047197912343779224
1269.0, 0.001139342136235683
1270.0, 0.0009478659919813243
1271.0, 0.00010212338225583912
1272.0, 0.00010635256725988606
1273.0, 0.00013974715522123508
1274.0, 8.049430559613479e-05
1275.0, 0.00015867305586435008
1276.0, 0.0002887061911078261
1277.0, 0.00017744767961293435
1278.0, 5.50879301447471e-05
1279.0, 0.00033714636935320045
1280.0, 0.0010851638829428556
1281.0, 0.0001461635496178875
1282.0, 0.00021139272401828036
1283.0, 0.0020469921157109825
1284.0, 0.00234928576512735
1285.0, 0.0008614124142136469
1286.0, 1.0466169355458713e-05
1287, 0.0
1288, 0.0
1289, 0.0
1290, 0.0
1291, 0.0
1292, 0.0
1293, 0.0
1294, 0.0
1295, 0.0
1296, 0.0
1297, 0.0
1298, 0.0
1299, 0.0
1300, 0.0
1301, 0.0
1302, 0.0
1303, 0.0
1304, 0.0
1305, 0.0
1306, 0.0
1307, 0.0
1308, 0.0
1309, 0.0
1310, 0.0
1311, 0.0
1312, 0.0
1313, 0.0
1314, 0.0
1315, 0.0
1316, 0.0
1317, 0.0
1318, 0.0
1319, 0.0
1320, 0.0
1321, 0.0
1322, 0.0
1323, 0.0
1324, 0.0
1325, 0.0
1326, 0.0
1327, 0.0
1328, 0.0
1329, 0.0
1330, 0.0
1331, 0.0
1332, 0.0
1333, 0.0
1334, 0.0
1335, 0.0
1336, 0.0
1337, 0.0
1338, 0.0
1339, 0.0
1340, 0.0
1341, 0.0
1342, 0.0
1343, 0.0
1344, 0.0
1345, 0.0
1346, 0.0
1347, 0.0
1348, 0.0
1349, 0.0
1350, 0.0
1351, 0.0
1352, 0.0
1353, 0.0
1354, 0.0
1355, 0.0
1356, 0.0
1357, 0.0
1358, 0.0
1359, 0.0
1360, 0.0
1361, 0.0
1362, 0.0
1363, 0.0
1364, 0.0
1365, 0.0
1366, 0.0
1367, 0.0
1368, 0.0
1369, 0.0
1370, 0.0
1371, 0.0
1372, 0.0
1373, 0.0
1374, 0.0
1375, 0.0
1376, 0.0
1377, 0.0
1378, 0.0
1379, 0.0
1380, 0.0
1381, 0.0
1382, 0.0
1383, 0.0
1384, 0.0
1385, 0.0
1386, 0.0
1387, 0.0
1388, 0.0
1389, 0.0
1390, 0.0
1391, 0.0
1392, 0.0
1393, 0.0
1394, 0.0
1395, 0.0
1396, 0.0
1397, 0.0
1398, 0.0
1399, 0.0
1400, 0.0
1401, 0.0
1402, 0.0
1403, 0.0
1404, 0.0
1405, 0.0
1406, 0.0
1407, 0.0
1408, 0.0
1409, 0.0
1410, 0.0
1411, 0.0
1412, 0.0
1413, 0.0
1414, 0.0
1415, 0.0
1416, 0.0
1417, 0.0
1418, 0.0
1419, 0.0
1420, 0.0
1421, 0.0
1422, 0.0
1423, 0.0
1424, 0.0
1425, 0.0
1426, 0.0
1427, 0.0
1428, 0.0
1429, 0.0
1430, 0.0
1431, 0.0
1432, 0.0
1433, 0.0
1434, 0.0
1435, 0.0
1436, 0.0
1437, 0.0
1438, 0.0
1439, 0.0
1440, 0.0
1441, 0.0
1442, 0.0
1443, 0.0
1444, 0.0
1445, 0.0
1446, 0.0
1447, 0.0
1448, 0.0
1449, 0.0
1450, 0.0
1451, 0.0
1452, 0.0
1453, 0.0
1454, 0.0
1455, 0.0
1456, 0.0
1457, 0.0
1458, 0.0
1459, 0.0
1460, 0.0
1461, 0.0
1462, 0.0
1463, 0.0
1464, 0.0
1465, 0.0
1466, 0.0
1467, 0.0
1468, 0.0
1469, 0.0
1470, 0.0
1471, 0.0
1472, 0.0
1473, 0.0
1474, 0.0
1475, 0.0
1476, 0.0
1477, 0.0
1478, 0.0
1479, 0.0
1480, 0.0
1481, 0.0
1482, 0.0
1483, 0.0
1484, 0.0
1485, 0.0
1486, 0.0
1487, 0.0
1488, 0.0
1489, 0.0
1490, 0.0
1491, 0.0
1492, 0.0
1493, 0.0
1494, 0.0
1495, 0.0
1496, 0.0
1497, 0.0
1498, 0.0
1499, 0.0
1500, 0.0
1501, 0.0
1502, 0.0
1503, 0.0
1504, 0.0
1505, 0.0
1506, 0.0
1507, 0.0
1508, 0.0
1509, 0.0
1510, 0.0
1511, 0.0
1512, 0.0
1513, 0.0
1514, 0.0
1515, 0.0
1516, 0.0
1517, 0.0
1518, 0.0
1519, 0.0
1520, 0.0
1521, 0.0
1522, 0.0
1523, 0.0
1524, 0.0
1525, 0.0
1526, 0.0
1527, 0.0
1528, 0.0
1529, 0.0
1530, 0.0
1531, 0.0
1532, 0.0
1533, 0.0
1534, 0.0
1535, 0.0
1536, 0.0
1537, 0.0
1538, 0.0
1539, 0.0
1540, 0.0
1541, 0.0
1542, 0.0
1543, 0.0
1544, 0.0
1545, 0.0
1546, 0.0
1547, 0.0
1548, 0.0
1549, 0.0
1550, 0.0
1551, 0.0
1552, 0.0
1553, 0.0
1554, 0.0
1555, 0.0
1556, 0.0
1557, 0.0
1558, 0.0
1559, 0.0
1560, 0.0
1561, 0.0
1562, 0.0
1563, 0.0
1564, 0.0
1565, 0.0
1566, 0.0
1567, 0.0
1568, 0.0
1569, 0.0
1570, 0.0
1571, 0.0
1572, 0.0
1573, 0.0
1574, 0.0
1575, 0.0
1576, 0.0
1577, 0.0
1578, 0.0
1579, 0.0
1580, 0.0
1581, 0.0
1582, 0.0
1583, 0.0
1584, 0.0
1585, 0.0
1586, 0.0
1587, 0.0
1588, 0.0
1589, 0.0
1590, 0.0
1591, 0.0
1592, 0.0
1593, 0.0
1594, 0.0
1595, 0.0
1596, 0.0
1597, 0.0
1598, 0.0
1599, 0.0
