30, 0.0
31, 0.0
32, 0.0
33, 0.0
34, 0.0
35, 0.0
36, 0.0
37, 0.0
38, 0.0
39, 0.0
40, 0.0
41, 0.0
42, 0.0
43, 0.0
44, 0.0
45, 0.0
46, 0.0
47, 0.0
48, 0.0
49, 0.0
50, 0.0
51, 0.0
52, 0.0
53, 0.0
54, 0.0
55, 0.0
56, 0.0
57, 0.0
58, 0.0
59, 0.0
60, 0.0
61, 0.0
62, 0.0
63, 0.0
64, 0.0
65, 0.0
66, 0.0
67, 0.0
68, 0.0
69, 0.0
70, 0.0
71, 0.0
72, 0.0
73, 0.0
74, 0.0
75, 0.0
76, 0.0
77, 0.0
78, 0.0
79, 0.0
80, 0.0
81, 0.0
82, 0.0
83, 0.0
84, 0.0
85, 0.0
86, 0.0
87, 0.0
88, 0.0
89, 0.0
90, 0.0
91, 0.0
92, 0.0
93, 0.0
94, 0.0
95, 0.0
96, 0.0
97, 0.0
98, 0.0
99, 0.0
100, 0.0
101, 0.0
102, 0.0
103, 0.0
104, 0.0
105, 0.0
106, 0.0
107, 0.0
108, 0.0
109, 0.0
110, 0.0
111, 0.0
112.0, 0.0010951775055386683
113.0, 0.006414206606686045
114.0, 0.011099480357458592
115.0, 0.011175237984415411
116.0, 0.002389121498792676
117.0, 0.0035916800431616044
118.0, 0.012615762693027084
119.0, 0.003138045689236663
120.0, 0.004245063641771966
121.0, 0.0049916950279917435
122.0, 0.004693779071220193
123.0, 0.0240636555185662
124.0, 0.02326372025359829
125.0, 0.023082212305193046
126.0, 0.03168549704936279
127.0, 0.03974814499215035
128.0, 0.053411990409868305
129.0, 0.05234987180351455
130.0, 0.04725148377103722
131.0, 0.05801327212594732
132.0, 0.06586308088848285
133.0, 0.07755118092211025
134.0, 0.08302318246353377
135.0, 0.08004594339208375
136.0, 0.09255408034314241
137.0, 0.09559881696294326
138.0, 0.09342140010991933
139.0, 0.09180738851709008
140.0, 0.08893934195699796
141.0, 0.08349460255257356
142.0, 0.07684905627110176
143.0, 0.07449732801542286
144.0, 0.08180870372969004
145.0, 0.0925768259828649
146.0, 0.10110987520772527
147.0, 0.10013219076863741
148.0, 0.08892513688267487
149.0, 0.07927508631676432
150.0, 0.06259929895161424
151.0, 0.05136210153047311
152.0, 0.050793178538825465
153.0, 0.0441657183996766
154.0, 0.044234845713943316
155.0, 0.047423299239384174
156.0, 0.050537715241725505
157.0, 0.05444901569534497
158.0, 0.053969235238327196
159.0, 0.054309064722247405
160.0, 0.05335983896425344
161.0, 0.0458321534150508
162.0, 0.04974656211433218
163.0, 0.05083000753469651
164.0, 0.05141248319702977
165.0, 0.056916048234090674
166.0, 0.060834416399209036
167.0, 0.07109645296802679
168.0, 0.08526649037856114
169.0, 0.09921583616038737
170.0, 0.11088578160133813
171.0, 0.1286676814173129
172.0, 0.1494376707811708
173.0, 0.16673414350308155
174.0, 0.17342213988965605
175.0, 0.16956075576219742
176.0, 0.1554026325456986
177.0, 0.13217662674648356
178.0, 0.10296577219507558
179.0, 0.07489143565963347
180.0, 0.05055906566893624
181.0, 0.027046808875492538
182.0, 0.006830130926133372
183.0, 0.0022468013476064064
184.0, 0.005053963514333732
185.0, 0.006110544448445666
186.0, 0.006816462473007336
187.0, 0.00806173135025807
188.0, 0.005252895191632712
189.0, 0.0012792850513229335
190.0, 0.0003280700898972153
191.0, 0.0007962491659229749
192.0, 0.002699437296742082
193.0, 0.004898035405285254
194.0, 0.007843403311519571
195.0, 0.010343007796331356
196.0, 0.004448810698499697
197.0, 0.008950656890345347
198.0, 0.00903892904228774
199.0, 0.006806749359959967
200.0, 0.009628707334858166
201.0, 0.005587687384306055
202.0, 0.012035819705881783
203.0, 0.024551255610486857
204.0, 0.03376083725774945
205.0, 0.035499246176482514
206.0, 0.03543824976229393
207.0, 0.04114557744059271
208.0, 0.047898242991122754
209.0, 0.04919402811979519
210.0, 0.053496672491814085
211.0, 0.05917864525704907
212.0, 0.06551439024277653
213.0, 0.07179464623523277
214.0, 0.07481658234071506
215.0, 0.08473286596630919
216.0, 0.09881305508614405
217.0, 0.11129519849430522
218.0, 0.11648231273075976
219.0, 0.12314819162007527
220.0, 0.13740049630855983
221.0, 0.15210603097838626
222.0, 0.1616061682607728
223.0, 0.1749573778207762
224.0, 0.18522476989384742
225.0, 0.19684873785742685
226.0, 0.21091469473899746
227.0, 0.22255250124680648
228.0, 0.22277147647055007
229.0, 0.22105451462633563
230.0, 0.21833930015377462
231.0, 0.21410077523338883
232.0, 0.21361209777358933
233.0, 0.20819817366949525
234.0, 0.19322339545662803
235.0, 0.1760019829934654
236.0, 0.16934866564005502
237.0, 0.15819504387063757
238.0, 0.14400313727738515
239.0, 0.12909462614963
240.0, 0.12080044127165734
241.0, 0.12912774744252434
242.0, 0.1303523556781054
243.0, 0.1248543246128491
244.0, 0.12111221751030583
245.0, 0.12284502309265387
246.0, 0.11893125127012627
247.0, 0.12376325970361897
248.0, 0.12664702184764848
249.0, 0.12350951600962767
250.0, 0.12725508222788334
251.0, 0.11950508152649195
252.0, 0.12450953616918056
253.0, 0.13682697611093858
254.0, 0.13906357055085772
255.0, 0.15416415141035947
256.0, 0.1680315115108808
257.0, 0.1803586663479664
258.0, 0.19443980940076122
259.0, 0.21132442814050015
260.0, 0.21289554238927733
261.0, 0.22014265051687473
262.0, 0.2280531199345377
263.0, 0.22186049758228457
264.0, 0.21524231193125012
265.0, 0.21569543972262795
266.0, 0.20056803764122683
267.0, 0.1760646051853248
268.0, 0.16713784553722505
269.0, 0.15243162532832266
270.0, 0.14027287529628674
271.0, 0.1252271215691905
272.0, 0.1054866327768328
273.0, 0.09140322616085292
274.0, 0.0832776774171141
275.0, 0.07448233286088751
276.0, 0.06667847011996689
277.0, 0.062220527497839184
278.0, 0.0527572147466139
279.0, 0.05054696262915807
280.0, 0.046106279204861
281.0, 0.03736928231688058
282.0, 0.03361866283346704
283.0, 0.03611966700747449
284.0, 0.04038143048135448
285.0, 0.044000575708673106
286.0, 0.04476196098539392
287.0, 0.03979697957564312
288.0, 0.034641325498351395
289.0, 0.038000921384576176
290.0, 0.041074338479070244
291.0, 0.035096795113185836
292.0, 0.03752094696489397
293.0, 0.03725978647374092
294.0, 0.03293615809221122
295.0, 0.03139035412165143
296.0, 0.03888922543869111
297.0, 0.03461281188047186
298.0, 0.0339065134412665
299.0, 0.03552359640584145
300.0, 0.0367415050258615
301.0, 0.03899581140239704
302.0, 0.03245916669959937
303.0, 0.03009062849590845
304.0, 0.030407095291795236
305.0, 0.025199082883635097
306.0, 0.01457610432697414
307.0, 0.0020781540221062483
308.0, 0.0021183965938916687
309.0, 0.0066980509121281695
310.0, 0.002464652220713447
311.0, 0.0011469497360496624
312.0, 0.0055953595663647375
313.0, 0.008112733329597402
314.0, 0.0100550483078537
315.0, 0.014162158420765533
316.0, 0.008620643607428952
317.0, 0.006519391486882399
318.0, 0.00672042761855005
319.0, 0.004635857404865447
320.0, 0.0010027768780357634
321.0, 0.005336145031897097
322.0, 0.0023109690189606997
323.0, 0.010227741710953427
324.0, 0.008888170426003773
325.0, 0.00490762436603605
326.0, 0.008533457396418538
327.0, 0.01183228666751024
328.0, 0.017230463059455692
329.0, 0.02841929753045199
330.0, 0.036986738527904496
331.0, 0.043127044467882084
332.0, 0.045727338615664546
333.0, 0.049918810893636444
334.0, 0.05984024178690761
335.0, 0.0671085118731813
336.0, 0.07355894035681096
337.0, 0.0801075817087687
338.0, 0.0871523505629198
339.0, 0.09219759992266292
340.0, 0.08162963155271331
341.0, 0.08636030030942748
342.0, 0.09244420603974844
343.0, 0.09156259142251688
344.0, 0.09380840649876299
345.0, 0.0983025006897168
346.0, 0.09746075122107081
347.0, 0.09937552834911409
348.0, 0.10881210227411242
349.0, 0.11955085015343975
350.0, 0.11922932610099847
351.0, 0.11704285888194982
352.0, 0.11601842349121612
353.0, 0.11465444521212212
354.0, 0.11207565317982948
355.0, 0.10809138323804496
356.0, 0.11335966928332364
357.0, 0.12602551401574458
358.0, 0.13593601740297742
359.0, 0.1332054849028551
360.0, 0.13005669231655684
361.0, 0.13704398829476977
362.0, 0.14533741817682017
363.0, 0.14879772984726375
364.0, 0.15554886381265878
365.0, 0.1555609045439688
366.0, 0.16165737566189292
367.0, 0.1696084316856917
368.0, 0.17220463194967478
369.0, 0.17616307256554584
370.0, 0.18844766464089122
371.0, 0.19095449725615582
372.0, 0.19351018767607278
373.0, 0.2047065132379658
374.0, 0.20877358183049216
375.0, 0.20222474718644462
376.0, 0.19921277880538185
377.0, 0.20276733547200454
378.0, 0.2031055770675948
379.0, 0.18911823893370833
380.0, 0.1730466409469847
381.0, 0.15570343090242955
382.0, 0.14155803036577974
383.0, 0.12941173783592053
384.0, 0.11220381406916526
385.0, 0.09730618483396618
386.0, 0.08797516902500058
387.0, 0.08079878368973886
388.0, 0.070653974552939
389.0, 0.053614510638941515
390.0, 0.0530452548441818
391.0, 0.05339325010183132
392.0, 0.04855531836911084
393.0, 0.041021980512457146
394.0, 0.039555290940153864
395.0, 0.03925003157222228
396.0, 0.03285721164577423
397.0, 0.030578332703642266
398.0, 0.030830037628893067
399.0, 0.01999035305387989
400.0, 0.013757638128140825
401.0, 0.012897040045167021
402.0, 0.010417050038707769
403.0, 0.006009844805616925
404.0, 0.006036074866127061
405.0, 0.017758424570393633
406.0, 0.012713940032822396
407.0, 0.005260016896484639
408.0, 0.0024011596922604555
409.0, 0.004060344051979476
410.0, 0.0014773630153891069
411.0, 0.005351313303839182
412.0, 0.0063792949041989715
413.0, 0.007605786926526033
414.0, 0.012501347697538467
415.0, 0.007660247510172768
416.0, 0.012723825380011246
417.0, 0.015189917114404079
418.0, 0.011536039893707238
419.0, 0.009257724057085874
420.0, 0.014466408110944703
421.0, 0.014238953237972548
422.0, 0.017192354386120295
423.0, 0.020445411000322714
424.0, 0.01944873440565093
425.0, 0.015107402568817234
426.0, 0.011206117711673971
427.0, 0.011556267164560373
428.0, 0.018170403795888385
429.0, 0.026514166259231753
430.0, 0.027074315884551996
431.0, 0.020204460736309764
432.0, 0.027654002197078014
433.0, 0.032568709933039876
434.0, 0.03293723052991676
435.0, 0.03506548462847611
436.0, 0.02992625459243127
437.0, 0.03622288708229174
438.0, 0.04299576293673117
439.0, 0.04442954251417106
440.0, 0.04521126989032956
441.0, 0.04989145912715546
442.0, 0.05389971346600017
443.0, 0.06465467985366186
444.0, 0.07220958166408965
445.0, 0.07178408966591847
446.0, 0.07652915683955938
447.0, 0.08641688374008491
448.0, 0.0992432269856104
449.0, 0.10734089010617967
450.0, 0.11173381331602561
451.0, 0.12226711592483068
452.0, 0.13373894812470902
453.0, 0.14890121144776294
454.0, 0.16556741062692215
455.0, 0.1727184159379265
456.0, 0.170467483825986
457.0, 0.17698428536213306
458.0, 0.1902235221884931
459.0, 0.18112405483318383
460.0, 0.17312483703081488
461.0, 0.17230842713728484
462.0, 0.1532352282759666
463.0, 0.15106056053755926
464.0, 0.1373196084940975
465.0, 0.1218317634917473
466.0, 0.10697001524675638
467.0, 0.08606568423084027
468.0, 0.07693926194884823
469.0, 0.06846267661020976
470.0, 0.060476065036070066
471.0, 0.05170656702653845
472.0, 0.042080878545547235
473.0, 0.03410291115174223
474.0, 0.02219963443327107
475.0, 0.020339332807574093
476.0, 0.022442757642035877
477.0, 0.01924947371347894
478.0, 0.010181848340560263
479.0, 0.006168855310522779
480.0, 0.0021190509907917355
481.0, 0.000996908712039817
482.0, 0.0007268752543067341
483.0, 0.0026288424156300505
484.0, 0.008849292641852184
485.0, 0.010663291041794823
486.0, 0.011968057084788392
487.0, 0.008242799119424358
488.0, 0.0036352778018306155
489.0, 0.004219607263098222
490.0, 0.003373630349073595
491.0, 0.001672186357017934
492.0, 0.0028811490949206113
493.0, 0.001171020276107724
494.0, 0.0020490873565808983
495.0, 0.005310444638945318
496.0, 0.007519563154860658
497.0, 0.009295279183275393
498.0, 0.011078281611372209
499.0, 0.01303400782649768
500.0, 0.018415074049631282
501.0, 0.017793954346374607
502.0, 0.0206252976204398
503.0, 0.018570866168227833
504.0, 0.01972206966415312
505.0, 0.0287757674491647
506.0, 0.033935227982649
507.0, 0.038148341273386725
508.0, 0.0350367217047173
509.0, 0.03520820059023714
510.0, 0.03980931264903714
511.0, 0.04250572274117871
512.0, 0.04129379330739112
513.0, 0.04190082228376249
514.0, 0.03931521857658847
515.0, 0.03788772566109239
516.0, 0.0377587571022868
517.0, 0.031091395600553046
518.0, 0.026283345916125852
519.0, 0.022745106635295664
520.0, 0.024589809346575234
521.0, 0.024712683471507454
522.0, 0.01892485988458262
523.0, 0.016194686594425564
524.0, 0.021521925479027527
525.0, 0.019279851493766702
526.0, 0.015411144749174462
527.0, 0.01586186896743312
528.0, 0.01975153772771002
529.0, 0.019453816612367326
530.0, 0.023004485986440438
531.0, 0.015090758969426785
532.0, 0.009989693510638505
533.0, 0.01618409371695966
534.0, 0.01937385235801648
535.0, 0.01716208686668204
536.0, 0.016374278340285302
537.0, 0.0164996891110377
538.0, 0.019691600430666666
539.0, 0.023000457839148027
540.0, 0.02026773647617271
541.0, 0.029938778774444313
542.0, 0.02876646928889422
543.0, 0.02180753641491062
544.0, 0.016823599431740284
545.0, 0.016788633103663
546.0, 0.01942064739046027
547.0, 0.022136771101131606
548.0, 0.020408994266117784
549.0, 0.022897005681223485
550.0, 0.025591656893644933
551.0, 0.026037811214657834
552.0, 0.03489373044885048
553.0, 0.03044270012158195
554.0, 0.02764786276623098
555.0, 0.032412867246070336
556.0, 0.038462666925589355
557.0, 0.03983694482417349
558.0, 0.04580903570384107
559.0, 0.04956591691910513
560.0, 0.047840383472383716
561.0, 0.047354490514832995
562.0, 0.05014855176190564
563.0, 0.0524352279802377
564.0, 0.05469947841141455
565.0, 0.05377096177167546
566.0, 0.05620016630083734
567.0, 0.06464964868888765
568.0, 0.07041912914351
569.0, 0.06826788876089601
570.0, 0.0748716551326922
571.0, 0.07957545736568859
572.0, 0.08138419892799381
573.0, 0.08820385839490893
574.0, 0.09377095780971638
575.0, 0.09029956463503681
576.0, 0.09710065049506257
577.0, 0.10180643309329697
578.0, 0.10593707410122911
579.0, 0.10591847378502464
580.0, 0.10382625800400845
581.0, 0.10593242484934547
582.0, 0.11119648670175537
583.0, 0.10729241921641554
584.0, 0.11466239338639068
585.0, 0.12128203999273668
586.0, 0.123750511265654
587.0, 0.1307098361003764
588.0, 0.1258956715761524
589.0, 0.12302308298029123
590.0, 0.12265021251200858
591.0, 0.1218544404954768
592.0, 0.1199673416050876
593.0, 0.1162338419751703
594.0, 0.10838144327214694
595.0, 0.10822753511658291
596.0, 0.1044876147947386
597.0, 0.10443875048703342
598.0, 0.10790917388899388
599.0, 0.10683869230290759
600.0, 0.10396493123046428
601.0, 0.10032456057255086
602.0, 0.09986183292309227
603.0, 0.09738627605568848
604.0, 0.09071866969730803
605.0, 0.08599574532847522
606.0, 0.08853368687981478
607.0, 0.08682799340359143
608.0, 0.07773712931427085
609.0, 0.07168539749808489
610.0, 0.06822298422763401
611.0, 0.06202670286344537
612.0, 0.05506098986027996
613.0, 0.05154124739990107
614.0, 0.04463128520129345
615.0, 0.038489141420526646
616.0, 0.03904951679248504
617.0, 0.03821357195374278
618.0, 0.030666256843948993
619.0, 0.03871968448001398
620.0, 0.029637630814017962
621.0, 0.026406366541661966
622.0, 0.02608698579869581
623.0, 0.023824805224696523
624.0, 0.02366290936575733
625.0, 0.024317258576938016
626.0, 0.01774073064228848
627.0, 0.025047421755897883
628.0, 0.022794268864413856
629.0, 0.014484001412731914
630.0, 0.014387267453140075
631.0, 0.009214668227663996
632.0, 0.007891587848385177
633.0, 0.005957587389079917
634.0, 0.003044689189791494
635.0, 0.00041632985706164735
636.0, 0.0030054195209765207
637.0, 0.006149103770429968
638.0, 0.0051556334577514875
639.0, 0.0030543029285985623
640.0, 0.002076305470439984
641.0, 0.0027378235952809776
642.0, 0.0004993037090803218
643.0, 0.0008627414925170584
644.0, 0.0005551493274879255
645.0, 0.005650598515128142
646.0, 0.005418098237478958
647.0, 0.007386944122260254
648.0, 0.009819153570553667
649.0, 0.009543889876802752
650.0, 0.01099729774187914
651.0, 0.008525342113212582
652.0, 0.008588288654654448
653.0, 0.007240517178425669
654.0, 0.005985961733252105
655.0, 0.006263869309824511
656.0, 0.008558975745064465
657.0, 0.01480033480474767
658.0, 0.007453912663432642
659.0, 0.0043530674207627506
660.0, 0.010529600510612084
661.0, 0.014854426886357986
662.0, 0.010945819010216457
663.0, 0.005704745791446286
664.0, 0.002248576788869956
665.0, 0.001156086268890404
666.0, 0.003042323962660846
667.0, 0.008833139867476851
668.0, 0.017646520863384973
669.0, 0.02178659060480312
670.0, 0.01411588969315656
671.0, 0.013039450671509403
672.0, 0.02278781740815561
673.0, 0.018092559941618347
674.0, 0.013516071362897172
675.0, 0.013372343260813895
676.0, 0.013038897496309246
677.0, 0.024560795493212162
678.0, 0.015113859670023487
679.0, 0.012236068460845049
680.0, 0.015207067685632054
681.0, 0.019223688800005852
682.0, 0.01655861167007222
683.0, 0.0059648704708780385
684.0, 0.014013303835120339
685.0, 0.01955771401267251
686.0, 0.020233742596163732
687.0, 0.019405195013874464
688.0, 0.01564834518244111
689.0, 0.013888594141571215
690.0, 0.018942891524749306
691.0, 0.008900628775600286
692.0, 0.012640379246363319
693.0, 0.020374834019110957
694.0, 0.022481890627477383
695.0, 0.018688642070655008
696.0, 0.014527670716594138
697.0, 0.014180150515199047
698.0, 0.01475866814888052
699.0, 0.01470221741252542
700.0, 0.011989450584179258
701.0, 0.016220512140253295
702.0, 0.02013559371725833
703.0, 0.011772895217932774
704.0, 0.009461852888710294
705.0, 0.010566315445183787
706.0, 0.008308698505295075
707.0, 0.0070852089265308615
708.0, 0.006681718768603476
709.0, 0.003921630832361968
710.0, 0.0052411255790771405
711.0, 0.0050000076144256665
712.0, 0.004092906176215948
713.0, 0.005741134915843708
714.0, 0.004891729501475344
715.0, 0.004529068852207738
716.0, 0.0014704185208413458
717.0, 0.0011982020025043043
718.0, 0.0028874331616945558
719.0, 0.004097996437274543
720.0, 0.002840014038899599
721.0, 0.002068522768394418
722.0, 0.0008498518134230441
723.0, 0.000626909641824786
724.0, 0.004387955129950291
725.0, 0.008629221301932588
726.0, 0.001624002727897405
727.0, 0.0015355244173000373
728.0, 0.0024883660088125324
729.0, 0.0005815738964649699
730.0, 0.004153637932503641
731.0, 0.002914351900349468
732.0, 0.004993201847553014
733.0, 0.004690236128917862
734.0, 0.002985579558969802
735.0, 0.0020144798767545106
736.0, 0.001958837305690824
737.0, 0.0035960008654410992
738.0, 0.0010216008322785598
739.0, 0.004929699825740724
740.0, 0.008792757041859098
741.0, 0.0002874135285419352
742.0, 0.0015663860718668568
743.0, 0.003306326286753947
744.0, 0.001725755840775165
745.0, 0.0029303662195733007
746.0, 0.0051583681951796675
747.0, 0.0009904944428504275
748.0, 0.0013788204074679105
749.0, 0.000597745890181257
750.0, 0.0010867943493069695
751.0, 0.0009741506315858845
752.0, 0.004146126729226848
753.0, 0.004973174285339558
754.0, 0.005333037781614864
755.0, 0.000992883193878394
756.0, 0.005413417442396613
757.0, 0.009506289100975535
758.0, 0.011933494380476693
759.0, 0.011866014851135927
760.0, 0.008852301180316604
761.0, 0.009453864019043558
762.0, 0.013940772623478197
763.0, 0.015077663915277293
764.0, 0.01264402178692353
765.0, 0.011533665745813826
766.0, 0.01351637103130464
767.0, 0.01607000852025868
768.0, 0.016022202391870417
769.0, 0.01500284035030769
770.0, 0.017106661016612346
771.0, 0.022912866160982957
772.0, 0.024665093261723857
773.0, 0.031761151308114535
774.0, 0.035040102063361375
775.0, 0.028115326126192462
776.0, 0.028965913271370193
777.0, 0.028123170083620114
778.0, 0.024379167714707634
779.0, 0.02838176956192591
780.0, 0.0241262056773611
781.0, 0.023256547078823995
782.0, 0.030453653342573245
783.0, 0.031185720741602047
784.0, 0.02951709126115391
785.0, 0.0287754527512171
786.0, 0.03278148215903061
787.0, 0.034790907086284295
788.0, 0.040054397629866366
789.0, 0.04051137818090342
790.0, 0.033750377306697325
791.0, 0.035190248612139624
792.0, 0.036296480108092805
793.0, 0.04112413349417844
794.0, 0.043610990877101796
795.0, 0.04015380847627603
796.0, 0.040036244567510544
797.0, 0.04134592201948439
798.0, 0.03699067245635318
799.0, 0.03352668087630316
800.0, 0.035035878608467796
801.0, 0.033487515953759144
802.0, 0.030741382258271024
803.0, 0.031098487765112707
804.0, 0.03169037213197405
805.0, 0.03347696801224797
806.0, 0.03656088918562351
807.0, 0.03659127557603475
808.0, 0.042792687458596664
809.0, 0.0386150251444159
810.0, 0.0418650802919472
811.0, 0.04609289336646619
812.0, 0.04291297167127893
813.0, 0.038632358123143404
814.0, 0.039549290806907104
815.0, 0.03663364887449357
816.0, 0.0433652073542426
817.0, 0.04528474696360819
818.0, 0.041077056239603636
819.0, 0.04497222004338383
820.0, 0.04709566924818767
821.0, 0.044965788129311006
822.0, 0.04430113868246537
823.0, 0.03294720184573888
824.0, 0.03376039242579548
825.0, 0.03433555326611592
826.0, 0.036072950356450535
827.0, 0.03486935038471128
828.0, 0.038757657214934536
829.0, 0.0404692578897426
830.0, 0.036555513401233614
831.0, 0.039879660576457254
832.0, 0.03548171640244354
833.0, 0.03251391030968784
834.0, 0.03243321048586308
835.0, 0.03487153263548288
836.0, 0.03658263511137817
837.0, 0.03662420056998914
838.0, 0.0356574348240111
839.0, 0.035124312954968206
840.0, 0.03804114959041316
841.0, 0.038087471607840324
842.0, 0.03738962327286683
843.0, 0.03611163802711029
844.0, 0.0324003621103878
845.0, 0.029258896798487238
846.0, 0.030072846179300783
847.0, 0.031454773653381785
848.0, 0.027900685356919083
849.0, 0.031739489345478385
850.0, 0.03424594884345622
851.0, 0.032692831493794226
852.0, 0.032775109319082285
853.0, 0.03179680938604563
854.0, 0.03159870705601257
855.0, 0.030670496902817444
856.0, 0.024178331569507026
857.0, 0.02960670323693023
858.0, 0.031171535331143422
859.0, 0.032615648856075756
860.0, 0.029663770718511798
861.0, 0.028380630013752055
862.0, 0.027795245683793626
863.0, 0.02804744782282666
864.0, 0.03258683640453356
865.0, 0.035997844972003264
866.0, 0.030476688713279472
867.0, 0.030377517358872796
868.0, 0.020121550758854606
869.0, 0.014622250703190825
870.0, 0.014561990122412136
871.0, 0.015294819726769895
872.0, 0.01706334371626029
873.0, 0.017424164229884305
874.0, 0.019293197782170247
875.0, 0.01630520779499359
876.0, 0.017239785321251675
877.0, 0.013022023017309732
878.0, 0.012890168513157883
879.0, 0.010174519101302492
880.0, 0.009287123695546178
881.0, 0.012375960552298842
882.0, 0.008897600598482797
883.0, 0.011856445365102483
884.0, 0.012944701223820843
885.0, 0.009820628063635716
886.0, 0.011945929806742597
887.0, 0.009718076625437546
888.0, 0.005868255437824615
889.0, 0.0017267248920907433
890.0, 0.001577678934016788
891.0, 0.0027049007181187464
892.0, 0.0011575983591747769
893.0, 0.0007465561330604118
894.0, 0.000607524260819041
895.0, 0.005232503478159475
896.0, 0.002197008226670369
897.0, 0.002939136508693707
898.0, 0.002396848108246654
899.0, 0.0012051131398332126
900.0, 0.000771105863606478
901.0, 0.0042726852362311605
902.0, 0.002490453476877069
903.0, 0.001356905358226596
904.0, 0.0020965363017703036
905.0, 0.0024126038016187607
906.0, 0.0055519995369182435
907.0, 0.002760049083837536
908.0, 0.0021251338598975195
909.0, 0.002289559712802186
910.0, 0.0019302864705976932
911.0, 0.0013585562853377841
912.0, 0.005263448866111993
913.0, 0.006055418303107276
914.0, 0.0011040387644379729
915.0, 0.0018040439671765155
916.0, 0.004516695633185924
917.0, 0.003844778267198743
918.0, 0.0059466943086933545
919.0, 0.009906156007140567
920.0, 0.005960092107557127
921.0, 0.0033029534283127012
922.0, 0.0019246103931293839
923.0, 0.0014850560985283725
924.0, 0.0007685094531504818
925.0, 0.0006770163018901961
926.0, 0.000745768291500361
927.0, 0.001976368415042744
928.0, 0.0010325253409028898
929.0, 0.00043808572055574545
930.0, 0.016473958728681688
931.0, 0.010523495873857086
932.0, 0.011795793365947743
933.0, 0.017980794199847824
934.0, 0.014713555646665767
935.0, 0.009410719824095793
936.0, 0.007804647683083923
937.0, 0.00830856174526903
938.0, 0.015875970825093684
939.0, 0.011473507419558224
940.0, 0.01604868317328351
941.0, 0.01965928481951292
942.0, 0.019707588882672093
943.0, 0.022652739032376343
944.0, 0.023595877981293503
945.0, 0.018185077318756484
946.0, 0.015049872657442344
947.0, 0.017605704875406126
948.0, 0.015482774120054492
949.0, 0.01851188958692094
950.0, 0.019301205237226296
951.0, 0.024562278278178713
952.0, 0.022358333243863594
953.0, 0.020414932975859622
954.0, 0.020802959233678885
955.0, 0.022553005644532675
956.0, 0.02319425244166412
957.0, 0.02216053803432673
958.0, 0.025664315669294068
959.0, 0.02248465225381067
960.0, 0.025249548298223196
961.0, 0.02424670336503062
962.0, 0.019781730569672595
963.0, 0.019241249046657763
964.0, 0.019809257594720263
965.0, 0.02149679572546866
966.0, 0.024330906377512604
967.0, 0.026705897985305784
968.0, 0.029819422159211156
969.0, 0.03145830952843114
970.0, 0.033726570509061124
971.0, 0.033534757602566745
972.0, 0.03836006754139883
973.0, 0.03961669012196728
974.0, 0.04465432021844482
975.0, 0.04873161972011804
976.0, 0.04772016398716832
977.0, 0.047502354993130096
978.0, 0.052838134392133695
979.0, 0.0645305471570811
980.0, 0.0761588928215306
981.0, 0.0824357936907435
982.0, 0.09744861723625678
983.0, 0.11779430535749323
984.0, 0.14211417201838633
985.0, 0.16465723170473065
986.0, 0.1938601878864227
987.0, 0.2356684709743294
988.0, 0.2801576601359936
989.0, 0.32228334079457005
990.0, 0.36761305269068273
991.0, 0.41008444516761455
992.0, 0.4638910853802781
993.0, 0.5259487298818388
994.0, 0.6044468058675692
995.0, 0.6876028849581366
996.0, 0.776006766103843
997.0, 0.8732881186397115
998.0, 0.9548187235251797
999.0, 0.9987709709497902
1000.0, 0.9742300980776001
1001.0, 0.8700095110058093
1002.0, 0.7205623422933635
1003.0, 0.5750158691975239
1004.0, 0.4402780954256242
1005.0, 0.33136211867757537
1006.0, 0.24769982813379224
1007.0, 0.19647324193894386
1008.0, 0.16021402630798398
1009.0, 0.13070283501200106
1010.0, 0.11103149176300275
1011.0, 0.0930394041948838
1012.0, 0.07539793097896418
1013.0, 0.06544644338734787
1014.0, 0.0614560847816695
1015.0, 0.04981739858807971
1016.0, 0.046653185169744225
1017.0, 0.04001879205160016
1018.0, 0.040575204373497126
1019.0, 0.04467101414499794
1020.0, 0.04426619527976462
1021.0, 0.04405465062951113
1022.0, 0.045420285875316345
1023.0, 0.043768050698702377
1024.0, 0.03405775742582993
1025.0, 0.026910468263126257
1026.0, 0.023836651412444315
1027.0, 0.015247485773240643
1028.0, 0.013324301011590784
1029.0, 0.012497999867592273
1030.0, 0.008687568229592631
1031.0, 0.005373949772441605
1032.0, 0.0030223615406052527
1033.0, 0.0020047343628162057
1034.0, 0.0031380127744350906
1035.0, 0.002774984270425043
1036.0, 0.006039420744633519
1037.0, 0.009113228459213373
1038.0, 0.006601008941673857
1039.0, 0.0011669415765723562
1040.0, 0.0011109953428295669
1041.0, 0.0009879089072008466
1042.0, 0.0010685615944033959
1043.0, 0.0017925185318050183
1044.0, 0.004546033254992704
1045.0, 0.0029024441438445167
1046.0, 0.003478427522937004
1047.0, 0.004090670683029806
1048.0, 0.003290623876382272
1049.0, 0.000365444000407156
1050.0, 0.004564552848294951
1051.0, 0.0008813091732191868
1052.0, 0.0011579318694973641
1053.0, 0.000554895824739421
1054.0, 0.0036987916351241463
1055.0, 0.011368314979249042
1056.0, 0.012844782697579075
1057.0, 0.009934526788547744
1058.0, 0.007401488208157679
1059.0, 0.0019007995637979932
1060.0, 0.0022544087910441758
1061.0, 0.005223282933504948
1062.0, 0.0011104371198088136
1063.0, 0.007612245903172282
1064.0, 0.0065919597875556376
1065.0, 0.006185689996178037
1066.0, 0.0030791732872761535
1067.0, 0.003096635442569341
1068.0, 0.008390395607165473
1069.0, 0.006439220960809069
1070.0, 0.006050353889798956
1071.0, 0.008997326466987372
1072.0, 0.008330892237927445
1073.0, 0.01189457326427076
1074.0, 0.015130923260937438
1075.0, 0.013060586125336818
1076.0, 0.024220051316630915
1077.0, 0.018983203133506182
1078.0, 0.021527290296254848
1079.0, 0.023486034160651745
1080.0, 0.028651204465207556
1081.0, 0.034407541439369756
1082.0, 0.03774202345129063
1083.0, 0.04369474478190341
1084.0, 0.052018371483180004
1085.0, 0.06311381078958103
1086.0, 0.08089655733570818
1087.0, 0.0899919055555671
1088.0, 0.09459258798626272
1089.0, 0.11200149934241206
1090.0, 0.12722216033996187
1091.0, 0.14678589021237434
1092.0, 0.15722074188963228
1093.0, 0.17946543374628168
1094.0, 0.19920799387522162
1095.0, 0.21128002691405504
1096.0, 0.2152421559629802
1097.0, 0.20288967213426345
1098.0, 0.17505246630330926
1099.0, 0.14249506523830402
1100.0, 0.11344614048441626
1101.0, 0.09344451673406518
1102.0, 0.0767421722678042
1103.0, 0.05861223177342382
1104.0, 0.04523782105947383
1105.0, 0.03482684084283024
1106.0, 0.031169923352275766
1107.0, 0.021059821658042373
1108.0, 0.020657947439389625
1109.0, 0.02377840510665053
1110.0, 0.017708499775597967
1111.0, 0.013389667792789602
1112.0, 0.013686982580684282
1113.0, 0.008999573925298305
1114.0, 0.007572424635249892
1115.0, 0.0036191328303731138
1116.0, 0.004271375954528539
1117.0, 0.005865813209612872
1118.0, 0.0027043959133641114
1119.0, 0.004721108625461023
1120.0, 0.0046237965150308456
1121.0, 0.006079312770925725
1122.0, 0.003938974113337704
1123.0, 0.008808783749836954
1124.0, 0.012093770825959967
1125.0, 0.012308415321581787
1126.0, 0.009933965043965924
1127.0, 0.0032116771646441963
1128.0, 0.0031092549367729544
1129.0, 0.004353760226924154
1130.0, 0.0013772631916669847
1131.0, 0.001172167628909463
1132.0, 0.0014885942512280826
1133.0, 0.0017502345495139801
1134.0, 0.000713125535833032
1135.0, 0.0015843783103822353
1136.0, 0.002721108592121904
1137.0, 0.004344628535901042
1138.0, 0.002808170475033471
1139.0, 0.0027244701811865372
1140.0, 0.0015278462558462852
1141.0, 0.0027225519422841623
1142.0, 0.0035981870317407226
1143.0, 0.002171904856656209
1144.0, 0.0009288714616000532
1145.0, 0.0014908814158833598
1146.0, 0.00254363769230665
1147.0, 0.003709559278245869
1148.0, 0.0016587284033679575
1149.0, 0.003456848900522143
1150.0, 0.0023525758602314074
1151.0, 0.0004530976634832159
1152.0, 0.0024911694208251934
1153.0, 0.004661087811567017
1154.0, 0.002511991875135862
1155.0, 0.002565923119076601
1156.0, 0.003954839617908224
1157.0, 0.004853009550016026
1158.0, 0.010932347678202229
1159.0, 0.013114842507390282
1160.0, 0.007198157548783425
1161.0, 0.0072302627917783515
1162.0, 0.01026656796943028
1163.0, 0.015005857744695589
1164.0, 0.015485138024919765
1165.0, 0.019061790572745336
1166.0, 0.021541364124483025
1167.0, 0.02106870153723225
1168.0, 0.01941798242553803
1169.0, 0.019427372564793707
1170.0, 0.01967167440236194
1171.0, 0.018123471789213825
1172.0, 0.016110236477293177
1173.0, 0.014867016836113066
1174.0, 0.018755086283166786
1175.0, 0.01929381408636748
1176.0, 0.01616239398110675
1177.0, 0.019156375764565425
1178.0, 0.021640015104853163
1179.0, 0.022745663011958375
1180.0, 0.025174563395384788
1181.0, 0.026884046297948803
1182.0, 0.024709298903312197
1183.0, 0.02152582993465148
1184.0, 0.0243494591906153
1185.0, 0.027527690342297264
1186.0, 0.029907371199250167
1187.0, 0.025429159888677253
1188.0, 0.02796407947281463
1189.0, 0.029164281400289132
1190.0, 0.028959350363151486
1191.0, 0.027949125999533284
1192.0, 0.026734378786619845
1193.0, 0.028668557122023944
1194.0, 0.031521262511475384
1195.0, 0.028670867963382904
1196.0, 0.02758166041435416
1197.0, 0.0340073785882865
1198.0, 0.03338475664727283
1199.0, 0.033190529259715114
1200.0, 0.031089381951839738
1201.0, 0.025730480892466875
1202.0, 0.033137776426797765
1203.0, 0.027737650955477894
1204.0, 0.027944720789250824
1205.0, 0.027813513256046165
1206.0, 0.03047298687113973
1207.0, 0.022418834708461996
1208.0, 0.025247845226329894
1209.0, 0.026159741640486987
1210.0, 0.025241284638729516
1211.0, 0.02275740325014898
1212.0, 0.02123480426796147
1213.0, 0.020780018946564817
1214.0, 0.018306818132149086
1215.0, 0.01657837528577273
1216.0, 0.01613834930970325
1217.0, 0.01374321439485574
1218.0, 0.016499176752097253
1219.0, 0.014204973114690888
1220.0, 0.006319396789422324
1221.0, 0.010219034245103994
1222.0, 0.011464806613928067
1223.0, 0.013285106503241946
1224.0, 0.007001438191027205
1225.0, 0.004572802821498235
1226.0, 0.00774901754216531
1227.0, 0.007848911887839403
1228.0, 0.010297040993054894
1229.0, 0.004708347955558211
1230.0, 0.006087980209539517
1231.0, 0.0054906830324630085
1232.0, 0.007888519345577931
1233.0, 0.009970465722233268
1234.0, 0.010733949035966504
1235.0, 0.011050047813913276
1236.0, 0.014279737286072843
1237.0, 0.02106416492522532
1238.0, 0.020597186261470918
1239.0, 0.018824592157840124
1240.0, 0.019451573180169584
1241.0, 0.019522948176743396
1242.0, 0.017347485581833924
1243.0, 0.012643417392687751
1244.0, 0.0004966095262376078
1245.0, 0.004130419359804801
1246.0, 0.0037642715003710905
1247.0, 0.0020281839838541113
1248.0, 0.001012939738378911
1249.0, 0.0007688922659166763
1250.0, 0.0012625998113189375
1251.0, 0.0014451250027362596
1252.0, 0.001198166622761294
1253.0, 0.0014145187806391133
1254.0, 0.0004736387781511485
1255.0, 0.0036076185202880804
1256.0, 0.006495761751039503
1257.0, 0.0052421766156322686
1258.0, 0.003992232444791409
1259.0, 0.0014588543823689816
1260.0, 0.0023144562124295938
1261.0, 0.008619462640321672
1262.0, 0.011398181000926015
1263.0, 0.008749888873020443
1264.0, 0.0060753184111292
1265.0, 0.0064118987201415
1266.0, 0.007802462647723995
1267.0, 0.007287387416151815
1268.0, 0.007467928231855376
1269.0, 0.009342913569105452
1270.0, 0.008697997204128399
1271.0, 0.009698584363439379
1272.0, 0.009474924001800247
1273.0, 0.011477570176361048
1274.0, 0.01096106892724867
1275.0, 0.00862083011104863
1276.0, 0.0064760031151354916
1277.0, 0.0073946963823217264
1278.0, 0.013266181680582386
1279.0, 0.00829674441218347
1280.0, 0.0022182803435595974
1281.0, 0.00016385229051767505
1282.0, 0.004720773784108043
1283.0, 0.00856165373670065
1284.0, 0.0022944697259604132
1285.0, 0.0014403045728573474
1286.0, 0.0008054833528511979
1287, 0.0
1288, 0.0
1289, 0.0
1290, 0.0
1291, 0.0
1292, 0.0
1293, 0.0
1294, 0.0
1295, 0.0
1296, 0.0
1297, 0.0
1298, 0.0
1299, 0.0
1300, 0.0
1301, 0.0
1302, 0.0
1303, 0.0
1304, 0.0
1305, 0.0
1306, 0.0
1307, 0.0
1308, 0.0
1309, 0.0
1310, 0.0
1311, 0.0
1312, 0.0
1313, 0.0
1314, 0.0
1315, 0.0
1316, 0.0
1317, 0.0
1318, 0.0
1319, 0.0
1320, 0.0
1321, 0.0
1322, 0.0
1323, 0.0
1324, 0.0
1325, 0.0
1326, 0.0
1327, 0.0
1328, 0.0
1329, 0.0
1330, 0.0
1331, 0.0
1332, 0.0
1333, 0.0
1334, 0.0
1335, 0.0
1336, 0.0
1337, 0.0
1338, 0.0
1339, 0.0
1340, 0.0
1341, 0.0
1342, 0.0
1343, 0.0
1344, 0.0
1345, 0.0
1346, 0.0
1347, 0.0
1348, 0.0
1349, 0.0
1350, 0.0
1351, 0.0
1352, 0.0
1353, 0.0
1354, 0.0
1355, 0.0
1356, 0.0
1357, 0.0
1358, 0.0
1359, 0.0
1360, 0.0
1361, 0.0
1362, 0.0
1363, 0.0
1364, 0.0
1365, 0.0
1366, 0.0
1367, 0.0
1368, 0.0
1369, 0.0
1370, 0.0
1371, 0.0
1372, 0.0
1373, 0.0
1374, 0.0
1375, 0.0
1376, 0.0
1377, 0.0
1378, 0.0
1379, 0.0
1380, 0.0
1381, 0.0
1382, 0.0
1383, 0.0
1384, 0.0
1385, 0.0
1386, 0.0
1387, 0.0
1388, 0.0
1389, 0.0
1390, 0.0
1391, 0.0
1392, 0.0
1393, 0.0
1394, 0.0
1395, 0.0
1396, 0.0
1397, 0.0
1398, 0.0
1399, 0.0
1400, 0.0
1401, 0.0
1402, 0.0
1403, 0.0
1404, 0.0
1405, 0.0
1406, 0.0
1407, 0.0
1408, 0.0
1409, 0.0
1410, 0.0
1411, 0.0
1412, 0.0
1413, 0.0
1414, 0.0
1415, 0.0
1416, 0.0
1417, 0.0
1418, 0.0
1419, 0.0
1420, 0.0
1421, 0.0
1422, 0.0
1423, 0.0
1424, 0.0
1425, 0.0
1426, 0.0
1427, 0.0
1428, 0.0
1429, 0.0
1430, 0.0
1431, 0.0
1432, 0.0
1433, 0.0
1434, 0.0
1435, 0.0
1436, 0.0
1437, 0.0
1438, 0.0
1439, 0.0
1440, 0.0
1441, 0.0
1442, 0.0
1443, 0.0
1444, 0.0
1445, 0.0
1446, 0.0
1447, 0.0
1448, 0.0
1449, 0.0
1450, 0.0
1451, 0.0
1452, 0.0
1453, 0.0
1454, 0.0
1455, 0.0
1456, 0.0
1457, 0.0
1458, 0.0
1459, 0.0
1460, 0.0
1461, 0.0
1462, 0.0
1463, 0.0
1464, 0.0
1465, 0.0
1466, 0.0
1467, 0.0
1468, 0.0
1469, 0.0
1470, 0.0
1471, 0.0
1472, 0.0
1473, 0.0
1474, 0.0
1475, 0.0
1476, 0.0
1477, 0.0
1478, 0.0
1479, 0.0
1480, 0.0
1481, 0.0
1482, 0.0
1483, 0.0
1484, 0.0
1485, 0.0
1486, 0.0
1487, 0.0
1488, 0.0
1489, 0.0
1490, 0.0
1491, 0.0
1492, 0.0
1493, 0.0
1494, 0.0
1495, 0.0
1496, 0.0
1497, 0.0
1498, 0.0
1499, 0.0
1500, 0.0
1501, 0.0
1502, 0.0
1503, 0.0
1504, 0.0
1505, 0.0
1506, 0.0
1507, 0.0
1508, 0.0
1509, 0.0
1510, 0.0
1511, 0.0
1512, 0.0
1513, 0.0
1514, 0.0
1515, 0.0
1516, 0.0
1517, 0.0
1518, 0.0
1519, 0.0
1520, 0.0
1521, 0.0
1522, 0.0
1523, 0.0
1524, 0.0
1525, 0.0
1526, 0.0
1527, 0.0
1528, 0.0
1529, 0.0
1530, 0.0
1531, 0.0
1532, 0.0
1533, 0.0
1534, 0.0
1535, 0.0
1536, 0.0
1537, 0.0
1538, 0.0
1539, 0.0
1540, 0.0
1541, 0.0
1542, 0.0
1543, 0.0
1544, 0.0
1545, 0.0
1546, 0.0
1547, 0.0
1548, 0.0
1549, 0.0
1550, 0.0
1551, 0.0
1552, 0.0
1553, 0.0
1554, 0.0
1555, 0.0
1556, 0.0
1557, 0.0
1558, 0.0
1559, 0.0
1560, 0.0
1561, 0.0
1562, 0.0
1563, 0.0
1564, 0.0
1565, 0.0
1566, 0.0
1567, 0.0
1568, 0.0
1569, 0.0
1570, 0.0
1571, 0.0
1572, 0.0
1573, 0.0
1574, 0.0
1575, 0.0
1576, 0.0
1577, 0.0
1578, 0.0
1579, 0.0
1580, 0.0
1581, 0.0
1582, 0.0
1583, 0.0
1584, 0.0
1585, 0.0
1586, 0.0
1587, 0.0
1588, 0.0
1589, 0.0
1590, 0.0
1591, 0.0
1592, 0.0
1593, 0.0
1594, 0.0
1595, 0.0
1596, 0.0
1597, 0.0
1598, 0.0
1599, 0.0
