30, 0.0
31, 0.0
32, 0.0
33, 0.0
34, 0.0
35, 0.0
36, 0.0
37, 0.0
38, 0.0
39, 0.0
40, 0.0
41, 0.0
42, 0.0
43, 0.0
44, 0.0
45, 0.0
46, 0.0
47, 0.0
48, 0.0
49, 0.0
50, 0.0
51, 0.0
52, 0.0
53, 0.0
54, 0.0
55, 0.0
56, 0.0
57, 0.0
58, 0.0
59, 0.0
60, 0.0
61, 0.0
62, 0.0
63, 0.0
64, 0.0
65, 0.0
66, 0.0
67, 0.0
68, 0.0
69, 0.0
70, 0.0
71, 0.0
72, 0.0
73, 0.0
74, 0.0
75, 0.0
76, 0.0
77, 0.0
78, 0.0
79, 0.0
80, 0.0
81, 0.0
82, 0.0
83, 0.0
84, 0.0
85, 0.0
86, 0.0
87, 0.0
88.0, 0.0022235126998244696
89.0, 0.0024199136169520165
90.0, 0.0005882823611616152
91.0, 0.00047793674975529006
92.0, 0.0021569380665210623
93.0, 0.005051873304846442
94.0, 0.009012643411834251
95.0, 0.009248993430175026
96.0, 0.009154222159360055
97.0, 0.009496351696583425
98.0, 0.012722432992394214
99.0, 0.01766777765299504
100.0, 0.023902183008971855
101.0, 0.03142623881063904
102.0, 0.03671438978303817
103.0, 0.04519005768582233
104.0, 0.05650448203881177
105.0, 0.06960110086274443
106.0, 0.08102117947914467
107.0, 0.09503620977278748
108.0, 0.11364724607088092
109.0, 0.12232538639992296
110.0, 0.13215028390022643
111.0, 0.14265932280790947
112.0, 0.1530295787093902
113.0, 0.15821579258247484
114.0, 0.158268204923202
115.0, 0.1529758073987029
116.0, 0.14462789072442345
117.0, 0.1386596212360448
118.0, 0.13112930878103196
119.0, 0.11611405697443909
120.0, 0.10648583749701092
121.0, 0.0997243194043301
122.0, 0.09525426728575681
123.0, 0.09150572241055319
124.0, 0.08418073448042666
125.0, 0.07920859339450609
126.0, 0.08209849440433166
127.0, 0.07697091661322995
128.0, 0.07519135723096212
129.0, 0.07718700289093652
130.0, 0.08217028161282448
131.0, 0.08170500485253394
132.0, 0.08109567172401737
133.0, 0.08282669714204804
134.0, 0.08255575555607536
135.0, 0.08367467012304668
136.0, 0.0860265088581049
137.0, 0.0895646705616579
138.0, 0.0907861295045132
139.0, 0.09440048532702182
140.0, 0.10096979634062327
141.0, 0.09972834533921769
142.0, 0.10311612514796606
143.0, 0.10923930396970526
144.0, 0.11664592002109396
145.0, 0.11656079812453346
146.0, 0.12233472691771839
147.0, 0.13397610163937862
148.0, 0.14396176629569382
149.0, 0.1541936384107573
150.0, 0.16775114152687615
151.0, 0.18695155361167531
152.0, 0.20315458964535751
153.0, 0.21610709987417787
154.0, 0.22980595421894615
155.0, 0.2542892458850538
156.0, 0.2751716728531262
157.0, 0.2936122845931758
158.0, 0.31010364530326323
159.0, 0.3292087455132269
160.0, 0.3421148064555174
161.0, 0.35169826304037094
162.0, 0.36037712609161704
163.0, 0.3644206231662291
164.0, 0.36411144289173947
165.0, 0.3595535576310149
166.0, 0.35043809258443087
167.0, 0.3387908179864033
168.0, 0.32635768444316615
169.0, 0.3139023401803335
170.0, 0.29688608488271745
171.0, 0.2798541934159663
172.0, 0.262142700541631
173.0, 0.24229780323528197
174.0, 0.22288144688060135
175.0, 0.20813483425593302
176.0, 0.1981365942610067
177.0, 0.18537042755144054
178.0, 0.17642095670730515
179.0, 0.16736181918441187
180.0, 0.15509423439079675
181.0, 0.1501240222706488
182.0, 0.14520974781519527
183.0, 0.14153225464303706
184.0, 0.143735969942235
185.0, 0.14095300195846397
186.0, 0.14128574085327236
187.0, 0.1468354638666889
188.0, 0.14903279330988686
189.0, 0.15036272406312234
190.0, 0.15282273930409065
191.0, 0.1588337694497784
192.0, 0.1577893534390573
193.0, 0.16214108865164573
194.0, 0.16986968558596416
195.0, 0.16976729525207807
196.0, 0.17006606564727722
197.0, 0.16943774151574859
198.0, 0.16741904870109772
199.0, 0.16727243048707266
200.0, 0.16706524402910725
201.0, 0.16655707958190938
202.0, 0.16536541862782214
203.0, 0.16431706367271118
204.0, 0.15996921014941073
205.0, 0.1544439990185139
206.0, 0.15859638706462884
207.0, 0.15688092931962128
208.0, 0.1543409566253047
209.0, 0.15314545086446746
210.0, 0.1554158051627903
211.0, 0.15531514568277813
212.0, 0.15376592452616009
213.0, 0.15172683362899064
214.0, 0.1452616293707682
215.0, 0.14267770611943129
216.0, 0.14363007602981845
217.0, 0.14261378227582414
218.0, 0.13916985787065014
219.0, 0.1376145897026564
220.0, 0.1397315212073148
221.0, 0.13912960480366224
222.0, 0.13920083926206725
223.0, 0.1401316510560401
224.0, 0.14233881265108256
225.0, 0.14361315545407566
226.0, 0.14562688982000072
227.0, 0.1477450029259148
228.0, 0.14688577829145574
229.0, 0.1476522885492845
230.0, 0.14851094838808948
231.0, 0.1487275137856642
232.0, 0.14530776345072852
233.0, 0.1420602137848372
234.0, 0.13881350894966732
235.0, 0.13538663522312558
236.0, 0.13188020229345926
237.0, 0.12890373318360981
238.0, 0.12601525674040423
239.0, 0.1217955288521376
240.0, 0.12034126921776755
241.0, 0.11877870975360681
242.0, 0.11638397753839318
243.0, 0.11399139502493318
244.0, 0.11490959718649137
245.0, 0.11467884586100832
246.0, 0.10974894960613896
247.0, 0.11452738408211993
248.0, 0.11783344143431278
249.0, 0.1206256795057767
250.0, 0.1253666756150869
251.0, 0.12743857187499583
252.0, 0.13230490906975914
253.0, 0.13886987908013915
254.0, 0.1353880474563023
255.0, 0.13876399574617204
256.0, 0.14165736540247315
257.0, 0.14070194944981
258.0, 0.14525902275630673
259.0, 0.14762596364248007
260.0, 0.14527407131191472
261.0, 0.13421624441670796
262.0, 0.1312366017556739
263.0, 0.12247153842028646
264.0, 0.10895337496173718
265.0, 0.09690157226489546
266.0, 0.08252000445599636
267.0, 0.06800089136271993
268.0, 0.054367078950587636
269.0, 0.04526766767557207
270.0, 0.035965430457011546
271.0, 0.027686693143503242
272.0, 0.021354452946614054
273.0, 0.016252724742242656
274.0, 0.012779040401414287
275.0, 0.010597031647502211
276.0, 0.009360139353949302
277.0, 0.01020922890822645
278.0, 0.01239179419194592
279.0, 0.015129261467652816
280.0, 0.015954632245567986
281.0, 0.02135074105007875
282.0, 0.026350736518606664
283.0, 0.029098862057102944
284.0, 0.02735699245194816
285.0, 0.032807929385262474
286.0, 0.03845698228004382
287.0, 0.03928679162832415
288.0, 0.04929405166033312
289.0, 0.056964016736333785
290.0, 0.06258288934439941
291.0, 0.06649863661655236
292.0, 0.0743682406397503
293.0, 0.08085155783311003
294.0, 0.08593643662953156
295.0, 0.09165460384849164
296.0, 0.09316570867747576
297.0, 0.09197183128057587
298.0, 0.08818555867648921
299.0, 0.07973525058007
300.0, 0.07317503896251051
301.0, 0.0648969572676829
302.0, 0.05262607828648635
303.0, 0.0441662308908782
304.0, 0.038397165616050354
305.0, 0.031887236031486285
306.0, 0.02007308830260513
307.0, 0.015215421108261929
308.0, 0.010874178435156763
309.0, 0.006492623153767202
310.0, 0.0019588544832409276
311.0, 0.0016571680975302411
312.0, 0.0033729341565332215
313.0, 0.00605159677692428
314.0, 0.006412006140289243
315.0, 0.008578798069114855
316.0, 0.01004303629285345
317.0, 0.009834505734170532
318.0, 0.010239383744051254
319.0, 0.012332029316581124
320.0, 0.013189774754071352
321.0, 0.01030321478527887
322.0, 0.014038106992499482
323.0, 0.014730447345231188
324.0, 0.014234877651150673
325.0, 0.015552650433184743
326.0, 0.015932373636772024
327.0, 0.015191686836213067
328.0, 0.014101861546256497
329.0, 0.014899081438043272
330.0, 0.012734052002715554
331.0, 0.010769097945752948
332.0, 0.009377673151526256
333.0, 0.006599828172937507
334.0, 0.006012791860906997
335.0, 0.004183824317283351
336.0, 0.0003207380119654335
337.0, 0.004277717861394835
338.0, 0.004466048324295798
339.0, 0.005761434603986669
340.0, 0.011860569904222027
341.0, 0.013531927849072835
342.0, 0.014349226236341392
343.0, 0.015683720557766588
344.0, 0.019407011716681462
345.0, 0.016966836573889924
346.0, 0.020835866962391397
347.0, 0.02649420550411186
348.0, 0.022181781899809874
349.0, 0.027129208255076587
350.0, 0.03319334406242059
351.0, 0.037805040388561674
352.0, 0.036176848288646334
353.0, 0.04557672553167316
354.0, 0.05403531969950484
355.0, 0.05915882406073539
356.0, 0.0686409784204471
357.0, 0.07654368395149125
358.0, 0.08437368463235727
359.0, 0.09261933715195736
360.0, 0.0976806114167947
361.0, 0.0994442974741471
362.0, 0.10047793158715898
363.0, 0.10267075749957486
364.0, 0.10252920746189599
365.0, 0.09949970276461943
366.0, 0.0943820232329965
367.0, 0.08798498296101279
368.0, 0.08305968203339384
369.0, 0.07833248248196657
370.0, 0.07357302789921098
371.0, 0.06847469856279745
372.0, 0.0647338898490072
373.0, 0.060415627413681706
374.0, 0.05571832233652118
375.0, 0.05184282404795587
376.0, 0.05151510952765672
377.0, 0.05087357490634729
378.0, 0.049207647036845714
379.0, 0.04688021728981922
380.0, 0.047283322149833704
381.0, 0.04618192886659604
382.0, 0.042609697069413144
383.0, 0.039493923602247565
384.0, 0.039756938525560795
385.0, 0.04008904634780163
386.0, 0.03905276795888918
387.0, 0.03801409871164956
388.0, 0.03697411570477613
389.0, 0.03603026772939211
390.0, 0.03520591621090862
391.0, 0.03285846047155515
392.0, 0.03281530725804005
393.0, 0.032981130234020925
394.0, 0.03141131446993411
395.0, 0.03269848753933643
396.0, 0.031667294001988165
397.0, 0.02925217667129316
398.0, 0.02666634536535443
399.0, 0.02705273117028364
400.0, 0.027115920504040804
401.0, 0.027218282427518264
402.0, 0.028313586618353464
403.0, 0.030102653305702505
404.0, 0.03172162257541876
405.0, 0.03311471635633677
406.0, 0.034335611114404266
407.0, 0.03773998538500224
408.0, 0.040722261290297955
409.0, 0.04330082566501025
410.0, 0.04675026164329317
411.0, 0.049261812696265735
412.0, 0.05240955309415564
413.0, 0.05676599804134161
414.0, 0.06331002931786335
415.0, 0.06706081948662566
416.0, 0.07170657968765222
417.0, 0.07799460879708511
418.0, 0.08428171895192116
419.0, 0.09034897874187886
420.0, 0.09836561515333198
421.0, 0.10845684627192925
422.0, 0.11553804922795521
423.0, 0.11778824122970795
424.0, 0.11889330687135993
425.0, 0.12052502684686395
426.0, 0.12314262651177402
427.0, 0.12133451544469931
428.0, 0.11880681848762191
429.0, 0.11761831553259898
430.0, 0.11846815067060053
431.0, 0.12124190648210248
432.0, 0.12082138477811341
433.0, 0.11488571408272213
434.0, 0.12962814789226418
435.0, 0.13145801313120728
436.0, 0.13185218302837107
437.0, 0.13965430845957993
438.0, 0.15635930723172836
439.0, 0.16985143128312694
440.0, 0.1859824277619087
441.0, 0.21005117681891808
442.0, 0.23750859108765607
443.0, 0.2722630127336676
444.0, 0.3138518165521177
445.0, 0.36197493999426367
446.0, 0.4274599063530698
447.0, 0.5040541966028803
448.0, 0.584384837031119
449.0, 0.6600714965398283
450.0, 0.7605831588169104
451.0, 0.8442398763861936
452.0, 0.911177690014741
453.0, 0.9622035882548914
454.0, 0.9899873305838708
455.0, 0.9757149926528222
456.0, 0.946888909511329
457.0, 0.9420477621186997
458.0, 0.9078941862407878
459.0, 0.8770772176381908
460.0, 0.8550290073323487
461.0, 0.8478399188075191
462.0, 0.8200043412414617
463.0, 0.7878666452521734
464.0, 0.7491368138593157
465.0, 0.6983475975518141
466.0, 0.6497927549752882
467.0, 0.5952857712622845
468.0, 0.5401846368239697
469.0, 0.49409466270874336
470.0, 0.44820096394120007
471.0, 0.3988526856859779
472.0, 0.3520874659271634
473.0, 0.31854588657834915
474.0, 0.28825546565283616
475.0, 0.262125586185881
476.0, 0.2400375193607249
477.0, 0.2218841758592984
478.0, 0.19901146255845997
479.0, 0.1846650273231177
480.0, 0.17463377141115588
481.0, 0.16042113681202638
482.0, 0.15030706792754153
483.0, 0.1390480370496093
484.0, 0.12630230299836973
485.0, 0.11207016258033412
486.0, 0.1066575733611448
487.0, 0.09666189259300864
488.0, 0.08498913759572528
489.0, 0.07756269052239702
490.0, 0.07310593951040985
491.0, 0.06696012022010045
492.0, 0.06027085781158729
493.0, 0.055144849853996564
494.0, 0.04728236430997382
495.0, 0.04313976166191233
496.0, 0.040988026150931056
497.0, 0.03800745246975053
498.0, 0.031525176245855185
499.0, 0.028498183347275684
500.0, 0.02681903531494307
501.0, 0.02342698439185249
502.0, 0.02417259823589812
503.0, 0.021993886851998268
504.0, 0.01862000524950043
505.0, 0.016300485450253328
506.0, 0.016310108001866646
507.0, 0.013591941284285572
508.0, 0.011512711851969656
509.0, 0.013656694640158862
510.0, 0.009244949802947431
511.0, 0.009267377481681896
512.0, 0.01070959678187127
513.0, 0.010832952542527417
514.0, 0.01510286083801957
515.0, 0.018813834303741186
516.0, 0.020831506662748106
517.0, 0.020499052116407207
518.0, 0.02500401201167044
519.0, 0.03269702594425502
520.0, 0.0407843537348937
521.0, 0.04782857544406885
522.0, 0.06211480201356191
523.0, 0.0767856064406431
524.0, 0.09438207401591787
525.0, 0.11652199694355769
526.0, 0.14375911746083325
527.0, 0.1769920542946235
528.0, 0.21185415100369093
529.0, 0.24626646724032655
530.0, 0.2806909605843129
531.0, 0.31243701834864923
532.0, 0.3301120542103682
533.0, 0.33031920397171083
534.0, 0.3210741384895553
535.0, 0.29755880276359337
536.0, 0.26650079238275376
537.0, 0.2320677895486403
538.0, 0.2031939035274186
539.0, 0.17389515090196858
540.0, 0.14801176390645585
541.0, 0.12555095818318077
542.0, 0.10329071859067968
543.0, 0.08994974289532864
544.0, 0.07887497454866821
545.0, 0.06788948582680528
546.0, 0.05461258896903948
547.0, 0.052245380733665706
548.0, 0.04887844870092594
549.0, 0.042149415703514444
550.0, 0.030456935607116268
551.0, 0.02712138567779251
552.0, 0.023780178711857024
553.0, 0.01910827610631742
554.0, 0.012155777343652452
555.0, 0.015708026838399117
556.0, 0.013650555845031246
557.0, 0.010077497798993524
558.0, 0.010259893169730597
559.0, 0.005935524910002762
560.0, 0.004507151199320188
561.0, 0.004622126954456822
562.0, 0.005032878214618475
563.0, 0.004430775870329315
564.0, 0.003830839033146462
565.0, 0.0024836700451570217
566.0, 0.0004918435946588734
567.0, 0.0036210716560453986
568.0, 0.0034987928594503075
569.0, 0.0022530582400680193
570.0, 0.001461735270879569
571.0, 0.004852479874085812
572.0, 0.003943280014148715
573.0, 0.0037019181538524713
574.0, 0.0044523940384034125
575.0, 0.0014515999623895353
576.0, 0.0013992524349647365
577.0, 0.0032793568765345235
578.0, 0.0051736120213061575
579.0, 0.002695633859554472
580.0, 0.000852371134236969
581.0, 0.001828142093256243
582.0, 0.005518952163150001
583.0, 0.011286977139779882
584.0, 0.0041486545922730916
585.0, 0.0012887112335563183
586.0, 0.0020739891611108703
587.0, 0.0045420386058786545
588.0, 0.002263736970605672
589.0, 0.0021638059018743035
590.0, 0.00273401098671086
591.0, 0.0027217493314329114
592.0, 0.0023966624787621223
593.0, 0.0014042379908619038
594.0, 0.0007482500516993281
595.0, 0.000963148806314799
596.0, 0.0019436354981134563
597.0, 0.004169806746626876
598.0, 0.004668663278213642
599.0, 0.004008896829632224
600.0, 0.00868851201376777
601.0, 0.01313868585488359
602.0, 0.01740426527445083
603.0, 0.020708337425698612
604.0, 0.02111205701207912
605.0, 0.022243666082010664
606.0, 0.026479329031070475
607.0, 0.030698319680418647
608.0, 0.02976042871645046
609.0, 0.03141622261869903
610.0, 0.02839106268805445
611.0, 0.024295377902337382
612.0, 0.022769190701721828
613.0, 0.019951849921779233
614.0, 0.017906466288122997
615.0, 0.015277212456100395
616.0, 0.011439829451595227
617.0, 0.008079843853653963
618.0, 0.008511494099066848
619.0, 0.008558818708163525
620.0, 0.006642339344987572
621.0, 0.0025958553244849842
622.0, 0.0038243618768128785
623.0, 0.0029562187052975344
624.0, 0.0013338022480259494
625.0, 0.0054501288900238205
626.0, 0.002886644003215434
627.0, 0.0010322646932967446
628.0, 0.00026657371053906057
629.0, 0.00018199403950034954
630.0, 0.002403779674058772
631.0, 0.001810603373199193
632.0, 0.0015104645959098542
633.0, 0.0035829003055688055
634.0, 0.0018587283635849395
635.0, 0.003902089779221836
636.0, 0.004287754048050502
637.0, 0.0015033502323902508
638.0, 0.0007920359110701683
639.0, 0.00499442382327549
640.0, 0.005538167126920855
641.0, 0.002811631345660612
642.0, 0.0034451546089964372
643.0, 0.003105182984728037
644.0, 0.0034764541725625115
645.0, 0.004461296467171012
646.0, 0.005636594124030843
647.0, 0.0020349504649589257
648.0, 0.0018756528358303656
649.0, 0.0021409683935325937
650.0, 0.0006734899817111876
651.0, 0.002980512531817578
652.0, 0.002999732019074211
653.0, 0.0029320012949863787
654.0, 0.003115392566280432
655.0, 0.0005441886837750313
656.0, 0.0034248591980906165
657.0, 0.003150369197063559
658.0, 0.00036686055849616934
659.0, 0.0009382949105944758
660.0, 0.0016043319016363666
661.0, 0.0018441954605379752
662.0, 0.001633955700063419
663.0, 0.001062982146036802
664.0, 0.0030402554831590054
665.0, 0.005020783449569647
666.0, 0.00469950808786647
667.0, 0.0017389198997171936
668.0, 0.00476604242667552
669.0, 0.00824245450625534
670.0, 0.009957103993106927
671.0, 0.0106784790667281
672.0, 0.015095244574128277
673.0, 0.024091836455468692
674.0, 0.031113402022196923
675.0, 0.03660936056947193
676.0, 0.042700274329381616
677.0, 0.045624567736512626
678.0, 0.0426649800852159
679.0, 0.03675308467314136
680.0, 0.030506841374734597
681.0, 0.024790965000413067
682.0, 0.023825159955240073
683.0, 0.021362042191724877
684.0, 0.01647623149847007
685.0, 0.01501468541800557
686.0, 0.012033931747112942
687.0, 0.01071832153391078
688.0, 0.010812700064256052
689.0, 0.010922821349241808
690.0, 0.01074828860961394
691.0, 0.010253354193319455
692.0, 0.009016805493087707
693.0, 0.007132555806942292
694.0, 0.009654994607647203
695.0, 0.01029429395194542
696.0, 0.009104463869591793
697.0, 0.007687954787754378
698.0, 0.011878817486357657
699.0, 0.012274062797465948
700.0, 0.014124073258815269
701.0, 0.01645282624621207
702.0, 0.01624482302611535
703.0, 0.018475452588066415
704.0, 0.018868968527085014
705.0, 0.017967301728105248
706.0, 0.016846629035374244
707.0, 0.02042030902272507
708.0, 0.02121611929159207
709.0, 0.020871599573609734
710.0, 0.02063849341001989
711.0, 0.022559447990538342
712.0, 0.022760022174500284
713.0, 0.02326116585295142
714.0, 0.023853892684353617
715.0, 0.02391744828336214
716.0, 0.025526211098464244
717.0, 0.025202234409962325
718.0, 0.024780232076461708
719.0, 0.025183757838156063
720.0, 0.024611223006526416
721.0, 0.026770935683405512
722.0, 0.028714112989164976
723.0, 0.029837678889127608
724.0, 0.030591332287740795
725.0, 0.03026659282616064
726.0, 0.031149456805356135
727.0, 0.032673175564347665
728.0, 0.03417282711789105
729.0, 0.037189282658207375
730.0, 0.038699635728610494
731.0, 0.039903263670585686
732.0, 0.041321456607923676
733.0, 0.0428739874341573
734.0, 0.04730830816670707
735.0, 0.046950549763396125
736.0, 0.045953853050301446
737.0, 0.05209613577681024
738.0, 0.053125764949440366
739.0, 0.05753201094142639
740.0, 0.05919606010383294
741.0, 0.05551409007866732
742.0, 0.05500534958889286
743.0, 0.06592983259631502
744.0, 0.06841541552859264
745.0, 0.06651824833399864
746.0, 0.07909269858986717
747.0, 0.08084492845944885
748.0, 0.08004731051860146
749.0, 0.08170595172673063
750.0, 0.08866777921314528
751.0, 0.08973789607387564
752.0, 0.0985885111946708
753.0, 0.10587206496326927
754.0, 0.10937650407921479
755.0, 0.11210131399718114
756.0, 0.12350606222722044
757.0, 0.1318824097244539
758.0, 0.13928376431870101
759.0, 0.14879371117263082
760.0, 0.15417842351829839
761.0, 0.1624679491701455
762.0, 0.1733258598893595
763.0, 0.18296769851552913
764.0, 0.1791071678186309
765.0, 0.18717447635490958
766.0, 0.18587699649117637
767.0, 0.17827841248106124
768.0, 0.172274280470964
769.0, 0.1743063336255794
770.0, 0.16725891200493534
771.0, 0.15436548605943315
772.0, 0.13951104330300443
773.0, 0.1309290315469416
774.0, 0.12046067802329921
775.0, 0.10761087716866588
776.0, 0.09277860503543447
777.0, 0.07695007446823884
778.0, 0.07080615992987674
779.0, 0.06184821427154728
780.0, 0.05345010981725907
781.0, 0.047142917925478235
782.0, 0.041514282930081525
783.0, 0.04111814974722576
784.0, 0.040846740152327095
785.0, 0.03939932926292461
786.0, 0.036196169765024946
787.0, 0.030253780710377588
788.0, 0.034538487487100984
789.0, 0.03542248996343095
790.0, 0.02891806176361272
791.0, 0.029560521287952574
792.0, 0.030428052805126785
793.0, 0.027085628492574315
794.0, 0.023657339365924745
795.0, 0.026410676433995237
796.0, 0.026181373646522652
797.0, 0.023529812280691224
798.0, 0.02277997040594942
799.0, 0.024655116115880168
800.0, 0.023596883046440215
801.0, 0.021831923115133947
802.0, 0.01894416491588273
803.0, 0.015932408074982227
804.0, 0.014182270747679065
805.0, 0.015573881634835618
806.0, 0.012070445218056653
807.0, 0.010098335759420079
808.0, 0.0103773166212798
809.0, 0.006143852057612561
810.0, 0.006528116661083019
811.0, 0.00755386456467646
812.0, 0.007527493762845465
813.0, 0.005670903616682405
814.0, 0.00837089851853067
815.0, 0.005212374317845065
816.0, 0.001994638248475152
817.0, 0.0026524147246631004
818.0, 0.011488915952774454
819.0, 0.006234671676486883
820.0, 0.004580334646440257
821.0, 0.006169760197030575
822.0, 0.008724388723650264
823.0, 0.0054168982620382816
824.0, 0.0034775048041368545
825.0, 0.002723487608773599
826.0, 0.002421376827724738
827.0, 0.0013278415221402366
828.0, 0.0006123955892694213
829.0, 0.00029077821760140136
830.0, 0.00027479690462136155
831.0, 0.0005929830522527796
832.0, 0.0016948091505565757
833.0, 0.0008801066970554141
834.0, 0.0007766945561887172
835.0, 0.0010125975266569317
836.0, 0.0006388320912280339
837.0, 0.0022658473993228106
838.0, 0.0024387244351925866
839.0, 0.0035173718411536186
840.0, 0.005640746340251236
841.0, 0.006294561793814693
842.0, 0.0024404939945921918
843.0, 0.00311304332711633
844.0, 0.0037725323553892444
845.0, 0.0006465524152325501
846.0, 0.0012748302549522267
847.0, 0.0015586269054289864
848.0, 0.002060246196923477
849.0, 0.00227132749973967
850.0, 0.0010830599550029705
851.0, 0.0005885145353367673
852.0, 0.0003173496058308378
853.0, 0.0015003997625560074
854.0, 0.004049657565667273
855.0, 0.005066954726325933
856.0, 0.0016667040172073494
857.0, 0.003042351928554547
858.0, 0.005785796035064332
859.0, 0.005044678149114487
860.0, 0.0030214497004529078
861.0, 0.0034286783070392275
862.0, 0.00342234808225192
863.0, 0.002605466935303103
864.0, 0.002089868853913063
865.0, 0.00223689790171425
866.0, 0.0019341978474000105
867.0, 0.0019667067593001335
868.0, 0.002730597577672798
869.0, 0.0037229684517886825
870.0, 0.005202875199434399
871.0, 0.003685979043885723
872.0, 0.0028218001984723334
873.0, 0.006193244787930662
874.0, 0.0012554132611359774
875.0, 0.0021321669660787747
876.0, 0.0071753639648461055
877.0, 0.010744350236938394
878.0, 0.002981034188050186
879.0, 0.002365358302684105
880.0, 0.004286929318821985
881.0, 0.004783378058322205
882.0, 0.0029865600525460483
883.0, 0.004663624956917539
884.0, 0.0020926105419211615
885.0, 0.004786537961473037
886.0, 0.008292027488494101
887.0, 0.0070037098935246634
888.0, 0.002691308838477663
889.0, 0.0033834039009891597
890.0, 0.003629093296735352
891.0, 0.0026796541933027953
892.0, 0.0018548830740696646
893.0, 0.0015131491770155661
894.0, 0.0021477468625654803
895.0, 0.0028130302638261035
896.0, 0.003264891688220114
897.0, 0.004186486887491155
898.0, 0.0014727868615448197
899.0, 0.0038925586327222487
900.0, 0.006621320199402317
901.0, 0.006173932181251169
902.0, 0.007638701123299486
903.0, 0.003525412753017856
904.0, 0.0014874327678663648
905.0, 0.00245339232297516
906.0, 0.005108228194776614
907.0, 0.0019049505008379088
908.0, 0.005470698740102063
909.0, 0.006649635873533764
910.0, 0.004587250527490345
911.0, 0.0035391244344599926
912.0, 0.003041403213966536
913.0, 0.003150973186844371
914.0, 0.005420231817691669
915.0, 0.007840925734443786
916.0, 0.0020679609597182118
917.0, 0.005369610850324957
918.0, 0.004277676787312527
919.0, 0.0016587507339762071
920.0, 0.0009031973856468679
921.0, 0.003087178599975109
922.0, 0.008689094461117807
923.0, 0.0057740483202121445
924.0, 0.0024711153876538663
925.0, 0.008147108753267285
926.0, 0.0017890107457466816
927.0, 0.004735214535996071
928.0, 0.00605293293745867
929.0, 0.005373484897020417
930.0, 0.007006808362915879
931.0, 0.0070197073641309355
932.0, 0.00957586017902991
933.0, 0.010412216479888178
934.0, 0.009350117138962026
935.0, 0.010188771874009883
936.0, 0.003975447421269878
937.0, 0.0019520101914284969
938.0, 0.0050582742306742486
939.0, 0.010338016754767537
940.0, 0.007278887050453093
941.0, 0.012721178183311057
942.0, 0.010871732491162535
943.0, 0.007498188446749076
944.0, 0.008919011953053595
945.0, 0.017248428680213073
946.0, 0.008899185540491851
947.0, 0.010922181022662118
948.0, 0.016030935584562745
949.0, 0.013590092196582845
950.0, 0.016903790690111175
951.0, 0.018584945777216463
952.0, 0.015278944307351954
953.0, 0.012479937804877555
954.0, 0.017749821830239956
955.0, 0.018814125795755282
956.0, 0.016083380182139815
957.0, 0.016171140977051017
958.0, 0.018979981604416093
959.0, 0.020677319678121284
960.0, 0.02701342656111609
961.0, 0.026309668333867015
962.0, 0.022445505643098017
963.0, 0.02057508953006279
964.0, 0.027728517190014717
965.0, 0.02083211046156447
966.0, 0.021505949973455063
967.0, 0.027272493780105957
968.0, 0.032271855698176644
969.0, 0.025399963594655513
970.0, 0.021286233205624457
971.0, 0.029773693831804414
972.0, 0.03446438994111831
973.0, 0.029216529676359404
974.0, 0.0307902125472013
975.0, 0.032090880868308
976.0, 0.029230606947924443
977.0, 0.029477495897927575
978.0, 0.03643388694753912
979.0, 0.04104383134558108
980.0, 0.03655958703862017
981.0, 0.03635248825673086
982.0, 0.037713047810504115
983.0, 0.03703028532394554
984.0, 0.03575820754072322
985.0, 0.03544897082658842
986.0, 0.03645832039043113
987.0, 0.036769901693867374
988.0, 0.034320237101684095
989.0, 0.02886280951470461
990.0, 0.030884091716724824
991.0, 0.03458781725361842
992.0, 0.03474283168432701
993.0, 0.02943248526594099
994.0, 0.03766750247089041
995.0, 0.0350075017556967
996.0, 0.035999316057436434
997.0, 0.0392165341052523
998.0, 0.03874330538498621
999.0, 0.03185969016398628
1000.0, 0.0341064246260013
1001.0, 0.034729298595443846
1002.0, 0.03444461377241537
1003.0, 0.03754384166013143
1004.0, 0.04357785803386096
1005.0, 0.03871041457432772
1006.0, 0.04167552132017784
1007.0, 0.04672741484455098
1008.0, 0.041192405666754625
1009.0, 0.04691828418034356
1010.0, 0.04965836337362008
1011.0, 0.05061583992924921
1012.0, 0.053386541561753716
1013.0, 0.06110785786443082
1014.0, 0.05756553267173999
1015.0, 0.059960106617043714
1016.0, 0.06718899406024273
1017.0, 0.07197571432107758
1018.0, 0.06659899737791238
1019.0, 0.07538937051161797
1020.0, 0.07641159833770086
1021.0, 0.07884539276295896
1022.0, 0.082208400738036
1023.0, 0.08231174236633089
1024.0, 0.08269816626877452
1025.0, 0.08073227069670016
1026.0, 0.08597256639268702
1027.0, 0.09025083881918065
1028.0, 0.08154606107919239
1029.0, 0.09324583927061686
1030.0, 0.0916840109507714
1031.0, 0.0892173266798258
1032.0, 0.0918940760951455
1033.0, 0.10085509163585253
1034.0, 0.09420288146382015
1035.0, 0.09493950454408623
1036.0, 0.09954285622551783
1037.0, 0.1020394871565884
1038.0, 0.0983410619566525
1039.0, 0.10756693237402774
1040.0, 0.10387096595678978
1041.0, 0.10463793224378172
1042.0, 0.11001221536641108
1043.0, 0.11307659807085409
1044.0, 0.09682012756439652
1045.0, 0.10670830086138927
1046.0, 0.10799536777752798
1047.0, 0.10463730313425292
1048.0, 0.10749291024079127
1049.0, 0.11007873578847029
1050.0, 0.10185861028826922
1051.0, 0.10431482913728754
1052.0, 0.10964011707320093
1053.0, 0.10683300370830744
1054.0, 0.0966429652475583
1055.0, 0.09956693352488105
1056.0, 0.09841888168973774
1057.0, 0.09467598647463833
1058.0, 0.09261094998645986
1059.0, 0.09607207735289432
1060.0, 0.09485952552350878
1061.0, 0.09989493545201547
1062.0, 0.10180074513281435
1063.0, 0.09892811081699826
1064.0, 0.111399288005885
1065.0, 0.123887898857223
1066.0, 0.12724695457003599
1067.0, 0.12881613481126308
1068.0, 0.1355874876857375
1069.0, 0.15229361098474786
1070.0, 0.14169541681790912
1071.0, 0.15036271728095085
1072.0, 0.15811188866108078
1073.0, 0.15496520504293015
1074.0, 0.14480081358401747
1075.0, 0.16804168165871344
1076.0, 0.17437766699342358
1077.0, 0.18134728496971717
1078.0, 0.19652932171743304
1079.0, 0.21934942286206813
1080.0, 0.245694434053591
1081.0, 0.2904224108088161
1082.0, 0.33538712760267203
1083.0, 0.3795785780721503
1084.0, 0.4319901836283201
1085.0, 0.5157640528476347
1086.0, 0.5709862266165318
1087.0, 0.6347599314617515
1088.0, 0.694369860895472
1089.0, 0.727775250002445
1090.0, 0.7425551212956116
1091.0, 0.7653635982299501
1092.0, 0.7616471966416455
1093.0, 0.7460842768629998
1094.0, 0.7346442204543201
1095.0, 0.7194508561221976
1096.0, 0.7068469886965835
1097.0, 0.6899640989357586
1098.0, 0.6854406123651394
1099.0, 0.6887613035107062
1100.0, 0.6574058932191388
1101.0, 0.6675564526953538
1102.0, 0.6486850916824358
1103.0, 0.608884334741377
1104.0, 0.5632085784613754
1105.0, 0.5283688676103462
1106.0, 0.4430248207010804
1107.0, 0.36672193050557406
1108.0, 0.29826922156785224
1109.0, 0.23404163266637865
1110.0, 0.17187590301998895
1111.0, 0.1367443307175601
1112.0, 0.0965446217389304
1113.0, 0.06948475137821916
1114.0, 0.05713823497160977
1115.0, 0.05252587905734103
1116.0, 0.036448203415430036
1117.0, 0.02882730854883893
1118.0, 0.029131232813756614
1119.0, 0.027609832013316384
1120.0, 0.022184527708035126
1121.0, 0.02880165704411268
1122.0, 0.025003852555755192
1123.0, 0.026228951630023655
1124.0, 0.027888323430359088
1125.0, 0.02580842843781059
1126.0, 0.01784438210612203
1127.0, 0.016226763145290108
1128.0, 0.007374169955083014
1129.0, 0.0032080750037816064
1130.0, 0.007142185802263261
1131.0, 0.015489423088868129
1132.0, 0.007897396449359814
1133.0, 0.0032502546231507317
1134.0, 0.0057019942018524915
1135.0, 0.0069607676100513745
1136.0, 0.0023586413981177274
1137.0, 0.006972710861743146
1138.0, 0.004139270180858088
1139.0, 0.002417808885046198
1140.0, 0.0059262192565986225
1141.0, 0.010888808791976363
1142.0, 0.004185918421391416
1143.0, 0.0045539242230614434
1144.0, 0.006249223271702271
1145.0, 0.005278865602341758
1146.0, 0.0073348293635458325
1147.0, 0.019254012295354807
1148.0, 0.005660422316053138
1149.0, 0.0013078300506458899
1150.0, 0.01062480802993114
1151.0, 0.014723773589654394
1152.0, 0.002943568108798386
1153.0, 0.008971540678060413
1154.0, 0.014257420073713735
1155.0, 0.010657257609788362
1156.0, 0.010643214632781136
1157.0, 0.014746011015602516
1158.0, 0.006859573235761835
1159.0, 0.01666223218794154
1160.0, 0.01793381927508609
1161.0, 0.014505233279979924
1162.0, 0.01248699523928155
1163.0, 0.017977894437661283
1164.0, 0.03064903326695085
1165.0, 0.017118076623240795
1166.0, 0.023063026836284393
1167.0, 0.03049920539348188
1168.0, 0.02331540142424374
1169.0, 0.0202887165043937
1170.0, 0.03296563920373058
1171.0, 0.026429951022176608
1172.0, 0.02317660307645341
1173.0, 0.028814130695890016
1174.0, 0.031088311734899517
1175.0, 0.02177273130302978
1176.0, 0.02645698688728824
1177.0, 0.028654366119979027
1178.0, 0.02907136162863265
1179.0, 0.03216172212365198
1180.0, 0.0342843987471449
1181.0, 0.026597185628965604
1182.0, 0.029972038329466662
1183.0, 0.03730570196093782
1184.0, 0.039777051060939
1185.0, 0.031762980382583
1186.0, 0.04047854862890312
1187.0, 0.04162975880969766
1188.0, 0.03793012458541788
1189.0, 0.037495918868135476
1190.0, 0.04506691597817267
1191.0, 0.038900538520821794
1192.0, 0.054229541395522586
1193.0, 0.05118713124001443
1194.0, 0.041945945593933574
1195.0, 0.04116466248244263
1196.0, 0.054145467914575446
1197.0, 0.03588012019322892
1198.0, 0.040092794670556986
1199.0, 0.04607103903766364
1200.0, 0.04402502899809881
1201.0, 0.03432192096657307
1202.0, 0.03497745456148213
1203.0, 0.03664797591982196
1204.0, 0.03459056960475184
1205.0, 0.034549589975255535
1206.0, 0.03487202737687057
1207.0, 0.0207359498744397
1208.0, 0.013114261004386238
1209.0, 0.019273912021104855
1210.0, 0.016977490826981044
1211.0, 0.013164194406366424
1212.0, 0.02150385670611647
1213.0, 0.010718104885568288
1214.0, 0.009027133382314369
1215.0, 0.014779767590080498
1216.0, 0.0140914841339706
1217.0, 0.006217278339863846
1218.0, 0.009847533906265823
1219.0, 0.003089266725670919
1220.0, 0.0011781353070651117
1221.0, 0.004983937948426678
1222.0, 0.008363927001954556
1223.0, 0.006133795014314832
1224.0, 0.00857659083597016
1225.0, 0.013150103591810066
1226.0, 0.008555630931025569
1227.0, 0.00849043601665955
1228.0, 0.015620264796786904
1229.0, 0.017460026098886618
1230.0, 0.0026470790228562907
1231.0, 0.012309511664855442
1232.0, 0.010504146622169948
1233.0, 0.007040261667518135
1234.0, 0.015096804392091469
1235.0, 0.016182032981928062
1236.0, 0.010623643869356492
1237.0, 0.011892469684482548
1238.0, 0.01678710392688712
1239.0, 0.0181462400497533
1240.0, 0.010968504209920576
1241.0, 0.01989315671189215
1242.0, 0.01837809212084315
1243.0, 0.011072217523028982
1244.0, 0.010182775393058762
1245.0, 0.016728715337817755
1246.0, 0.012111363416095386
1247.0, 0.011100300719157677
1248.0, 0.00961691512931689
1249.0, 0.00892626292438931
1250.0, 0.007651306242848397
1251.0, 0.00500267621282221
1252.0, 0.006591914441236126
1253.0, 0.005859669013291475
1254.0, 0.008653275320556781
1255.0, 0.008796936216595932
1256.0, 0.006862367287084149
1257.0, 0.009085855974820353
1258.0, 0.00791465051979644
1259.0, 0.002223791374061179
1260, 0.0
1261, 0.0
1262, 0.0
1263, 0.0
1264, 0.0
1265, 0.0
1266, 0.0
1267, 0.0
1268, 0.0
1269, 0.0
1270, 0.0
1271, 0.0
1272, 0.0
1273, 0.0
1274, 0.0
1275, 0.0
1276, 0.0
1277, 0.0
1278, 0.0
1279, 0.0
1280, 0.0
1281, 0.0
1282, 0.0
1283, 0.0
1284, 0.0
1285, 0.0
1286, 0.0
1287, 0.0
1288, 0.0
1289, 0.0
1290, 0.0
1291, 0.0
1292, 0.0
1293, 0.0
1294, 0.0
1295, 0.0
1296, 0.0
1297, 0.0
1298, 0.0
1299, 0.0
1300, 0.0
1301, 0.0
1302, 0.0
1303, 0.0
1304, 0.0
1305, 0.0
1306, 0.0
1307, 0.0
1308, 0.0
1309, 0.0
1310, 0.0
1311, 0.0
1312, 0.0
1313, 0.0
1314, 0.0
1315, 0.0
1316, 0.0
1317, 0.0
1318, 0.0
1319, 0.0
1320, 0.0
1321, 0.0
1322, 0.0
1323, 0.0
1324, 0.0
1325, 0.0
1326, 0.0
1327, 0.0
1328, 0.0
1329, 0.0
1330, 0.0
1331, 0.0
1332, 0.0
1333, 0.0
1334, 0.0
1335, 0.0
1336, 0.0
1337, 0.0
1338, 0.0
1339, 0.0
1340, 0.0
1341, 0.0
1342, 0.0
1343, 0.0
1344, 0.0
1345, 0.0
1346, 0.0
1347, 0.0
1348, 0.0
1349, 0.0
1350, 0.0
1351, 0.0
1352, 0.0
1353, 0.0
1354, 0.0
1355, 0.0
1356, 0.0
1357, 0.0
1358, 0.0
1359, 0.0
1360, 0.0
1361, 0.0
1362, 0.0
1363, 0.0
1364, 0.0
1365, 0.0
1366, 0.0
1367, 0.0
1368, 0.0
1369, 0.0
1370, 0.0
1371, 0.0
1372, 0.0
1373, 0.0
1374, 0.0
1375, 0.0
1376, 0.0
1377, 0.0
1378, 0.0
1379, 0.0
1380, 0.0
1381, 0.0
1382, 0.0
1383, 0.0
1384, 0.0
1385, 0.0
1386, 0.0
1387, 0.0
1388, 0.0
1389, 0.0
1390, 0.0
1391, 0.0
1392, 0.0
1393, 0.0
1394, 0.0
1395, 0.0
1396, 0.0
1397, 0.0
1398, 0.0
1399, 0.0
1400, 0.0
1401, 0.0
1402, 0.0
1403, 0.0
1404, 0.0
1405, 0.0
1406, 0.0
1407, 0.0
1408, 0.0
1409, 0.0
1410, 0.0
1411, 0.0
1412, 0.0
1413, 0.0
1414, 0.0
1415, 0.0
1416, 0.0
1417, 0.0
1418, 0.0
1419, 0.0
1420, 0.0
1421, 0.0
1422, 0.0
1423, 0.0
1424, 0.0
1425, 0.0
1426, 0.0
1427, 0.0
1428, 0.0
1429, 0.0
1430, 0.0
1431, 0.0
1432, 0.0
1433, 0.0
1434, 0.0
1435, 0.0
1436, 0.0
1437, 0.0
1438, 0.0
1439, 0.0
1440, 0.0
1441, 0.0
1442, 0.0
1443, 0.0
1444, 0.0
1445, 0.0
1446, 0.0
1447, 0.0
1448, 0.0
1449, 0.0
1450, 0.0
1451, 0.0
1452, 0.0
1453, 0.0
1454, 0.0
1455, 0.0
1456, 0.0
1457, 0.0
1458, 0.0
1459, 0.0
1460, 0.0
1461, 0.0
1462, 0.0
1463, 0.0
1464, 0.0
1465, 0.0
1466, 0.0
1467, 0.0
1468, 0.0
1469, 0.0
1470, 0.0
1471, 0.0
1472, 0.0
1473, 0.0
1474, 0.0
1475, 0.0
1476, 0.0
1477, 0.0
1478, 0.0
1479, 0.0
1480, 0.0
1481, 0.0
1482, 0.0
1483, 0.0
1484, 0.0
1485, 0.0
1486, 0.0
1487, 0.0
1488, 0.0
1489, 0.0
1490, 0.0
1491, 0.0
1492, 0.0
1493, 0.0
1494, 0.0
1495, 0.0
1496, 0.0
1497, 0.0
1498, 0.0
1499, 0.0
1500, 0.0
1501, 0.0
1502, 0.0
1503, 0.0
1504, 0.0
1505, 0.0
1506, 0.0
1507, 0.0
1508, 0.0
1509, 0.0
1510, 0.0
1511, 0.0
1512, 0.0
1513, 0.0
1514, 0.0
1515, 0.0
1516, 0.0
1517, 0.0
1518, 0.0
1519, 0.0
1520, 0.0
1521, 0.0
1522, 0.0
1523, 0.0
1524, 0.0
1525, 0.0
1526, 0.0
1527, 0.0
1528, 0.0
1529, 0.0
1530, 0.0
1531, 0.0
1532, 0.0
1533, 0.0
1534, 0.0
1535, 0.0
1536, 0.0
1537, 0.0
1538, 0.0
1539, 0.0
1540, 0.0
1541, 0.0
1542, 0.0
1543, 0.0
1544, 0.0
1545, 0.0
1546, 0.0
1547, 0.0
1548, 0.0
1549, 0.0
1550, 0.0
1551, 0.0
1552, 0.0
1553, 0.0
1554, 0.0
1555, 0.0
1556, 0.0
1557, 0.0
1558, 0.0
1559, 0.0
1560, 0.0
1561, 0.0
1562, 0.0
1563, 0.0
1564, 0.0
1565, 0.0
1566, 0.0
1567, 0.0
1568, 0.0
1569, 0.0
1570, 0.0
1571, 0.0
1572, 0.0
1573, 0.0
1574, 0.0
1575, 0.0
1576, 0.0
1577, 0.0
1578, 0.0
1579, 0.0
1580, 0.0
1581, 0.0
1582, 0.0
1583, 0.0
1584, 0.0
1585, 0.0
1586, 0.0
1587, 0.0
1588, 0.0
1589, 0.0
1590, 0.0
1591, 0.0
1592, 0.0
1593, 0.0
1594, 0.0
1595, 0.0
1596, 0.0
1597, 0.0
1598, 0.0
1599, 0.0
