30, 0.0
31, 0.0
32, 0.0
33, 0.0
34, 0.0
35, 0.0
36, 0.0
37, 0.0
38, 0.0
39, 0.0
40, 0.0
41, 0.0
42, 0.0
43, 0.0
44, 0.0
45, 0.0
46, 0.0
47, 0.0
48, 0.0
49, 0.0
50, 0.0
51, 0.0
52, 0.0
53, 0.0
54, 0.0
55, 0.0
56, 0.0
57, 0.0
58, 0.0
59, 0.0
60, 0.0
61, 0.0
62, 0.0
63, 0.0
64, 0.0
65, 0.0
66, 0.0
67, 0.0
68, 0.0
69, 0.0
70, 0.0
71, 0.0
72, 0.0
73, 0.0
74, 0.0
75, 0.0
76, 0.0
77, 0.0
78, 0.0
79, 0.0
80, 0.0
81, 0.0
82, 0.0
83, 0.0
84, 0.0
85, 0.0
86, 0.0
87, 0.0
88, 0.0
89, 0.0
90.0, 0.00019768503519334625
91.0, 0.0019948217187692303
92.0, 0.0013870471392367991
93.0, 0.0010564160616799603
94.0, 0.0033178650019979865
95.0, 0.001479619561624619
96.0, 0.0018238854373505687
97.0, 0.0036553444752912747
98.0, 0.001365475754760706
99.0, 0.005413359976082075
100.0, 0.011040160575394604
101.0, 0.015681152575562046
102.0, 0.018490300446840635
103.0, 0.024148183064084942
104.0, 0.031593100925128126
105.0, 0.03723528180733372
106.0, 0.04807650093000151
107.0, 0.061438035944279434
108.0, 0.07649731809653205
109.0, 0.08897743293503693
110.0, 0.10064984939602858
111.0, 0.11062248796222429
112.0, 0.11644928920225556
113.0, 0.12156101907563056
114.0, 0.12459842987245093
115.0, 0.1250899796592235
116.0, 0.12372943629678977
117.0, 0.11964998043703667
118.0, 0.11291601769481113
119.0, 0.10279237358769017
120.0, 0.09335830328550036
121.0, 0.0835178119056504
122.0, 0.07417503892949627
123.0, 0.07365882275541898
124.0, 0.0649046710481336
125.0, 0.055641326706986384
126.0, 0.05217383698680919
127.0, 0.050505896364861635
128.0, 0.05147648021601333
129.0, 0.054225840735809036
130.0, 0.05541213776655373
131.0, 0.050342392566007775
132.0, 0.04789803390532837
133.0, 0.05259889852393547
134.0, 0.04943368938625509
135.0, 0.050255969631902334
136.0, 0.05269093485917461
137.0, 0.0518094471456304
138.0, 0.05357483353083115
139.0, 0.05700430597601333
140.0, 0.06121170405997561
141.0, 0.056178100398084525
142.0, 0.06181198915223903
143.0, 0.06860728094229249
144.0, 0.06583202392793173
145.0, 0.07260315919553488
146.0, 0.07774991467944271
147.0, 0.0807399600102102
148.0, 0.08537665971270489
149.0, 0.09609228585165921
150.0, 0.10596164601832314
151.0, 0.11083351306684561
152.0, 0.13251305417793358
153.0, 0.1419325648389841
154.0, 0.1483273096032769
155.0, 0.17505771405995793
156.0, 0.1860843602672972
157.0, 0.19871365589326231
158.0, 0.21727028938373216
159.0, 0.23411144371180606
160.0, 0.2440336319646921
161.0, 0.2531319330394118
162.0, 0.26811426319486126
163.0, 0.26516382053532433
164.0, 0.2678008024419304
165.0, 0.27408976477162117
166.0, 0.26391425161311094
167.0, 0.2526125111076206
168.0, 0.24221132445282495
169.0, 0.23379783687700417
170.0, 0.2152042982720457
171.0, 0.20269111331405368
172.0, 0.19146368849612155
173.0, 0.17246416678018273
174.0, 0.16407967072943072
175.0, 0.1558833001839702
176.0, 0.14582549953998764
177.0, 0.13443543093313576
178.0, 0.12799895598194452
179.0, 0.1204632387669961
180.0, 0.10687232472770013
181.0, 0.11069993091021388
182.0, 0.10778495199156898
183.0, 0.10233123815195656
184.0, 0.1091658260918513
185.0, 0.11002703504320255
186.0, 0.11146166599036993
187.0, 0.11534843639099515
188.0, 0.1192291281506692
189.0, 0.1228590437387688
190.0, 0.12978881802526307
191.0, 0.14461692334954115
192.0, 0.13852929132141337
193.0, 0.1446787453977386
194.0, 0.15872955574503853
195.0, 0.15456587481804773
196.0, 0.15473179394174483
197.0, 0.15709913806884862
198.0, 0.1607488035924432
199.0, 0.15881692761109323
200.0, 0.1584970346957252
201.0, 0.1571445965950263
202.0, 0.15107221918376199
203.0, 0.14956360726402
204.0, 0.15112102135115046
205.0, 0.1533378137540788
206.0, 0.1465201154198983
207.0, 0.15021883486928297
208.0, 0.14900218985669736
209.0, 0.1366967075203673
210.0, 0.14565107359537438
211.0, 0.14671315162868168
212.0, 0.143260634817672
213.0, 0.13897526311098746
214.0, 0.13736722827592054
215.0, 0.13683056399551863
216.0, 0.13682682829283924
217.0, 0.1359017441545496
218.0, 0.1312022047026941
219.0, 0.12986833238282436
220.0, 0.13476012904125909
221.0, 0.1321492595526573
222.0, 0.1312203707003879
223.0, 0.13231441013018064
224.0, 0.13628588517122586
225.0, 0.13958789003594593
226.0, 0.14223307775640412
227.0, 0.1445577746224286
228.0, 0.14779706246812171
229.0, 0.1475340941929834
230.0, 0.1469931153113133
231.0, 0.1471636842040071
232.0, 0.14489929917457858
233.0, 0.14612375657981835
234.0, 0.14526057838423978
235.0, 0.1360182602103664
236.0, 0.141900298011827
237.0, 0.13882940196844565
238.0, 0.1311189106722085
239.0, 0.13581416133121466
240.0, 0.1338428309274095
241.0, 0.1286208136949578
242.0, 0.122370305129875
243.0, 0.12889307362518926
244.0, 0.1299079731036829
245.0, 0.12947972113386438
246.0, 0.13050021866710618
247.0, 0.13224215454808502
248.0, 0.13287791538814422
249.0, 0.13461075319957494
250.0, 0.14222963800094274
251.0, 0.13995956065325393
252.0, 0.14425679025944255
253.0, 0.15376702017573204
254.0, 0.14410281575587494
255.0, 0.14902977155597555
256.0, 0.15385545512181376
257.0, 0.15142585249866455
258.0, 0.14328884968200142
259.0, 0.14051343474618463
260.0, 0.13620734850175745
261.0, 0.12149293139512124
262.0, 0.11598276091751258
263.0, 0.10649535686408579
264.0, 0.0938928237261664
265.0, 0.08392657392583694
266.0, 0.06904001536465611
267.0, 0.055395184808722325
268.0, 0.04516387888497634
269.0, 0.04195260146440402
270.0, 0.03285568732659901
271.0, 0.02448746163658245
272.0, 0.02132122367321826
273.0, 0.016801089576346347
274.0, 0.013486901251305222
275.0, 0.011950666781322264
276.0, 0.01336575775930359
277.0, 0.015215877394123677
278.0, 0.017232837338380845
279.0, 0.018623519907231895
280.0, 0.01650524638362778
281.0, 0.01927493647940585
282.0, 0.023158653858451356
283.0, 0.02651972607946915
284.0, 0.024625457454753773
285.0, 0.029689847275160483
286.0, 0.03409088103242763
287.0, 0.03226925679200494
288.0, 0.04119997342761078
289.0, 0.047170426075403754
290.0, 0.051603324455145136
291.0, 0.056791805427628315
292.0, 0.0694200797088576
293.0, 0.07577366041692984
294.0, 0.07751363994899577
295.0, 0.08562016501535467
296.0, 0.08089682610941415
297.0, 0.07867551908602137
298.0, 0.08165943639242257
299.0, 0.07313550966317672
300.0, 0.06385085645861405
301.0, 0.05718502079256603
302.0, 0.05528217808251244
303.0, 0.04493473745550126
304.0, 0.038013081131562015
305.0, 0.03234782051511835
306.0, 0.025288703924178892
307.0, 0.01891224747218568
308.0, 0.015253707675878251
309.0, 0.012334772533056131
310.0, 0.004746477390299481
311.0, 0.0035967656349116593
312.0, 0.004069214274515703
313.0, 0.0046166692610048
314.0, 0.002267142738920186
315.0, 0.005194233701715084
316.0, 0.007087152711039318
317.0, 0.005641153090975914
318.0, 0.007965887501208142
319.0, 0.009802060040985248
320.0, 0.010174567475828577
321.0, 0.00814265203200572
322.0, 0.010351509832698686
323.0, 0.012233872692394426
324.0, 0.014047372459869483
325.0, 0.0162987912542556
326.0, 0.01676309308385995
327.0, 0.01679387696824185
328.0, 0.016593430157884195
329.0, 0.01631227288864963
330.0, 0.013751106969662688
331.0, 0.0112065445763791
332.0, 0.008818841748929648
333.0, 0.004440593532858631
334.0, 0.004788049588194758
335.0, 0.004518119301856516
336.0, 0.0018608433156184778
337.0, 0.004062905912654662
338.0, 0.0026851526086987317
339.0, 0.004050109130933002
340.0, 0.013045419172860727
341.0, 0.012536556943149075
342.0, 0.012865267375149711
343.0, 0.01449828855448887
344.0, 0.018180948642064772
345.0, 0.01701872288930922
346.0, 0.020027047897124485
347.0, 0.025078836063317355
348.0, 0.026284110802900076
349.0, 0.03079544744707434
350.0, 0.0353998195679909
351.0, 0.03924711541723352
352.0, 0.04105640093051109
353.0, 0.05285863136751529
354.0, 0.060053456574093535
355.0, 0.06089814393972209
356.0, 0.07333978262597911
357.0, 0.0798615062114811
358.0, 0.08545313684158674
359.0, 0.0925292823675366
360.0, 0.10191089846925233
361.0, 0.10133241671936151
362.0, 0.10031937755037215
363.0, 0.10601086430344174
364.0, 0.10127698560545573
365.0, 0.09738896376878442
366.0, 0.0936769041723425
367.0, 0.08933266769675675
368.0, 0.08213993384223478
369.0, 0.0790356543240282
370.0, 0.07777747428076613
371.0, 0.07369395831964318
372.0, 0.07057071666586355
373.0, 0.0652571310615236
374.0, 0.058676681756161836
375.0, 0.054434157254326994
376.0, 0.056011584939232376
377.0, 0.05481467716844774
378.0, 0.05085907807038732
379.0, 0.05196739420623292
380.0, 0.0503295411894468
381.0, 0.049428149985172753
382.0, 0.04955199387163948
383.0, 0.044827584817028115
384.0, 0.046006043380549484
385.0, 0.04776516693087229
386.0, 0.04755099702095552
387.0, 0.044202480422149686
388.0, 0.046103075103166004
389.0, 0.04742229429365218
390.0, 0.044413871973341706
391.0, 0.04303774213147239
392.0, 0.04433121985933766
393.0, 0.045770395010822335
394.0, 0.04500653867933662
395.0, 0.047375094705058005
396.0, 0.04529507523389486
397.0, 0.04131853675239175
398.0, 0.038781788188186866
399.0, 0.03985167179686355
400.0, 0.03837883381009164
401.0, 0.03721124490059442
402.0, 0.04196154503386748
403.0, 0.044286900067629774
404.0, 0.04590914525789794
405.0, 0.046747998245576475
406.0, 0.04614087696678369
407.0, 0.04924188133756468
408.0, 0.05196663849282591
409.0, 0.05314201136531389
410.0, 0.05099255276721324
411.0, 0.061807841797387464
412.0, 0.06759357998833579
413.0, 0.06745592449223137
414.0, 0.07339453159703249
415.0, 0.07530240496992127
416.0, 0.08011427174997546
417.0, 0.08905712113752184
418.0, 0.09799980123690812
419.0, 0.09785923116243776
420.0, 0.10330234644787857
421.0, 0.1172405793869438
422.0, 0.12146669986866145
423.0, 0.12340603430283967
424.0, 0.12656208035257027
425.0, 0.13142117693061908
426.0, 0.1266518845882661
427.0, 0.13054050319143484
428.0, 0.13364712466559264
429.0, 0.13127343348333792
430.0, 0.13102097812713204
431.0, 0.1329352817363972
432.0, 0.13253158253482877
433.0, 0.12755473166240142
434.0, 0.1355607761095857
435.0, 0.13696875510628495
436.0, 0.1399871901024118
437.0, 0.1508734367075587
438.0, 0.1633437177287211
439.0, 0.17197930983746226
440.0, 0.1869469301107855
441.0, 0.21742751585807882
442.0, 0.23779865214177748
443.0, 0.27190843033122275
444.0, 0.3129148957136123
445.0, 0.3539352278774142
446.0, 0.4239526542445218
447.0, 0.5050580539160289
448.0, 0.5882985846102451
449.0, 0.6635580352446185
450.0, 0.783622167396712
451.0, 0.8660444339624548
452.0, 0.9235420269410302
453.0, 0.9739877308625436
454.0, 0.9932627281046279
455.0, 0.9534569365812396
456.0, 0.8991679081938011
457.0, 0.8931789076936077
458.0, 0.8451157061010489
459.0, 0.8144359761619255
460.0, 0.7980107486549627
461.0, 0.7875002431091186
462.0, 0.7566444403967745
463.0, 0.7292719174174078
464.0, 0.6934849660547219
465.0, 0.6279388055695406
466.0, 0.590407834609957
467.0, 0.544786515637895
468.0, 0.4938932472135536
469.0, 0.4460247844137779
470.0, 0.41333632348945454
471.0, 0.37156734062182595
472.0, 0.32912637046698284
473.0, 0.302931436226077
474.0, 0.27543040111498485
475.0, 0.2543046470185532
476.0, 0.23814854660188417
477.0, 0.22389001238501813
478.0, 0.20509782920953015
479.0, 0.19455807151332813
480.0, 0.1860835861520011
481.0, 0.16782886251985196
482.0, 0.1631401741442944
483.0, 0.1535750312202782
484.0, 0.13854118718479963
485.0, 0.1190281617097681
486.0, 0.12031379323784473
487.0, 0.11049237170367317
488.0, 0.09686822561221253
489.0, 0.09415630317208974
490.0, 0.08629590459839587
491.0, 0.07579529657826835
492.0, 0.06804952166434093
493.0, 0.07095215095312932
494.0, 0.058088856609454745
495.0, 0.05297169004946675
496.0, 0.053424481273489685
497.0, 0.05487616851230096
498.0, 0.044218615461113796
499.0, 0.041099768003130296
500.0, 0.03996135639735681
501.0, 0.03264032465381809
502.0, 0.033287283419834036
503.0, 0.03174102725533646
504.0, 0.028901698081268457
505.0, 0.026152726670512216
506.0, 0.026770607803202475
507.0, 0.02345992576886864
508.0, 0.02147036345711801
509.0, 0.026375930651853886
510.0, 0.01682972942611919
511.0, 0.02004629514485763
512.0, 0.025015828806106224
513.0, 0.021586366518033324
514.0, 0.020679920965208404
515.0, 0.024048633399304686
516.0, 0.027329482860238178
517.0, 0.027384020055254837
518.0, 0.03542895836884584
519.0, 0.042777215132284725
520.0, 0.049836502249546735
521.0, 0.057485958954232516
522.0, 0.07516615266965625
523.0, 0.08924440301668134
524.0, 0.10674798379505107
525.0, 0.13180895901219183
526.0, 0.16315163963451806
527.0, 0.19765478496367234
528.0, 0.2366056232493879
529.0, 0.27839596836353997
530.0, 0.30521503086132307
531.0, 0.3329133395079107
532.0, 0.3405670574410878
533.0, 0.3234215897739331
534.0, 0.30430266375745785
535.0, 0.27357022367225553
536.0, 0.23562791896135232
537.0, 0.19655384902529308
538.0, 0.1770207416623037
539.0, 0.14958879345871634
540.0, 0.12578158993187452
541.0, 0.10777427159966312
542.0, 0.09316195948438356
543.0, 0.07888864012065341
544.0, 0.06999938333198825
545.0, 0.06424486586183978
546.0, 0.05341765480904236
547.0, 0.046680829163279605
548.0, 0.04128388660986072
549.0, 0.035771226133621326
550.0, 0.02800083913300013
551.0, 0.030095004699637353
552.0, 0.02555054967025364
553.0, 0.01916109737099885
554.0, 0.020114538574957236
555.0, 0.019584577889262163
556.0, 0.014487215263808922
557.0, 0.010925783586316878
558.0, 0.015792413037805673
559.0, 0.010244637051178274
560.0, 0.009363717006039192
561.0, 0.008967021793687545
562.0, 0.005902242127845925
563.0, 0.009991105997971463
564.0, 0.010335565070505379
565.0, 0.008254681343465067
566.0, 0.005207014894083242
567.0, 0.007576269395840116
568.0, 0.00918568776281546
569.0, 0.008658974082259387
570.0, 0.0064334517622263295
571.0, 0.008873585139542731
572.0, 0.008536737955927111
573.0, 0.008098556963751951
574.0, 0.007682314879586738
575.0, 0.004542819597713628
576.0, 0.005048243681805471
577.0, 0.008102790232961812
578.0, 0.010572309175560062
579.0, 0.004978016545800759
580.0, 0.01039457639987355
581.0, 0.010327586211381912
582.0, 0.006919868795509021
583.0, 0.007430197842217887
584.0, 0.00866458153929666
585.0, 0.005575928232185238
586.0, 0.0025122388918479522
587.0, 0.004922172765562453
588.0, 0.0027469341670705153
589.0, 0.0016167172897329609
590.0, 0.002804789810702807
591.0, 0.006626234449604658
592.0, 0.0017630651005532045
593.0, 0.0028345364129756297
594.0, 0.004854247940813626
595.0, 0.005194850122316425
596.0, 0.004555404367272477
597.0, 0.004501797305068751
598.0, 0.004047535651158009
599.0, 0.0036296695971519003
600.0, 0.006402595130416046
601.0, 0.011456445988568688
602.0, 0.014845528645013293
603.0, 0.01620704932837732
604.0, 0.016675755691034078
605.0, 0.017142228323449877
606.0, 0.02310554658064502
607.0, 0.02774090730566083
608.0, 0.01977393355865707
609.0, 0.0222315488224305
610.0, 0.018167343985315408
611.0, 0.01216864401216768
612.0, 0.00952145148532419
613.0, 0.01649145911682417
614.0, 0.012648740583980564
615.0, 0.007971478564365758
616.0, 0.007455845175409045
617.0, 0.0016692307245083984
618.0, 0.0035846876686224565
619.0, 0.005051495014658807
620.0, 0.003918619640055604
621.0, 0.003610660170637604
622.0, 0.005729597823293467
623.0, 0.005864782140455727
624.0, 0.004440741752743043
625.0, 0.00448528519673253
626.0, 0.0038175798929185696
627.0, 0.0023194175248284566
628.0, 0.0008642993298423909
629.0, 0.0006186959955692997
630.0, 0.0037066994682742305
631.0, 0.00397159533483898
632.0, 0.00402826160313938
633.0, 0.005961657990377771
634.0, 0.008625546266457453
635.0, 0.00816583669943681
636.0, 0.005232163606424227
637.0, 0.0016691090361387216
638.0, 0.005311950023339429
639.0, 0.005309191260271045
640.0, 0.0031577193048643037
641.0, 0.00039122171778284865
642.0, 3.428715559670241e-05
643.0, 0.0007523236187862433
644.0, 0.0006368575482746454
645.0, 0.001161895049495218
646.0, 0.004702528876727824
647.0, 0.005140254930336368
648.0, 0.005596572055979369
649.0, 0.005348651902009313
650.0, 0.004037960719786683
651.0, 0.00481450458252663
652.0, 0.003647494120852877
653.0, 0.0027103076718867024
654.0, 0.0027748411977449186
655.0, 0.0029031417585696183
656.0, 0.002026779525138275
657.0, 0.0011604814481623504
658.0, 0.0011035993201206737
659.0, 0.003142678308835065
660.0, 0.00247968564666496
661.0, 0.005678201204889956
662.0, 0.007505783264494865
663.0, 0.0014519454221039317
664.0, 0.006311814378752152
665.0, 0.008328293868993936
666.0, 0.006504625311347025
667.0, 0.0018687823861307912
668.0, 0.006532259880111657
669.0, 0.009441668531482853
670.0, 0.011478258806779586
671.0, 0.01360112654589445
672.0, 0.017898841274482942
673.0, 0.017937085272094613
674.0, 0.026173821821906727
675.0, 0.03796030419757705
676.0, 0.04345904571493685
677.0, 0.04357956838376603
678.0, 0.042711517708955996
679.0, 0.0364950261205159
680.0, 0.023457673821227678
681.0, 0.024643357527923963
682.0, 0.020576159912331558
683.0, 0.01766745283247275
684.0, 0.017812560274983708
685.0, 0.0185181607648371
686.0, 0.015441812381023637
687.0, 0.014786146183557258
688.0, 0.015192112048409059
689.0, 0.012539450137790523
690.0, 0.012131223589786458
691.0, 0.01048365442420733
692.0, 0.009202795134310568
693.0, 0.0096992452315663
694.0, 0.01125934627463425
695.0, 0.011077397887947033
696.0, 0.011825592043833008
697.0, 0.014171535690081092
698.0, 0.016507447705428405
699.0, 0.013840522772652627
700.0, 0.014190744772370844
701.0, 0.01674797322099731
702.0, 0.017950994435313714
703.0, 0.01644945899636757
704.0, 0.01910983413642205
705.0, 0.018979397791688526
706.0, 0.01279952204374235
707.0, 0.02321960591720233
708.0, 0.02234214986461133
709.0, 0.019769294733642463
710.0, 0.02053244653230934
711.0, 0.029415859149184792
712.0, 0.026158755056071743
713.0, 0.026814317757879638
714.0, 0.029765252409347184
715.0, 0.029897285674942153
716.0, 0.024562566487434073
717.0, 0.027096838263336878
718.0, 0.028199637397095724
719.0, 0.02379212431005576
720.0, 0.02641403232300815
721.0, 0.028729066482099358
722.0, 0.031124868486470676
723.0, 0.033931001700524606
724.0, 0.037651819774585045
725.0, 0.03816301546039939
726.0, 0.03882895428830501
727.0, 0.03975674857012573
728.0, 0.04059364377470386
729.0, 0.03790563993649364
730.0, 0.039839711606037415
731.0, 0.040695339436798414
732.0, 0.04098168429801249
733.0, 0.05210005125718433
734.0, 0.052625220402109416
735.0, 0.048178515754405925
736.0, 0.04726882731704656
737.0, 0.060698895438583214
738.0, 0.05289156310189495
739.0, 0.05825209674193624
740.0, 0.06140231029019596
741.0, 0.055669181243311265
742.0, 0.0627002844625634
743.0, 0.06988655256008887
744.0, 0.06995878462043871
745.0, 0.06896962072763829
746.0, 0.08321876197756621
747.0, 0.0832861954207469
748.0, 0.08249967170547645
749.0, 0.0866735906957654
750.0, 0.09754560744252433
751.0, 0.08893504169636948
752.0, 0.10214075759413281
753.0, 0.11262653100131087
754.0, 0.1143765870321509
755.0, 0.11468433448373754
756.0, 0.13502027844158762
757.0, 0.13907740995909232
758.0, 0.13788109485568142
759.0, 0.14642150266976353
760.0, 0.1497634793351625
761.0, 0.15074430867237418
762.0, 0.15875801743412857
763.0, 0.17026114826681682
764.0, 0.15916954740897948
765.0, 0.15893428929336745
766.0, 0.15375049899187626
767.0, 0.14256587685520453
768.0, 0.1277298789016646
769.0, 0.13146560727690065
770.0, 0.1215045785683109
771.0, 0.11006613145934627
772.0, 0.10163641082467886
773.0, 0.08884532252586513
774.0, 0.07989595966254978
775.0, 0.07424711165486206
776.0, 0.06760864876939193
777.0, 0.05459423382308625
778.0, 0.04891167255014287
779.0, 0.052081377361910215
780.0, 0.047794406917621955
781.0, 0.03426538102165665
782.0, 0.04143521530695866
783.0, 0.03827072835022005
784.0, 0.034354752785408095
785.0, 0.03343581165655777
786.0, 0.037941557898929126
787.0, 0.025753501026960706
788.0, 0.032066479489697694
789.0, 0.03525633931262064
790.0, 0.02777226115832732
791.0, 0.027876391095886546
792.0, 0.03689755343881742
793.0, 0.032030136001781076
794.0, 0.023030353824314384
795.0, 0.027763788073076133
796.0, 0.029379255010923682
797.0, 0.022009343146805735
798.0, 0.01905198340313229
799.0, 0.02219310944817665
800.0, 0.012036807652984604
801.0, 0.020100210951919734
802.0, 0.018277264698235308
803.0, 0.011959180688926407
804.0, 0.012601340044336521
805.0, 0.017750843666163578
806.0, 0.009301826878201809
807.0, 0.00661366425419674
808.0, 0.011476096683255832
809.0, 0.0023734246580289073
810.0, 0.003413514710323392
811.0, 0.007894534112989914
812.0, 0.008712648187200226
813.0, 0.0011792528808433188
814.0, 0.008258244986189463
815.0, 0.009397961301472352
816.0, 0.005673817630557219
817.0, 0.004154581182858073
818.0, 0.020842616884955555
819.0, 0.005733866377102463
820.0, 0.003786641078410147
821.0, 0.005941961995563596
822.0, 0.002933687001251544
823.0, 0.0012063949620569304
824.0, 0.002664828805947429
825.0, 0.0031987188058100083
826.0, 0.0028914976884434475
827.0, 0.00387113521155294
828.0, 0.012673158612913418
829.0, 0.006882199960073357
830.0, 0.0035928211272972625
831.0, 0.009434899760998167
832.0, 0.003976157307830434
833.0, 0.003612805974794146
834.0, 0.006582601971484566
835.0, 0.008047480133040878
836.0, 0.0029476685285782195
837.0, 0.0072588290233459845
838.0, 0.006213938004068177
839.0, 0.004262615849891536
840.0, 0.004710842057625619
841.0, 0.01124634124612542
842.0, 0.003576552935398223
843.0, 0.0007949215605303135
844.0, 0.0011318066882373319
845.0, 0.0015443757322405592
846.0, 0.0026531393216415755
847.0, 0.004411928604388627
848.0, 0.003151024910304545
849.0, 0.0006161839561492025
850.0, 0.0015490649232906884
851.0, 0.002658282762592479
852.0, 0.0019326387485141673
853.0, 0.004367217800175981
854.0, 0.008939075872786178
855.0, 0.0009729155074881552
856.0, 0.0032846752392396493
857.0, 0.006755928816834537
858.0, 0.007335204393396858
859.0, 0.003503404251211678
860.0, 0.011690455739786724
861.0, 0.00820075998664619
862.0, 0.004925665217519323
863.0, 0.0044448332813505536
864.0, 0.003957948759167465
865.0, 0.0010490416165609686
866.0, 0.006343733122540549
867.0, 0.0078072469432405225
868.0, 0.0011492551013889997
869.0, 0.001450601146613198
870.0, 0.008070313301806388
871.0, 0.006738868463362721
872.0, 0.003599194250963029
873.0, 0.006843731062648987
874.0, 0.0027811405661115887
875.0, 0.004010623000312619
876.0, 0.012516989026667704
877.0, 0.019019331175592125
878.0, 0.0042292690692702275
879.0, 0.01053760975243035
880.0, 0.009799028730483697
881.0, 0.005734967254410249
882.0, 0.0024426294784468585
883.0, 0.005129463291407633
884.0, 0.0017903700337633115
885.0, 0.005910549020386198
886.0, 0.010665009782910694
887.0, 0.008015092628312018
888.0, 0.00408484933742486
889.0, 0.009621532713478575
890.0, 0.007905975140245299
891.0, 0.001439362864998958
892.0, 0.002094195063929453
893.0, 0.005101972025468211
894.0, 0.004122724257138185
895.0, 0.0061126429195489775
896.0, 0.010458795934191635
897.0, 0.005524304897725738
898.0, 0.002824074953045331
899.0, 0.006644837504065838
900.0, 0.007534223644806977
901.0, 0.0021285388305829307
902.0, 0.014259863490475592
903.0, 0.006766875309645513
904.0, 0.0045341420470602425
905.0, 0.007756427257375686
906.0, 0.010132766098502116
907.0, 0.0027073213717466564
908.0, 0.00649840083327214
909.0, 0.0086467177761322
910.0, 0.006219266587119703
911.0, 0.0020363385537888203
912.0, 0.006583075116766839
913.0, 0.004146342621266497
914.0, 0.0030583003115714756
915.0, 0.005936797691297295
916.0, 0.006908547496674305
917.0, 0.004157789221133816
918.0, 0.00727666928355723
919.0, 0.01002874688793198
920.0, 0.007642690177551003
921.0, 0.004226000775511245
922.0, 0.01021433392205785
923.0, 0.007145067491674714
924.0, 0.004288883080883917
925.0, 0.012821264658777566
926.0, 0.005016163199349902
927.0, 0.0033938360853179358
928.0, 0.0075632087006097595
929.0, 0.010174790306327494
930.0, 0.0008210083401737813
931.0, 0.007331952080419463
932.0, 0.014757664403678426
933.0, 0.014479878829855944
934.0, 0.0104372340708478
935.0, 0.019733838900719197
936.0, 0.011529158199001419
937.0, 0.010290995755791883
938.0, 0.014172437574145626
939.0, 0.01721198299860246
940.0, 0.005373550739331876
941.0, 0.023115093391352856
942.0, 0.02114130144412142
943.0, 0.01100783002930555
944.0, 0.007998266759457688
945.0, 0.022080258962914164
946.0, 0.010467303621471838
947.0, 0.014000425345448318
948.0, 0.0188181609344427
949.0, 0.007190738270241287
950.0, 0.008471180488635838
951.0, 0.02183020572796028
952.0, 0.02083749339226341
953.0, 0.016018651317611203
954.0, 0.028089517955073674
955.0, 0.02735281309379915
956.0, 0.020222389172707918
957.0, 0.021227391116476788
958.0, 0.025986045903635513
959.0, 0.01944749462086766
960.0, 0.023106365171840212
961.0, 0.032527812374734365
962.0, 0.026575591250279158
963.0, 0.01368838756049051
964.0, 0.030918351309927736
965.0, 0.02441047169608987
966.0, 0.0190982370356027
967.0, 0.024737646427644703
968.0, 0.035071939800514394
969.0, 0.02022952599839372
970.0, 0.024257658620299462
971.0, 0.03410498591268464
972.0, 0.03387214016725158
973.0, 0.023344858072389705
974.0, 0.034955572674653206
975.0, 0.0334681587621497
976.0, 0.03050081286548632
977.0, 0.031805283658676145
978.0, 0.03686985717575824
979.0, 0.02861224800857204
980.0, 0.030068699449834976
981.0, 0.03144185675076626
982.0, 0.030659564429357817
983.0, 0.028491917813221298
984.0, 0.03271074739579263
985.0, 0.027549335271169668
986.0, 0.02970357802272184
987.0, 0.032886855934154136
988.0, 0.028804413341816142
989.0, 0.021183011212292196
990.0, 0.037107226393809443
991.0, 0.039480557139395696
992.0, 0.03262063189223328
993.0, 0.030322468585024603
994.0, 0.03951859892413945
995.0, 0.027944995162664077
996.0, 0.03222827096523971
997.0, 0.041523656382841084
998.0, 0.03513149086822304
999.0, 0.0326999872496287
1000.0, 0.0469954540837818
1001.0, 0.04213812283216048
1002.0, 0.03354516496355212
1003.0, 0.048613636501773416
1004.0, 0.04751218550934643
1005.0, 0.0419997349963717
1006.0, 0.05166321656007003
1007.0, 0.059327783785931315
1008.0, 0.03997892182875304
1009.0, 0.05202032670738687
1010.0, 0.06371271376223875
1011.0, 0.056163115481677454
1012.0, 0.048559599746865904
1013.0, 0.07054645931077702
1014.0, 0.06849399326627623
1015.0, 0.06742136795694308
1016.0, 0.07881323741285243
1017.0, 0.08330479069697315
1018.0, 0.05603229074061447
1019.0, 0.08252542687064425
1020.0, 0.08245355965021617
1021.0, 0.07773523049159148
1022.0, 0.08076191773155186
1023.0, 0.09655894387576822
1024.0, 0.08846332296243281
1025.0, 0.08330749841351655
1026.0, 0.09282926662622172
1027.0, 0.09753477572870661
1028.0, 0.07361653353246979
1029.0, 0.10554873524863018
1030.0, 0.09624722533532268
1031.0, 0.08803418510788608
1032.0, 0.09358418388209584
1033.0, 0.10933326317528576
1034.0, 0.09033120467488187
1035.0, 0.092373378724037
1036.0, 0.10181256099074888
1037.0, 0.10436421897242612
1038.0, 0.09224338458736626
1039.0, 0.11335134161595335
1040.0, 0.10371225783358752
1041.0, 0.09980148828717748
1042.0, 0.10834979795477663
1043.0, 0.1198396144337295
1044.0, 0.08101986431483545
1045.0, 0.09876713307106436
1046.0, 0.10437710131617105
1047.0, 0.09594917660052993
1048.0, 0.09034216656122802
1049.0, 0.10924807279604673
1050.0, 0.0871906842188218
1051.0, 0.08691330406606393
1052.0, 0.10032828976593348
1053.0, 0.10403087573140009
1054.0, 0.0736395985294179
1055.0, 0.08884566746598539
1056.0, 0.08308079394765847
1057.0, 0.07137954298239019
1058.0, 0.07536547620208958
1059.0, 0.09875011477438374
1060.0, 0.07827729854140704
1061.0, 0.08450494080568491
1062.0, 0.09392274491866837
1063.0, 0.08996708523654616
1064.0, 0.09370883863977596
1065.0, 0.12710625647401583
1066.0, 0.12585873733999964
1067.0, 0.12164431139505567
1068.0, 0.13330950631085406
1069.0, 0.1494412955169381
1070.0, 0.12490354349665098
1071.0, 0.14294246411688413
1072.0, 0.15660103056187905
1073.0, 0.1463447351994169
1074.0, 0.12774137132159827
1075.0, 0.166997012255295
1076.0, 0.1664835079746237
1077.0, 0.17488826915656283
1078.0, 0.20305359123012393
1079.0, 0.23198813593161305
1080.0, 0.23877207868744776
1081.0, 0.2940587546436619
1082.0, 0.3424000774069068
1083.0, 0.37847548362850175
1084.0, 0.4242985475892677
1085.0, 0.5212109958991242
1086.0, 0.5389429651742573
1087.0, 0.5951877634457652
1088.0, 0.6640478116066152
1089.0, 0.6895214043990079
1090.0, 0.6914505529287119
1091.0, 0.7422369887490852
1092.0, 0.7394468557820588
1093.0, 0.7232452889355218
1094.0, 0.7349222481666884
1095.0, 0.7425851826923362
1096.0, 0.7067893624764469
1097.0, 0.7129157132949528
1098.0, 0.7326239812825902
1099.0, 0.7325097312724589
1100.0, 0.6893387922315394
1101.0, 0.7240406446283676
1102.0, 0.6820564270141686
1103.0, 0.6132856798599248
1104.0, 0.5545775134087025
1105.0, 0.5190202645924888
1106.0, 0.3948151748187466
1107.0, 0.32227944164648165
1108.0, 0.25060569582181064
1109.0, 0.1771773580406368
1110.0, 0.12595925488364143
1111.0, 0.12180877900235436
1112.0, 0.07460859588205025
1113.0, 0.04918481674559735
1114.0, 0.047808439494939604
1115.0, 0.04944701269449924
1116.0, 0.0164289943930683
1117.0, 0.025362447562225707
1118.0, 0.024853452423303966
1119.0, 0.01817383886630516
1120.0, 0.016732474199923738
1121.0, 0.03256426917009164
1122.0, 0.019692612747885866
1123.0, 0.0233604078319432
1124.0, 0.030053041577042913
1125.0, 0.02714883370420005
1126.0, 0.008255703373846098
1127.0, 0.027361078999264404
1128.0, 0.01142077858403302
1129.0, 0.001616452842532775
1130.0, 0.007517865640679878
1131.0, 0.01846405369491686
1132.0, 0.0023868838272174545
1133.0, 0.001989440107328899
1134.0, 0.011730101573986677
1135.0, 0.015169593497490818
1136.0, 0.007084344995391185
1137.0, 0.023119728938697997
1138.0, 0.010454578729899577
1139.0, 0.011435825377347216
1140.0, 0.020060946899270172
1141.0, 0.022704885363089868
1142.0, 0.0028419825436163696
1143.0, 0.013821480131289665
1144.0, 0.015924082953078025
1145.0, 0.009622210530799634
1146.0, 0.011334829656624669
1147.0, 0.0362166242642137
1148.0, 0.005904384800535687
1149.0, 0.007689061290732754
1150.0, 0.02112103989663198
1151.0, 0.023127585707581146
1152.0, 0.0075865911133412185
1153.0, 0.02190877908882302
1154.0, 0.02206779255077321
1155.0, 0.010270535424418985
1156.0, 0.016568252418897735
1157.0, 0.03421255843210669
1158.0, 0.009863134958908296
1159.0, 0.025388130845361793
1160.0, 0.028673774341105573
1161.0, 0.019723012191214945
1162.0, 0.016975956728767276
1163.0, 0.038360307884957597
1164.0, 0.03546749531676949
1165.0, 0.015748812766561673
1166.0, 0.030935287841068602
1167.0, 0.04099312989134471
1168.0, 0.02050281656695706
1169.0, 0.020892165486886712
1170.0, 0.039857798490416485
1171.0, 0.022051498899086648
1172.0, 0.022029824582250418
1173.0, 0.042542662420553184
1174.0, 0.03817013454171973
1175.0, 0.01601787417560941
1176.0, 0.03369698746379558
1177.0, 0.033266191847032396
1178.0, 0.0284870556456739
1179.0, 0.04295923531655383
1180.0, 0.04664961388512327
1181.0, 0.028658968937925442
1182.0, 0.040902884220527756
1183.0, 0.05289383708308662
1184.0, 0.046516758326648214
1185.0, 0.032035879050561586
1186.0, 0.05955280912010519
1187.0, 0.04824476687880213
1188.0, 0.04791578269397895
1189.0, 0.057359329433482514
1190.0, 0.05469691003636453
1191.0, 0.036626533245671875
1192.0, 0.06425034563488212
1193.0, 0.05890450819437037
1194.0, 0.04311836033893996
1195.0, 0.04441884734664763
1196.0, 0.07253476139248169
1197.0, 0.03626755196626537
1198.0, 0.03671967242269433
1199.0, 0.050272222335094846
1200.0, 0.05169095302727505
1201.0, 0.030442770393436472
1202.0, 0.04996364586198602
1203.0, 0.04456537585310138
1204.0, 0.03306129902820675
1205.0, 0.03817926619348055
1206.0, 0.04912207921823386
1207.0, 0.006320877012357699
1208.0, 0.021949212629939013
1209.0, 0.032400068173915164
1210.0, 0.02131042719706787
1211.0, 0.013360256503920179
1212.0, 0.034281780076653466
1213.0, 0.009940885431527715
1214.0, 0.009072221726004782
1215.0, 0.02844509527496958
1216.0, 0.02780140450198161
1217.0, 0.0070117810983966805
1218.0, 0.025141655718323205
1219.0, 0.025947829104499193
1220.0, 0.011290998333692485
1221.0, 0.0179460910527924
1222.0, 0.02878331005679294
1223.0, 0.01686804068221323
1224.0, 0.012711678138787746
1225.0, 0.028042075797285824
1226.0, 0.016631108704702732
1227.0, 0.01646635397799322
1228.0, 0.03652696586885887
1229.0, 0.04371073418669078
1230.0, 0.00740198323086114
1231.0, 0.0327075534868786
1232.0, 0.031760819863627984
1233.0, 0.018910827699661292
1234.0, 0.026552620338348668
1235.0, 0.04268678678707664
1236.0, 0.020266440997987342
1237.0, 0.023338337316452545
1238.0, 0.03284759914874925
1239.0, 0.031212703967274966
1240.0, 0.01464940626652027
1241.0, 0.03853556537231899
1242.0, 0.03435865134615512
1243.0, 0.016279354185424602
1244.0, 0.021336805926348866
1245.0, 0.04562225351907542
1246.0, 0.016613632566091677
1247.0, 0.02754299161479571
1248.0, 0.034009021579397336
1249.0, 0.026326927740651117
1250.0, 0.021906215362291932
1251.0, 0.03663366551616376
1252.0, 0.03720410161548696
1253.0, 0.008606908166516445
1254.0, 0.032994935407436726
1255.0, 0.032189362992452585
1256, 0.0
1257, 0.0
1258, 0.0
1259, 0.0
1260, 0.0
1261, 0.0
1262, 0.0
1263, 0.0
1264, 0.0
1265, 0.0
1266, 0.0
1267, 0.0
1268, 0.0
1269, 0.0
1270, 0.0
1271, 0.0
1272, 0.0
1273, 0.0
1274, 0.0
1275, 0.0
1276, 0.0
1277, 0.0
1278, 0.0
1279, 0.0
1280, 0.0
1281, 0.0
1282, 0.0
1283, 0.0
1284, 0.0
1285, 0.0
1286, 0.0
1287, 0.0
1288, 0.0
1289, 0.0
1290, 0.0
1291, 0.0
1292, 0.0
1293, 0.0
1294, 0.0
1295, 0.0
1296, 0.0
1297, 0.0
1298, 0.0
1299, 0.0
1300, 0.0
1301, 0.0
1302, 0.0
1303, 0.0
1304, 0.0
1305, 0.0
1306, 0.0
1307, 0.0
1308, 0.0
1309, 0.0
1310, 0.0
1311, 0.0
1312, 0.0
1313, 0.0
1314, 0.0
1315, 0.0
1316, 0.0
1317, 0.0
1318, 0.0
1319, 0.0
1320, 0.0
1321, 0.0
1322, 0.0
1323, 0.0
1324, 0.0
1325, 0.0
1326, 0.0
1327, 0.0
1328, 0.0
1329, 0.0
1330, 0.0
1331, 0.0
1332, 0.0
1333, 0.0
1334, 0.0
1335, 0.0
1336, 0.0
1337, 0.0
1338, 0.0
1339, 0.0
1340, 0.0
1341, 0.0
1342, 0.0
1343, 0.0
1344, 0.0
1345, 0.0
1346, 0.0
1347, 0.0
1348, 0.0
1349, 0.0
1350, 0.0
1351, 0.0
1352, 0.0
1353, 0.0
1354, 0.0
1355, 0.0
1356, 0.0
1357, 0.0
1358, 0.0
1359, 0.0
1360, 0.0
1361, 0.0
1362, 0.0
1363, 0.0
1364, 0.0
1365, 0.0
1366, 0.0
1367, 0.0
1368, 0.0
1369, 0.0
1370, 0.0
1371, 0.0
1372, 0.0
1373, 0.0
1374, 0.0
1375, 0.0
1376, 0.0
1377, 0.0
1378, 0.0
1379, 0.0
1380, 0.0
1381, 0.0
1382, 0.0
1383, 0.0
1384, 0.0
1385, 0.0
1386, 0.0
1387, 0.0
1388, 0.0
1389, 0.0
1390, 0.0
1391, 0.0
1392, 0.0
1393, 0.0
1394, 0.0
1395, 0.0
1396, 0.0
1397, 0.0
1398, 0.0
1399, 0.0
1400, 0.0
1401, 0.0
1402, 0.0
1403, 0.0
1404, 0.0
1405, 0.0
1406, 0.0
1407, 0.0
1408, 0.0
1409, 0.0
1410, 0.0
1411, 0.0
1412, 0.0
1413, 0.0
1414, 0.0
1415, 0.0
1416, 0.0
1417, 0.0
1418, 0.0
1419, 0.0
1420, 0.0
1421, 0.0
1422, 0.0
1423, 0.0
1424, 0.0
1425, 0.0
1426, 0.0
1427, 0.0
1428, 0.0
1429, 0.0
1430, 0.0
1431, 0.0
1432, 0.0
1433, 0.0
1434, 0.0
1435, 0.0
1436, 0.0
1437, 0.0
1438, 0.0
1439, 0.0
1440, 0.0
1441, 0.0
1442, 0.0
1443, 0.0
1444, 0.0
1445, 0.0
1446, 0.0
1447, 0.0
1448, 0.0
1449, 0.0
1450, 0.0
1451, 0.0
1452, 0.0
1453, 0.0
1454, 0.0
1455, 0.0
1456, 0.0
1457, 0.0
1458, 0.0
1459, 0.0
1460, 0.0
1461, 0.0
1462, 0.0
1463, 0.0
1464, 0.0
1465, 0.0
1466, 0.0
1467, 0.0
1468, 0.0
1469, 0.0
1470, 0.0
1471, 0.0
1472, 0.0
1473, 0.0
1474, 0.0
1475, 0.0
1476, 0.0
1477, 0.0
1478, 0.0
1479, 0.0
1480, 0.0
1481, 0.0
1482, 0.0
1483, 0.0
1484, 0.0
1485, 0.0
1486, 0.0
1487, 0.0
1488, 0.0
1489, 0.0
1490, 0.0
1491, 0.0
1492, 0.0
1493, 0.0
1494, 0.0
1495, 0.0
1496, 0.0
1497, 0.0
1498, 0.0
1499, 0.0
1500, 0.0
1501, 0.0
1502, 0.0
1503, 0.0
1504, 0.0
1505, 0.0
1506, 0.0
1507, 0.0
1508, 0.0
1509, 0.0
1510, 0.0
1511, 0.0
1512, 0.0
1513, 0.0
1514, 0.0
1515, 0.0
1516, 0.0
1517, 0.0
1518, 0.0
1519, 0.0
1520, 0.0
1521, 0.0
1522, 0.0
1523, 0.0
1524, 0.0
1525, 0.0
1526, 0.0
1527, 0.0
1528, 0.0
1529, 0.0
1530, 0.0
1531, 0.0
1532, 0.0
1533, 0.0
1534, 0.0
1535, 0.0
1536, 0.0
1537, 0.0
1538, 0.0
1539, 0.0
1540, 0.0
1541, 0.0
1542, 0.0
1543, 0.0
1544, 0.0
1545, 0.0
1546, 0.0
1547, 0.0
1548, 0.0
1549, 0.0
1550, 0.0
1551, 0.0
1552, 0.0
1553, 0.0
1554, 0.0
1555, 0.0
1556, 0.0
1557, 0.0
1558, 0.0
1559, 0.0
1560, 0.0
1561, 0.0
1562, 0.0
1563, 0.0
1564, 0.0
1565, 0.0
1566, 0.0
1567, 0.0
1568, 0.0
1569, 0.0
1570, 0.0
1571, 0.0
1572, 0.0
1573, 0.0
1574, 0.0
1575, 0.0
1576, 0.0
1577, 0.0
1578, 0.0
1579, 0.0
1580, 0.0
1581, 0.0
1582, 0.0
1583, 0.0
1584, 0.0
1585, 0.0
1586, 0.0
1587, 0.0
1588, 0.0
1589, 0.0
1590, 0.0
1591, 0.0
1592, 0.0
1593, 0.0
1594, 0.0
1595, 0.0
1596, 0.0
1597, 0.0
1598, 0.0
1599, 0.0
