30, 0.0
31, 0.0
32, 0.0
33, 0.0
34, 0.0
35, 0.0
36, 0.0
37, 0.0
38, 0.0
39, 0.0
40, 0.0
41, 0.0
42, 0.0
43, 0.0
44, 0.0
45, 0.0
46, 0.0
47, 0.0
48, 0.0
49, 0.0
50, 0.0
51, 0.0
52, 0.0
53, 0.0
54, 0.0
55, 0.0
56, 0.0
57, 0.0
58, 0.0
59, 0.0
60, 0.0
61, 0.0
62, 0.0
63, 0.0
64, 0.0
65, 0.0
66, 0.0
67, 0.0
68, 0.0
69, 0.0
70, 0.0
71, 0.0
72, 0.0
73, 0.0
74, 0.0
75, 0.0
76, 0.0
77, 0.0
78, 0.0
79, 0.0
80, 0.0
81, 0.0
82, 0.0
83, 0.0
84, 0.0
85, 0.0
86, 0.0
87, 0.0
88, 0.0
89, 0.0
90, 0.0
91, 0.0
92, 0.0
93, 0.0
94, 0.0
95, 0.0
96, 0.0
97, 0.0
98, 0.0
99, 0.0
100, 0.0
101, 0.0
102, 0.0
103, 0.0
104, 0.0
105, 0.0
106, 0.0
107, 0.0
108, 0.0
109, 0.0
110, 0.0
111, 0.0
112, 0.0
113, 0.0
114, 0.0
115, 0.0
116, 0.0
117, 0.0
118, 0.0
119, 0.0
120, 0.0
121, 0.0
122, 0.0
123, 0.0
124, 0.0
125, 0.0
126, 0.0
127, 0.0
128, 0.0
129, 0.0
130, 0.0
131, 0.0
132, 0.0
133, 0.0
134, 0.0
135, 0.0
136, 0.0
137, 0.0
138, 0.0
139, 0.0
140, 0.0
141, 0.0
142, 0.0
143, 0.0
144, 0.0
145, 0.0
146, 0.0
147, 0.0
148, 0.0
149, 0.0
150, 0.0
151, 0.0
152, 0.0
153, 0.0
154, 0.0
155, 0.0
156, 0.0
157, 0.0
158, 0.0
159, 0.0
160, 0.0
161, 0.0
162, 0.0
163, 0.0
164, 0.0
165, 0.0
166, 0.0
167, 0.0
168, 0.0
169.0, 0.0001137082898693828
170.0, 0.00020355355194090922
171.0, 0.002004611968040379
172.0, 0.003631351353747652
173.0, 0.006817948217672057
174.0, 0.01127889549456701
175.0, 0.017332398761811772
176.0, 0.025694690280175767
177.0, 0.03077081990423028
178.0, 0.035717129925928216
179.0, 0.040085015708347965
180.0, 0.04331034542018859
181.0, 0.0486259717719032
182.0, 0.05258893550899645
183.0, 0.056039199691659616
184.0, 0.059596542738788505
185.0, 0.06049544427758477
186.0, 0.06310611090575288
187.0, 0.06301795730334507
188.0, 0.06226852732895509
189.0, 0.06736299573460332
190.0, 0.06966229500064697
191.0, 0.07047856372749915
192.0, 0.07283845785243448
193.0, 0.07734096703979203
194.0, 0.079782980305116
195.0, 0.08314657786134355
196.0, 0.08926547835384507
197.0, 0.09715110215636509
198.0, 0.10636077782616245
199.0, 0.11671477250209704
200.0, 0.12756399611195107
201.0, 0.1379371392955962
202.0, 0.14491557443425504
203.0, 0.1449587830305206
204.0, 0.13783256186222897
205.0, 0.12335348168787555
206.0, 0.10444332453260938
207.0, 0.08825877265968758
208.0, 0.07141453284473853
209.0, 0.05659860874147463
210.0, 0.044940065487690306
211.0, 0.03574949233489913
212.0, 0.028760286862501164
213.0, 0.02121630663932644
214.0, 0.015610892729776499
215.0, 0.013424728022903374
216.0, 0.009589903822365378
217.0, 0.006906606030010929
218.0, 0.005709072987563355
219.0, 0.004945743261587362
220.0, 0.0033614980473458274
221.0, 0.002945607754190343
222.0, 0.0016965092840693803
223.0, 0.0006963404852878117
224.0, 0.001018823727973007
225.0, 0.0004523053092326114
226.0, 0.0026715098570380316
227.0, 0.004620668921942302
228.0, 0.0047594689346605774
229.0, 0.0051962755065638865
230.0, 0.004455771441282135
231.0, 0.0046778046263061855
232.0, 0.005197134272458347
233.0, 0.004942772375813776
234.0, 0.005239049186639547
235.0, 0.003980467543633619
236.0, 0.001880322595218718
237.0, 0.00040706892475817847
238.0, 0.0022173229308643065
239.0, 0.005675479161762191
240.0, 0.007700622679283183
241.0, 0.010514004354672873
242.0, 0.015759035268133374
243.0, 0.017647999003215866
244.0, 0.0228827613892363
245.0, 0.028227999733487587
246.0, 0.03247726788779504
247.0, 0.03787263107833255
248.0, 0.04280131758788744
249.0, 0.049118371269679835
250.0, 0.05642847075700167
251.0, 0.0642593153910909
252.0, 0.0740276755980889
253.0, 0.08201256431994172
254.0, 0.09240625696285146
255.0, 0.10449832238614998
256.0, 0.11391605255246058
257.0, 0.11902801044585828
258.0, 0.11830919670471648
259.0, 0.11523957550808687
260.0, 0.11162023334580011
261.0, 0.10426204210106425
262.0, 0.09285757890877044
263.0, 0.08167042389793003
264.0, 0.07324395833755767
265.0, 0.06777202913041104
266.0, 0.06165246317053289
267.0, 0.060187997614724494
268.0, 0.06037197394483171
269.0, 0.06031212322837563
270.0, 0.06200595105629907
271.0, 0.06684350555307766
272.0, 0.07095099611301166
273.0, 0.07468846658620702
274.0, 0.08013642183303922
275.0, 0.08702933421436031
276.0, 0.09236913302944845
277.0, 0.096414450060751
278.0, 0.10035791766402576
279.0, 0.10521628159139497
280.0, 0.11061915773687324
281.0, 0.11838926618728683
282.0, 0.12794510696863862
283.0, 0.1372090146762585
284.0, 0.14402540034438982
285.0, 0.15493544107961138
286.0, 0.16418552100628658
287.0, 0.17112210932314165
288.0, 0.1776698399771134
289.0, 0.17977666364377975
290.0, 0.17505414922135537
291.0, 0.16577970435440662
292.0, 0.15235813408837126
293.0, 0.13471938533970115
294.0, 0.12176321042529065
295.0, 0.1083902814553859
296.0, 0.09818164666709872
297.0, 0.09372491937197402
298.0, 0.09086801344379329
299.0, 0.0886821213213973
300.0, 0.09104002473054498
301.0, 0.09572663227086088
302.0, 0.09957718506942839
303.0, 0.10658629141649098
304.0, 0.11269837575827678
305.0, 0.12061941758320885
306.0, 0.12897247576181137
307.0, 0.13406688397070177
308.0, 0.14500042932819657
309.0, 0.14951088922061748
310.0, 0.15051315524540163
311.0, 0.1519027468153627
312.0, 0.15122446443067353
313.0, 0.14739082403222722
314.0, 0.1400308533100514
315.0, 0.1332397067174958
316.0, 0.12908963242649676
317.0, 0.12311031562622969
318.0, 0.11668241731654928
319.0, 0.11001102395017869
320.0, 0.10347153112387866
321.0, 0.09779036732740824
322.0, 0.09406373501173827
323.0, 0.09043347903187647
324.0, 0.08761893378962565
325.0, 0.08623440556231583
326.0, 0.08613613898261392
327.0, 0.08725769368024314
328.0, 0.08709828002263854
329.0, 0.08833580754477763
330.0, 0.09038722428084525
331.0, 0.08627391001238052
332.0, 0.08517482797692857
333.0, 0.08467583887654365
334.0, 0.0823521005985341
335.0, 0.07723506497518551
336.0, 0.07100594035786695
337.0, 0.06639606230340744
338.0, 0.06002297749289568
339.0, 0.05207023983095058
340.0, 0.045980527244971196
341.0, 0.04343155306516564
342.0, 0.04147016244916379
343.0, 0.0379203817926254
344.0, 0.03470513109901888
345.0, 0.03476546179024548
346.0, 0.03268900569132493
347.0, 0.03047461178666873
348.0, 0.02827132235526062
349.0, 0.025586257472850392
350.0, 0.022095296124867332
351.0, 0.017893285265980153
352.0, 0.014861592111418347
353.0, 0.012451553710897052
354.0, 0.00876868287624957
355.0, 0.0032416733648787297
356.0, 0.001523741949151169
357.0, 0.0008304894638172098
358.0, 0.0026736616973400927
359.0, 0.003320493160367431
360.0, 0.003956379375171784
361.0, 0.0038857013965440806
362.0, 0.003664508478221784
363.0, 0.002268154574436387
364.0, 0.0004084768347828743
365.0, 0.001193398708769327
366.0, 0.002036515576079266
367.0, 0.004547863470596715
368.0, 0.007202835926803912
369.0, 0.00878908918091049
370.0, 0.013611220728049052
371.0, 0.01609215735057715
372.0, 0.01834513485744481
373.0, 0.021800539309113985
374.0, 0.02645863027672713
375.0, 0.03090880828873191
376.0, 0.03199381393505352
377.0, 0.03572174163080578
378.0, 0.042030507956223664
379.0, 0.04540396185168735
380.0, 0.049565405089466975
381.0, 0.053616959750129846
382.0, 0.0587526573678879
383.0, 0.06427085430486554
384.0, 0.06804292329682618
385.0, 0.07150884869656358
386.0, 0.07553871162096193
387.0, 0.07894843223051336
388.0, 0.08114709576936474
389.0, 0.0827722135296278
390.0, 0.08432970484671634
391.0, 0.08483760267147449
392.0, 0.08602046027347472
393.0, 0.08809979376444911
394.0, 0.08908269536178563
395.0, 0.08817169074831316
396.0, 0.08925185016736795
397.0, 0.08928406857649844
398.0, 0.08741992822520202
399.0, 0.08626278802022642
400.0, 0.07977907735294526
401.0, 0.07505769170977909
402.0, 0.06679953078366516
403.0, 0.0546249717917342
404.0, 0.0462220021911139
405.0, 0.04008721393607435
406.0, 0.033113195176966884
407.0, 0.026067930049873424
408.0, 0.020018343743923903
409.0, 0.014665172670955906
410.0, 0.009689684675272585
411.0, 0.004505917409038599
412.0, 0.0022546029522413466
413.0, 0.0016661464360348166
414.0, 0.0023842990561422283
415.0, 0.004213553231593805
416.0, 0.0033971982139573108
417.0, 0.0026524318245264287
418.0, 0.00301576970446879
419.0, 0.0032384319506542645
420.0, 0.0037214151615137473
421.0, 0.00318205038357776
422.0, 0.002227490454652945
423.0, 0.0012676264785317962
424.0, 0.0006287763272489117
425.0, 0.0038082647318455347
426.0, 0.009675833385102538
427.0, 0.012419494170450405
428.0, 0.013185612926370143
429.0, 0.017962534688953844
430.0, 0.022067048200078408
431.0, 0.02630033090272502
432.0, 0.030075045300589687
433.0, 0.035444757070391235
434.0, 0.04401822888256818
435.0, 0.048714962574623356
436.0, 0.055641900308787885
437.0, 0.06309506556371058
438.0, 0.07038836152986516
439.0, 0.07900335233831315
440.0, 0.08876974266411675
441.0, 0.09703725374152294
442.0, 0.10486659148276771
443.0, 0.11198998819411499
444.0, 0.11887884626328722
445.0, 0.1295364776455844
446.0, 0.1367835777612145
447.0, 0.1437127866586798
448.0, 0.1508930825542991
449.0, 0.156841486687745
450.0, 0.1607797550485268
451.0, 0.16363327691950877
452.0, 0.16525391161340608
453.0, 0.16481122434704412
454.0, 0.16242650184028173
455.0, 0.15949874560642174
456.0, 0.15298813638605943
457.0, 0.14850139260982909
458.0, 0.1441334766134457
459.0, 0.13769850749721704
460.0, 0.1308140184825488
461.0, 0.12567771070549622
462.0, 0.12210711740177409
463.0, 0.1186456240575063
464.0, 0.11584167309659407
465.0, 0.11484662440083945
466.0, 0.11317470191219406
467.0, 0.1103829790572292
468.0, 0.11226748413520787
469.0, 0.11519133720077669
470.0, 0.11305465166667646
471.0, 0.11566986769939176
472.0, 0.1189374642645439
473.0, 0.1231095350206672
474.0, 0.12720072741649696
475.0, 0.13043632549311734
476.0, 0.1350211234898486
477.0, 0.14230998464151803
478.0, 0.14743760204587064
479.0, 0.1513257757973133
480.0, 0.15602431419907473
481.0, 0.16105611844986495
482.0, 0.16619104554953862
483.0, 0.17190101926566906
484.0, 0.17735304726332934
485.0, 0.1806318846941038
486.0, 0.18044568739107533
487.0, 0.1817930075348712
488.0, 0.17921552853694325
489.0, 0.17659085296843985
490.0, 0.17142948844114794
491.0, 0.16052079717661338
492.0, 0.1523486408377883
493.0, 0.14477513314319468
494.0, 0.13520983942133155
495.0, 0.12535074049648465
496.0, 0.11664120733370437
497.0, 0.10683564526046838
498.0, 0.09415657505348604
499.0, 0.08330078551877003
500.0, 0.07473383385806624
501.0, 0.06687691058251112
502.0, 0.05888035839417165
503.0, 0.05199662223872281
504.0, 0.046415638404296376
505.0, 0.03975831893327174
506.0, 0.03244441929880747
507.0, 0.026145681514222772
508.0, 0.02105230353004958
509.0, 0.017832850343087705
510.0, 0.01545197404678438
511.0, 0.013079916135327956
512.0, 0.01062909634080615
513.0, 0.008560887686851884
514.0, 0.005947101546493297
515.0, 0.003887138076527102
516.0, 0.0019866878513998243
517.0, 0.000639870074016443
518.0, 0.0003977420087814569
519.0, 0.000707341972197809
520.0, 0.00217196462949726
521.0, 0.002773883807394108
522.0, 0.0021325095358309884
523.0, 0.0009052712285341529
524.0, 0.0010066624995979888
525.0, 0.000524688253010751
526.0, 7.470667185505697e-05
527.0, 0.00012823940287676292
528.0, 0.00038281381553895334
529.0, 0.0017741028583599919
530.0, 0.0021332534259699393
531.0, 0.005012991477426381
532.0, 0.0062850379633365115
533.0, 0.006743826783958951
534.0, 0.008955899625136677
535.0, 0.010961010865195119
536.0, 0.014128878852661625
537.0, 0.016192233678362162
538.0, 0.016756333877142475
539.0, 0.01779693902099683
540.0, 0.021309528382260058
541.0, 0.02218641399788484
542.0, 0.02542011228183156
543.0, 0.027864574689273915
544.0, 0.02983233251359038
545.0, 0.032568094329516135
546.0, 0.03207261410677309
547.0, 0.03307863876207335
548.0, 0.03411164779549947
549.0, 0.035386784253604225
550.0, 0.03637056047611619
551.0, 0.03559542803369225
552.0, 0.03742408195817502
553.0, 0.03659251172122135
554.0, 0.03473841576621688
555.0, 0.03327464755309181
556.0, 0.03197106414672522
557.0, 0.02991325064172104
558.0, 0.026214251510598006
559.0, 0.025645427035184874
560.0, 0.024824162062385798
561.0, 0.02341693753011335
562.0, 0.024230042206308703
563.0, 0.022124336354388312
564.0, 0.021490738406240332
565.0, 0.022268638813984387
566.0, 0.02130942138821426
567.0, 0.018465637877255938
568.0, 0.01907143441100652
569.0, 0.019561018366369486
570.0, 0.018133155951238884
571.0, 0.01680481582103227
572.0, 0.01601379921694914
573.0, 0.01489427907515296
574.0, 0.014362649998782664
575.0, 0.012411303885028781
576.0, 0.011793952756521987
577.0, 0.011679037718486166
578.0, 0.01075889292668258
579.0, 0.009108227803623609
580.0, 0.007822643165660429
581.0, 0.006822073807166384
582.0, 0.004120923814022501
583.0, 0.002721886861861192
584.0, 0.004154429810261433
585.0, 0.004305822888354215
586.0, 0.0024177918189640523
587.0, 0.002702545518744674
588.0, 0.0023034227983521507
589.0, 0.0011545158323720264
590.0, 0.0012196724103558149
591.0, 0.0017081399172145472
592.0, 0.0010383670401431435
593.0, 0.00041292027942085803
594.0, 0.0008886044378125546
595.0, 0.0009543768154448948
596.0, 0.0009219388322289992
597.0, 0.0009853627640381186
598.0, 0.0002941423015852885
599.0, 0.00025301784553914247
600.0, 0.0006190278487867752
601.0, 0.0009984890607678276
602.0, 0.0009695163825082302
603.0, 0.0006388933026184032
604.0, 0.0010075860965936992
605.0, 0.00047711753223308106
606.0, 0.0006732224668271227
607.0, 0.0006977912357283278
608.0, 0.00031096393066593975
609.0, 0.0004077175999338069
610.0, 0.00019157065130339423
611.0, 0.00021917659478020926
612.0, 0.0005333290645792866
613.0, 0.0014084600448510474
614.0, 0.00012305632176307487
615.0, 0.0005843949730263932
616.0, 0.000367529341067575
617.0, 0.00025684910370277203
618.0, 0.0005273227893533133
619.0, 0.0005855202248382443
620.0, 0.000783173680104375
621.0, 0.0006877067969369166
622.0, 0.000717928255711521
623.0, 0.0005472268066049665
624.0, 0.0001469315249432257
625.0, 0.00023244888248153143
626.0, 0.0008035182553530069
627.0, 0.00036815113589828226
628.0, 0.0004133676192784764
629.0, 0.00043296029372652837
630.0, 0.000166120598987754
631.0, 0.001665131275157403
632.0, 3.985935843475734e-05
633.0, 0.000867620821318947
634.0, 0.000803112580722985
635.0, 0.0007094050986446136
636.0, 0.0011866792190291815
637.0, 0.00033622914087475637
638.0, 0.00036805884777060935
639.0, 0.0003390151944647964
640.0, 0.0011435492271684002
641.0, 0.0021843489551697792
642.0, 0.0026171938333557905
643.0, 0.0013840852015772056
644.0, 0.0022735293405762437
645.0, 0.0033388392597508507
646.0, 0.0035975200014530953
647.0, 0.0038821915596025007
648.0, 0.0041785079773878405
649.0, 0.003389936787344698
650.0, 0.0036511824505084645
651.0, 0.003599896939880084
652.0, 0.0038099356223133788
653.0, 0.004313405021005948
654.0, 0.004810262208562743
655.0, 0.005232846948130373
656.0, 0.00421258051473532
657.0, 0.0028684618110535595
658.0, 0.003941140014116486
659.0, 0.0044743527514869786
660.0, 0.0033141091088224025
661.0, 0.00372036818709908
662.0, 0.0045914197431026005
663.0, 0.005368814772265663
664.0, 0.004370689056059403
665.0, 0.003974518257937544
666.0, 0.004114428617049465
667.0, 0.002806812338354677
668.0, 0.004308950534772652
669.0, 0.003905044197755253
670.0, 0.004105656489138195
671.0, 0.004386629813440733
672.0, 0.003917280977668352
673.0, 0.003361824434288919
674.0, 0.003521752766608158
675.0, 0.004371194547814881
676.0, 0.0027887974579562805
677.0, 0.002512493062191714
678.0, 0.003088872115079623
679.0, 0.0014780592058725266
680.0, 0.0016504032480720672
681.0, 0.0023039292082480587
682.0, 0.002699720609028085
683.0, 0.0030108216185094567
684.0, 0.0034917212103781374
685.0, 0.0035169521274056796
686.0, 0.002162550577432847
687.0, 0.0016077243512350335
688.0, 0.0019663974388251858
689.0, 0.002158696810681405
690.0, 0.002446677116471526
691.0, 0.0026585729650554597
692.0, 0.0012573871627614723
693.0, 0.0012662070889075912
694.0, 0.0011191765480537013
695.0, 0.0009783140756202356
696.0, 0.0006193310352413614
697.0, 0.00037959309041711044
698.0, 0.001125904771222458
699.0, 0.0006528435590392272
700.0, 1.5764211120940588e-05
701.0, 0.0008106189002149371
702.0, 0.001535808198564972
703.0, 0.0010351719542678998
704.0, 0.00022569335304985938
705.0, 0.00014685307175225313
706.0, 0.0015042794454048758
707.0, 0.0008725049853238371
708.0, 0.0006276425999122223
709.0, 0.0014762441880826645
710.0, 0.0018184910960197499
711.0, 0.001466520644734552
712.0, 0.0005379272965061609
713.0, 0.0004686703449755011
714.0, 0.00014676011109797697
715.0, 0.00026657805312025175
716.0, 0.0006649345003514708
717.0, 0.0008245411841619721
718.0, 0.00013186540738316382
719.0, 0.0004547525156317718
720.0, 0.0015919884915576582
721.0, 0.0012662287398573554
722.0, 5.9886186659788255e-05
723.0, 0.0001402037775939531
724.0, 0.0007462535864955275
725.0, 0.0012541664258638604
726.0, 0.0016724603674558127
727.0, 0.0014367836077695552
728.0, 0.0012991552227161285
729.0, 0.0019420531863069029
730.0, 0.0023665449985842114
731.0, 0.0025648579498181966
732.0, 0.0019537070970539003
733.0, 0.002062766471912317
734.0, 0.0025645407886910436
735.0, 0.002522201707319554
736.0, 0.0019557337899426966
737.0, 0.0019501806966711994
738.0, 0.0007004402590338998
739.0, 0.0015012013879772258
740.0, 0.0022225740822128855
741.0, 0.0022813015207575364
742.0, 0.002479024321521566
743.0, 0.0023499776488577497
744.0, 0.002829531144040669
745.0, 0.0032279031292538063
746.0, 0.0037232420772807255
747.0, 0.004192709252343471
748.0, 0.0046268510832190735
749.0, 0.004978696249461904
750.0, 0.004338485281167098
751.0, 0.0042889056624388164
752.0, 0.0047643654144470205
753.0, 0.005605681003846391
754.0, 0.00562960650130429
755.0, 0.004880490895122411
756.0, 0.005344996969372561
757.0, 0.005824007625740258
758.0, 0.004999774232985896
759.0, 0.0040420293097050445
760.0, 0.0038131125933729177
761.0, 0.004378476396422106
762.0, 0.00462766941585327
763.0, 0.0032471006684665874
764.0, 0.004113553018331858
765.0, 0.0052820288651927675
766.0, 0.004942611096985981
767.0, 0.0043443913712230275
768.0, 0.004619640424748099
769.0, 0.004737561543232011
770.0, 0.0033623283281936198
771.0, 0.004571840606081282
772.0, 0.004235111362961049
773.0, 0.004149789396659576
774.0, 0.0038832608974440717
775.0, 0.002932746385509533
776.0, 0.0037341806933685984
777.0, 0.004423018377819051
778.0, 0.0029965426791603604
779.0, 0.0027645962314682077
780.0, 0.002037806127640386
781.0, 0.0017919026822663623
782.0, 0.003250312731368713
783.0, 0.0026119767865394115
784.0, 0.0012009294444553617
785.0, 0.0012715984109568418
786.0, 0.002016202004033942
787.0, 0.001974309109287868
788.0, 0.001679481097401074
789.0, 0.0019839830499197046
790.0, 0.0017207828295397367
791.0, 0.0016904406861805409
792.0, 0.0008750066281494814
793.0, 0.0010825360423061447
794.0, 0.0010532317224871063
795.0, 0.0002734810846190624
796.0, 0.00017085205575301208
797.0, 0.0004149610586498596
798.0, 0.0017958396586894548
799.0, 0.00043684483351293487
800.0, 0.0006994843448223458
801.0, 0.0008015015065602097
802.0, 0.00037175070426227036
803.0, 6.28045787022202e-05
804.0, 0.00036925369199651635
805.0, 0.001493765703061276
806.0, 0.0012877744053952705
807.0, 0.000239875265580961
808.0, 0.0006475290890069751
809.0, 0.0010296951792186492
810.0, 0.001826921645387231
811.0, 0.00031370354995426705
812.0, 0.00019369872899435917
813.0, 0.0010523454118868888
814.0, 0.0010443118049590068
815.0, 0.0009249589949128585
816.0, 0.001615269447572782
817.0, 0.001582959602481371
818.0, 0.000698221753127995
819.0, 0.00049706997834083
820.0, 0.0015744613532998122
821.0, 0.0028458745335164545
822.0, 0.002372098969665048
823.0, 0.0011018736214667196
824.0, 0.0020429826043202354
825.0, 0.0026548071334049814
826.0, 0.003101374510164172
827.0, 0.003351781073157004
828.0, 0.003858098633608436
829.0, 0.004370482934032991
830.0, 0.004649426276485744
831.0, 0.005016699608436434
832.0, 0.005321128181568429
833.0, 0.005359965679527321
834.0, 0.0074976446131973145
835.0, 0.008021112028223061
836.0, 0.00816740485275222
837.0, 0.00908687707263541
838.0, 0.009538478069716567
839.0, 0.009840287779210357
840.0, 0.010000716553935859
841.0, 0.011188722243749992
842.0, 0.010480555904927774
843.0, 0.010815069031620618
844.0, 0.01226336056292864
845.0, 0.01279895090415174
846.0, 0.013873824582721002
847.0, 0.014680475247251691
848.0, 0.01585269140314677
849.0, 0.015117730924356835
850.0, 0.016128184685061265
851.0, 0.017839139360813557
852.0, 0.017849618571037378
853.0, 0.01776389588098526
854.0, 0.018168952526682363
855.0, 0.01814921797490227
856.0, 0.01794375635503465
857.0, 0.01998254647237791
858.0, 0.02080629475804422
859.0, 0.020073542792297713
860.0, 0.021807744910005547
861.0, 0.022176056614775654
862.0, 0.019094284567454628
863.0, 0.020833539867519464
864.0, 0.01989032167520944
865.0, 0.018165458365774753
866.0, 0.01808557560472076
867.0, 0.017767266712115586
868.0, 0.01621352435714147
869.0, 0.01432893941857467
870.0, 0.014085935503600851
871.0, 0.01329131000578006
872.0, 0.011763799744544218
873.0, 0.010875461193274974
874.0, 0.011144514159800131
875.0, 0.011037734946090927
876.0, 0.009806768309245852
877.0, 0.00936033380047633
878.0, 0.008741839140327284
879.0, 0.007733042939779417
880.0, 0.007191550245358219
881.0, 0.007160551725757105
882.0, 0.006732326140438767
883.0, 0.005666175609490024
884.0, 0.0052398275499521444
885.0, 0.004952335901572855
886.0, 0.0036417120914067937
887.0, 0.004473195287998231
888.0, 0.005193442897967185
889.0, 0.003963288142868322
890.0, 0.003745855187805059
891.0, 0.004812687721676705
892.0, 0.005136557185153788
893.0, 0.004306646501347862
894.0, 0.00354838170034265
895.0, 0.0034801414080494974
896.0, 0.0031624989006126753
897.0, 0.0027549209413596882
898.0, 0.0037870437034023203
899.0, 0.003675395618013263
900.0, 0.0022495366206438452
901.0, 0.0012933954516283711
902.0, 0.0018583672938419205
903.0, 0.0028442574177862823
904.0, 0.0024352616842139435
905.0, 0.0012589686946147777
906.0, 0.0018748405119330118
907.0, 0.0006308795454856623
908.0, 0.001222600485543888
909.0, 0.00030435900054836976
910.0, 0.00038996413670708806
911.0, 0.00022768750732749405
912.0, 0.000739425579060255
913.0, 0.0012333011908041125
914.0, 0.00037255365006263466
915.0, 0.0010473394947589996
916.0, 0.0010968973796914234
917.0, 0.0014066332010570575
918.0, 0.001108157196198236
919.0, 0.00182798891610998
920.0, 0.0029841351076732386
921.0, 0.0018158355476766772
922.0, 0.0017884896010679323
923.0, 0.0008727109269623756
924.0, 0.0022553589971521055
925.0, 0.003421637354875001
926.0, 0.003246484291429454
927.0, 0.002614519317558971
928.0, 0.0025533698149912323
929.0, 0.002997994843873722
930.0, 0.0020137214052196053
931.0, 0.0012740524536069518
932.0, 0.00033079780537377556
933.0, 0.00163987297650325
934.0, 0.0017372852541114136
935.0, 0.0003797347930959048
936.0, 0.0003951776067295526
937.0, 0.0006602070863786592
938.0, 0.0010877239769733755
939.0, 0.0023561577281738426
940.0, 0.0041660852587203446
941.0, 0.005159581741165769
942.0, 0.006140690708448513
943.0, 0.0074629878805797375
944.0, 0.007969257693893696
945.0, 0.007894057491831365
946.0, 0.010196455832269734
947.0, 0.011557573855301014
948.0, 0.014618199722762971
949.0, 0.015906687264148612
950.0, 0.01845153864322505
951.0, 0.02085016949200219
952.0, 0.022927663405070728
953.0, 0.027434639053537144
954.0, 0.030920290827032217
955.0, 0.03636914365868576
956.0, 0.04268826806600227
957.0, 0.047450532662288936
958.0, 0.05142372093258679
959.0, 0.05728751116049261
960.0, 0.06494688335523596
961.0, 0.07269329157008507
962.0, 0.08127574460456699
963.0, 0.08976725199692649
964.0, 0.10291102032852965
965.0, 0.11752274486342286
966.0, 0.13004468391289717
967.0, 0.14709673961599
968.0, 0.16833135218228604
969.0, 0.19010524650167052
970.0, 0.2164640212137208
971.0, 0.2482152556692391
972.0, 0.2803785772741358
973.0, 0.319662329462858
974.0, 0.36731621547690835
975.0, 0.41712923910097294
976.0, 0.46871219119542873
977.0, 0.5280792398142011
978.0, 0.5944177183897276
979.0, 0.6569718755233436
980.0, 0.7247635175364379
981.0, 0.7940586901005648
982.0, 0.8583390623117572
983.0, 0.9158668275868267
984.0, 0.9624231029963337
985.0, 0.991226225229783
986.0, 0.9996843065454946
987.0, 0.9913931855768249
988.0, 0.9709567902454552
989.0, 0.943712090445026
990.0, 0.9211214638523123
991.0, 0.8966043462330622
992.0, 0.8718072984058374
993.0, 0.8488971172900383
994.0, 0.8263545532811375
995.0, 0.8030048015389472
996.0, 0.7792374502423906
997.0, 0.7522094091157656
998.0, 0.7331580083744876
999.0, 0.7167846880492043
1000.0, 0.7058184646097214
1001.0, 0.7074111757691695
1002.0, 0.719868539176834
1003.0, 0.7395072116846584
1004.0, 0.7666651375132045
1005.0, 0.7980499764944751
1006.0, 0.8310027934273111
1007.0, 0.8567844188113355
1008.0, 0.8752656175484995
1009.0, 0.8850525568540086
1010.0, 0.8789449115922288
1011.0, 0.8518638890976735
1012.0, 0.8036749267116884
1013.0, 0.7429535090576219
1014.0, 0.6820993471636587
1015.0, 0.6152834866528019
1016.0, 0.5555296210013725
1017.0, 0.49637866924532936
1018.0, 0.4437815548809848
1019.0, 0.40155340015050806
1020.0, 0.3658277312992211
1021.0, 0.33689365394878207
1022.0, 0.3197581030536985
1023.0, 0.3058431451978328
1024.0, 0.301217467500555
1025.0, 0.2979393161219754
1026.0, 0.3029614871286774
1027.0, 0.3112241535154739
1028.0, 0.322072032096093
1029.0, 0.33835565061190026
1030.0, 0.3572588105357666
1031.0, 0.3727582666613013
1032.0, 0.3847449700702792
1033.0, 0.39341196720039767
1034.0, 0.39563347295948387
1035.0, 0.3891647510222244
1036.0, 0.3712629538787434
1037.0, 0.3433104010968577
1038.0, 0.3108436389793129
1039.0, 0.278823520138697
1040.0, 0.24671153087062866
1041.0, 0.21443600605414842
1042.0, 0.1860070068562035
1043.0, 0.16130702834433183
1044.0, 0.1416651928695374
1045.0, 0.12477880492884191
1046.0, 0.1087806375798524
1047.0, 0.09474381180606369
1048.0, 0.08353646845864177
1049.0, 0.07277017513664456
1050.0, 0.06121972929592659
1051.0, 0.05700382419578123
1052.0, 0.05032515695293668
1053.0, 0.04397179459216016
1054.0, 0.03842706651722499
1055.0, 0.03300711140592845
1056.0, 0.029192604658476395
1057.0, 0.026882277146452617
1058.0, 0.024261196425161183
1059.0, 0.021314975215525934
1060.0, 0.01891666917544532
1061.0, 0.016004387873509638
1062.0, 0.013061047607156881
1063.0, 0.01156864296868333
1064.0, 0.00845675722002616
1065.0, 0.006703648993142256
1066.0, 0.005637346274511258
1067.0, 0.004682559408132222
1068.0, 0.004278753855100184
1069.0, 0.0014588204956545658
1070.0, 0.0015460711122204105
1071.0, 0.002533242476171959
1072.0, 0.0006951749754387553
1073.0, 0.0005736386911426754
1074.0, 0.0006500308662098094
1075.0, 0.0015534204579948417
1076.0, 0.0015506163555232188
1077.0, 0.002014044596520673
1078.0, 0.0027287876311836313
1079.0, 0.003069501375213855
1080.0, 0.0029541563142303617
1081.0, 0.0025506687813773832
1082.0, 0.002599924001894302
1083.0, 0.0018247313771051694
1084.0, 0.001517303730374952
1085.0, 0.0017190246088773812
1086.0, 0.0018994927685844734
1087.0, 0.0019471309356142229
1088.0, 0.0021079062654752244
1089.0, 0.003194578919387843
1090.0, 0.0019059221988723383
1091.0, 0.002562356184448004
1092.0, 0.0021139400988190583
1093.0, 0.001260842361501344
1094.0, 0.00079185765584102
1095.0, 0.0013436666905392769
1096.0, 0.0019501390044151857
1097.0, 0.0005189314918836877
1098.0, 0.001817231665489433
1099.0, 0.001423515431912746
1100.0, 0.0022757487493410855
1101.0, 0.0010112624170105762
1102.0, 0.0025225207099471903
1103.0, 0.0038914559553253148
1104.0, 0.004964161366742535
1105.0, 0.005234740054867235
1106.0, 0.0059257957191468005
1107.0, 0.00691172405800756
1108.0, 0.006662878441514795
1109.0, 0.00795831480175092
1110.0, 0.010537366417299802
1111.0, 0.01231494053035928
1112.0, 0.010937920222902273
1113.0, 0.012956268185900526
1114.0, 0.013041297021540228
1115.0, 0.012713369744320451
1116.0, 0.014112109885431986
1117.0, 0.014448296529635285
1118.0, 0.012771176360357916
1119.0, 0.012913493611083071
1120.0, 0.013736536126023359
1121.0, 0.014776581769416729
1122.0, 0.01291636202758534
1123.0, 0.013238357908602819
1124.0, 0.011516377739777773
1125.0, 0.010002059356894043
1126.0, 0.010586926942507204
1127.0, 0.009806126524599966
1128.0, 0.008533020773126085
1129.0, 0.009995204572372863
1130.0, 0.008440338145476492
1131.0, 0.006935355142544783
1132.0, 0.008320686152645756
1133.0, 0.007268496260189552
1134.0, 0.006058873123839309
1135.0, 0.006147008378957544
1136.0, 0.005605480937797506
1137.0, 0.004998524322233871
1138.0, 0.005275104424655657
1139.0, 0.005205187200689804
1140.0, 0.004095178059541189
1141.0, 0.003338306944242298
1142.0, 0.003948773464904743
1143.0, 0.003958297099972857
1144.0, 0.004264277757296953
1145.0, 0.003954977236613895
1146.0, 0.0035657616406265134
1147.0, 0.0021729405094444818
1148.0, 0.0015306773277903168
1149.0, 0.001984112660429671
1150.0, 0.0018164112604615588
1151.0, 0.001606698570376358
1152.0, 0.0018707831897256048
1153.0, 0.0008589647018441836
1154.0, 0.0008377673501029669
1155.0, 0.0010718339351847525
1156.0, 0.0013331985931669987
1157.0, 0.0009902190547066356
1158.0, 0.000315076698307942
1159.0, 0.0006909795020320892
1160.0, 0.001257707467202578
1161.0, 0.0012115208863143312
1162.0, 0.0018697440973983405
1163.0, 0.0015379293643895038
1164.0, 0.0020686044130767823
1165.0, 0.0006895291480331706
1166.0, 0.001278823425025896
1167.0, 0.0022327836369615737
1168.0, 0.0009966149613561972
1169.0, 0.0010826261292189844
1170.0, 0.0017197596286044037
1171.0, 0.0021070757006773967
1172.0, 0.0029129844949220525
1173.0, 0.002780778881356324
1174.0, 0.0013368688569045386
1175.0, 0.00171182335671699
1176.0, 0.0029434935491804695
1177.0, 0.0028026227470676784
1178.0, 0.0018873527909947186
1179.0, 0.0021240281127117818
1180.0, 0.0011352452747924527
1181.0, 0.0014938658511769978
1182.0, 0.003752628654037444
1183.0, 0.004006646288776616
1184.0, 0.002389006107294968
1185.0, 0.0034118518725975116
1186.0, 0.00510325082757804
1187.0, 0.003734878744650686
1188.0, 0.0038594427399172527
1189.0, 0.0029872630127103037
1190.0, 0.0020086894322080173
1191.0, 0.002001302488802697
1192.0, 0.0014721509821192722
1193.0, 0.0022131240929715067
1194.0, 0.002859573542992597
1195.0, 0.0025229369758982155
1196.0, 0.0022809084569729047
1197.0, 0.002102459555150013
1198.0, 0.002757116654602001
1199.0, 0.0021000025048516194
1200.0, 0.0020483472476390324
1201.0, 0.0031647940369603626
1202.0, 0.0026193987605643717
1203.0, 0.0025481006076942445
1204.0, 0.0023613640572588113
1205.0, 0.002540701297663555
1206.0, 0.002258883106065416
1207.0, 0.0016251397778090427
1208.0, 0.002166122752573059
1209.0, 0.0030259358096207793
1210.0, 0.0023526043864538436
1211.0, 0.002257907058405637
1212.0, 0.0009546435105074718
1213.0, 0.0025395072004441104
1214.0, 0.0028176714631971316
1215.0, 0.0021609988383153272
1216.0, 0.0015545717365495046
1217.0, 0.0018292836133558805
1218.0, 0.0027398192607329336
1219.0, 0.0020150128370097775
1220.0, 0.0010424431686255427
1221.0, 0.0018506706028583826
1222.0, 0.002421608719060409
1223.0, 0.0023167658158978243
1224.0, 0.002227570491353571
1225.0, 0.0021302274926622232
1226.0, 0.0012457911522651107
1227.0, 0.00012014028436361393
1228.0, 0.0011926539052590857
1229.0, 0.0029401682636748254
1230.0, 0.0024077021988573094
1231.0, 0.001731899181068971
1232.0, 0.0012215158518456037
1233.0, 0.0016718106951074227
1234.0, 0.003118731181894821
1235.0, 0.002224454527840833
1236.0, 0.0020707861300062547
1237.0, 0.0016136481628727956
1238.0, 0.0006372592715732009
1239.0, 0.00025937029513707415
1240.0, 0.001451839681680431
1241.0, 0.0018473320952407345
1242.0, 0.0008136528231089604
1243.0, 0.0013756565528873722
1244.0, 0.001762900948143302
1245.0, 0.0014327879559875795
1246.0, 0.0014372721855775035
1247.0, 0.0011928054515584563
1248.0, 0.0007261094358383364
1249.0, 0.00039736345267404346
1250.0, 0.0011288843797187887
1251.0, 0.0012033897377893713
1252.0, 0.0006087648168364961
1253.0, 0.0009296583964453285
1254.0, 0.0020016232833717277
1255.0, 0.0012299087657629232
1256.0, 0.002036373515590301
1257.0, 0.0015680839723750165
1258.0, 0.0008945011993813731
1259.0, 0.0012661741547403027
1260.0, 0.0013981325760589612
1261.0, 0.0017438720088262156
1262.0, 0.0011692816714853301
1263.0, 0.000592751697152285
1264.0, 0.0013902165048206342
1265.0, 0.002125123335422405
1266.0, 0.0009541862343926546
1267.0, 0.0006217483039238742
1268.0, 0.0017868864285149456
1269.0, 0.002637401130783975
1270.0, 0.0011244283766649221
1271.0, 0.00030215382144351726
1272.0, 0.00013634755002848772
1273.0, 0.0008144559421167585
1274.0, 0.0022803040595627965
1275.0, 0.0013908581951714303
1276.0, 0.0006333484050278532
1277.0, 0.0011585811135322189
1278.0, 0.0013426904555360762
1279.0, 0.0018685239126798496
1280.0, 0.001571325782040368
1281.0, 0.0002608477202395274
1282.0, 0.001355823468470694
1283.0, 0.0007391728824770378
1284.0, 0.00011591764384757094
1285.0, 2.4537775225183166e-05
1286.0, 0.0006039762974813896
1287.0, 0.001192838078110555
1288.0, 0.000770006141480019
1289.0, 0.0012925264471978842
1290.0, 0.0024375798562697184
1291.0, 0.0009179592183619985
1292.0, 0.0010689664229739885
1293.0, 0.00017891954055697276
1294.0, 0.0006970545184720589
1295.0, 0.0006822427123261162
1296.0, 0.0012949322302883218
1297.0, 0.0006146647069436322
1298.0, 0.0007090691958349222
1299.0, 0.0008808575037809679
1300.0, 0.0005165844493046206
1301.0, 0.0001119528096417615
1302.0, 0.000667844167433637
1303.0, 2.5017508993674636e-05
1304, 0.0
1305, 0.0
1306, 0.0
1307, 0.0
1308, 0.0
1309, 0.0
1310, 0.0
1311, 0.0
1312, 0.0
1313, 0.0
1314, 0.0
1315, 0.0
1316, 0.0
1317, 0.0
1318, 0.0
1319, 0.0
1320, 0.0
1321, 0.0
1322, 0.0
1323, 0.0
1324, 0.0
1325, 0.0
1326, 0.0
1327, 0.0
1328, 0.0
1329, 0.0
1330, 0.0
1331, 0.0
1332, 0.0
1333, 0.0
1334, 0.0
1335, 0.0
1336, 0.0
1337, 0.0
1338, 0.0
1339, 0.0
1340, 0.0
1341, 0.0
1342, 0.0
1343, 0.0
1344, 0.0
1345, 0.0
1346, 0.0
1347, 0.0
1348, 0.0
1349, 0.0
1350, 0.0
1351, 0.0
1352, 0.0
1353, 0.0
1354, 0.0
1355, 0.0
1356, 0.0
1357, 0.0
1358, 0.0
1359, 0.0
1360, 0.0
1361, 0.0
1362, 0.0
1363, 0.0
1364, 0.0
1365, 0.0
1366, 0.0
1367, 0.0
1368, 0.0
1369, 0.0
1370, 0.0
1371, 0.0
1372, 0.0
1373, 0.0
1374, 0.0
1375, 0.0
1376, 0.0
1377, 0.0
1378, 0.0
1379, 0.0
1380, 0.0
1381, 0.0
1382, 0.0
1383, 0.0
1384, 0.0
1385, 0.0
1386, 0.0
1387, 0.0
1388, 0.0
1389, 0.0
1390, 0.0
1391, 0.0
1392, 0.0
1393, 0.0
1394, 0.0
1395, 0.0
1396, 0.0
1397, 0.0
1398, 0.0
1399, 0.0
1400, 0.0
1401, 0.0
1402, 0.0
1403, 0.0
1404, 0.0
1405, 0.0
1406, 0.0
1407, 0.0
1408, 0.0
1409, 0.0
1410, 0.0
1411, 0.0
1412, 0.0
1413, 0.0
1414, 0.0
1415, 0.0
1416, 0.0
1417, 0.0
1418, 0.0
1419, 0.0
1420, 0.0
1421, 0.0
1422, 0.0
1423, 0.0
1424, 0.0
1425, 0.0
1426, 0.0
1427, 0.0
1428, 0.0
1429, 0.0
1430, 0.0
1431, 0.0
1432, 0.0
1433, 0.0
1434, 0.0
1435, 0.0
1436, 0.0
1437, 0.0
1438, 0.0
1439, 0.0
1440, 0.0
1441, 0.0
1442, 0.0
1443, 0.0
1444, 0.0
1445, 0.0
1446, 0.0
1447, 0.0
1448, 0.0
1449, 0.0
1450, 0.0
1451, 0.0
1452, 0.0
1453, 0.0
1454, 0.0
1455, 0.0
1456, 0.0
1457, 0.0
1458, 0.0
1459, 0.0
1460, 0.0
1461, 0.0
1462, 0.0
1463, 0.0
1464, 0.0
1465, 0.0
1466, 0.0
1467, 0.0
1468, 0.0
1469, 0.0
1470, 0.0
1471, 0.0
1472, 0.0
1473, 0.0
1474, 0.0
1475, 0.0
1476, 0.0
1477, 0.0
1478, 0.0
1479, 0.0
1480, 0.0
1481, 0.0
1482, 0.0
1483, 0.0
1484, 0.0
1485, 0.0
1486, 0.0
1487, 0.0
1488, 0.0
1489, 0.0
1490, 0.0
1491, 0.0
1492, 0.0
1493, 0.0
1494, 0.0
1495, 0.0
1496, 0.0
1497, 0.0
1498, 0.0
1499, 0.0
1500, 0.0
1501, 0.0
1502, 0.0
1503, 0.0
1504, 0.0
1505, 0.0
1506, 0.0
1507, 0.0
1508, 0.0
1509, 0.0
1510, 0.0
1511, 0.0
1512, 0.0
1513, 0.0
1514, 0.0
1515, 0.0
1516, 0.0
1517, 0.0
1518, 0.0
1519, 0.0
1520, 0.0
1521, 0.0
1522, 0.0
1523, 0.0
1524, 0.0
1525, 0.0
1526, 0.0
1527, 0.0
1528, 0.0
1529, 0.0
1530, 0.0
1531, 0.0
1532, 0.0
1533, 0.0
1534, 0.0
1535, 0.0
1536, 0.0
1537, 0.0
1538, 0.0
1539, 0.0
1540, 0.0
1541, 0.0
1542, 0.0
1543, 0.0
1544, 0.0
1545, 0.0
1546, 0.0
1547, 0.0
1548, 0.0
1549, 0.0
1550, 0.0
1551, 0.0
1552, 0.0
1553, 0.0
1554, 0.0
1555, 0.0
1556, 0.0
1557, 0.0
1558, 0.0
1559, 0.0
1560, 0.0
1561, 0.0
1562, 0.0
1563, 0.0
1564, 0.0
1565, 0.0
1566, 0.0
1567, 0.0
1568, 0.0
1569, 0.0
1570, 0.0
1571, 0.0
1572, 0.0
1573, 0.0
1574, 0.0
1575, 0.0
1576, 0.0
1577, 0.0
1578, 0.0
1579, 0.0
1580, 0.0
1581, 0.0
1582, 0.0
1583, 0.0
1584, 0.0
1585, 0.0
1586, 0.0
1587, 0.0
1588, 0.0
1589, 0.0
1590, 0.0
1591, 0.0
1592, 0.0
1593, 0.0
1594, 0.0
1595, 0.0
1596, 0.0
1597, 0.0
1598, 0.0
1599, 0.0
