30, 0.0
31, 0.0
32, 0.0
33, 0.0
34, 0.0
35, 0.0
36, 0.0
37, 0.0
38, 0.0
39, 0.0
40, 0.0
41, 0.0
42, 0.0
43, 0.0
44, 0.0
45, 0.0
46, 0.0
47, 0.0
48, 0.0
49, 0.0
50, 0.0
51, 0.0
52, 0.0
53, 0.0
54, 0.0
55, 0.0
56, 0.0
57, 0.0
58, 0.0
59, 0.0
60, 0.0
61, 0.0
62, 0.0
63, 0.0
64, 0.0
65, 0.0
66, 0.0
67, 0.0
68, 0.0
69, 0.0
70, 0.0
71, 0.0
72, 0.0
73, 0.0
74, 0.0
75, 0.0
76, 0.0
77, 0.0
78, 0.0
79, 0.0
80, 0.0
81, 0.0
82, 0.0
83, 0.0
84, 0.0
85, 0.0
86, 0.0
87, 0.0
88, 0.0
89, 0.0
90, 0.0
91, 0.0
92, 0.0
93, 0.0
94, 0.0
95, 0.0
96, 0.0
97, 0.0
98, 0.0
99, 0.0
100, 0.0
101, 0.0
102, 0.0
103, 0.0
104, 0.0
105, 0.0
106, 0.0
107, 0.0
108, 0.0
109, 0.0
110, 0.0
111, 0.0
112, 0.0
113, 0.0
114, 0.0
115, 0.0
116, 0.0
117, 0.0
118, 0.0
119, 0.0
120, 0.0
121, 0.0
122, 0.0
123, 0.0
124, 0.0
125, 0.0
126, 0.0
127, 0.0
128, 0.0
129, 0.0
130, 0.0
131, 0.0
132, 0.0
133, 0.0
134, 0.0
135, 0.0
136, 0.0
137, 0.0
138, 0.0
139, 0.0
140, 0.0
141, 0.0
142, 0.0
143, 0.0
144, 0.0
145, 0.0
146, 0.0
147, 0.0
148, 0.0
149.0, 0.0018729386229930133
150.0, 0.0028477098242364568
151.0, 0.011409585432025379
152.0, 0.012263541370870329
153.0, 0.012513593656823804
154.0, 0.018036796609379104
155.0, 0.01965128092333232
156.0, 0.022979568833385176
157.0, 0.028008373402038537
158.0, 0.027877593240612345
159.0, 0.02235850293076759
160.0, 0.019489231028358464
161.0, 0.015216272335715509
162.0, 0.009371388665289505
163.0, 0.005437262641347114
164.0, 0.0007063875296310734
165.0, 0.0022688911485142962
166.0, 0.0036046439525632286
167.0, 0.004210228670960119
168.0, 0.0035146359845154517
169.0, 0.003303033923850018
170.0, 0.0017872925068722944
171.0, 0.001093464402855028
172.0, 0.002454091462961453
173.0, 0.007164634829246278
174.0, 0.014008750756583978
175.0, 0.021450818101223956
176.0, 0.029909816541499042
177.0, 0.044735617940252395
178.0, 0.06087221625124463
179.0, 0.0759701498448425
180.0, 0.09172461816152153
181.0, 0.11509250774128094
182.0, 0.13801924469191407
183.0, 0.1628274099369058
184.0, 0.19248280691922642
185.0, 0.22602091576294933
186.0, 0.2598809209039126
187.0, 0.3003258772658091
188.0, 0.34782991788408635
189.0, 0.3973314910879881
190.0, 0.45226239612704106
191.0, 0.5124102651408197
192.0, 0.5766673877383076
193.0, 0.6435510823825465
194.0, 0.7092995920625036
195.0, 0.7739484101459758
196.0, 0.8334232267127794
197.0, 0.884483640335953
198.0, 0.9259433990735019
199.0, 0.9661207635297068
200.0, 0.9899200891583009
201.0, 0.9969930293049669
202.0, 0.9990860828561692
203.0, 0.988489845729577
204.0, 0.9640229631214897
205.0, 0.9330813394776861
206.0, 0.8984610688577438
207.0, 0.8474612885976988
208.0, 0.8009851734056881
209.0, 0.750625205317634
210.0, 0.6958631274750083
211.0, 0.6498111364866408
212.0, 0.6017412836291319
213.0, 0.5582920372915757
214.0, 0.5161377058272296
215.0, 0.4704374970315423
216.0, 0.433395387001571
217.0, 0.3967249986019661
218.0, 0.3610485022536007
219.0, 0.32769521138746943
220.0, 0.294321515444505
221.0, 0.2637852369224642
222.0, 0.23515498989179548
223.0, 0.2095472077526662
224.0, 0.18850716365930884
225.0, 0.1666350354716924
226.0, 0.14812120476799354
227.0, 0.13275618369712128
228.0, 0.11985199864913959
229.0, 0.11041356262991026
230.0, 0.09837009434402275
231.0, 0.08672161202534637
232.0, 0.07761832204458538
233.0, 0.07109974785661409
234.0, 0.06717665379012211
235.0, 0.0634910969987051
236.0, 0.06198837269044136
237.0, 0.0632546950442392
238.0, 0.059951390624570756
239.0, 0.06148456484705335
240.0, 0.06444689912968982
241.0, 0.06715255299784406
242.0, 0.07120743694434105
243.0, 0.07390822047581944
244.0, 0.07570187586395524
245.0, 0.08020276171940116
246.0, 0.08778013512422207
247.0, 0.09011266199261854
248.0, 0.09350827261446769
249.0, 0.09454375851060921
250.0, 0.0943926650558784
251.0, 0.09851199240105334
252.0, 0.09958900478267715
253.0, 0.09693300577279829
254.0, 0.0954905757978896
255.0, 0.09653110767195239
256.0, 0.08925564357471463
257.0, 0.08978602172166814
258.0, 0.09013419781328781
259.0, 0.08557652072046519
260.0, 0.07886174112728633
261.0, 0.0754952253434066
262.0, 0.07244755915502149
263.0, 0.06856913740912811
264.0, 0.06415428809951731
265.0, 0.0607148140199951
266.0, 0.05596422088880885
267.0, 0.05073529674896668
268.0, 0.045966996928072164
269.0, 0.042286999055382295
270.0, 0.04024651627338609
271.0, 0.034396436935710296
272.0, 0.027944036417937766
273.0, 0.024297446984544897
274.0, 0.02167154796699532
275.0, 0.019090347193414802
276.0, 0.01672155486766994
277.0, 0.014101686637325805
278.0, 0.01116837347510406
279.0, 0.011043430877487036
280.0, 0.011341489462061805
281.0, 0.012404119259739303
282.0, 0.014879399131758016
283.0, 0.01842210998799072
284.0, 0.0220929540443921
285.0, 0.028794659429268628
286.0, 0.03777039462889225
287.0, 0.04732455753866589
288.0, 0.058094598750744714
289.0, 0.06961274183637409
290.0, 0.08269646432081473
291.0, 0.09737931596455805
292.0, 0.11325204887596077
293.0, 0.1309026943923507
294.0, 0.14793521367487356
295.0, 0.16468259312390138
296.0, 0.18055625073480244
297.0, 0.19375180471666392
298.0, 0.20944703124561062
299.0, 0.2215797988693128
300.0, 0.23088966381496223
301.0, 0.24078570180875633
302.0, 0.24772225198495987
303.0, 0.2558530360268321
304.0, 0.26113565626888374
305.0, 0.2625201067164185
306.0, 0.2630017178509988
307.0, 0.26160633783370096
308.0, 0.26107133528785825
309.0, 0.2593844937826295
310.0, 0.2545520967619031
311.0, 0.248701020655897
312.0, 0.24755976038425417
313.0, 0.24324454911068272
314.0, 0.23532298556620654
315.0, 0.22808039315614134
316.0, 0.22303578686826084
317.0, 0.21606015597979036
318.0, 0.21013975127448906
319.0, 0.20586469155781734
320.0, 0.20106249590900588
321.0, 0.20004040538276854
322.0, 0.19668406782448622
323.0, 0.19272484849543253
324.0, 0.19006283352583897
325.0, 0.18576449875572754
326.0, 0.1822465126681644
327.0, 0.17725349393531084
328.0, 0.17072122008172144
329.0, 0.1631144005018324
330.0, 0.15130841612090035
331.0, 0.14150325541497438
332.0, 0.13051268455774565
333.0, 0.11738331134751594
334.0, 0.10406690126109519
335.0, 0.08979646577912162
336.0, 0.07669538890863378
337.0, 0.06377612115056437
338.0, 0.05035573597500336
339.0, 0.037597388399694266
340.0, 0.028378640224675636
341.0, 0.020833289669031252
342.0, 0.012514556972989577
343.0, 0.003366734012939486
344.0, 0.0015774641865089175
345.0, 0.006523983785578329
346.0, 0.011464864209819512
347.0, 0.015187112540410583
348.0, 0.017329381202169414
349.0, 0.01985538355584616
350.0, 0.018025846473352782
351.0, 0.018706940156861404
352.0, 0.020831850531375228
353.0, 0.018472126226641964
354.0, 0.01839669771632442
355.0, 0.014175813144931656
356.0, 0.010724268062386586
357.0, 0.009750084770355093
358.0, 0.006763875618915741
359.0, 0.002081325538791619
360.0, 0.00200514744956681
361.0, 0.005729976576323928
362.0, 0.01016827892076608
363.0, 0.016015231184608413
364.0, 0.023380328715692105
365.0, 0.02809340942950433
366.0, 0.031141395343495828
367.0, 0.034415891412932414
368.0, 0.03656008295548478
369.0, 0.04217914687190692
370.0, 0.04765515665241116
371.0, 0.050651358804748775
372.0, 0.050874810408657226
373.0, 0.05237574478387781
374.0, 0.05199981406514224
375.0, 0.05098758073157982
376.0, 0.04892422697913256
377.0, 0.04432134720592276
378.0, 0.039305890665470855
379.0, 0.036366321801437625
380.0, 0.03480471800541115
381.0, 0.032185875850532585
382.0, 0.027625195025660087
383.0, 0.02759273507420818
384.0, 0.026483813304646466
385.0, 0.023946573724029876
386.0, 0.022235728164635912
387.0, 0.023135204406953765
388.0, 0.022815469073539332
389.0, 0.02120161840815056
390.0, 0.020299686334870632
391.0, 0.021177364499344386
392.0, 0.023460409657539143
393.0, 0.02781671959680075
394.0, 0.03178605189587738
395.0, 0.03599917012296541
396.0, 0.04253578466830705
397.0, 0.054560027420217476
398.0, 0.061500808746187
399.0, 0.07206162668306836
400.0, 0.08535172481311239
401.0, 0.09799816988309708
402.0, 0.10802487850882106
403.0, 0.12111299906883252
404.0, 0.13402430137300783
405.0, 0.1462925119876008
406.0, 0.15844306130513167
407.0, 0.1697247758421884
408.0, 0.1835463915647706
409.0, 0.19688267514023713
410.0, 0.21119874020164456
411.0, 0.22868728740431077
412.0, 0.2463508169410764
413.0, 0.2609007611374848
414.0, 0.2785481548387233
415.0, 0.2971491091701727
416.0, 0.31540917971086907
417.0, 0.33857610190342063
418.0, 0.36311205709681676
419.0, 0.38807206229129454
420.0, 0.4132989407526137
421.0, 0.4391067431241012
422.0, 0.4661379502035931
423.0, 0.4922004568021193
424.0, 0.5184050121930295
425.0, 0.5469769223682157
426.0, 0.5774101306822139
427.0, 0.6029465819758484
428.0, 0.6250366720042461
429.0, 0.6497165897937238
430.0, 0.6751675966781605
431.0, 0.6957872124550724
432.0, 0.7094642657233612
433.0, 0.7271308023710557
434.0, 0.7372152333372568
435.0, 0.7413522371237415
436.0, 0.7442021343933537
437.0, 0.7434136636738657
438.0, 0.7429238443922248
439.0, 0.7283656954266622
440.0, 0.7104571575362478
441.0, 0.6980748386316784
442.0, 0.6832805122212907
443.0, 0.6593365894623081
444.0, 0.6342903847368729
445.0, 0.6086577039665158
446.0, 0.5838647978086479
447.0, 0.5647666025270113
448.0, 0.5396275151250638
449.0, 0.5205261137245555
450.0, 0.5064930827539242
451.0, 0.4930767935126671
452.0, 0.4784936859787311
453.0, 0.46861924842874103
454.0, 0.4584862292968661
455.0, 0.4508403876755709
456.0, 0.4471107917306274
457.0, 0.4456900072415426
458.0, 0.44853273316713205
459.0, 0.4553034654041204
460.0, 0.46548306631552716
461.0, 0.48270508300680226
462.0, 0.5092112556451692
463.0, 0.5378791703945857
464.0, 0.5709863452665594
465.0, 0.6044409033325803
466.0, 0.6431772428796322
467.0, 0.693289606073302
468.0, 0.7372142868710015
469.0, 0.7824774132684053
470.0, 0.8262017452063919
471.0, 0.8645561589714803
472.0, 0.897261388584443
473.0, 0.9280749082424683
474.0, 0.9447605949182608
475.0, 0.9489998976618345
476.0, 0.9427313589278179
477.0, 0.9228431224890535
478.0, 0.8834190659909816
479.0, 0.8391900279175053
480.0, 0.7842742042055394
481.0, 0.7254254085544986
482.0, 0.6684725210066069
483.0, 0.6118216041402206
484.0, 0.5594963779440281
485.0, 0.505858498046898
486.0, 0.4580488116926933
487.0, 0.41539342222716713
488.0, 0.3714260448744863
489.0, 0.33244744952395355
490.0, 0.29537765247857606
491.0, 0.25897810546195826
492.0, 0.22558349708657618
493.0, 0.19660614050454867
494.0, 0.16862579526449026
495.0, 0.1467812312100346
496.0, 0.12658589802575854
497.0, 0.10790291128176614
498.0, 0.0918406607589435
499.0, 0.07664876154232361
500.0, 0.06455954841502132
501.0, 0.05395182096886528
502.0, 0.04487114574286389
503.0, 0.03655467276716907
504.0, 0.027299392629748363
505.0, 0.02339630166016949
506.0, 0.0171484216682679
507.0, 0.011291071677510934
508.0, 0.006971656993824761
509.0, 0.0026611262247826124
510.0, 0.0006230167567367227
511.0, 0.0034086045985377658
512.0, 0.007239336518089558
513.0, 0.009332961336927166
514.0, 0.008862275537782615
515.0, 0.009274463353919552
516.0, 0.011051762081722722
517.0, 0.011062698958018029
518.0, 0.012303590243393125
519.0, 0.014552158285046364
520.0, 0.012554110319821728
521.0, 0.010459183155101588
522.0, 0.009484207095696069
523.0, 0.009489160304415593
524.0, 0.008416155286418934
525.0, 0.004856223109313145
526.0, 0.0019088120923700523
527.0, 0.0007359441777805295
528.0, 0.005117522120324499
529.0, 0.009007085850247823
530.0, 0.01115770096229795
531.0, 0.016037045875345556
532.0, 0.02077402681110312
533.0, 0.026459954727382332
534.0, 0.032968948942642434
535.0, 0.03977332404243342
536.0, 0.04670291393353172
537.0, 0.0548279151594135
538.0, 0.06514493421206254
539.0, 0.07260058788431069
540.0, 0.08189654753033576
541.0, 0.09703355130862924
542.0, 0.10990465647227159
543.0, 0.12456402082303283
544.0, 0.1371661210765426
545.0, 0.1503167151917654
546.0, 0.16623406378635924
547.0, 0.18351736972937013
548.0, 0.20133391815249593
549.0, 0.22058952839443705
550.0, 0.23974629560719454
551.0, 0.25900868889279244
552.0, 0.27857766003414225
553.0, 0.29562310910955214
554.0, 0.3109613578584187
555.0, 0.3275938506768013
556.0, 0.3428196069562939
557.0, 0.35326611524740925
558.0, 0.35941888393875326
559.0, 0.3700146354908042
560.0, 0.37055763919293616
561.0, 0.3703979983603886
562.0, 0.36917822283698837
563.0, 0.36233063875231214
564.0, 0.356683127496172
565.0, 0.3483672511655527
566.0, 0.3387015987528115
567.0, 0.32553646604872133
568.0, 0.30987461921996207
569.0, 0.295521126813403
570.0, 0.2791104023535788
571.0, 0.26292784351669124
572.0, 0.24742181831179588
573.0, 0.23247342721093722
574.0, 0.2177714466000337
575.0, 0.2023727336090206
576.0, 0.18962287657129523
577.0, 0.17452638672644533
578.0, 0.15971830926385058
579.0, 0.14780193676218384
580.0, 0.1373684867567173
581.0, 0.12502583942162937
582.0, 0.11450901748824563
583.0, 0.1041406471573329
584.0, 0.09540290652677219
585.0, 0.08816075397341186
586.0, 0.07876003258122194
587.0, 0.07391575774219777
588.0, 0.0655925884942607
589.0, 0.05885342593084759
590.0, 0.054389124514589736
591.0, 0.04961379059874775
592.0, 0.046064658876553706
593.0, 0.04183637265782277
594.0, 0.03791716872013442
595.0, 0.035177498319581404
596.0, 0.03254367900801544
597.0, 0.029197820654959843
598.0, 0.02806982630708695
599.0, 0.028987300023405785
600.0, 0.02853416659032677
601.0, 0.027741759437574925
602.0, 0.02844122781782165
603.0, 0.030239026935275602
604.0, 0.03217613715835994
605.0, 0.03459728425181691
606.0, 0.03861650698524626
607.0, 0.04482256512401986
608.0, 0.0517684385880726
609.0, 0.056965455516988055
610.0, 0.06451478610928862
611.0, 0.07234920338867161
612.0, 0.08177155702997271
613.0, 0.09231943801878711
614.0, 0.10175621150767516
615.0, 0.10935470067732955
616.0, 0.11536398257229695
617.0, 0.12467720830319726
618.0, 0.13228156624077836
619.0, 0.13501295256709708
620.0, 0.13656035623150675
621.0, 0.13697117899669273
622.0, 0.13416255847915168
623.0, 0.12639742983626037
624.0, 0.11812293643755245
625.0, 0.10997404477932682
626.0, 0.09606827573728317
627.0, 0.08205506739122836
628.0, 0.06967866054623185
629.0, 0.05573061440902158
630.0, 0.044822409468218465
631.0, 0.03886768815069413
632.0, 0.029872750986058502
633.0, 0.02568845545736467
634.0, 0.021727830436976944
635.0, 0.018489420256714816
636.0, 0.015607494295871173
637.0, 0.012426971782879525
638.0, 0.010609919115046013
639.0, 0.008101946967969878
640.0, 0.007737934022144191
641.0, 0.006494093462707201
642.0, 0.004261496988685596
643.0, 0.0033134509090486995
644.0, 0.00304177485358366
645.0, 0.0021916541510948015
646.0, 0.0018561113004780824
647.0, 0.0006469818700407375
648.0, 0.0013593351763704989
649.0, 0.0011854561867830733
650.0, 0.0016346522668804673
651.0, 0.0027613087256147667
652.0, 0.003808304144757959
653.0, 0.003282156488961191
654.0, 0.002013541014088845
655.0, 0.001811569861288189
656.0, 0.0018003927458167008
657.0, 0.0023197561966925183
658.0, 0.0014431707683337145
659.0, 0.000620331520338776
660.0, 0.00022588807990106663
661.0, 0.0008039917442367003
662.0, 0.0012522041094235677
663.0, 0.002293220754743539
664.0, 0.0016695798008245814
665.0, 0.0019892959031813234
666.0, 0.004008365068635746
667.0, 0.0057682616209443136
668.0, 0.007139360699887456
669.0, 0.009545058893704137
670.0, 0.009746735061795766
671.0, 0.01007725973903987
672.0, 0.011590631903223583
673.0, 0.012525155746928276
674.0, 0.013409098372146008
675.0, 0.015814046126424564
676.0, 0.016553404347299395
677.0, 0.01658472524747257
678.0, 0.017891069383837315
679.0, 0.020076254675098645
680.0, 0.018904269596817385
681.0, 0.02102924678533968
682.0, 0.02215376377184649
683.0, 0.0235013398124879
684.0, 0.024701013110160402
685.0, 0.024405735434793147
686.0, 0.025251832837884312
687.0, 0.025720163576476454
688.0, 0.025698408724118795
689.0, 0.02589055012228933
690.0, 0.026930694687856263
691.0, 0.02808518610123476
692.0, 0.02766194883763944
693.0, 0.028217103108867783
694.0, 0.02641666034100983
695.0, 0.02652161860713128
696.0, 0.028042045624298833
697.0, 0.0286295299454139
698.0, 0.028239940577171944
699.0, 0.02655585016201747
700.0, 0.025594133134616913
701.0, 0.024896368625638265
702.0, 0.025556031690553815
703.0, 0.02675840398430621
704.0, 0.025718245928851184
705.0, 0.02488625466338527
706.0, 0.02411770780780794
707.0, 0.024224941978088096
708.0, 0.023946772229654547
709.0, 0.02258376645290934
710.0, 0.021174437044047076
711.0, 0.020990734118835345
712.0, 0.020578226550880072
713.0, 0.020937895558437062
714.0, 0.0199593832656154
715.0, 0.018854650837952337
716.0, 0.019219640654689122
717.0, 0.01762389139453703
718.0, 0.01756002443807328
719.0, 0.0162623554615392
720.0, 0.015381548550236294
721.0, 0.014767008485129424
722.0, 0.013103174464041275
723.0, 0.010930973241197697
724.0, 0.011567674072386652
725.0, 0.01167965517894887
726.0, 0.011882615123289522
727.0, 0.011632201732135949
728.0, 0.010373634607544103
729.0, 0.009346727806573816
730.0, 0.009901012460282346
731.0, 0.009082465201330787
732.0, 0.00949918264376605
733.0, 0.009433008038015254
734.0, 0.008253507147721906
735.0, 0.0068565132817127875
736.0, 0.005084211940410671
737.0, 0.005543867016205014
738.0, 0.006460571009724298
739.0, 0.0058039100988225645
740.0, 0.005867392353969318
741.0, 0.00708787994723194
742.0, 0.005401322692271979
743.0, 0.0028851852478257666
744.0, 0.002194467349479382
745.0, 0.0033262446619258417
746.0, 0.0030430661564735543
747.0, 0.0016270723359088524
748.0, 0.001534900645193507
749.0, 0.0011684654475747835
750.0, 0.0009414444061833232
751.0, 0.0006344135153602346
752.0, 0.0004085182588846317
753.0, 0.0010251429318996934
754.0, 0.0006796200533869435
755.0, 0.001170889664382879
756.0, 0.0027837707433524413
757.0, 0.003310604924155932
758.0, 0.0021958973052330086
759.0, 0.002756901583583277
760.0, 0.004176146288009533
761.0, 0.003818031859188982
762.0, 0.005159164585275027
763.0, 0.004282797902895723
764.0, 0.005357257319358422
765.0, 0.004799288790349763
766.0, 0.005089038504496458
767.0, 0.010550380042488467
768.0, 0.0022761761689663895
769.0, 0.005017063853781152
770.0, 0.005966664126465413
771.0, 0.00406315890785364
772.0, 0.0047972456192618175
773.0, 0.004649503194090148
774.0, 0.0017660362543374967
775.0, 0.001531787049275331
776.0, 0.0009799194246060002
777.0, 0.00340476621325257
778.0, 0.004291457592300769
779.0, 0.007791440278117199
780.0, 0.013405826230971724
781.0, 0.016889926183577576
782.0, 0.022635130638186608
783.0, 0.02781601314609883
784.0, 0.034730346244436654
785.0, 0.0436076625650335
786.0, 0.05167170651518626
787.0, 0.06044192473196522
788.0, 0.07440653315753155
789.0, 0.08474371599334866
790.0, 0.0971117815829577
791.0, 0.10871357665680004
792.0, 0.12503966738537123
793.0, 0.14232431731663908
794.0, 0.15697699315659605
795.0, 0.17623198561797243
796.0, 0.1885802499452356
797.0, 0.20958267793534863
798.0, 0.2316222948492547
799.0, 0.24957223789704558
800.0, 0.2659268021444207
801.0, 0.28367233747777915
802.0, 0.3009721073112418
803.0, 0.31720391773459006
804.0, 0.337186678638165
805.0, 0.35287087974172304
806.0, 0.3672088353138037
807.0, 0.38227692334105773
808.0, 0.39381516110886255
809.0, 0.403008805066141
810.0, 0.4163384138044122
811.0, 0.42897277233866826
812.0, 0.43870099816249886
813.0, 0.44717668533171606
814.0, 0.4582228369884241
815.0, 0.4725616452975779
816.0, 0.4807420167773375
817.0, 0.4874946247971335
818.0, 0.4970456358784695
819.0, 0.5072740583283969
820.0, 0.5175985333420849
821.0, 0.5289113695048084
822.0, 0.5403325523211965
823.0, 0.5501761753391977
824.0, 0.5533815161218079
825.0, 0.5613112149761168
826.0, 0.5717015572479833
827.0, 0.5816829090176626
828.0, 0.5941948524953878
829.0, 0.6105545516041683
830.0, 0.6214324042135888
831.0, 0.6287627074951632
832.0, 0.6442795466916941
833.0, 0.6628953373155198
834.0, 0.6814636776277174
835.0, 0.7000856475877361
836.0, 0.7187076588672517
837.0, 0.7377361330440828
838.0, 0.7540956732558814
839.0, 0.7726802030290248
840.0, 0.788264236723225
841.0, 0.8015523010791267
842.0, 0.8161663963692385
843.0, 0.8302057568329467
844.0, 0.8339588259164729
845.0, 0.8368293036393908
846.0, 0.8339178063354258
847.0, 0.83231809739182
848.0, 0.8272938628563024
849.0, 0.8187649443763088
850.0, 0.8093420803263319
851.0, 0.7877084042640353
852.0, 0.765314780017217
853.0, 0.7435192938295772
854.0, 0.7173363943969874
855.0, 0.6862235462139937
856.0, 0.6551040392192213
857.0, 0.6254019831870128
858.0, 0.5914530504510224
859.0, 0.5631406244868135
860.0, 0.5336382672646025
861.0, 0.506871663597814
862.0, 0.47974327050382687
863.0, 0.4538159473988657
864.0, 0.43306295957487373
865.0, 0.41437162967506874
866.0, 0.3931206145508279
867.0, 0.3729149129074281
868.0, 0.356418576896952
869.0, 0.34142259366381045
870.0, 0.3257321246622852
871.0, 0.3104360918142053
872.0, 0.2974229914614155
873.0, 0.2832691984436971
874.0, 0.265685384770683
875.0, 0.2535284414652598
876.0, 0.2434127325306212
877.0, 0.22832048184022644
878.0, 0.21387037304206805
879.0, 0.20612158811085474
880.0, 0.1959232802381979
881.0, 0.1861376980128211
882.0, 0.17182966581377312
883.0, 0.16455880213085614
884.0, 0.15578770851435342
885.0, 0.14663575458388814
886.0, 0.14041820628322188
887.0, 0.13128854149012037
888.0, 0.12275216795708939
889.0, 0.11420793384731674
890.0, 0.10808106485666855
891.0, 0.10170572346852019
892.0, 0.09521443057201337
893.0, 0.08893580010770284
894.0, 0.08235409602638719
895.0, 0.07657225637913095
896.0, 0.07226757997929957
897.0, 0.0664300435824719
898.0, 0.061125619387064734
899.0, 0.055010100138854726
900.0, 0.050561097796446366
901.0, 0.04810726844882835
902.0, 0.04313100178426522
903.0, 0.037750213821127476
904.0, 0.033657756208373114
905.0, 0.030194496209710337
906.0, 0.028435544820928815
907.0, 0.024567955479629672
908.0, 0.020328806877030817
909.0, 0.01748897246264551
910.0, 0.011239427894786795
911.0, 0.011484515244569263
912.0, 0.008722410948369057
913.0, 0.006615978245845525
914.0, 0.004597771920425585
915.0, 0.0030623254329148566
916.0, 0.0031154876422876555
917.0, 0.0031083820042970885
918.0, 0.0005635764921186825
919.0, 0.0019450306331213992
920.0, 0.003866656271673707
921.0, 0.0033253535857890046
922.0, 0.0028837780034345114
923.0, 0.003825136666502772
924.0, 0.004354167707174766
925.0, 0.0034625085385309746
926.0, 0.004196352428593125
927.0, 0.004458287373842258
928.0, 0.004370077864132998
929.0, 0.00381268270276589
930.0, 0.004008641466380062
931.0, 0.0047078581758322495
932.0, 0.004717320413795901
933.0, 0.004280227140106106
934.0, 0.004551258006911622
935.0, 0.0036505628278288666
936.0, 0.0012487320911247894
937.0, 0.0010168456737895488
938.0, 0.0010758492973540576
939.0, 0.0006692374709583949
940.0, 0.0012208908120684698
941.0, 0.0023461709789380177
942.0, 0.0015220052442869196
943.0, 0.00034174882122862043
944.0, 0.0008849504845436662
945.0, 0.0017608129247382736
946.0, 0.0011453362230929316
947.0, 0.0009042791121998804
948.0, 0.0015506194731134703
949.0, 6.961265329587875e-05
950.0, 0.00023698944767389107
951.0, 0.0030716081491869306
952.0, 0.003074305418670306
953.0, 0.0032165071697644854
954.0, 0.0033146217387020355
955.0, 0.0035663287482335057
956.0, 0.0035189337293113515
957.0, 0.0015647760394323683
958.0, 0.0015375916326791099
959.0, 0.0013586823680350974
960.0, 0.0016153884832373045
961.0, 0.0026970833534324546
962.0, 0.002253151878190189
963.0, 0.0014504071693457663
964.0, 0.0020674743529665008
965.0, 0.0024694721270944187
966.0, 0.0007282395216556186
967.0, 0.0011104706759707886
968.0, 0.0018792045533239973
969.0, 0.0005549015926779549
970.0, 0.0002975800383473252
971.0, 0.0010839433537980182
972.0, 0.002351996688229799
973.0, 0.0030158031138745886
974.0, 0.005631707356893157
975.0, 0.007026801435122216
976.0, 0.006383220018272499
977.0, 0.008900774699723026
978.0, 0.011982177346877797
979.0, 0.014622824678683755
980.0, 0.019335922795548046
981.0, 0.025984769787414375
982.0, 0.031667289241270005
983.0, 0.04028321438190519
984.0, 0.053037712461831414
985.0, 0.06871271363160354
986.0, 0.08313466877199173
987.0, 0.10497974130535849
988.0, 0.13589261531035032
989.0, 0.16856071513727855
990.0, 0.20204537413948673
991.0, 0.2478848168914778
992.0, 0.2920729131699204
993.0, 0.3409786861145258
994.0, 0.3880274553412941
995.0, 0.42881191734983787
996.0, 0.46075948496650493
997.0, 0.48359075051380174
998.0, 0.4931305811563569
999.0, 0.48275802148786934
1000.0, 0.46057428215111995
1001.0, 0.42242961780272026
1002.0, 0.3811134334167419
1003.0, 0.3302149379668905
1004.0, 0.2754835143773682
1005.0, 0.2251127354906561
1006.0, 0.18077018993281607
1007.0, 0.1421700281874085
1008.0, 0.11200919724353686
1009.0, 0.08797245873767294
1010.0, 0.06871454347861629
1011.0, 0.05507621841164853
1012.0, 0.043656603127427585
1013.0, 0.03486328277929931
1014.0, 0.028519727543376013
1015.0, 0.023233346316353508
1016.0, 0.019134616964585023
1017.0, 0.015646096636163433
1018.0, 0.01164957484022874
1019.0, 0.01008915913452138
1020.0, 0.008916094526217857
1021.0, 0.0070529102037634375
1022.0, 0.004415209738586934
1023.0, 0.0023065453002805336
1024.0, 0.0019222144826599704
1025.0, 0.0020734524395705943
1026.0, 0.0003128238888007395
1027.0, 0.0017162143706486446
1028.0, 0.0007199152930308642
1029.0, 0.004062451797193007
1030.0, 0.006177555640870934
1031.0, 0.005740797745138326
1032.0, 0.005890095703483463
1033.0, 0.0057609331476062495
1034.0, 0.002265884353680109
1035.0, 0.005936400820788155
1036.0, 0.0051463575986907244
1037.0, 0.004574319853877948
1038.0, 0.004362557480177676
1039.0, 0.0028975151657458127
1040.0, 0.0017270344657400061
1041.0, 0.000554816165078053
1042.0, 0.002975095666069318
1043.0, 0.007401870789292081
1044.0, 0.007193778189389139
1045.0, 0.010219466883440064
1046.0, 0.014299667067736914
1047.0, 0.0178586300552416
1048.0, 0.02085434031319503
1049.0, 0.02379589803200485
1050.0, 0.02710067315621049
1051.0, 0.03169893299456202
1052.0, 0.03744583745641192
1053.0, 0.041827001961763755
1054.0, 0.04705017965124307
1055.0, 0.05289119083242568
1056.0, 0.05892557318860659
1057.0, 0.06455743680991474
1058.0, 0.07044369277291458
1059.0, 0.07720042675192554
1060.0, 0.08436856461816288
1061.0, 0.09131451205064009
1062.0, 0.09854104335744295
1063.0, 0.1056071376351432
1064.0, 0.11467908057844263
1065.0, 0.12461037082771631
1066.0, 0.132067251279445
1067.0, 0.14058352060943782
1068.0, 0.14782591151916108
1069.0, 0.15485626125397647
1070.0, 0.16577412450776458
1071.0, 0.176893878803698
1072.0, 0.18390516116318217
1073.0, 0.19405591612521178
1074.0, 0.19875776300761197
1075.0, 0.20578012640993676
1076.0, 0.21639878574204333
1077.0, 0.22285425956394422
1078.0, 0.2257543342777563
1079.0, 0.2314129913987082
1080.0, 0.2374620637190461
1081.0, 0.23906615654376145
1082.0, 0.2430342315322
1083.0, 0.2473332115321773
1084.0, 0.24305235882139906
1085.0, 0.2452401908422024
1086.0, 0.24754340231265984
1087.0, 0.24651766015718674
1088.0, 0.24587069807738227
1089.0, 0.2453963201522089
1090.0, 0.2417228964708196
1091.0, 0.24174261667881672
1092.0, 0.24463888125583433
1093.0, 0.24249544645090187
1094.0, 0.24012342957754812
1095.0, 0.2394677753739801
1096.0, 0.2371853558524555
1097.0, 0.23570409440463988
1098.0, 0.23437898522595707
1099.0, 0.23248301291709436
1100.0, 0.23275473217973963
1101.0, 0.22039286389419938
1102.0, 0.22127631651892968
1103.0, 0.21531481049078274
1104.0, 0.21259545865208482
1105.0, 0.21008816263645946
1106.0, 0.2093117176153256
1107.0, 0.2086645324700854
1108.0, 0.204495910075571
1109.0, 0.19784252967565027
1110.0, 0.19676622245293432
1111.0, 0.18786334969892926
1112.0, 0.17915673367314278
1113.0, 0.17352928544161825
1114.0, 0.16919073334619042
1115.0, 0.16054971210412333
1116.0, 0.15394800619973373
1117.0, 0.14838826036347444
1118.0, 0.14091393262670024
1119.0, 0.13464190563862374
1120.0, 0.13004379630935956
1121.0, 0.1229629744694396
1122.0, 0.11545520384567934
1123.0, 0.11225186185083479
1124.0, 0.1061377527380817
1125.0, 0.100131753020682
1126.0, 0.09689917699013414
1127.0, 0.09226243768682894
1128.0, 0.08655741889476733
1129.0, 0.08344178967081403
1130.0, 0.08160984992295131
1131.0, 0.07868465587814288
1132.0, 0.07815099771259608
1133.0, 0.07709100452581419
1134.0, 0.07852226713266257
1135.0, 0.07745303666941224
1136.0, 0.07848538044754974
1137.0, 0.07801950096591603
1138.0, 0.0780466580357166
1139.0, 0.0799752589626399
1140.0, 0.08174575226660741
1141.0, 0.08365972776950022
1142.0, 0.08375727442710024
1143.0, 0.08323538619623676
1144.0, 0.08377802946375426
1145.0, 0.08659749344144481
1146.0, 0.08845353020343619
1147.0, 0.08860114561907187
1148.0, 0.0888120222001451
1149.0, 0.08826006567758654
1150.0, 0.08806912013521122
1151.0, 0.08849847879816512
1152.0, 0.0862170878938445
1153.0, 0.08642087761392495
1154.0, 0.08345309205343597
1155.0, 0.08155854225099127
1156.0, 0.07904188741760716
1157.0, 0.0768916609302693
1158.0, 0.07535839804497677
1159.0, 0.07420502269734497
1160.0, 0.07119018048910436
1161.0, 0.06719653064426978
1162.0, 0.06395797051745655
1163.0, 0.059722301896760525
1164.0, 0.056582914553102714
1165.0, 0.053984914899498485
1166.0, 0.05390006985268984
1167.0, 0.050832153553317216
1168.0, 0.047063118932165526
1169.0, 0.04292692385062708
1170.0, 0.041468563913572745
1171.0, 0.03933485588964929
1172.0, 0.03568884016842639
1173.0, 0.033623617189562104
1174.0, 0.030748542955035048
1175.0, 0.028348683176234023
1176.0, 0.027664594004247936
1177.0, 0.026777726053251044
1178.0, 0.022997605050629897
1179.0, 0.022314741904504082
1180.0, 0.02016643423401174
1181.0, 0.01842112093221696
1182.0, 0.017220422656566266
1183.0, 0.014914412905591569
1184.0, 0.0131398597342255
1185.0, 0.012553670073658109
1186.0, 0.01022061597630259
1187.0, 0.00873327127482485
1188.0, 0.00713450508230353
1189.0, 0.006223966524017304
1190.0, 0.004965861853784014
1191.0, 0.002587739939129162
1192.0, 0.002241309776443544
1193.0, 0.0009438574685054579
1194.0, 0.00031794932252611946
1195.0, 0.0008531361345303888
1196.0, 0.0017673782269312388
1197.0, 0.0019095722108533786
1198.0, 0.0036670807665651855
1199.0, 0.002694089503312914
1200.0, 0.003923093429168483
1201.0, 0.004187754889538099
1202.0, 0.004105065246913063
1203.0, 0.005051216896780736
1204.0, 0.004120356651959861
1205.0, 0.0034721048905676645
1206.0, 0.003623888641190127
1207.0, 0.0036820350974128106
1208.0, 0.003809173140171819
1209.0, 0.0032474813612825364
1210.0, 0.0022654174707317986
1211.0, 0.002064805417191114
1212.0, 0.002575739131199441
1213.0, 0.002055467217491915
1214.0, 0.0006873672789331426
1215.0, 0.0003270375394986678
1216.0, 0.0008341736129646685
1217.0, 0.0019055016642790061
1218.0, 0.0011136011636979262
1219.0, 0.0009141814746557483
1220.0, 0.0024007974785959017
1221.0, 0.002707988435335268
1222.0, 0.002983812820789681
1223.0, 0.0037469768761869615
1224.0, 0.006166436265851854
1225.0, 0.005335406647153973
1226.0, 0.004661603191605422
1227.0, 0.004264740743508122
1228.0, 0.005813007036229002
1229.0, 0.006852458850015288
1230.0, 0.007545793438675474
1231.0, 0.006925541664215544
1232.0, 0.006225890392395872
1233.0, 0.007741321675815657
1234.0, 0.00833152150017078
1235.0, 0.008574154657646108
1236.0, 0.007944678198887492
1237.0, 0.008534162602611112
1238.0, 0.008486851412257107
1239.0, 0.00910400030499447
1240.0, 0.009245211037981267
1241.0, 0.009009033318510351
1242.0, 0.010396742261489416
1243.0, 0.010256955072687838
1244.0, 0.009769531260539817
1245.0, 0.01092905743547179
1246.0, 0.011089327733538892
1247.0, 0.01095855816707062
1248.0, 0.011922401193454698
1249.0, 0.01184602267063623
1250.0, 0.012571520934314235
1251.0, 0.013177701835029998
1252.0, 0.011016783784213198
1253.0, 0.009593716513216326
1254.0, 0.00973819061050726
1255.0, 0.009409377673105212
1256.0, 0.007032926195217213
1257.0, 0.005645915125131005
1258.0, 0.004995680322542543
1259.0, 0.004264818037538693
1260.0, 0.005126671113774485
1261.0, 0.0038461047056265393
1262.0, 0.004023330719797329
1263.0, 0.004314737178503002
1264.0, 0.004439780580952214
1265.0, 0.0036729371212728193
1266.0, 0.0043635426960005885
1267.0, 0.004288188844663645
1268.0, 0.004385405294985735
1269.0, 0.0051866917740906885
1270.0, 0.004734900553176028
1271.0, 0.004010455826352848
1272.0, 0.003961133847508988
1273.0, 0.0035348580871788935
1274.0, 0.0034175529721218504
1275.0, 0.0038618192832422502
1276.0, 0.002819142381127346
1277.0, 0.0022953306144912118
1278.0, 0.0024746662541812957
1279.0, 0.002979225380695527
1280.0, 0.0024862624124527013
1281.0, 0.0022742088760926526
1282.0, 0.003110314070562408
1283.0, 0.001851744124281976
1284.0, 0.002395242849930513
1285.0, 0.0035603407766948564
1286.0, 0.0024423372451167105
1287.0, 0.002278052426822378
1288.0, 0.0025690809982605234
1289.0, 0.0013167695602415786
1290.0, 0.00213939321722678
1291.0, 0.001691960105587978
1292.0, 0.0014510350361845027
1293.0, 0.0014423463381465589
1294.0, 0.0017507055372935636
1295.0, 0.0025327470867965956
1296.0, 0.0015956985643138955
1297.0, 0.00269756267147429
1298.0, 0.00147338144096696
1299.0, 0.00011313646682787996
1300.0, 0.0010682071060979877
1301.0, 0.0010253390264177713
1302, 0.0
1303, 0.0
1304, 0.0
1305, 0.0
1306, 0.0
1307, 0.0
1308, 0.0
1309, 0.0
1310, 0.0
1311, 0.0
1312, 0.0
1313, 0.0
1314, 0.0
1315, 0.0
1316, 0.0
1317, 0.0
1318, 0.0
1319, 0.0
1320, 0.0
1321, 0.0
1322, 0.0
1323, 0.0
1324, 0.0
1325, 0.0
1326, 0.0
1327, 0.0
1328, 0.0
1329, 0.0
1330, 0.0
1331, 0.0
1332, 0.0
1333, 0.0
1334, 0.0
1335, 0.0
1336, 0.0
1337, 0.0
1338, 0.0
1339, 0.0
1340, 0.0
1341, 0.0
1342, 0.0
1343, 0.0
1344, 0.0
1345, 0.0
1346, 0.0
1347, 0.0
1348, 0.0
1349, 0.0
1350, 0.0
1351, 0.0
1352, 0.0
1353, 0.0
1354, 0.0
1355, 0.0
1356, 0.0
1357, 0.0
1358, 0.0
1359, 0.0
1360, 0.0
1361, 0.0
1362, 0.0
1363, 0.0
1364, 0.0
1365, 0.0
1366, 0.0
1367, 0.0
1368, 0.0
1369, 0.0
1370, 0.0
1371, 0.0
1372, 0.0
1373, 0.0
1374, 0.0
1375, 0.0
1376, 0.0
1377, 0.0
1378, 0.0
1379, 0.0
1380, 0.0
1381, 0.0
1382, 0.0
1383, 0.0
1384, 0.0
1385, 0.0
1386, 0.0
1387, 0.0
1388, 0.0
1389, 0.0
1390, 0.0
1391, 0.0
1392, 0.0
1393, 0.0
1394, 0.0
1395, 0.0
1396, 0.0
1397, 0.0
1398, 0.0
1399, 0.0
1400, 0.0
1401, 0.0
1402, 0.0
1403, 0.0
1404, 0.0
1405, 0.0
1406, 0.0
1407, 0.0
1408, 0.0
1409, 0.0
1410, 0.0
1411, 0.0
1412, 0.0
1413, 0.0
1414, 0.0
1415, 0.0
1416, 0.0
1417, 0.0
1418, 0.0
1419, 0.0
1420, 0.0
1421, 0.0
1422, 0.0
1423, 0.0
1424, 0.0
1425, 0.0
1426, 0.0
1427, 0.0
1428, 0.0
1429, 0.0
1430, 0.0
1431, 0.0
1432, 0.0
1433, 0.0
1434, 0.0
1435, 0.0
1436, 0.0
1437, 0.0
1438, 0.0
1439, 0.0
1440, 0.0
1441, 0.0
1442, 0.0
1443, 0.0
1444, 0.0
1445, 0.0
1446, 0.0
1447, 0.0
1448, 0.0
1449, 0.0
1450, 0.0
1451, 0.0
1452, 0.0
1453, 0.0
1454, 0.0
1455, 0.0
1456, 0.0
1457, 0.0
1458, 0.0
1459, 0.0
1460, 0.0
1461, 0.0
1462, 0.0
1463, 0.0
1464, 0.0
1465, 0.0
1466, 0.0
1467, 0.0
1468, 0.0
1469, 0.0
1470, 0.0
1471, 0.0
1472, 0.0
1473, 0.0
1474, 0.0
1475, 0.0
1476, 0.0
1477, 0.0
1478, 0.0
1479, 0.0
1480, 0.0
1481, 0.0
1482, 0.0
1483, 0.0
1484, 0.0
1485, 0.0
1486, 0.0
1487, 0.0
1488, 0.0
1489, 0.0
1490, 0.0
1491, 0.0
1492, 0.0
1493, 0.0
1494, 0.0
1495, 0.0
1496, 0.0
1497, 0.0
1498, 0.0
1499, 0.0
1500, 0.0
1501, 0.0
1502, 0.0
1503, 0.0
1504, 0.0
1505, 0.0
1506, 0.0
1507, 0.0
1508, 0.0
1509, 0.0
1510, 0.0
1511, 0.0
1512, 0.0
1513, 0.0
1514, 0.0
1515, 0.0
1516, 0.0
1517, 0.0
1518, 0.0
1519, 0.0
1520, 0.0
1521, 0.0
1522, 0.0
1523, 0.0
1524, 0.0
1525, 0.0
1526, 0.0
1527, 0.0
1528, 0.0
1529, 0.0
1530, 0.0
1531, 0.0
1532, 0.0
1533, 0.0
1534, 0.0
1535, 0.0
1536, 0.0
1537, 0.0
1538, 0.0
1539, 0.0
1540, 0.0
1541, 0.0
1542, 0.0
1543, 0.0
1544, 0.0
1545, 0.0
1546, 0.0
1547, 0.0
1548, 0.0
1549, 0.0
1550, 0.0
1551, 0.0
1552, 0.0
1553, 0.0
1554, 0.0
1555, 0.0
1556, 0.0
1557, 0.0
1558, 0.0
1559, 0.0
1560, 0.0
1561, 0.0
1562, 0.0
1563, 0.0
1564, 0.0
1565, 0.0
1566, 0.0
1567, 0.0
1568, 0.0
1569, 0.0
1570, 0.0
1571, 0.0
1572, 0.0
1573, 0.0
1574, 0.0
1575, 0.0
1576, 0.0
1577, 0.0
1578, 0.0
1579, 0.0
1580, 0.0
1581, 0.0
1582, 0.0
1583, 0.0
1584, 0.0
1585, 0.0
1586, 0.0
1587, 0.0
1588, 0.0
1589, 0.0
1590, 0.0
1591, 0.0
1592, 0.0
1593, 0.0
1594, 0.0
1595, 0.0
1596, 0.0
1597, 0.0
1598, 0.0
1599, 0.0
