30, 0.0
31, 0.0
32, 0.0
33, 0.0
34, 0.0
35, 0.0
36, 0.0
37, 0.0
38, 0.0
39, 0.0
40, 0.0
41, 0.0
42, 0.0
43, 0.0
44, 0.0
45, 0.0
46, 0.0
47, 0.0
48, 0.0
49, 0.0
50, 0.0
51, 0.0
52, 0.0
53, 0.0
54, 0.0
55, 0.0
56, 0.0
57, 0.0
58, 0.0
59, 0.0
60, 0.0
61, 0.0
62, 0.0
63, 0.0
64, 0.0
65, 0.0
66, 0.0
67, 0.0
68, 0.0
69, 0.0
70, 0.0
71, 0.0
72, 0.0
73, 0.0
74, 0.0
75, 0.0
76, 0.0
77, 0.0
78, 0.0
79, 0.0
80, 0.0
81, 0.0
82, 0.0
83, 0.0
84, 0.0
85, 0.0
86, 0.0
87, 0.0
88, 0.0
89, 0.0
90, 0.0
91, 0.0
92, 0.0
93, 0.0
94, 0.0
95, 0.0
96, 0.0
97, 0.0
98, 0.0
99, 0.0
100, 0.0
101, 0.0
102, 0.0
103, 0.0
104, 0.0
105, 0.0
106, 0.0
107, 0.0
108, 0.0
109, 0.0
110, 0.0
111, 0.0
112, 0.0
113, 0.0
114, 0.0
115, 0.0
116, 0.0
117, 0.0
118, 0.0
119, 0.0
120, 0.0
121, 0.0
122, 0.0
123, 0.0
124, 0.0
125, 0.0
126, 0.0
127, 0.0
128, 0.0
129, 0.0
130, 0.0
131, 0.0
132, 0.0
133, 0.0
134, 0.0
135, 0.0
136, 0.0
137, 0.0
138, 0.0
139, 0.0
140, 0.0
141, 0.0
142, 0.0
143, 0.0
144, 0.0
145, 0.0
146, 0.0
147, 0.0
148, 0.0
149, 0.0
150, 0.0
151, 0.0
152, 0.0
153, 0.0
154, 0.0
155, 0.0
156, 0.0
157, 0.0
158, 0.0
159, 0.0
160, 0.0
161, 0.0
162, 0.0
163, 0.0
164, 0.0
165, 0.0
166, 0.0
167, 0.0
168, 0.0
169, 0.0
170, 0.0
171, 0.0
172, 0.0
173, 0.0
174, 0.0
175, 0.0
176, 0.0
177, 0.0
178, 0.0
179, 0.0
180, 0.0
181, 0.0
182, 0.0
183, 0.0
184, 0.0
185, 0.0
186, 0.0
187, 0.0
188, 0.0
189, 0.0
190, 0.0
191, 0.0
192, 0.0
193, 0.0
194, 0.0
195, 0.0
196, 0.0
197, 0.0
198, 0.0
199, 0.0
200, 0.0
201, 0.0
202, 0.0
203, 0.0
204, 0.0
205, 0.0
206, 0.0
207, 0.0
208, 0.0
209, 0.0
210, 0.0
211, 0.0
212.0, 0.004746916931507154
213.0, 0.01997210848275788
214.0, 0.024565064956669297
215.0, 0.014728641531039028
216.0, 0.023130156097636804
217.0, 0.01634886572358844
218.0, 0.021656016432032146
219.0, 0.03809746080939916
220.0, 0.03493902233620955
221.0, 0.055164446611757276
222.0, 0.035343447404809415
223.0, 0.006511155974125365
224.0, 0.0073284540708988336
225.0, 0.0049856713433279135
226.0, 0.007624808200742378
227.0, 0.012817341245310272
228.0, 0.004483666762425277
229.0, 0.006144258476783958
230.0, 0.0026333387554527622
231.0, 0.01646897678748363
232.0, 0.022608148333977625
233.0, 0.0051408951809653715
234.0, 0.017691493258849035
235.0, 0.034301788707338646
236.0, 0.03273591526027681
237.0, 0.016645899507760898
238.0, 0.00716205700693599
239.0, 0.01463453918141806
240.0, 0.02707868179415024
241.0, 0.028169498587974805
242.0, 0.016614055106788865
243.0, 0.028018329751611313
244.0, 0.03494051127034208
245.0, 0.035209630145501866
246.0, 0.0302939354750053
247.0, 0.02292255325956886
248.0, 0.029404301381664368
249.0, 0.04273639418801693
250.0, 0.0488622479452563
251.0, 0.04347460236661411
252.0, 0.041805271603478446
253.0, 0.039780594641848105
254.0, 0.033807182508489055
255.0, 0.02571943504258759
256.0, 0.019669312808022674
257.0, 0.012231567080190808
258.0, 0.010638390331315273
259.0, 0.008549229748009507
260.0, 0.004637476143223017
261.0, 0.010995682527257643
262.0, 0.010549789242820027
263.0, 0.005079555789888961
264.0, 0.002027601367330272
265.0, 0.006638178008000823
266.0, 0.002612101968443357
267.0, 0.000515815182810327
268.0, 0.0049250418872646305
269.0, 0.0026922732192833825
270.0, 0.01130243688946547
271.0, 0.004743288402075641
272.0, 0.0018701912397398337
273.0, 0.005908544912279607
274.0, 0.00847946344900499
275.0, 0.008023313038027788
276.0, 0.013908059189459346
277.0, 0.009075502161615755
278.0, 0.003801180659977393
279.0, 0.022202526615391283
280.0, 0.014103431263572011
281.0, 0.005938045889397355
282.0, 0.006708104957134623
283.0, 0.015764562755177604
284.0, 0.027157077624441278
285.0, 0.023155025027379136
286.0, 0.022806942325189303
287.0, 0.02390708088994494
288.0, 0.01408820698754262
289.0, 0.00156276238218788
290.0, 0.013527033900981481
291.0, 0.022824500162192788
292.0, 0.017382094232387117
293.0, 0.012444469316572893
294.0, 0.029198668564837577
295.0, 0.02988459387888318
296.0, 0.025348065107349604
297.0, 0.03144200012471245
298.0, 0.04169979452799931
299.0, 0.05776664532978273
300.0, 0.052495846073809825
301.0, 0.043056894174678055
302.0, 0.054294780878672864
303.0, 0.06240422872839392
304.0, 0.08237951301455985
305.0, 0.09087869765455377
306.0, 0.09027520281720428
307.0, 0.103610858613875
308.0, 0.11156798436859079
309.0, 0.11697221705272133
310.0, 0.1210991049522512
311.0, 0.1249187012728008
312.0, 0.13072592080395612
313.0, 0.1413630643245115
314.0, 0.1480513397505754
315.0, 0.1572439869557011
316.0, 0.1736640014857116
317.0, 0.18440795510650335
318.0, 0.18574272866952257
319.0, 0.18777660540533067
320.0, 0.19300378594619727
321.0, 0.19781089979138283
322.0, 0.20260162982941707
323.0, 0.20425832999881222
324.0, 0.19604892751935651
325.0, 0.1888786410627864
326.0, 0.20031742923570997
327.0, 0.17556688507025486
328.0, 0.1657328982696605
329.0, 0.1685937221958405
330.0, 0.16815838463341923
331.0, 0.1635781371756674
332.0, 0.1382915695572634
333.0, 0.11678538593300052
334.0, 0.10968601360082977
335.0, 0.11394715868121108
336.0, 0.10813964361457307
337.0, 0.11107409047861819
338.0, 0.10106368707542018
339.0, 0.08459118449193435
340.0, 0.08344781431229763
341.0, 0.08500384359357714
342.0, 0.08028339353853668
343.0, 0.07385627110685425
344.0, 0.06121038759970171
345.0, 0.038005825912236835
346.0, 0.0495148955539886
347.0, 0.044387027170319254
348.0, 0.03377682640865393
349.0, 0.03139342140586182
350.0, 0.029925601213154948
351.0, 0.021401132203848698
352.0, 0.024467142472229808
353.0, 0.029520980488791503
354.0, 0.02443054285719222
355.0, 0.015688562416411717
356.0, 0.016048589912164353
357.0, 0.018861200328752662
358.0, 0.015461059729677542
359.0, 0.004914154846323997
360.0, 0.00522092440688288
361.0, 0.005773516756238527
362.0, 0.0022378174690977437
363.0, 0.008467426158105414
364.0, 0.006425100529882095
365.0, 0.005478056262917721
366.0, 0.004335382015788986
367.0, 0.006477782988515849
368.0, 0.0019147390705153867
369.0, 0.004837816947187713
370.0, 0.0028071873541816892
371.0, 0.012123968204141461
372.0, 0.009825670025299897
373.0, 0.0013153203385912865
374.0, 0.001108612961499555
375.0, 0.005146365724818148
376.0, 0.0043812024980513144
377.0, 0.0049964114897757764
378.0, 0.006952943407427485
379.0, 0.0037061666631520674
380.0, 0.005362640898824607
381.0, 0.008480908269801347
382.0, 0.007199696988052414
383.0, 0.005822302874394955
384.0, 0.00239522040831849
385.0, 0.0007757073831335982
386.0, 0.008843646067429737
387.0, 0.0029936781857087865
388.0, 0.015676447042266756
389.0, 0.01828241146883549
390.0, 0.019225484136460316
391.0, 0.028158036393149333
392.0, 0.030779089435514304
393.0, 0.019746067198139317
394.0, 0.00824725247620252
395.0, 0.0285806531889863
396.0, 0.039828248940384205
397.0, 0.05031677892072604
398.0, 0.06310601759269036
399.0, 0.062123742955371264
400.0, 0.06607325238979507
401.0, 0.07824403889470359
402.0, 0.08711679687547402
403.0, 0.09007048864370645
404.0, 0.09835724677256126
405.0, 0.12456972269548242
406.0, 0.14733771731103512
407.0, 0.15242546706474275
408.0, 0.15069174022205792
409.0, 0.1651761315718047
410.0, 0.16512294579741935
411.0, 0.1829051810645826
412.0, 0.19731247249688083
413.0, 0.19869435424457618
414.0, 0.20322241715212802
415.0, 0.17049194206937351
416.0, 0.16327506249904025
417.0, 0.16059793726655805
418.0, 0.14340123353317175
419.0, 0.12253692687401457
420.0, 0.0973507969312823
421.0, 0.10173977345125466
422.0, 0.09745065206373911
423.0, 0.08179301330218985
424.0, 0.08548460702721239
425.0, 0.05661060990284707
426.0, 0.03960395412124766
427.0, 0.03684893963846454
428.0, 0.03407473395958858
429.0, 0.019392760973323625
430.0, 0.031029851928458172
431.0, 0.030234964799149316
432.0, 0.01058817970209204
433.0, 0.00395084676862998
434.0, 0.01961492668396471
435.0, 0.02963327956435469
436.0, 0.029733711965920073
437.0, 0.026440238556775596
438.0, 0.02882919375708894
439.0, 0.04257435278060026
440.0, 0.05674654895079155
441.0, 0.040588500345947576
442.0, 0.04279508392162425
443.0, 0.06364326041894001
444.0, 0.07410943982266095
445.0, 0.06265593267654884
446.0, 0.07693745858289085
447.0, 0.09978709057268002
448.0, 0.1093584369256327
449.0, 0.10519795368724112
450.0, 0.11553218995027249
451.0, 0.13184317208741722
452.0, 0.14229524699600615
453.0, 0.15859174734703066
454.0, 0.1809431323143299
455.0, 0.18159254060542482
456.0, 0.18659068663426115
457.0, 0.19692690540270275
458.0, 0.20809991530170105
459.0, 0.2204770361260343
460.0, 0.2427619320844701
461.0, 0.28461427434383496
462.0, 0.29754294298987244
463.0, 0.3115272487660533
464.0, 0.3379946133833386
465.0, 0.35573062572940173
466.0, 0.37011969472109196
467.0, 0.3935188247054878
468.0, 0.42274310868236165
469.0, 0.44993431292730257
470.0, 0.4702165851256348
471.0, 0.4995080103338739
472.0, 0.5367781872815955
473.0, 0.57158850891242
474.0, 0.5992962007258575
475.0, 0.6259017577195994
476.0, 0.6603510166899685
477.0, 0.6774198066358682
478.0, 0.713394030746264
479.0, 0.7529354794231616
480.0, 0.7741570345564724
481.0, 0.7876695084561335
482.0, 0.8251639311528438
483.0, 0.8522658884548343
484.0, 0.8829012864891765
485.0, 0.9179727911578467
486.0, 0.9393857565080883
487.0, 0.9510827689226361
488.0, 0.9858056918688973
489.0, 0.9905817879803298
490.0, 0.9795004512322166
491.0, 0.9930578005096954
492.0, 0.980734478092604
493.0, 0.9858423895905414
494.0, 0.9922269919132634
495.0, 0.9784600052648021
496.0, 0.9446072821323782
497.0, 0.9150807011311178
498.0, 0.8762367582579126
499.0, 0.8341484893441683
500.0, 0.7985739642209218
501.0, 0.7650440419758986
502.0, 0.7224418361699635
503.0, 0.6776713619721284
504.0, 0.6342461795419957
505.0, 0.5970264552866135
506.0, 0.5520189815624333
507.0, 0.49447071279522303
508.0, 0.4694779686917662
509.0, 0.4104408036066905
510.0, 0.3728537660445047
511.0, 0.3427705613971441
512.0, 0.30263094115453787
513.0, 0.27415593986934944
514.0, 0.23190087281062002
515.0, 0.21455394132799366
516.0, 0.19387745208506232
517.0, 0.1616954371962915
518.0, 0.14544138272989787
519.0, 0.14912016762451624
520.0, 0.13373480752396216
521.0, 0.11825095870536968
522.0, 0.1020935558356579
523.0, 0.08264024650381331
524.0, 0.08172745911307182
525.0, 0.06118845532161021
526.0, 0.06261000469379437
527.0, 0.07164333390152959
528.0, 0.06931673736693499
529.0, 0.06073111006956543
530.0, 0.04556395934842985
531.0, 0.03765144253381842
532.0, 0.029776147295656512
533.0, 0.024063485732611592
534.0, 0.024228244215442934
535.0, 0.02178336820937821
536.0, 0.012917636237545587
537.0, 0.01695334524022724
538.0, 0.01723529417077837
539.0, 0.005576994863379012
540.0, 0.0033440733558392725
541.0, 0.009944555545609012
542.0, 0.007721551766961047
543.0, 0.013536033413355353
544.0, 0.025614770844680248
545.0, 0.005693198314606289
546.0, 0.014131638642310443
547.0, 0.005242878547914519
548.0, 0.0009391377213221022
549.0, 0.0011598402248834006
550.0, 0.0044754799761381305
551.0, 0.0010326381673977693
552.0, 0.0038189174045291613
553.0, 0.008995213814187025
554.0, 0.00839804259343464
555.0, 0.002465896139088323
556.0, 0.002519274749217778
557.0, 0.01042720695193459
558.0, 0.0027599641382212133
559.0, 0.01641750999559069
560.0, 0.01620783105877266
561.0, 0.0029410718478514674
562.0, 0.01626318521848831
563.0, 0.003005083794606388
564.0, 0.00227614744557931
565.0, 0.004313430617721766
566.0, 0.0024258626086775437
567.0, 0.001813421187496536
568.0, 0.00908260977824566
569.0, 0.019873272885248972
570.0, 0.0159487471134135
571.0, 0.01585603418063538
572.0, 0.009684239152616736
573.0, 0.010928389043109082
574.0, 0.004947168054569522
575.0, 0.0008665758971902664
576.0, 0.0030073883509054047
577.0, 0.009305466631884463
578.0, 0.014376021457268644
579.0, 0.005738717564754927
580.0, 0.005391357034472787
581.0, 0.004391212123138807
582.0, 0.007280147525145287
583.0, 0.015578986012796791
584.0, 0.01799508582796505
585.0, 0.0069022472505220825
586.0, 0.020296598093099805
587.0, 0.023376234098396547
588.0, 0.023386555902439442
589.0, 0.024435370676996696
590.0, 0.021748782814717704
591.0, 0.019522212668335225
592.0, 0.04050193593813259
593.0, 0.030410260094713894
594.0, 0.021595551947050453
595.0, 0.02644248664326496
596.0, 0.018640053127449457
597.0, 0.023178142112397087
598.0, 0.022462686917695682
599.0, 0.028289165945838416
600.0, 0.03190297325225225
601.0, 0.028165711710595055
602.0, 0.02727329828306818
603.0, 0.03399350934947265
604.0, 0.029913934576467117
605.0, 0.021689995667866
606.0, 0.02268063249536563
607.0, 0.033621152573066616
608.0, 0.03438066831585213
609.0, 0.022761905963145854
610.0, 0.019230166275927694
611.0, 0.011626318101156793
612.0, 0.015291875909158158
613.0, 0.044133455549481726
614.0, 0.07068753325394757
615.0, 0.0520830424780179
616.0, 0.02913873125412958
617.0, 0.021193851817129652
618.0, 0.026398263658656995
619.0, 0.027637383589420316
620.0, 0.01692888795169977
621.0, 0.02522503704513739
622.0, 0.03909897301121878
623.0, 0.02986967382766582
624.0, 0.010187976551407957
625.0, 0.01177272780224936
626.0, 0.01854899240548925
627.0, 0.03545015075683758
628.0, 0.029072705567087364
629.0, 0.02080201759456536
630.0, 0.021204254565047667
631.0, 0.014626825438305804
632.0, 0.026517605844667214
633.0, 0.01621882648099727
634.0, 0.018551579230743544
635.0, 0.027512808613101066
636.0, 0.027887927591337663
637.0, 0.02446163192259248
638.0, 0.024272581577250124
639.0, 0.027117107790309094
640.0, 0.01638130050392032
641.0, 0.017320889222772667
642.0, 0.028928009196475556
643.0, 0.018087170197916006
644.0, 0.025410881225426736
645.0, 0.035530833583205454
646.0, 0.033947728678234625
647.0, 0.03029877897286019
648.0, 0.035199724870848846
649.0, 0.04365628791499982
650.0, 0.04039860774927322
651.0, 0.02436229302735292
652.0, 0.03553961656982931
653.0, 0.04623031609760768
654.0, 0.04011287486118168
655.0, 0.04277442666379151
656.0, 0.030104269503553088
657.0, 0.036768328766931396
658.0, 0.03396883912322856
659.0, 0.022608586739451604
660.0, 0.021107790894245873
661.0, 0.03665194957461403
662.0, 0.030229946146534625
663.0, 0.02323581294900153
664.0, 0.012484331557427949
665.0, 0.006875724827407746
666.0, 0.012410033653167065
667.0, 0.020233232890788194
668.0, 0.023189900957297716
669.0, 0.023820955260726837
670.0, 0.020587453401568732
671.0, 0.013832999850381545
672.0, 0.007860003794147207
673.0, 0.007600035013659312
674.0, 0.007123029733483242
675.0, 0.00924168289656077
676.0, 0.00479060328611826
677.0, 0.00809726910733866
678.0, 0.01472323262668197
679.0, 0.02561865483479792
680.0, 0.015913138607002025
681.0, 0.02485248045625551
682.0, 0.019404167640663484
683.0, 0.010369943434749644
684.0, 0.018809029223851685
685.0, 0.03319979152719017
686.0, 0.008214407738227566
687.0, 0.019349058130042222
688.0, 0.022585214480116748
689.0, 0.024943037576095586
690.0, 0.022048200473825347
691.0, 0.0105026690671495
692.0, 0.012494853401106268
693.0, 0.030078967314553517
694.0, 0.015086237393094554
695.0, 0.00699354081613341
696.0, 0.012249810668736733
697.0, 0.0200711784142673
698.0, 0.03083608757130173
699.0, 0.01523665529022195
700.0, 0.01682500713790873
701.0, 0.008918573935119908
702.0, 0.008891503603638476
703.0, 0.01415556710239618
704.0, 0.004644664975824377
705.0, 0.014171073480432412
706.0, 0.004084520190635331
707.0, 0.0033959005227587316
708.0, 0.015249033382538024
709.0, 0.02322660468585673
710.0, 0.0164441099100513
711.0, 0.006923202368969149
712.0, 0.018411480864211325
713.0, 0.02617885583941759
714.0, 0.013093230268026893
715.0, 0.0031261553846902803
716.0, 0.010530775234144085
717.0, 0.011144887949814886
718.0, 0.005614831895154365
719.0, 0.005018360706385909
720.0, 0.006231778753008845
721.0, 0.00957015793898216
722.0, 0.0041264387046873975
723.0, 0.014949384941004068
724.0, 0.007854598107228378
725.0, 0.016726200174870125
726.0, 0.022005553955311296
727.0, 0.02198791868937595
728.0, 0.02269747967993975
729.0, 0.021206549844607032
730.0, 0.008087951725517767
731.0, 0.007458598337795319
732.0, 0.010137857010735855
733.0, 0.0071350669598092276
734.0, 0.011943479528838027
735.0, 0.019356972051256905
736.0, 0.014172257573602057
737.0, 0.01823212560601746
738.0, 0.0008300618815704436
739.0, 0.000595454694384387
740.0, 0.007339405976048421
741.0, 0.005005145484862791
742.0, 0.005229810146588845
743.0, 0.001347226783821849
744.0, 0.0004568145362070728
745.0, 0.0012110370854056729
746.0, 0.008666805526595382
747.0, 0.020875921628968157
748.0, 0.021504433934470036
749.0, 0.007717360168947122
750.0, 0.026427041894087906
751.0, 0.03146771532867481
752.0, 0.025549037400300838
753.0, 0.019425578000899005
754.0, 0.020550079731472725
755.0, 0.027636327633614875
756.0, 0.03211282636568015
757.0, 0.03285435656070083
758.0, 0.03841799921604832
759.0, 0.020081639224840915
760.0, 0.02417677391503838
761.0, 0.037042630273269234
762.0, 0.0272533301522716
763.0, 0.04952236597169942
764.0, 0.05024878811460846
765.0, 0.030534755471716094
766.0, 0.037533789968623305
767.0, 0.04530427198431582
768.0, 0.03809685912874796
769.0, 0.04334531167267416
770.0, 0.05070366157844325
771.0, 0.032902374522435225
772.0, 0.026605524496489428
773.0, 0.036495395946473164
774.0, 0.041341361031380745
775.0, 0.03557185820934659
776.0, 0.03276868647444794
777.0, 0.025227146480356226
778.0, 0.029035740998373045
779.0, 0.031092591296870153
780.0, 0.029918127387336815
781.0, 0.02616214700619744
782.0, 0.024149266806454912
783.0, 0.029717178593900745
784.0, 0.030439959178002858
785.0, 0.029496621829059204
786.0, 0.0229531271681984
787.0, 0.02282721608204082
788.0, 0.02485208248775061
789.0, 0.017294534069471075
790.0, 0.012636255853581645
791.0, 0.018977919170951773
792.0, 0.00949613173456544
793.0, 0.019914847859017572
794.0, 0.024212314035440958
795.0, 0.011950460452305953
796.0, 0.014117617230648534
797.0, 0.021772463630896174
798.0, 0.016179898802146313
799.0, 0.0215616664294881
800.0, 0.014491178266769314
801.0, 0.0027195306844002027
802.0, 0.0017953643872536682
803.0, 0.004219270713572891
804.0, 0.0014933240469141747
805.0, 0.00760676586410692
806.0, 0.015990965499077484
807.0, 0.01961400245730422
808.0, 0.024679343897435802
809.0, 0.026611396669876445
810.0, 0.013571837236753278
811.0, 0.01063772426820378
812.0, 0.002668892579447663
813.0, 0.0039238897328728786
814.0, 0.002190292081474322
815.0, 0.0038084006821790463
816.0, 0.01027910245827687
817.0, 0.009426512424210552
818.0, 0.0060929741608209895
819.0, 0.002691676212354712
820.0, 0.009096858356225567
821.0, 0.017245732391939172
822.0, 0.015901404055727333
823.0, 0.015385985962662455
824.0, 0.015181024271003351
825.0, 0.0017948729923083055
826.0, 0.0041017527508633925
827.0, 0.01705207307600779
828.0, 0.01684141081891141
829.0, 0.020229973976534844
830.0, 0.02185462240804132
831.0, 0.005161282143081698
832.0, 0.018648462461654643
833.0, 0.022976874719713
834.0, 0.006665112232850474
835.0, 0.013918747511715249
836.0, 0.01545752991183438
837.0, 0.0036460691377441577
838.0, 0.0072450006313164615
839.0, 0.007969515119849382
840.0, 0.01681336554460731
841.0, 0.023866208022460207
842.0, 0.02305546928614207
843.0, 0.012624684708938919
844.0, 0.008258044551023993
845.0, 0.019614462267526906
846.0, 0.026934203512157938
847.0, 0.02595691765921702
848.0, 0.014822516503776298
849.0, 0.01264217351981485
850.0, 0.015634025859713643
851.0, 0.01255403916765926
852.0, 0.00731362639329522
853.0, 0.013142301980173866
854.0, 0.018012524277224332
855.0, 0.01710642422009159
856.0, 0.02821853938632196
857.0, 0.022248637714192603
858.0, 0.022829324840362604
859.0, 0.029083852850947008
860.0, 0.01087948155508687
861.0, 0.014226596283100587
862.0, 0.01173033686829792
863.0, 0.025538454225533105
864.0, 0.0292702795258368
865.0, 0.025402639400986183
866.0, 0.01996240125463966
867.0, 0.014217968996916302
868.0, 0.0170533416230266
869.0, 0.020438093763759223
870.0, 0.01885104553416388
871.0, 0.018038448848681117
872.0, 0.028897257677380495
873.0, 0.028643849961481484
874.0, 0.01747826374693566
875.0, 0.02548318136954646
876.0, 0.013445820556626775
877.0, 0.022439387280945442
878.0, 0.03135254189012724
879.0, 0.019466101905453604
880.0, 0.008357222721506557
881.0, 0.008821384416765788
882.0, 0.009585280102048989
883.0, 0.011743754577693461
884.0, 0.019795775643049636
885.0, 0.03080419198329767
886.0, 0.026532234998454345
887.0, 0.02402426550549793
888.0, 0.023311388679467252
889.0, 0.02229178581043575
890.0, 0.025782197065022973
891.0, 0.014051576138151535
892.0, 0.023862483986202315
893.0, 0.023407910204313397
894.0, 0.02100679334056017
895.0, 0.02533516799672169
896.0, 0.020839086986505852
897.0, 0.015137039365306682
898.0, 0.03409307088364778
899.0, 0.011369356173725557
900.0, 0.012187054985722137
901.0, 0.023468953547470247
902.0, 0.025575949832618235
903.0, 0.01947532730671632
904.0, 0.018392185481274217
905.0, 0.019950016070482152
906.0, 0.009021388650555523
907.0, 0.025709012282538694
908.0, 0.02845054712706688
909.0, 0.021376021533858324
910.0, 0.02876344129121725
911.0, 0.03591676837680401
912.0, 0.03357673879940966
913.0, 0.03011027598113371
914.0, 0.012846588683272202
915.0, 0.0068692738856864525
916.0, 0.01904868646392313
917.0, 0.011157035665586498
918.0, 0.017675969657159982
919.0, 0.0201645590721827
920.0, 0.006636050315147318
921.0, 0.014344797979812982
922.0, 0.011153279784636459
923.0, 0.010773214780631889
924.0, 0.015034993449526468
925.0, 0.015692407238567595
926.0, 0.019713983797583226
927.0, 0.026806982077568417
928.0, 0.02854978400878331
929.0, 0.023094355364716577
930.0, 0.023509411926896772
931.0, 0.026203630003524013
932.0, 0.024908496605107775
933.0, 0.047721351984245354
934.0, 0.03225495017666774
935.0, 0.0015679469682549115
936.0, 0.005369138440060453
937.0, 0.012748005526933526
938.0, 0.002716277960768885
939.0, 0.009299251116966584
940.0, 0.0025434383355852613
941.0, 0.00584330425215433
942.0, 0.00785810517414605
943.0, 0.0029305041254796957
944.0, 0.0006030617767931315
945.0, 0.004663255883336941
946.0, 0.018072023120756984
947.0, 0.0066254988886569905
948.0, 0.006028889667285207
949.0, 0.001988943433993775
950.0, 0.0030995585051785393
951.0, 0.004852723433527567
952.0, 0.012409833049324229
953.0, 0.007652707676855518
954.0, 0.0033840020791106058
955.0, 0.00324935835447854
956.0, 0.006420131527416575
957.0, 0.0064703472533244
958.0, 0.011516942609869206
959.0, 0.012097239634254492
960.0, 0.009210231494434647
961.0, 0.014352297177594982
962.0, 0.0092187172473323
963.0, 0.001762331866597229
964.0, 0.017271961792808637
965.0, 0.012511891492645671
966.0, 0.007146483041540005
967.0, 0.007222585194953533
968.0, 0.015783948827206833
969.0, 0.027723899937800365
970.0, 0.023337240939337582
971.0, 0.017174437958449282
972.0, 0.020254839124524325
973.0, 0.011027028163497245
974.0, 0.022130464887393578
975.0, 0.03149094071727691
976.0, 0.02728883259551432
977.0, 0.014824704030662736
978.0, 0.007414685833194878
979.0, 0.031110506744021063
980.0, 0.033255800480126906
981.0, 0.02787091919512642
982.0, 0.020828644787064286
983.0, 0.025368692412558517
984.0, 0.03187405067568088
985.0, 0.019955367018832208
986.0, 0.012352164171303224
987.0, 0.04071582473014635
988.0, 0.03572477715393227
989.0, 0.04069849274476633
990.0, 0.04408201708003134
991.0, 0.04911092303092432
992.0, 0.03264850930045983
993.0, 0.02848312129137939
994.0, 0.04137986064492031
995.0, 0.03821935698460978
996.0, 0.036913339002996745
997.0, 0.034994805429828274
998.0, 0.028112534586233924
999.0, 0.023803679171666675
1000.0, 0.031456250240379735
1001.0, 0.02950907335399571
1002.0, 0.026214793543931022
1003.0, 0.031277047254358675
1004.0, 0.02834722266016405
1005.0, 0.02600361236701897
1006.0, 0.03302836531420051
1007.0, 0.015252271126929926
1008.0, 0.01972732335145472
1009.0, 0.03342593919515875
1010.0, 0.03585542547760133
1011.0, 0.027083111950478776
1012.0, 0.018967231366505705
1013.0, 0.018596521812837042
1014.0, 0.02013598209734706
1015.0, 0.014339224978171075
1016.0, 0.018101977405620532
1017.0, 0.004190868134340114
1018.0, 0.008409345006718062
1019.0, 0.022592752296433934
1020.0, 0.020530647108618908
1021.0, 0.016902625350879802
1022.0, 0.03236907581054424
1023.0, 0.019064300957148474
1024.0, 0.01884015650360576
1025.0, 0.006305474587584165
1026.0, 0.017777809527636024
1027.0, 0.02597452713745556
1028.0, 0.019012146017213034
1029.0, 0.020044474045378364
1030.0, 0.02607376600113022
1031.0, 0.014788964728758765
1032.0, 0.01323672342451654
1033.0, 0.01974916749563145
1034.0, 0.00923583791968317
1035.0, 0.01776405546609315
1036.0, 0.016087844546604488
1037.0, 0.006935259001393686
1038.0, 0.010054480767506672
1039.0, 0.008669191312671607
1040.0, 0.00915048653135094
1041.0, 0.005618818658600444
1042.0, 0.008930507486097557
1043.0, 0.003007323568534218
1044.0, 0.004202145823458316
1045.0, 0.0037712502772518576
1046.0, 0.0022351541718995498
1047.0, 0.0006513589222624367
1048.0, 0.005173960600731483
1049.0, 0.005620321115355486
1050.0, 0.006162624546543548
1051.0, 0.0020492478433705467
1052.0, 0.013751101221274943
1053.0, 0.012427578068646014
1054.0, 0.0072986346711789085
1055.0, 0.0028178023800481955
1056.0, 0.006518585262007701
1057.0, 0.011709723247735322
1058.0, 0.009751582007436777
1059.0, 0.006206149458449564
1060.0, 0.0008823297761651182
1061.0, 0.006984043775595957
1062.0, 0.0022680110957328256
1063.0, 0.008635063046706703
1064.0, 0.007536866060859536
1065.0, 0.01243105272454169
1066.0, 0.017446904294790025
1067.0, 0.01831420815742643
1068.0, 0.02088097420095679
1069.0, 0.009387440844023603
1070.0, 0.004709147168568566
1071.0, 0.011970573484810143
1072.0, 0.009720649830788339
1073.0, 0.012996088452234765
1074.0, 0.014785321697961963
1075.0, 0.020933879922995488
1076.0, 0.013660506566641131
1077.0, 0.0031369983123242023
1078.0, 0.008530048047795235
1079.0, 0.02723879681483861
1080.0, 0.03192447199989843
1081.0, 0.042179356464793476
1082.0, 0.0390760557941984
1083.0, 0.0380821835151
1084.0, 0.0466906603401256
1085.0, 0.044630974436838805
1086.0, 0.03931349978691068
1087.0, 0.04084048157050338
1088.0, 0.04114655150545389
1089.0, 0.058010783335213534
1090.0, 0.058788413829445545
1091.0, 0.06480651014601765
1092.0, 0.0666809952883693
1093.0, 0.06589341938633422
1094.0, 0.07473890904979535
1095.0, 0.07369740537579884
1096.0, 0.06780594782765247
1097.0, 0.06947811732167225
1098.0, 0.06712159112488733
1099.0, 0.07280114330668883
1100.0, 0.07080016076332224
1101.0, 0.0756591267730775
1102.0, 0.0713032520220422
1103.0, 0.0757563095871363
1104.0, 0.07224479697766849
1105.0, 0.07072002531828353
1106.0, 0.08158847168526491
1107.0, 0.08249661199147057
1108.0, 0.06749673124672702
1109.0, 0.08040622212294747
1110.0, 0.10124766964194708
1111.0, 0.0915459635881499
1112.0, 0.07986896168291355
1113.0, 0.08519634422816855
1114.0, 0.08227945807292492
1115.0, 0.077221841046707
1116.0, 0.07583921903394165
1117.0, 0.07736216021304673
1118.0, 0.08098728691094814
1119.0, 0.08019931694537323
1120.0, 0.0783524323413472
1121.0, 0.06375316597606515
1122.0, 0.08215104592691308
1123.0, 0.07874943862302773
1124.0, 0.07661261634278814
1125.0, 0.07873767490108517
1126.0, 0.07906577824752815
1127.0, 0.07618040007803921
1128.0, 0.07352775805928091
1129.0, 0.07001485240388333
1130.0, 0.05333961540575741
1131.0, 0.060940196315115804
1132.0, 0.05105169001853181
1133.0, 0.06282128245244191
1134.0, 0.06855515235801106
1135.0, 0.06403188669946686
1136.0, 0.05818370354417411
1137.0, 0.05714001391691021
1138.0, 0.05883327439575284
1139.0, 0.0572986610675112
1140.0, 0.05215680480905828
1141.0, 0.049177033693158734
1142.0, 0.05199904682171061
1143.0, 0.04695409635623594
1144.0, 0.04900726349329107
1145.0, 0.05706682185852782
1146.0, 0.05179931715002889
1147.0, 0.04527679490317775
1148.0, 0.04188688016346502
1149.0, 0.04046949800044288
1150.0, 0.04323376328367896
1151.0, 0.04150832401928412
1152.0, 0.03806713370254833
1153.0, 0.044523267826413505
1154.0, 0.047307243239797556
1155.0, 0.03372987361678979
1156.0, 0.029745940763072423
1157.0, 0.03026752588172726
1158.0, 0.038901373883677634
1159.0, 0.040228871957985024
1160.0, 0.028973383671939662
1161.0, 0.024595680389878402
1162.0, 0.026595403485127483
1163.0, 0.018385381568437477
1164.0, 0.019749041298699466
1165.0, 0.028372959364717693
1166.0, 0.03129764610944884
1167.0, 0.030638359385831582
1168.0, 0.024666259211386918
1169.0, 0.025922906835567812
1170.0, 0.025142359490482522
1171.0, 0.02018044947063135
1172.0, 0.01576580716150932
1173.0, 0.010206867402737047
1174.0, 0.0108646775323886
1175.0, 0.01770241736305884
1176.0, 0.007185560282388881
1177.0, 0.01131147698431694
1178.0, 0.017030510075711457
1179.0, 0.005628326055779831
1180.0, 0.0038428424435018663
1181.0, 0.008576184234258152
1182.0, 0.009362674008101765
1183.0, 0.003324973332290699
1184.0, 0.007771985238748657
1185.0, 0.0032602587086764624
1186.0, 0.010269681967826174
1187.0, 0.003665211093737136
1188.0, 0.00912264323101337
1189.0, 0.0056941039741949155
1190.0, 0.012695172401116218
1191.0, 0.007137264691834874
1192.0, 0.006822122384655277
1193.0, 0.009544327892819372
1194.0, 0.006657330027548161
1195.0, 0.005016890687132374
1196.0, 0.0018674824201096992
1197.0, 0.004963392679356273
1198.0, 0.012159182130116845
1199.0, 0.0052081100409563374
1200.0, 0.017457078002782584
1201.0, 0.013888527658517075
1202.0, 0.005228458355542196
1203.0, 0.0007700739571757341
1204.0, 0.00826348586806846
1205.0, 0.011659000898517577
1206.0, 0.013747459089078151
1207.0, 0.015066221803629255
1208.0, 0.017003689633239866
1209.0, 0.03364389318140076
1210.0, 0.04620905797480518
1211.0, 0.008388586594225969
1212.0, 0.001253532940182099
1213.0, 0.015568065274036622
1214.0, 0.024721826242296227
1215.0, 0.01018798239970755
1216.0, 0.012860970314638913
1217.0, 0.01106400626063574
1218.0, 0.003810071980573529
1219.0, 0.011238347912076873
1220.0, 0.013016965022413373
1221.0, 0.00836003320447365
1222.0, 0.022746401357725064
1223.0, 0.021763056272819027
1224.0, 0.019503846402207384
1225.0, 0.025872000694868346
1226.0, 0.011456823219769666
1227.0, 0.016117119033601506
1228.0, 0.02357364291559581
1229.0, 0.025988139332753353
1230.0, 0.015883723901248727
1231.0, 0.014059125186825658
1232.0, 0.018616795908799482
1233.0, 0.01760011506464414
1234.0, 0.013034787131801747
1235.0, 0.0032403194529935066
1236.0, 0.0003022802214491106
1237.0, 0.00953161626174258
1238.0, 0.0029137014337704483
1239.0, 0.0034276139811364997
1240.0, 0.01483150539445353
1241.0, 0.010765643240287039
1242.0, 0.021252754266296126
1243.0, 0.019221357195200565
1244.0, 0.01586463578687091
1245.0, 0.016020676586598902
1246.0, 0.011068404591583281
1247.0, 0.01396415539631709
1248.0, 0.021311061376876737
1249.0, 0.019523799777387503
1250.0, 0.01023149265322525
1251.0, 0.01893634934288575
1252.0, 0.0013505359232685262
1253.0, 0.029027082994450476
1254.0, 0.012474234877264762
1255.0, 0.0037088202842551323
1256.0, 0.008025201910373451
1257.0, 0.026032845340112624
1258.0, 0.025585507739984303
1259.0, 0.02279412508362217
1260.0, 0.029027542851670772
1261.0, 0.022748733473659535
1262.0, 0.009839999666709898
1263.0, 0.022465910395204448
1264.0, 0.020462081372482614
1265.0, 0.02062593213401751
1266.0, 0.030813336402601758
1267.0, 0.009774885026338276
1268.0, 0.007118105691425828
1269.0, 0.02056730024093764
1270.0, 0.021563496632829818
1271.0, 0.013509855595124659
1272.0, 0.010189097841304923
1273.0, 0.01248624094000365
1274.0, 0.011054546479353628
1275.0, 0.011416302912480022
1276.0, 0.024304663833792452
1277.0, 0.0226048804562466
1278.0, 0.0305588038457421
1279.0, 0.013966058010234574
1280.0, 0.0027981246446211277
1281.0, 0.0063437220864411455
1282.0, 0.01851771042361587
1283.0, 0.004216104516076659
1284.0, 0.02070400735005161
1285.0, 0.015299102263664766
1286.0, 0.02249960885128613
1287.0, 0.024100526789015145
1288.0, 0.004880826019811537
1289.0, 0.009098160127580641
1290.0, 0.01279268527874443
1291.0, 0.000846781526910075
1292.0, 0.00994731608880259
1293.0, 0.015646515004380787
1294.0, 0.012033643596415995
1295.0, 0.004846155111622443
1296.0, 0.010932481565856833
1297.0, 0.015926438558086863
1298.0, 0.004977632601895032
1299.0, 0.012398871720574089
1300.0, 0.013581431832930976
1301.0, 0.011747723968968494
1302.0, 0.008654211254863538
1303.0, 0.00012796452475495905
1304, 0.0
1305, 0.0
1306, 0.0
1307, 0.0
1308, 0.0
1309, 0.0
1310, 0.0
1311, 0.0
1312, 0.0
1313, 0.0
1314, 0.0
1315, 0.0
1316, 0.0
1317, 0.0
1318, 0.0
1319, 0.0
1320, 0.0
1321, 0.0
1322, 0.0
1323, 0.0
1324, 0.0
1325, 0.0
1326, 0.0
1327, 0.0
1328, 0.0
1329, 0.0
1330, 0.0
1331, 0.0
1332, 0.0
1333, 0.0
1334, 0.0
1335, 0.0
1336, 0.0
1337, 0.0
1338, 0.0
1339, 0.0
1340, 0.0
1341, 0.0
1342, 0.0
1343, 0.0
1344, 0.0
1345, 0.0
1346, 0.0
1347, 0.0
1348, 0.0
1349, 0.0
1350, 0.0
1351, 0.0
1352, 0.0
1353, 0.0
1354, 0.0
1355, 0.0
1356, 0.0
1357, 0.0
1358, 0.0
1359, 0.0
1360, 0.0
1361, 0.0
1362, 0.0
1363, 0.0
1364, 0.0
1365, 0.0
1366, 0.0
1367, 0.0
1368, 0.0
1369, 0.0
1370, 0.0
1371, 0.0
1372, 0.0
1373, 0.0
1374, 0.0
1375, 0.0
1376, 0.0
1377, 0.0
1378, 0.0
1379, 0.0
1380, 0.0
1381, 0.0
1382, 0.0
1383, 0.0
1384, 0.0
1385, 0.0
1386, 0.0
1387, 0.0
1388, 0.0
1389, 0.0
1390, 0.0
1391, 0.0
1392, 0.0
1393, 0.0
1394, 0.0
1395, 0.0
1396, 0.0
1397, 0.0
1398, 0.0
1399, 0.0
1400, 0.0
1401, 0.0
1402, 0.0
1403, 0.0
1404, 0.0
1405, 0.0
1406, 0.0
1407, 0.0
1408, 0.0
1409, 0.0
1410, 0.0
1411, 0.0
1412, 0.0
1413, 0.0
1414, 0.0
1415, 0.0
1416, 0.0
1417, 0.0
1418, 0.0
1419, 0.0
1420, 0.0
1421, 0.0
1422, 0.0
1423, 0.0
1424, 0.0
1425, 0.0
1426, 0.0
1427, 0.0
1428, 0.0
1429, 0.0
1430, 0.0
1431, 0.0
1432, 0.0
1433, 0.0
1434, 0.0
1435, 0.0
1436, 0.0
1437, 0.0
1438, 0.0
1439, 0.0
1440, 0.0
1441, 0.0
1442, 0.0
1443, 0.0
1444, 0.0
1445, 0.0
1446, 0.0
1447, 0.0
1448, 0.0
1449, 0.0
1450, 0.0
1451, 0.0
1452, 0.0
1453, 0.0
1454, 0.0
1455, 0.0
1456, 0.0
1457, 0.0
1458, 0.0
1459, 0.0
1460, 0.0
1461, 0.0
1462, 0.0
1463, 0.0
1464, 0.0
1465, 0.0
1466, 0.0
1467, 0.0
1468, 0.0
1469, 0.0
1470, 0.0
1471, 0.0
1472, 0.0
1473, 0.0
1474, 0.0
1475, 0.0
1476, 0.0
1477, 0.0
1478, 0.0
1479, 0.0
1480, 0.0
1481, 0.0
1482, 0.0
1483, 0.0
1484, 0.0
1485, 0.0
1486, 0.0
1487, 0.0
1488, 0.0
1489, 0.0
1490, 0.0
1491, 0.0
1492, 0.0
1493, 0.0
1494, 0.0
1495, 0.0
1496, 0.0
1497, 0.0
1498, 0.0
1499, 0.0
1500, 0.0
1501, 0.0
1502, 0.0
1503, 0.0
1504, 0.0
1505, 0.0
1506, 0.0
1507, 0.0
1508, 0.0
1509, 0.0
1510, 0.0
1511, 0.0
1512, 0.0
1513, 0.0
1514, 0.0
1515, 0.0
1516, 0.0
1517, 0.0
1518, 0.0
1519, 0.0
1520, 0.0
1521, 0.0
1522, 0.0
1523, 0.0
1524, 0.0
1525, 0.0
1526, 0.0
1527, 0.0
1528, 0.0
1529, 0.0
1530, 0.0
1531, 0.0
1532, 0.0
1533, 0.0
1534, 0.0
1535, 0.0
1536, 0.0
1537, 0.0
1538, 0.0
1539, 0.0
1540, 0.0
1541, 0.0
1542, 0.0
1543, 0.0
1544, 0.0
1545, 0.0
1546, 0.0
1547, 0.0
1548, 0.0
1549, 0.0
1550, 0.0
1551, 0.0
1552, 0.0
1553, 0.0
1554, 0.0
1555, 0.0
1556, 0.0
1557, 0.0
1558, 0.0
1559, 0.0
1560, 0.0
1561, 0.0
1562, 0.0
1563, 0.0
1564, 0.0
1565, 0.0
1566, 0.0
1567, 0.0
1568, 0.0
1569, 0.0
1570, 0.0
1571, 0.0
1572, 0.0
1573, 0.0
1574, 0.0
1575, 0.0
1576, 0.0
1577, 0.0
1578, 0.0
1579, 0.0
1580, 0.0
1581, 0.0
1582, 0.0
1583, 0.0
1584, 0.0
1585, 0.0
1586, 0.0
1587, 0.0
1588, 0.0
1589, 0.0
1590, 0.0
1591, 0.0
1592, 0.0
1593, 0.0
1594, 0.0
1595, 0.0
1596, 0.0
1597, 0.0
1598, 0.0
1599, 0.0
