30, 0.0
31, 0.0
32, 0.0
33, 0.0
34, 0.0
35, 0.0
36, 0.0
37, 0.0
38, 0.0
39, 0.0
40, 0.0
41, 0.0
42, 0.0
43, 0.0
44, 0.0
45, 0.0
46, 0.0
47, 0.0
48, 0.0
49, 0.0
50, 0.0
51, 0.0
52, 0.0
53, 0.0
54, 0.0
55, 0.0
56, 0.0
57, 0.0
58, 0.0
59, 0.0
60, 0.0
61, 0.0
62, 0.0
63, 0.0
64, 0.0
65, 0.0
66, 0.0
67, 0.0
68, 0.0
69, 0.0
70, 0.0
71, 0.0
72, 0.0
73, 0.0
74, 0.0
75, 0.0
76, 0.0
77, 0.0
78, 0.0
79, 0.0
80, 0.0
81, 0.0
82, 0.0
83, 0.0
84, 0.0
85, 0.0
86, 0.0
87, 0.0
88, 0.0
89, 0.0
90, 0.0
91, 0.0
92, 0.0
93, 0.0
94, 0.0
95, 0.0
96, 0.0
97, 0.0
98, 0.0
99, 0.0
100, 0.0
101, 0.0
102, 0.0
103, 0.0
104, 0.0
105, 0.0
106, 0.0
107, 0.0
108, 0.0
109, 0.0
110, 0.0
111, 0.0
112, 0.0
113, 0.0
114, 0.0
115, 0.0
116, 0.0
117, 0.0
118, 0.0
119, 0.0
120, 0.0
121, 0.0
122, 0.0
123, 0.0
124.0, 0.00040441670999411835
125.0, 0.0008638339425763532
126.0, 0.0008948171899037944
127.0, 0.0005365636550057191
128.0, 0.0004695710916533041
129.0, 0.0019918039727064747
130.0, 0.0026493811966432136
131.0, 0.0029165770537719453
132.0, 0.003023948936438027
133.0, 0.0029867655522553835
134.0, 0.002263553799368505
135.0, 0.0024500382446138885
136.0, 0.0025376335921243856
137.0, 0.0027592904565600764
138.0, 0.0033434303173484154
139.0, 0.0038983481415096723
140.0, 0.003143312852416201
141.0, 0.0032516151423092944
142.0, 0.0022227963190604174
143.0, 0.0005013072099030245
144.0, 0.0008611084020425826
145.0, 0.0006600207279352795
146.0, 0.0007727397580069083
147.0, 0.0007623946869116868
148.0, 0.0005234685413337358
149.0, 0.0001553865692060943
150.0, 1.584402205584392e-05
151.0, 0.0005653775951099337
152.0, 0.0009889377323137186
153.0, 0.0014404066447953083
154.0, 0.002018435127948904
155.0, 0.0025239506307106123
156.0, 0.002238694215102983
157.0, 0.0029108333615836613
158.0, 0.004021754015529058
159.0, 0.004829479009475465
160.0, 0.004864249096128913
161.0, 0.006366445141469151
162.0, 0.007429621505283175
163.0, 0.00935850869386624
164.0, 0.011771814510590138
165.0, 0.014135324158212493
166.0, 0.01651791053206439
167.0, 0.017647388531966048
168.0, 0.018971112142331558
169.0, 0.019353454189072323
170.0, 0.019261887222956433
171.0, 0.020293396510211902
172.0, 0.019878909171852362
173.0, 0.018010056983088045
174.0, 0.017880199776148114
175.0, 0.018472566531371633
176.0, 0.018166988035285943
177.0, 0.017602333217068812
178.0, 0.01812578826994514
179.0, 0.017708385772715364
180.0, 0.017296450126767827
181.0, 0.01649629710491045
182.0, 0.013733644865583074
183.0, 0.014603764796515477
184.0, 0.014364633744704034
185.0, 0.01500671902056431
186.0, 0.015349172543418799
187.0, 0.014214184566752648
188.0, 0.014371810126119626
189.0, 0.012440551721320522
190.0, 0.012558952110348288
191.0, 0.012819553306720612
192.0, 0.012950431273186428
193.0, 0.01475022598759545
194.0, 0.013018031901055922
195.0, 0.012378455330195019
196.0, 0.01144299653436986
197.0, 0.010540766134220607
198.0, 0.010657046947382204
199.0, 0.012812093205087456
200.0, 0.011278334724459767
201.0, 0.01218785831829678
202.0, 0.01404365117390651
203.0, 0.01453906770774667
204.0, 0.011819286218899385
205.0, 0.009865848168405938
206.0, 0.00710950649033688
207.0, 0.006974519464643386
208.0, 0.00870296104996227
209.0, 0.010252232003011891
210.0, 0.010249113311027817
211.0, 0.011441089105144978
212.0, 0.012980941348872137
213.0, 0.014509641689774698
214.0, 0.01601663366985774
215.0, 0.017801577198614096
216.0, 0.020363195904242102
217.0, 0.022066720554753942
218.0, 0.024355950004733087
219.0, 0.027322425051163692
220.0, 0.030282738089590568
221.0, 0.031759870195534216
222.0, 0.0361222179102723
223.0, 0.039232791174527055
224.0, 0.04214905238178361
225.0, 0.04521215548785825
226.0, 0.04820946197052279
227.0, 0.051379651561967415
228.0, 0.05503740129593644
229.0, 0.05914561729837733
230.0, 0.062200472568539
231.0, 0.06384854686168832
232.0, 0.06578063775680994
233.0, 0.06499035600866752
234.0, 0.06573063013386343
235.0, 0.06546005614117252
236.0, 0.06350909134705197
237.0, 0.060762612801232296
238.0, 0.06022962502848464
239.0, 0.057050750799145934
240.0, 0.053240368569126784
241.0, 0.04789889513242246
242.0, 0.04202345742532675
243.0, 0.038183804243549634
244.0, 0.034467947285672054
245.0, 0.030084347243090143
246.0, 0.026053021021216944
247.0, 0.022634242888783056
248.0, 0.019866857644299254
249.0, 0.017766882006935356
250.0, 0.016144343656645868
251.0, 0.01432481989377955
252.0, 0.013297386180314898
253.0, 0.012526115595064169
254.0, 0.011277076692534697
255.0, 0.011798929185854642
256.0, 0.012376961543900434
257.0, 0.012082324445705095
258.0, 0.01692729058056536
259.0, 0.026740182237957127
260.0, 0.033586554414572145
261.0, 0.024248820094409564
262.0, 0.016325948044649992
263.0, 0.011456931064900916
264.0, 0.009743914335853423
265.0, 0.009843653292616173
266.0, 0.008813057234627065
267.0, 0.009249293358915658
268.0, 0.009698093559469842
269.0, 0.00955403782707658
270.0, 0.009156017607805544
271.0, 0.009021673143958197
272.0, 0.008462823710893375
273.0, 0.0074294726976373284
274.0, 0.006618240112387609
275.0, 0.006284099070697604
276.0, 0.007208517430691128
277.0, 0.009703706419889576
278.0, 0.006802999539033502
279.0, 0.007024170481256487
280.0, 0.007171576270854438
281.0, 0.006512241424961595
282.0, 0.005629768899034037
283.0, 0.006065734350911493
284.0, 0.0055642074064441325
285.0, 0.005626957943081639
286.0, 0.006356782075480285
287.0, 0.006492971194862941
288.0, 0.0059578793782087865
289.0, 0.008496410073458117
290.0, 0.009267184317150104
291.0, 0.009831461326974265
292.0, 0.011495843828201594
293.0, 0.013930441295398662
294.0, 0.016169777982565543
295.0, 0.018640469325158462
296.0, 0.0190322420629235
297.0, 0.021426605383517525
298.0, 0.024329201971236964
299.0, 0.027215044618468166
300.0, 0.03079953100266106
301.0, 0.03505588480275214
302.0, 0.03755731467399427
303.0, 0.04193385982928516
304.0, 0.04666591785329684
305.0, 0.05038922994396215
306.0, 0.053314149584185413
307.0, 0.05734009487911696
308.0, 0.05937901589579974
309.0, 0.06303785212006151
310.0, 0.06652857530707526
311.0, 0.06858721023442776
312.0, 0.0714017534503939
313.0, 0.0741758780877828
314.0, 0.07800652300420043
315.0, 0.07806327885559995
316.0, 0.07684123187683725
317.0, 0.07721626713560453
318.0, 0.07587469988095587
319.0, 0.07793127398441822
320.0, 0.07662274458496983
321.0, 0.07593638049810882
322.0, 0.07589342485061794
323.0, 0.0754710887641695
324.0, 0.07777311245569818
325.0, 0.07907330779236951
326.0, 0.08184305616793057
327.0, 0.08364049385508165
328.0, 0.08524529056039012
329.0, 0.08901445101183102
330.0, 0.0938737414666953
331.0, 0.09947955903104219
332.0, 0.10464264236737016
333.0, 0.10931725623969261
334.0, 0.11452462550618811
335.0, 0.12123758946939292
336.0, 0.1261660727396556
337.0, 0.132067010772044
338.0, 0.14114971879566474
339.0, 0.14992986345062437
340.0, 0.15727814189529368
341.0, 0.16553336895297902
342.0, 0.17923505019637384
343.0, 0.1900428714155822
344.0, 0.2042395163383434
345.0, 0.21935739582876126
346.0, 0.23467063568278487
347.0, 0.2525307162406709
348.0, 0.27036609730835787
349.0, 0.29208351558888634
350.0, 0.3164049837420559
351.0, 0.34390730384561335
352.0, 0.3739428976197343
353.0, 0.404746777168559
354.0, 0.44258459867677635
355.0, 0.4822515746467998
356.0, 0.5264049335039118
357.0, 0.5770069359791183
358.0, 0.6325320794711888
359.0, 0.688176047511494
360.0, 0.7485065902170376
361.0, 0.8045893765706809
362.0, 0.850604916376982
363.0, 0.8923051253819348
364.0, 0.9313689578870507
365.0, 0.9604644553946664
366.0, 0.9785964964666154
367.0, 0.9891253586829805
368.0, 0.9965241319223952
369.0, 0.9950848209244177
370.0, 0.9810650720155609
371.0, 0.9561350137328276
372.0, 0.9086970676915064
373.0, 0.8527360203130346
374.0, 0.7871562858570526
375.0, 0.7122525898891323
376.0, 0.6339735692985715
377.0, 0.5628277899572779
378.0, 0.49081936902545126
379.0, 0.4274868986573905
380.0, 0.3716604608438627
381.0, 0.32151433225226855
382.0, 0.2778483495227999
383.0, 0.24352531453812615
384.0, 0.20673802557423832
385.0, 0.18287257059010623
386.0, 0.16134109647770523
387.0, 0.1409138394148661
388.0, 0.12244621919364142
389.0, 0.10663774853750758
390.0, 0.09197668382028416
391.0, 0.08219233885164799
392.0, 0.07277164298182001
393.0, 0.06275367197294275
394.0, 0.05365277671379336
395.0, 0.04778534981818998
396.0, 0.04097539287197868
397.0, 0.034286719814683474
398.0, 0.030194591123731178
399.0, 0.02656648797495742
400.0, 0.022416668820951856
401.0, 0.018275981050239812
402.0, 0.013382556085223233
403.0, 0.012167645484262697
404.0, 0.010275139157348847
405.0, 0.007808528457800741
406.0, 0.00581178821270494
407.0, 0.0050550506669043635
408.0, 0.004085622200405432
409.0, 0.001027758225715559
410.0, 0.0008245633873132072
411.0, 0.0012783263995705765
412.0, 0.0018632714167698434
413.0, 0.0028404662338912374
414.0, 0.0026083318404620318
415.0, 0.003252861254548864
416.0, 0.0035113498199349355
417.0, 0.0029435705552594265
418.0, 0.0027444169528933015
419.0, 0.0031826295965579413
420.0, 0.0010001288810361573
421.0, 0.0023770648038125564
422.0, 0.0013190151578987416
423.0, 0.0007445778362746942
424.0, 0.0006937784077486247
425.0, 0.0009979295546885354
426.0, 0.00277697610466026
427.0, 0.003299301878687406
428.0, 0.0034076840060481605
429.0, 0.00384725941434899
430.0, 0.004520818163725734
431.0, 0.005481727521792172
432.0, 0.006998326476802403
433.0, 0.007384235701981674
434.0, 0.007943230804771724
435.0, 0.009458836821296267
436.0, 0.010410673928287602
437.0, 0.01050090511131862
438.0, 0.010973715713796602
439.0, 0.013259999943598506
440.0, 0.013051246192708725
441.0, 0.013268262280063066
442.0, 0.013897838592062227
443.0, 0.014698787288923916
444.0, 0.015635281959869865
445.0, 0.017192789477306073
446.0, 0.015422132693540898
447.0, 0.015311163727875075
448.0, 0.016162451719775414
449.0, 0.016655829609307133
450.0, 0.016611592375510395
451.0, 0.017981295285991992
452.0, 0.01855821317051981
453.0, 0.017927140607234666
454.0, 0.016889825069611966
455.0, 0.01655364802060144
456.0, 0.016780967276800278
457.0, 0.016138558849096207
458.0, 0.014976021240562357
459.0, 0.014380435191789625
460.0, 0.013521848200947475
461.0, 0.012792623035717121
462.0, 0.012061389203126324
463.0, 0.010883417365426234
464.0, 0.009593307257080453
465.0, 0.00813316113643402
466.0, 0.006876405766083426
467.0, 0.008279715535693021
468.0, 0.009451801145599249
469.0, 0.008772376785331546
470.0, 0.011630215923966156
471.0, 0.009606786059904927
472.0, 0.012626432703711724
473.0, 0.016205279189852057
474.0, 0.019250736883794306
475.0, 0.022210163989266164
476.0, 0.026147244548018964
477.0, 0.03197896050315136
478.0, 0.03613250368314131
479.0, 0.04022383516404632
480.0, 0.04422821359867222
481.0, 0.04881991857044588
482.0, 0.05441504505674905
483.0, 0.059020301690022196
484.0, 0.061199393925847875
485.0, 0.06620871343381855
486.0, 0.07042492616071983
487.0, 0.07315932368436644
488.0, 0.07532696896809271
489.0, 0.07812354715748918
490.0, 0.08210016683023687
491.0, 0.0841601936320211
492.0, 0.08625151943873513
493.0, 0.08757258779436815
494.0, 0.08812566394162931
495.0, 0.08879132329803362
496.0, 0.089359014934994
497.0, 0.08895964153847447
498.0, 0.08885701072481413
499.0, 0.08786013562508056
500.0, 0.08620043903404188
501.0, 0.08455093517710478
502.0, 0.08292144109424365
503.0, 0.08059373369035147
504.0, 0.08425523044345262
505.0, 0.08536178181448503
506.0, 0.08580506256555515
507.0, 0.08893721530233721
508.0, 0.09602356077853508
509.0, 0.10419624681510828
510.0, 0.11207193909234002
511.0, 0.12247067801095778
512.0, 0.1354846846109768
513.0, 0.150564177360549
514.0, 0.16816144660597387
515.0, 0.19047402251932846
516.0, 0.21526113675112785
517.0, 0.2439188399420451
518.0, 0.2751533890615988
519.0, 0.30668527150945357
520.0, 0.33850622212215364
521.0, 0.3714605098935554
522.0, 0.40131112604751806
523.0, 0.4220807886554134
524.0, 0.4380022873438405
525.0, 0.4487622925688218
526.0, 0.45383183556778933
527.0, 0.4535588265416159
528.0, 0.4489823501298591
529.0, 0.4338131263970005
530.0, 0.4113203156716403
531.0, 0.38128693502735794
532.0, 0.3454416474178489
533.0, 0.30639049655534906
534.0, 0.2661360670754426
535.0, 0.22449175682077435
536.0, 0.19002128606632512
537.0, 0.15999653295242772
538.0, 0.13680682912885586
539.0, 0.11776262656152602
540.0, 0.1012387430375135
541.0, 0.08868410438679915
542.0, 0.07993073415109951
543.0, 0.06978863568444789
544.0, 0.06373437942563694
545.0, 0.059573209910679076
546.0, 0.05669695953685287
547.0, 0.05438219336506277
548.0, 0.05015207433107054
549.0, 0.05087522538122967
550.0, 0.04923142469512589
551.0, 0.047956727748037574
552.0, 0.04684527819417775
553.0, 0.045662489070652096
554.0, 0.044685299405403923
555.0, 0.04431748429268692
556.0, 0.04293348633640728
557.0, 0.04267907410375042
558.0, 0.041595148426063475
559.0, 0.04030130139117709
560.0, 0.03895545736384542
561.0, 0.036620441877845744
562.0, 0.034564732061512546
563.0, 0.034285182997792894
564.0, 0.031802208767660635
565.0, 0.029428460625041765
566.0, 0.026915495618334676
567.0, 0.0242659518055157
568.0, 0.02363106171910746
569.0, 0.022423571934934893
570.0, 0.02291626807270307
571.0, 0.022289812935459077
572.0, 0.021511132820597932
573.0, 0.02158986479619275
574.0, 0.022623088192085163
575.0, 0.023611578786034693
576.0, 0.024609278841411543
577.0, 0.025736893116043415
578.0, 0.026493962672830506
579.0, 0.027588678694963578
580.0, 0.028240636342887076
581.0, 0.02752371676546508
582.0, 0.02801091480198417
583.0, 0.026824508142577884
584.0, 0.02799071327594683
585.0, 0.027828975061170203
586.0, 0.027172422934813454
587.0, 0.027230847858797057
588.0, 0.027850859655879877
589.0, 0.027960142477026665
590.0, 0.029653167944573386
591.0, 0.030258398721366167
592.0, 0.031047781524954614
593.0, 0.03260945668448206
594.0, 0.0342874386091544
595.0, 0.0349527918530321
596.0, 0.036221135099219225
597.0, 0.036975624598435695
598.0, 0.037266158659429414
599.0, 0.038365984414307365
600.0, 0.04020120750693857
601.0, 0.041475538085100745
602.0, 0.041068032122626025
603.0, 0.04280745064512566
604.0, 0.04159198501970807
605.0, 0.0415170343278579
606.0, 0.04194314203238082
607.0, 0.04263155598726313
608.0, 0.043162635465429554
609.0, 0.04267371117778125
610.0, 0.0426016929343837
611.0, 0.03963447326407386
612.0, 0.039812180626389075
613.0, 0.039631853348210656
614.0, 0.03734456912065048
615.0, 0.034115789730526876
616.0, 0.03259189960037653
617.0, 0.030902437083986455
618.0, 0.028023260622543962
619.0, 0.026657056147596107
620.0, 0.024575375465331645
621.0, 0.021712387436262623
622.0, 0.0190995997261804
623.0, 0.017086058167002822
624.0, 0.01591822133914123
625.0, 0.013053774018993299
626.0, 0.012038843301017196
627.0, 0.010350238727750203
628.0, 0.008454340521612097
629.0, 0.007244397789518884
630.0, 0.005625496424016717
631.0, 0.0050100361479465064
632.0, 0.0047466721323849515
633.0, 0.0034374565595366264
634.0, 0.0031051297833011838
635.0, 0.0028079081517977202
636.0, 0.0014946761270583661
637.0, 0.00041293607294203797
638.0, 0.0008338739690876708
639.0, 0.0003093050205287244
640.0, 0.00021596447611537607
641.0, 0.00023730283861511455
642.0, 0.00022244698050317686
643.0, 0.0002892669051231512
644.0, 0.000608358306006328
645.0, 0.0008182476629537792
646.0, 0.0014065226374391784
647.0, 0.0019132266521427613
648.0, 0.00200171251000169
649.0, 0.0023363322551860034
650.0, 0.0025346266954542965
651.0, 0.0014400374905549958
652.0, 0.001131565947847864
653.0, 0.001886813141310586
654.0, 0.0025320249503805437
655.0, 0.0031029843224777078
656.0, 0.0030431204532701973
657.0, 0.0026761366370634206
658.0, 0.002767334576558451
659.0, 0.002349942566000142
660.0, 0.002575314872786027
661.0, 0.0019471880281221906
662.0, 0.001787956611728942
663.0, 0.00157525151915335
664.0, 0.0012743425010552122
665.0, 0.001253202326318924
666.0, 0.0010370989507858075
667.0, 0.0002767114628323318
668.0, 0.000775941341027555
669.0, 0.0004746940194849076
670.0, 0.0002506372699810651
671.0, 0.0004362455917994576
672.0, 0.0005440036735670866
673.0, 0.0001288301357356614
674.0, 0.0006201913006697131
675.0, 0.0005723992089252961
676.0, 0.0010132677882388958
677.0, 0.0009538843421504251
678.0, 0.0011278517424756624
679.0, 0.0017122517146710326
680.0, 0.0015516763895452805
681.0, 0.00200428383931612
682.0, 0.0013097521047906327
683.0, 0.0019266582883727867
684.0, 0.0018735683356885541
685.0, 0.0014805173092846031
686.0, 0.0011070896529060332
687.0, 0.0005940792202894957
688.0, 0.00045853338196790187
689.0, 0.0002753569265148425
690.0, 0.00013258385518618988
691.0, 0.00043502328291163735
692.0, 0.000333254310319346
693.0, 0.00032396986485336884
694.0, 0.0010754131774818793
695.0, 0.0015793824632643226
696.0, 0.0006770593918145828
697.0, 0.0010847941482026173
698.0, 0.000743732087696929
699.0, 0.000857712722928437
700.0, 0.0010724346291842257
701.0, 0.0008291112295623594
702.0, 0.0005066487520821778
703.0, 0.0008796046451816495
704.0, 0.001208946295635832
705.0, 0.0015921011864446942
706.0, 0.001062239575507838
707.0, 0.0005344109217812601
708.0, 0.0003231793407905519
709.0, 0.00011067442934055274
710.0, 0.00014575935358732562
711.0, 0.00016128517089320375
712.0, 0.00029318241546982647
713.0, 0.0009459816117924351
714.0, 0.0008095121034421412
715.0, 0.0007645307903634475
716.0, 0.0014975118338035563
717.0, 0.0017947227342164146
718.0, 0.00038840752552941936
719.0, 0.0023958365877803935
720.0, 0.0017217230504992544
721.0, 0.0022745779589548876
722.0, 0.002398913248777361
723.0, 0.002140557583506673
724.0, 0.0025504146301132914
725.0, 0.0017159992530528345
726.0, 0.0021614041432865953
727.0, 0.003255986656760544
728.0, 0.0034678420988218314
729.0, 0.003785960769843604
730.0, 0.004154604447033847
731.0, 0.004115393020205207
732.0, 0.003676579012839641
733.0, 0.0034276212991729135
734.0, 0.003192525789125898
735.0, 0.004384090420279632
736.0, 0.0035387564811011404
737.0, 0.003517075710026883
738.0, 0.004270071925017403
739.0, 0.004169234084933545
740.0, 0.004010043557539882
741.0, 0.0043792830853360935
742.0, 0.004301331137704296
743.0, 0.004834262051051555
744.0, 0.00472921859742477
745.0, 0.004332674900576377
746.0, 0.004169609929219672
747.0, 0.004342448915748973
748.0, 0.004868337318291456
749.0, 0.004740637726875862
750.0, 0.00485008977034949
751.0, 0.0052504779605733205
752.0, 0.0055435349299618126
753.0, 0.005431211357797505
754.0, 0.005531980601577943
755.0, 0.006482552484158228
756.0, 0.006004290908578564
757.0, 0.0052408781338665715
758.0, 0.006583912812802211
759.0, 0.006305103609387484
760.0, 0.006786642466018716
761.0, 0.0068398994646896635
762.0, 0.005954141423700547
763.0, 0.007320128096365182
764.0, 0.006902663506438122
765.0, 0.008203316926304686
766.0, 0.008169259152820423
767.0, 0.008476229664767064
768.0, 0.008969269880850027
769.0, 0.009257272465338978
770.0, 0.009556060344052087
771.0, 0.010546662455002312
772.0, 0.011795115998385343
773.0, 0.01127592352455281
774.0, 0.012689560378781968
775.0, 0.012883835087858795
776.0, 0.012611571038533918
777.0, 0.01295479317064836
778.0, 0.0138466606465291
779.0, 0.014719533584051833
780.0, 0.014646334462381682
781.0, 0.014301367044256
782.0, 0.015955180164268216
783.0, 0.017706105715317152
784.0, 0.018481328009609683
785.0, 0.019060800944642572
786.0, 0.020621084780633816
787.0, 0.022421402892374515
788.0, 0.02332677049124587
789.0, 0.025276195439441106
790.0, 0.027879889916525638
791.0, 0.02923913096763349
792.0, 0.0321836786569721
793.0, 0.036007896455855316
794.0, 0.03820141660968293
795.0, 0.04258371410715941
796.0, 0.04689613304292909
797.0, 0.053149480725535526
798.0, 0.057271753925225696
799.0, 0.06439044688206255
800.0, 0.07166743358257602
801.0, 0.07820893551832551
802.0, 0.08631257593590924
803.0, 0.09483844366473054
804.0, 0.10412417416468574
805.0, 0.11201560383528875
806.0, 0.12296864428544448
807.0, 0.13338484426748434
808.0, 0.14345115524994848
809.0, 0.15492651831241547
810.0, 0.16750862195464766
811.0, 0.17793553386315203
812.0, 0.1891403121227568
813.0, 0.2036242322506486
814.0, 0.2154583868058445
815.0, 0.22810566145400063
816.0, 0.23948388529429812
817.0, 0.2504461435457265
818.0, 0.2615045223980027
819.0, 0.268114687832854
820.0, 0.2763427958553417
821.0, 0.28352553509310896
822.0, 0.28743891951390094
823.0, 0.2877079918351779
824.0, 0.28679111994227535
825.0, 0.2831498086271399
826.0, 0.2763167934093108
827.0, 0.27039891468856675
828.0, 0.2631103753144023
829.0, 0.25339067280065486
830.0, 0.24293131711209345
831.0, 0.23226942706098558
832.0, 0.22074875392112966
833.0, 0.21006047527104257
834.0, 0.20159870833133747
835.0, 0.19408562773077265
836.0, 0.18519123371916965
837.0, 0.179978007527958
838.0, 0.1767898841677146
839.0, 0.17461314305676884
840.0, 0.17395218512609611
841.0, 0.17393137699524783
842.0, 0.17539123916792265
843.0, 0.17960808292952485
844.0, 0.1842476552203072
845.0, 0.18803361788924003
846.0, 0.19442778629813715
847.0, 0.19693882889953013
848.0, 0.2015949846291877
849.0, 0.20454520599030934
850.0, 0.20591481614988602
851.0, 0.20802368017914274
852.0, 0.20868811620393343
853.0, 0.2060198680855889
854.0, 0.2032410807520669
855.0, 0.19917631674171835
856.0, 0.1958704142058413
857.0, 0.19132134606359538
858.0, 0.1859550693585472
859.0, 0.18189359263761692
860.0, 0.18010003957666998
861.0, 0.17862124459783701
862.0, 0.17578797868656806
863.0, 0.17726977841939137
864.0, 0.18064019613995766
865.0, 0.1864573401139535
866.0, 0.19383208427181695
867.0, 0.20173404948883053
868.0, 0.20956252003584594
869.0, 0.21804157141116273
870.0, 0.2318428178079634
871.0, 0.2443352673449216
872.0, 0.25984959675185726
873.0, 0.28221538304581695
874.0, 0.3075126130929752
875.0, 0.3346116147166835
876.0, 0.36428591638760516
877.0, 0.3963607744784095
878.0, 0.42896758051635836
879.0, 0.4608898853296047
880.0, 0.48800484297736657
881.0, 0.5110575304421554
882.0, 0.5269611612956326
883.0, 0.5366994451429533
884.0, 0.5383145399281245
885.0, 0.5300430528699611
886.0, 0.5120199833082939
887.0, 0.48047824558357605
888.0, 0.44870536550123286
889.0, 0.406727160021892
890.0, 0.3675567671315638
891.0, 0.32613092688697903
892.0, 0.287893071765909
893.0, 0.25467483679268416
894.0, 0.2240196461701397
895.0, 0.19696055264932494
896.0, 0.17481626176446524
897.0, 0.15638281235299087
898.0, 0.1429594710447474
899.0, 0.12793816023379725
900.0, 0.11487513603035723
901.0, 0.10506594598198223
902.0, 0.09618892739943412
903.0, 0.08722973723962167
904.0, 0.08120615445861247
905.0, 0.07370292141351473
906.0, 0.06669602542947113
907.0, 0.06334379823185848
908.0, 0.05921649750521128
909.0, 0.05571301277156649
910.0, 0.05292825371236849
911.0, 0.049928636421428946
912.0, 0.04693294500854954
913.0, 0.045589197108364954
914.0, 0.044531101547287684
915.0, 0.04134410832311044
916.0, 0.03946699028263695
917.0, 0.03786399334754402
918.0, 0.03647319599762818
919.0, 0.03519497730662077
920.0, 0.033914738690064554
921.0, 0.03305836210439232
922.0, 0.03326441674174753
923.0, 0.03164196808998443
924.0, 0.03341123184772993
925.0, 0.03180583746958945
926.0, 0.031742537667992475
927.0, 0.03193544634632232
928.0, 0.03251358814204702
929.0, 0.033591412341580466
930.0, 0.03459737837462789
931.0, 0.03610619514337793
932.0, 0.037364061774943606
933.0, 0.03735095120725799
934.0, 0.040837898689626076
935.0, 0.040824081467041355
936.0, 0.04220823945286521
937.0, 0.043990498924163256
938.0, 0.04525802413695427
939.0, 0.046924702191917696
940.0, 0.047208840884743225
941.0, 0.046612434500275746
942.0, 0.04573620665979325
943.0, 0.04410170889907554
944.0, 0.042396835509911204
945.0, 0.040023887811535236
946.0, 0.0379959745807394
947.0, 0.03562337148270416
948.0, 0.03298175728090068
949.0, 0.03227214880238096
950.0, 0.029236261631214462
951.0, 0.027609149331617535
952.0, 0.024766152779203843
953.0, 0.023729086801000745
954.0, 0.023255160440057626
955.0, 0.02268001578914598
956.0, 0.022610329061327993
957.0, 0.023102734208931677
958.0, 0.02345241183057887
959.0, 0.024681108696461736
960.0, 0.026279964740632447
961.0, 0.02749561837753282
962.0, 0.02881096050801018
963.0, 0.030644494570480924
964.0, 0.032713634682570276
965.0, 0.03538784539802273
966.0, 0.037809612707396946
967.0, 0.039179005066917856
968.0, 0.04111153746108825
969.0, 0.04204716715458028
970.0, 0.04417559021267208
971.0, 0.045831953653603555
972.0, 0.04798126669487738
973.0, 0.05015494913776162
974.0, 0.052704800038968325
975.0, 0.055414931954353444
976.0, 0.05832241458789402
977.0, 0.061497450435773524
978.0, 0.06236188855491964
979.0, 0.0635575000668215
980.0, 0.06624481796650658
981.0, 0.06619594702980362
982.0, 0.0660662874158075
983.0, 0.06702540879477908
984.0, 0.06816225426028563
985.0, 0.0694326897122583
986.0, 0.07070074640973471
987.0, 0.07042594306375823
988.0, 0.07249348651426687
989.0, 0.07273984681648968
990.0, 0.07497203238684455
991.0, 0.07523876911761578
992.0, 0.07521870807001017
993.0, 0.07663392321214728
994.0, 0.07833316484671911
995.0, 0.07978362214563751
996.0, 0.08170462204553611
997.0, 0.08257704928373007
998.0, 0.0841377598638402
999.0, 0.08659659506272058
1000.0, 0.08703898621948748
1001.0, 0.08620739012338663
1002.0, 0.08600109847184637
1003.0, 0.08374710696777984
1004.0, 0.07956216370224968
1005.0, 0.07509460941485854
1006.0, 0.06949739340722501
1007.0, 0.06187020076377738
1008.0, 0.05637237964653048
1009.0, 0.04813372762884429
1010.0, 0.0419698240631407
1011.0, 0.03697063557551338
1012.0, 0.03219777356823526
1013.0, 0.027953097818982385
1014.0, 0.024403610226621398
1015.0, 0.021010552158644457
1016.0, 0.017951394843121225
1017.0, 0.01716456457352786
1018.0, 0.015857091501670008
1019.0, 0.013632768387519359
1020.0, 0.011502003551683123
1021.0, 0.010945300404250046
1022.0, 0.010171429490204564
1023.0, 0.008700336435320189
1024.0, 0.0071711046049651025
1025.0, 0.006034216656966636
1026.0, 0.005051336324075888
1027.0, 0.004015140047695763
1028.0, 0.0037652982448222127
1029.0, 0.0025162479644131918
1030.0, 0.002320793415401397
1031.0, 0.0021070593571211
1032.0, 0.0012795224024128354
1033.0, 0.000786677712008957
1034.0, 0.0005466649489888884
1035.0, 0.0006332145587605788
1036.0, 0.001205805958219596
1037.0, 0.0004963938257237856
1038.0, 0.0009487292693176478
1039.0, 0.0004904325262874808
1040.0, 0.0002635303843347118
1041.0, 0.0005483586770857726
1042.0, 0.0005147046963174765
1043.0, 0.0007233299703183944
1044.0, 0.0008095581861067405
1045.0, 0.0006889562706373666
1046.0, 0.0009685243504125528
1047.0, 0.0013139327218429106
1048.0, 0.0008657660260714085
1049.0, 0.0012109191344078702
1050.0, 0.0014151439504414374
1051.0, 0.0007693314353477353
1052.0, 0.0011082536696736657
1053.0, 0.0017250149831269158
1054.0, 0.0011718534431151486
1055.0, 0.0009871447141485696
1056.0, 0.0018512520146205618
1057.0, 0.0015050657074071568
1058.0, 0.0014714549391360895
1059.0, 0.000682139464189084
1060.0, 0.0017752648001306912
1061.0, 0.0015770864901772604
1062.0, 0.0012141379270834511
1063.0, 0.0017703077180631923
1064.0, 0.00174900123156281
1065.0, 0.0011218777043810993
1066.0, 0.0009348441504642313
1067.0, 0.0013328356213183651
1068.0, 0.0015754904948307306
1069.0, 0.0014549080733069933
1070.0, 0.0016244621774478003
1071.0, 0.0016700000726931799
1072.0, 0.0015047645857404577
1073.0, 0.0016055411641833985
1074.0, 0.0015803177360565312
1075.0, 0.0012419389107144602
1076.0, 0.0009291588844642301
1077.0, 0.0006291281767918984
1078.0, 0.00012157927136385601
1079.0, 0.00012091592410479695
1080.0, 0.0004993395361172167
1081.0, 6.265079387158132e-05
1082.0, 0.0008950145866551905
1083.0, 0.0008144837876217607
1084.0, 0.0005504798109367591
1085.0, 0.00040648876421109115
1086.0, 0.0009793994773859476
1087.0, 0.002064185307316858
1088.0, 0.0024491614606802323
1089.0, 0.001771651871333766
1090.0, 0.0018155115453971614
1091.0, 0.0025123182603513333
1092.0, 0.0023406183343365906
1093.0, 0.002790392379508723
1094.0, 0.0036272883827316335
1095.0, 0.003678032234774721
1096.0, 0.004013689731320625
1097.0, 0.00425437601399171
1098.0, 0.004215070586073865
1099.0, 0.004388775339483677
1100.0, 0.0046505106964099
1101.0, 0.004400874932764045
1102.0, 0.004451471129671259
1103.0, 0.005001789618468447
1104.0, 0.0048660882299984025
1105.0, 0.00487172061783999
1106.0, 0.00504281400976945
1107.0, 0.005501701879851579
1108.0, 0.0058761567807226025
1109.0, 0.005610340029059272
1110.0, 0.005530454968583291
1111.0, 0.005922327885050485
1112.0, 0.004643129712214234
1113.0, 0.005147174907975783
1114.0, 0.00658065487088041
1115.0, 0.007873465658138842
1116.0, 0.009063270282575201
1117.0, 0.0123585546174174
1118.0, 0.017442169822410876
1119.0, 0.021687634078515133
1120.0, 0.023650350873685007
1121.0, 0.025345148203294265
1122.0, 0.02756206850489851
1123.0, 0.02713486890356815
1124.0, 0.025282583699503744
1125.0, 0.021561040081571198
1126.0, 0.01651763372141388
1127.0, 0.011517538032833249
1128.0, 0.008835359791963282
1129.0, 0.006741665126531025
1130.0, 0.005653137713132289
1131.0, 0.005260438459947556
1132.0, 0.004758009666789025
1133.0, 0.003947171555870588
1134.0, 0.0034161196167402153
1135.0, 0.0035732108334735665
1136.0, 0.0031985992266537326
1137.0, 0.00362320709843151
1138.0, 0.0027985561502185804
1139.0, 0.0029399040913342593
1140.0, 0.0035792376452942706
1141.0, 0.003637230320158744
1142.0, 0.0031315754273141937
1143.0, 0.002322923336884755
1144.0, 0.0024139281417878003
1145.0, 0.0027465619635800138
1146.0, 0.0016183681795742112
1147.0, 0.002214022757704016
1148.0, 0.002496315458080259
1149.0, 0.0019009286337275284
1150.0, 0.0014151825038565553
1151.0, 0.0009098752025253596
1152.0, 0.0011219529385552065
1153.0, 0.0017129801538663585
1154.0, 0.0018753626325717365
1155.0, 0.0022385009460296353
1156.0, 0.0022503434660177853
1157.0, 0.0013968652055000566
1158.0, 0.00102735449848319
1159.0, 0.0008508865719770975
1160.0, 0.0012436055377441763
1161.0, 0.0022524461484248266
1162.0, 0.0008610195105803114
1163.0, 0.0026774641681790064
1164.0, 0.002271640714003843
1165.0, 0.002413580452790039
1166.0, 0.002033525719137375
1167.0, 0.0015449801100266278
1168.0, 0.0019395135880567686
1169.0, 0.0025538970666616058
1170.0, 0.00266792270057162
1171.0, 0.002834424138597415
1172.0, 0.002096623475794202
1173.0, 0.0031210906848560234
1174.0, 0.002593807030415491
1175.0, 0.002640349924572343
1176.0, 0.003317942417177678
1177.0, 0.0035444608703281044
1178.0, 0.003204170166573015
1179.0, 0.003781571801488714
1180.0, 0.004011331741973972
1181.0, 0.00409471679741363
1182.0, 0.004711764803105109
1183.0, 0.003338886850399771
1184.0, 0.00433168573647463
1185.0, 0.004863565916942758
1186.0, 0.0047632423077521415
1187.0, 0.0053601057786944635
1188.0, 0.0049243654861483915
1189.0, 0.005985228000881215
1190.0, 0.00575221815130612
1191.0, 0.00577119715208359
1192.0, 0.006062271903234923
1193.0, 0.006295797801048733
1194.0, 0.006440391574827218
1195.0, 0.006155191236509391
1196.0, 0.00627584773126348
1197.0, 0.006328948980066161
1198.0, 0.006218345473829381
1199.0, 0.005982716829705557
1200.0, 0.006178727712134402
1201.0, 0.005417000051326322
1202.0, 0.005265738306111852
1203.0, 0.005510306992502313
1204.0, 0.005933537434895826
1205.0, 0.006355084090756995
1206.0, 0.005997376633529543
1207.0, 0.005566476710947645
1208.0, 0.006298241081135978
1209.0, 0.006116740688633287
1210.0, 0.005363319891206716
1211.0, 0.006227117822268191
1212.0, 0.0058543264548468615
1213.0, 0.006104864753863127
1214.0, 0.006374939286365557
1215.0, 0.006754686471274178
1216.0, 0.00691201011383162
1217.0, 0.006799407828211558
1218.0, 0.006523385392196862
1219.0, 0.006144578313625518
1220.0, 0.005697935073694073
1221.0, 0.0052507702120932545
1222.0, 0.005051899765518753
1223.0, 0.0054508462860267375
1224.0, 0.005139905884567081
1225.0, 0.005515975675886159
1226.0, 0.005987604790429723
1227.0, 0.006461193641379525
1228.0, 0.006264759022616234
1229.0, 0.005741311527377843
1230.0, 0.0055111041863557
1231.0, 0.005015181321708681
1232.0, 0.004478665337794726
1233.0, 0.004300091550859457
1234.0, 0.00419404479875185
1235.0, 0.0040481186694631245
1236.0, 0.0040097149029618626
1237.0, 0.004011023211231543
1238.0, 0.0039035376755737093
1239.0, 0.003607509791159507
1240.0, 0.0037474843969223237
1241.0, 0.0035412634958902397
1242.0, 0.00332403683840077
1243.0, 0.003487961016797067
1244.0, 0.002918161637390926
1245.0, 0.002704553991711417
1246.0, 0.00248935038524226
1247.0, 0.0021879093851655423
1248.0, 0.00200229089572058
1249.0, 0.0010894528045498238
1250.0, 0.0017940357150917424
1251.0, 0.001948028461131236
1252.0, 0.001450654229666583
1253.0, 0.0018846526361800634
1254.0, 0.001472195523599073
1255.0, 0.00036714827803335575
1256.0, 0.0006239487265108386
1257.0, 0.0005991258834463142
1258.0, 0.0008600470077754766
1259.0, 0.0010073077808481425
1260.0, 0.0007546665005870437
1261.0, 0.0004978352978145701
1262.0, 0.0004236126771456216
1263.0, 0.0005462406781746706
1264.0, 0.0009996536243234478
1265.0, 0.0012891119014406102
1266.0, 0.0013114456119058847
1267.0, 0.0007051321175563592
1268.0, 0.0011206451501758203
1269.0, 0.00048669967414078817
1270.0, 0.0003271628565470172
1271.0, 0.00036295638578665696
1272.0, 0.0007328227263978316
1273.0, 0.0004299602424886418
1274.0, 8.915895890421333e-05
1275.0, 0.00043036997106190564
1276.0, 0.0006606640269973767
1277.0, 0.00047015836398496796
1278.0, 0.0006837492780649097
1279.0, 0.0006185746516733807
1280.0, 0.00039358233991496235
1281.0, 0.0007318549972731383
1282.0, 0.0003434762872543226
1283.0, 0.00010114625689774307
1284.0, 0.0002670987687302912
1285.0, 0.0009313159642564378
1286.0, 0.0006640211359972565
1287.0, 0.00023148600084640073
1288.0, 0.0002482073203150254
1289.0, 0.0002350859906698019
1290.0, 0.00030558728556514365
1291.0, 0.0005205007487708592
1292.0, 0.00034476211253223893
1293.0, 4.921611055068348e-05
1294.0, 0.0001132379240163816
1295.0, 6.019680940883108e-05
1296.0, 0.00019894611510588243
1297.0, 0.0009109144774731561
1298.0, 0.0011754171186732373
1299.0, 0.0012390281510133018
1300.0, 0.0013143979850308604
1301.0, 0.0007193029257084504
1302.0, 0.000792911522868779
1303.0, 0.0005154801082561297
1304.0, 0.0007658220521894487
1305.0, 0.0014386384061804837
1306.0, 0.0017347726431092138
1307.0, 0.0016934285105221815
1308.0, 0.0013957103244086587
1309.0, 0.00115243773151152
1310.0, 0.0013779901297118152
1311.0, 0.0011026632601486266
1312.0, 0.0010307164639488417
1313.0, 0.0007161358639169362
1314.0, 0.0007357330359701666
1315.0, 0.0010180379869239725
1316.0, 0.0007805389355269
1317.0, 0.0005853948435011504
1318.0, 0.0009131070910936745
1319.0, 0.0016592117639225913
1320.0, 0.001767041323092097
1321.0, 0.0017576388619424108
1322.0, 0.0019751004423173785
1323.0, 0.002150516477280011
1324.0, 0.002036074044181291
1325.0, 0.0012536421900354391
1326.0, 0.0019548519458124766
1327.0, 0.002456419552458624
1328.0, 0.00045277465426156547
1329.0, 0.001562071607717121
1330.0, 0.0029921864354622513
1331.0, 0.0014821961140724523
1332.0, 0.0023093491662433503
1333.0, 0.002210834403105426
1334.0, 0.002520520458880543
1335.0, 0.0018558857822015909
1336.0, 0.0018314731659522102
1337.0, 0.0020171650004351116
1338.0, 0.0023887632970537114
1339.0, 0.003218249677850628
1340.0, 0.0034981466694831787
1341.0, 0.002833103676208826
1342.0, 0.002006208078984048
1343.0, 0.0030225016060584794
1344.0, 0.0022061673884224676
1345.0, 0.001277095270132048
1346.0, 0.003684147829526377
1347.0, 0.002026905555293801
1348.0, 0.0013968150565220043
1349.0, 0.002520258032653665
1350.0, 0.0030065773578208145
1351.0, 0.0023308623748506336
1352.0, 0.002246059379612246
1353.0, 0.0031307744190956347
1354.0, 0.003424408973534315
1355.0, 0.00285067090660879
1356.0, 0.002869817542348151
1357.0, 0.0030309414529182425
1358.0, 0.002924080665754329
1359.0, 0.003956129144346376
1360.0, 0.0033571529750772776
1361.0, 0.004245634651834117
1362.0, 0.004213667316363129
1363.0, 0.003723772332189867
1364.0, 0.0034575237892530094
1365.0, 0.003239965230320592
1366.0, 0.002989578586882491
1367.0, 0.0024980551348557506
1368.0, 0.002566097361700797
1369.0, 0.002916887677004131
1370.0, 0.0029599715174727773
1371.0, 0.004139399802853413
1372.0, 0.0037435831630517535
1373.0, 0.0036309880126134835
1374.0, 0.00408834195665868
1375.0, 0.003795805729141032
1376.0, 0.004577928761894587
1377.0, 0.004676748778303957
1378.0, 0.004234614676406888
1379.0, 0.004425856244460394
1380.0, 0.005120691721125841
1381.0, 0.0038704909573227912
1382.0, 0.0031905152169941758
1383.0, 0.004140906713806006
1384.0, 0.003953325052357832
1385.0, 0.003446680067241518
1386.0, 0.0044421749565550055
1387.0, 0.004148516263075552
1388.0, 0.0038504070808632624
1389.0, 0.004205072967585306
1390.0, 0.004409804372265689
1391.0, 0.0036702737503085743
1392.0, 0.0027595425128781044
1393.0, 0.0033235123096870146
1394.0, 0.003967257078548981
1395.0, 0.00353321231857562
1396.0, 0.003987060836832794
1397.0, 0.003499675434675505
1398.0, 0.004060422349533666
1399.0, 0.003137430995349673
1400.0, 0.0035531446810396425
1401.0, 0.0028590117663036835
1402.0, 0.0038234524424394342
1403.0, 0.0044315450292270655
1404.0, 0.004019062020386829
1405.0, 0.004241975517551025
1406.0, 0.003325040220122549
1407.0, 0.0037555291770700492
1408.0, 0.004219144679029358
1409.0, 0.0036280699278375523
1410.0, 0.004275332291763456
1411.0, 0.0039652780533333655
1412.0, 0.0036017994840585638
1413.0, 0.0034312814758152175
1414.0, 0.0026664405100935607
1415.0, 0.0032844479865130655
1416.0, 0.003954381827243899
1417.0, 0.004250418714419895
1418.0, 0.003698102727586304
1419.0, 0.004326970624813974
1420.0, 0.004134577490827479
1421.0, 0.00396853616299599
1422.0, 0.004422949378980436
1423.0, 0.004087484123541793
1424.0, 0.003510181356081497
1425.0, 0.0034565338675993677
1426.0, 0.003335989262316147
1427.0, 0.0037652274163745766
1428.0, 0.0035126736965499675
1429.0, 0.0029705811714676213
1430.0, 0.002741893360951859
1431.0, 0.003245002618808215
1432.0, 0.003304571634821109
1433.0, 0.00318192818790925
1434.0, 0.0032336085878513165
1435.0, 0.0030003236906368407
1436.0, 0.0027684525753691814
1437.0, 0.002884704982525176
1438.0, 0.003248584423723894
1439.0, 0.00307109821630437
1440.0, 0.0033779685497722367
1441.0, 0.002760936251855919
1442.0, 0.0018689527807930002
1443.0, 0.002827772435209444
1444.0, 0.002841591903321555
1445.0, 0.0031051805643221336
1446.0, 0.0015649776913291827
1447.0, 0.0024588637100118986
1448.0, 0.0022375275812561955
1449.0, 0.0028615197322973433
1450.0, 0.002731679619855259
1451.0, 0.002265759454777359
1452.0, 0.001306317561340787
1453.0, 0.002292398659958177
1454.0, 0.002775732958395048
1455.0, 0.0025292321162606146
1456.0, 0.0029124598728698806
1457.0, 0.002916567548788226
1458.0, 0.002843801620883228
1459.0, 0.002904557074192368
1460.0, 0.0019129321624729802
1461.0, 0.0017670592263040587
1462.0, 0.0021087459239683853
1463.0, 0.0021838820749459373
1464.0, 0.0033061184606490964
1465.0, 0.001624023552411444
1466.0, 0.001029980896413849
1467.0, 0.0019557666044633304
1468.0, 0.0029311409589515714
1469.0, 0.0033395482580115743
1470.0, 0.0033370053390128556
1471.0, 0.0023277742711726172
1472.0, 0.00242960399122238
1473.0, 0.0021879791841920328
1474.0, 0.001590040681580681
1475.0, 0.0014098543604150688
1476.0, 0.0015786940942019646
1477.0, 0.0017028732902094233
1478.0, 0.0013891405753411062
1479.0, 0.002137939776264651
1480.0, 0.0020546102004530215
1481.0, 0.0022446220907536086
1482.0, 0.0030962676019384745
1483.0, 0.0019219123727566808
1484.0, 0.0010328523830680652
1485.0, 0.0019099381336173049
1486.0, 0.0021599844733909755
1487.0, 0.001428564397440677
1488.0, 0.002318075519031964
1489.0, 0.00034916950327605357
1490.0, 0.0008709980928538789
1491.0, 0.0015670579770998652
1492.0, 0.0018712176785347933
1493.0, 0.0005744457207507843
1494.0, 0.0004397017067614492
1495.0, 0.0008888619814466697
1496.0, 0.0006918746823191141
1497.0, 0.0010260329096474586
1498.0, 0.0013311197001079171
1499.0, 0.0006781686314085405
1500.0, 0.0001601073988328713
1501.0, 0.0007995784210002406
1502.0, 0.0005197361101412003
1503.0, 0.00026293952733890395
1504.0, 0.0011804422436827978
1505.0, 0.0012330741020892754
1506.0, 0.0009994529766255368
1507.0, 0.00074214606781932
1508.0, 0.00044984073288949076
1509.0, 0.00045861944825268276
1510.0, 0.0006428936653563666
1511.0, 0.000995956824571091
1512.0, 0.001051789335842001
1513.0, 0.0010153875310380735
1514.0, 0.0009097389785896725
1515.0, 0.000660419534550362
1516.0, 0.0004130858115802235
1517.0, 8.98070273086604e-05
1518.0, 0.0002553687548940586
1519.0, 0.0007724315253116404
1520.0, 0.001626680043847376
1521.0, 0.0017044407901151018
1522.0, 0.0021639116893275787
1523.0, 0.002114539361011189
1524.0, 0.002328949804619353
1525.0, 0.0014787355515608052
1526.0, 0.001254156685592874
1527.0, 0.00038968031738233764
1528.0, 0.001986541054940192
1529.0, 0.0022656294370172977
1530.0, 0.0019421812031289426
1531.0, 0.0015764862191012814
1532.0, 0.0015389090972168405
1533.0, 0.0013502460086754703
1534.0, 0.001199741202924088
1535.0, 0.001128757945227202
1536.0, 0.0010565290823660392
1537.0, 0.0009514014971058582
1538.0, 0.0008709830529997956
1539.0, 0.0017452166289364092
1540.0, 0.002281886181162718
1541.0, 0.0019377255321091562
1542.0, 0.0019848235610998135
1543.0, 0.001385565423749766
1544.0, 0.0010868526877199033
1545.0, 0.0014371833751752727
1546.0, 0.0011137641055285743
1547.0, 0.001307495754641553
1548.0, 0.0013095741025208512
1549.0, 0.0022267566995193273
1550.0, 0.003034079056443616
1551.0, 0.00322434220166557
1552.0, 0.003219229922453622
1553.0, 0.00481213414638708
1554.0, 0.005618250554577125
1555.0, 0.006060946490311147
1556.0, 0.004016970694871474
1557.0, 0.0015313936768482335
1558.0, 0.0001373670598600608
1559.0, 6.821059044953704e-05
1560.0, 0.00189846123601409
1561.0, 0.001702253909374029
1562.0, 0.0012189144553406961
1563.0, 0.0005141902289915825
1564.0, 0.00115474722353656
1565.0, 0.0014368448450456138
1566.0, 0.002082543204934411
1567.0, 0.002134412619715469
1568.0, 0.0006706259447159576
1569.0, 0.0008434770820605925
1570.0, 0.00048324586201861283
1571, 0.0
1572, 0.0
1573, 0.0
1574, 0.0
1575, 0.0
1576, 0.0
1577, 0.0
1578, 0.0
1579, 0.0
1580, 0.0
1581, 0.0
1582, 0.0
1583, 0.0
1584, 0.0
1585, 0.0
1586, 0.0
1587, 0.0
1588, 0.0
1589, 0.0
1590, 0.0
1591, 0.0
1592, 0.0
1593, 0.0
1594, 0.0
1595, 0.0
1596, 0.0
1597, 0.0
1598, 0.0
1599, 0.0
