30, 0.0
31, 0.0
32, 0.0
33, 0.0
34, 0.0
35, 0.0
36, 0.0
37, 0.0
38, 0.0
39, 0.0
40, 0.0
41, 0.0
42, 0.0
43, 0.0
44, 0.0
45, 0.0
46, 0.0
47, 0.0
48, 0.0
49, 0.0
50, 0.0
51, 0.0
52.0, 2.5285743670452282e-05
53.0, 0.00010263590599104061
54.0, 0.00021750378657935614
55.0, 3.303002775273891e-05
56.0, 4.6193946627561484e-05
57.0, 7.037417109206062e-05
58.0, 0.0001120382321331555
59.0, 0.00020892519794921246
60.0, 0.0003123766530630549
61.0, 0.0001399262170307216
62.0, 7.564482114688991e-05
63.0, 6.351859148357718e-05
64.0, 5.462301606415104e-05
65.0, 0.00018424194286518236
66.0, 7.644506708485096e-05
67.0, 0.0001205658898047291
68.0, 0.00015439685974264953
69.0, 0.00014838742707276727
70.0, 0.00030158825970454496
71.0, 0.0005399129603636309
72.0, 0.0005122190068384903
73.0, 0.000544377211417857
74.0, 0.0006716484236653673
75.0, 0.0007012169640925264
76.0, 0.0006084881902242088
77.0, 0.0007073266889667984
78.0, 0.0007230215019232163
79.0, 0.000601315794815145
80.0, 0.0004313415829215443
81.0, 0.0005771254073172619
82.0, 0.0007465952295700888
83.0, 0.0008873104229620451
84.0, 0.0010251267338697828
85.0, 0.0011317565404709857
86.0, 0.0009551956244248253
87.0, 0.00102083733518389
88.0, 0.0009704023344727318
89.0, 0.0009858442235511423
90.0, 0.0011836052322395454
91.0, 0.0014974716536176659
92.0, 0.0016136822576603704
93.0, 0.0014036341169844963
94.0, 0.001338199385605598
95.0, 0.001410177149233737
96.0, 0.0012551806870429532
97.0, 0.0012227983288973037
98.0, 0.0013389779584354411
99.0, 0.0015106218787354323
100.0, 0.0015513730400431116
101.0, 0.0013494966371513793
102.0, 0.0013658034265387141
103.0, 0.0012199340023403863
104.0, 0.0012733355875036282
105.0, 0.0015156724874337032
106.0, 0.001853981709035195
107.0, 0.0021814391935450774
108.0, 0.002125141849743566
109.0, 0.0023262302507911707
110.0, 0.0023042331580969823
111.0, 0.0019118078536272786
112.0, 0.0014638486341327138
113.0, 0.001550526950249675
114.0, 0.0015744189166315595
115.0, 0.0015154643278345893
116.0, 0.0014858236108093647
117.0, 0.001623515962807176
118.0, 0.0017724842066080065
119.0, 0.0013433833849249477
120.0, 0.0011980956660956046
121.0, 0.0013041131243899079
122.0, 0.0014529527539173936
123.0, 0.001547300894858837
124.0, 0.00129610724367539
125.0, 0.0011744416110768964
126.0, 0.0011050771311716088
127.0, 0.0010178180631701262
128.0, 0.0009121050028123661
129.0, 0.001129869496940821
130.0, 0.0013246712915193565
131.0, 0.0014573673753111504
132.0, 0.0014969097330377746
133.0, 0.0014276206331466452
134.0, 0.0012735174108464745
135.0, 0.0012512225471332892
136.0, 0.0015035502486253896
137.0, 0.0015947091707761557
138.0, 0.001308362597127535
139.0, 0.0012353172611274043
140.0, 0.0014382855898768937
141.0, 0.0012907900760580644
142.0, 0.0010869888916312284
143.0, 0.0010402423806460562
144.0, 0.0011971737728631094
145.0, 0.001216374567403218
146.0, 0.0012677559313429437
147.0, 0.0012339257565416118
148.0, 0.0011732301098230868
149.0, 0.0011892104721760147
150.0, 0.0012674168199129276
151.0, 0.0012753201710292874
152.0, 0.0014314221400076642
153.0, 0.0014954605464195213
154.0, 0.0014376939947758503
155.0, 0.0016546104650164556
156.0, 0.0016359846414190711
157.0, 0.0021939530309437586
158.0, 0.0027444994320492528
159.0, 0.003208461837540901
160.0, 0.003933173571372657
161.0, 0.005910174143360487
162.0, 0.008992450663237074
163.0, 0.012999577240818965
164.0, 0.017887210024908343
165.0, 0.023114990453830322
166.0, 0.027030095537316504
167.0, 0.030915471544790695
168.0, 0.03488654803519576
169.0, 0.038077519562886505
170.0, 0.04085405424372991
171.0, 0.044430554797685776
172.0, 0.047035587900632086
173.0, 0.04859438056082368
174.0, 0.05235997325391249
175.0, 0.05576250520847077
176.0, 0.05510902926615747
177.0, 0.04877448475200599
178.0, 0.038562683596415126
179.0, 0.027926623942610872
180.0, 0.018745348155173334
181.0, 0.01199123042168532
182.0, 0.007660455751580358
183.0, 0.005048431257360151
184.0, 0.003844621332508779
185.0, 0.0029812383404137542
186.0, 0.0022288108557312583
187.0, 0.001725851871925776
188.0, 0.001823653656548208
189.0, 0.0010128521804355075
190.0, 0.0011838675329139971
191.0, 0.0012619762813850174
192.0, 0.0008465078873233113
193.0, 0.000586061889514635
194.0, 0.0005398677392096497
195.0, 0.0006995546150011925
196.0, 0.0006194260155322011
197.0, 0.00041447337886020764
198.0, 0.00029633607737890603
199.0, 7.203730513176702e-05
200.0, 0.00026676927198642175
201.0, 0.000198242208226259
202.0, 0.0002724814587938375
203.0, 0.0004518885773570427
204.0, 0.00021501031677948233
205.0, 0.00024899444193719056
206.0, 0.0004207855004268691
207.0, 0.0006445114082463668
208.0, 0.0007701504274257471
209.0, 0.0007327359416210651
210.0, 0.0007604303695577363
211.0, 0.0006249862638112587
212.0, 0.0006038115662024793
213.0, 0.0005486342325815071
214.0, 0.0003568124084716408
215.0, 7.401844507767e-05
216.0, 0.0005220835165859444
217.0, 0.0009027291868035482
218.0, 0.0021257822639536993
219.0, 0.00337085058304574
220.0, 0.004287479092386094
221.0, 0.006571669839607632
222.0, 0.00854764515343886
223.0, 0.010836703664174736
224.0, 0.015215522539100058
225.0, 0.021947553477357825
226.0, 0.030499662955878967
227.0, 0.04266830431634407
228.0, 0.052222961562679214
229.0, 0.05684376382727412
230.0, 0.06007657074428733
231.0, 0.06602020179633379
232.0, 0.07725759787289742
233.0, 0.08528701748797128
234.0, 0.08858092313744055
235.0, 0.08936984379031587
236.0, 0.09237501438981818
237.0, 0.09998914258282643
238.0, 0.10284752084258716
239.0, 0.09132941855938351
240.0, 0.07263668828325838
241.0, 0.05195037825932732
242.0, 0.03343505563969852
243.0, 0.019727350302769404
244.0, 0.011879505248917625
245.0, 0.0072732738468052425
246.0, 0.00446680840624364
247.0, 0.0026995649925945163
248.0, 0.0015746596997190886
249.0, 0.0011528142720923008
250.0, 0.0009415422443241404
251.0, 0.0006906009813432566
252.0, 0.0008757368662895992
253.0, 0.001431470798241986
254.0, 0.0022202936533403683
255.0, 0.0042382255571890995
256.0, 0.0056951039199681745
257.0, 0.007543201724644637
258.0, 0.009188522175813785
259.0, 0.010450107101618382
260.0, 0.011737110422040283
261.0, 0.01283267596381932
262.0, 0.013810884876856873
263.0, 0.014752199770994541
264.0, 0.015537952534897186
265.0, 0.01643024471114527
266.0, 0.018463837258607993
267.0, 0.018312388049586664
268.0, 0.015289536957484527
269.0, 0.011133548881810371
270.0, 0.0070230241170367545
271.0, 0.003694025530457173
272.0, 0.0017455107031963061
273.0, 0.0008412373394705856
274.0, 0.0008973431731493364
275.0, 0.0011563743400618484
276.0, 0.001142632161889346
277.0, 0.000870865529425496
278.0, 0.0013873783577764548
279.0, 0.0011351117192062719
280.0, 0.0009963907729779345
281.0, 0.0010049799907636174
282.0, 0.0009986708281074432
283.0, 0.0008114899754825449
284.0, 0.0006238343273527242
285.0, 0.0003821036634692717
286.0, 0.00026616350836946076
287.0, 0.0003991579637566141
288.0, 0.0008236919457391296
289.0, 0.0014638585068197448
290.0, 0.0017387986022287176
291.0, 0.001688760521132306
292.0, 0.0018360375379041227
293.0, 0.0023795678322868913
294.0, 0.003367084450328444
295.0, 0.005152182844030053
296.0, 0.005535171457531423
297.0, 0.006328480728426148
298.0, 0.007955301055295074
299.0, 0.010367041936105763
300.0, 0.013341581077203995
301.0, 0.017685311963459537
302.0, 0.02533737279683069
303.0, 0.03345708183701115
304.0, 0.04150789657188481
305.0, 0.049337590991900666
306.0, 0.05684171130543992
307.0, 0.06427678541104195
308.0, 0.07071539862402029
309.0, 0.07775036141393318
310.0, 0.08395752310462554
311.0, 0.0887222358630665
312.0, 0.09420884427737196
313.0, 0.10174700316986297
314.0, 0.1006873445962778
315.0, 0.09318110197642959
316.0, 0.08041208913832248
317.0, 0.06463350675558317
318.0, 0.051117004862661575
319.0, 0.04406137470989256
320.0, 0.039855713081392796
321.0, 0.03849093538019956
322.0, 0.038798644388560656
323.0, 0.039222320645122585
324.0, 0.038987055021797286
325.0, 0.040682152231908825
326.0, 0.039143462856816885
327.0, 0.03736544364183396
328.0, 0.035029373155096626
329.0, 0.030170139493242716
330.0, 0.024868732122454332
331.0, 0.019671221280863516
332.0, 0.016880145162938755
333.0, 0.01574286584857546
334.0, 0.015418472113505246
335.0, 0.015425746069607558
336.0, 0.01595442690527626
337.0, 0.017432310089557982
338.0, 0.02004253819552229
339.0, 0.023153795256005295
340.0, 0.026528253579745472
341.0, 0.030780077354495644
342.0, 0.03903101494637955
343.0, 0.04736547447220254
344.0, 0.05611989291846509
345.0, 0.06465339828893299
346.0, 0.07290002251424291
347.0, 0.08171956231293406
348.0, 0.09297826200751741
349.0, 0.10230698076027699
350.0, 0.11355674947032214
351.0, 0.1254498532660989
352.0, 0.136030478850666
353.0, 0.1443385519842141
354.0, 0.15320530819056724
355.0, 0.15713629108747018
356.0, 0.16493024187038977
357.0, 0.18114235894605174
358.0, 0.20755043032778503
359.0, 0.24434686989647172
360.0, 0.303806461004989
361.0, 0.37601121460316145
362.0, 0.45576801394716443
363.0, 0.5339464825582199
364.0, 0.6075488683810687
365.0, 0.6827619180452269
366.0, 0.7563090870810855
367.0, 0.8313659082657265
368.0, 0.8947106693360851
369.0, 0.9448789482130562
370.0, 0.9811455961083997
371.0, 0.9988113731650363
372.0, 0.9790009259156419
373.0, 0.90701466400514
374.0, 0.8003749676288704
375.0, 0.6739058873446009
376.0, 0.544262195187727
377.0, 0.428511125622695
378.0, 0.33997744782846306
379.0, 0.26898764285204413
380.0, 0.2159890123807321
381.0, 0.17599417313029725
382.0, 0.14386679118920437
383.0, 0.11704062323788052
384.0, 0.09698521746064241
385.0, 0.0821572271583206
386.0, 0.07012848111857604
387.0, 0.05927754278863294
388.0, 0.04991419722991888
389.0, 0.04388074409399614
390.0, 0.038951482661273934
391.0, 0.034678423853526735
392.0, 0.031090362834857714
393.0, 0.02807960003240418
394.0, 0.025291630835195523
395.0, 0.022410034869585146
396.0, 0.0206407823412131
397.0, 0.018896203416152207
398.0, 0.017783351973901258
399.0, 0.016413311357305848
400.0, 0.014627474206191775
401.0, 0.013206201622040392
402.0, 0.013241912617985203
403.0, 0.012095149424158973
404.0, 0.011058133077259426
405.0, 0.010291893964034245
406.0, 0.009640531518654398
407.0, 0.00891112974978513
408.0, 0.008352012632339166
409.0, 0.007846689153848436
410.0, 0.007368536793213758
411.0, 0.00687335415051756
412.0, 0.006378426936841571
413.0, 0.005880796329238029
414.0, 0.005204815733267443
415.0, 0.004502744435977311
416.0, 0.004099588864926878
417.0, 0.0035669943735827853
418.0, 0.003131855417968739
419.0, 0.002976617466635499
420.0, 0.002462485673559704
421.0, 0.002115471058792572
422.0, 0.0016232755042208617
423.0, 0.0012973175075558462
424.0, 0.0009871788609737704
425.0, 0.0007586248172006337
426.0, 0.0011825799401049713
427.0, 0.0006897626716618828
428.0, 0.000690589494921428
429.0, 0.0009008066978000965
430.0, 0.0008755963396129068
431.0, 0.0005467962739493143
432.0, 0.0003384836651911448
433.0, 0.00047610163668190136
434.0, 0.00042164997137156507
435.0, 0.0008370149000478185
436.0, 0.00110828794518055
437.0, 0.0012826580885177217
438.0, 0.002002374922618575
439.0, 0.002992823408793536
440.0, 0.00417485268063545
441.0, 0.005660607879177731
442.0, 0.007164408457805681
443.0, 0.00895286965917513
444.0, 0.011338490346514362
445.0, 0.013724322288287906
446.0, 0.01600350260880087
447.0, 0.018272312049679593
448.0, 0.020381315687720305
449.0, 0.0222198507341002
450.0, 0.023901101484110322
451.0, 0.025795422276653275
452.0, 0.026573908855642314
453.0, 0.025842726310301094
454.0, 0.024291462748314348
455.0, 0.021450408462052522
456.0, 0.017405714347906987
457.0, 0.01321799880692243
458.0, 0.00970344232338631
459.0, 0.006499452470102664
460.0, 0.004670284520553102
461.0, 0.0032344147577530635
462.0, 0.001965843522066086
463.0, 0.0012681871737793152
464.0, 0.0007759922854189193
465.0, 0.001059865373292188
466.0, 0.0009121653927082488
467.0, 0.0007586460401304368
468.0, 0.0007319764441832136
469.0, 0.0008807198449377572
470.0, 0.0013942856765161464
471.0, 0.0011748457930417704
472.0, 0.0016114764749321719
473.0, 0.0018603407454699727
474.0, 0.002063815230817912
475.0, 0.0025302508055966722
476.0, 0.0033547624487826064
477.0, 0.004280849921152313
478.0, 0.005258148700821754
479.0, 0.00650536522238719
480.0, 0.008410736972943143
481.0, 0.011082025810104194
482.0, 0.01411048377798649
483.0, 0.016329636460435587
484.0, 0.020164974427285615
485.0, 0.02586367260177771
486.0, 0.031853335423576754
487.0, 0.03698532388037833
488.0, 0.041606344984584376
489.0, 0.04759991045079065
490.0, 0.05324707790471467
491.0, 0.05863902159639731
492.0, 0.06292440889499437
493.0, 0.06546219723142975
494.0, 0.06637153910305621
495.0, 0.06592852002777122
496.0, 0.062650765037928
497.0, 0.057969510583587916
498.0, 0.052202733279585585
499.0, 0.04775750786351781
500.0, 0.04535702071708148
501.0, 0.04487649422330132
502.0, 0.04663671013034131
503.0, 0.0556435841997814
504.0, 0.06594348982242111
505.0, 0.08295808850735575
506.0, 0.10653286075248274
507.0, 0.1357656771249902
508.0, 0.16909324393824046
509.0, 0.20017487111587046
510.0, 0.23556308793325442
511.0, 0.26913235085605736
512.0, 0.30200608200501666
513.0, 0.3339260325194045
514.0, 0.361898758809706
515.0, 0.38050201884909146
516.0, 0.390296374323878
517.0, 0.38198758568915386
518.0, 0.355821900021698
519.0, 0.3135596243178748
520.0, 0.26178207791101776
521.0, 0.21000215333681488
522.0, 0.16546028214864156
523.0, 0.12999697200395618
524.0, 0.10206701417067439
525.0, 0.08183203785416056
526.0, 0.06702419696588247
527.0, 0.0558630317936405
528.0, 0.04860428944534781
529.0, 0.04226561824912638
530.0, 0.037937719310901695
531.0, 0.034070460164698065
532.0, 0.030422229944892673
533.0, 0.027494055821270586
534.0, 0.02578042758806299
535.0, 0.024680948140460433
536.0, 0.024460613992998096
537.0, 0.02286191844592125
538.0, 0.021947750968990543
539.0, 0.021781367307121338
540.0, 0.021738603764102367
541.0, 0.02143203333239366
542.0, 0.02142373215671742
543.0, 0.022554223348921626
544.0, 0.023724562208381636
545.0, 0.025174230159050195
546.0, 0.026789364748754825
547.0, 0.02813163092434176
548.0, 0.02885728810698173
549.0, 0.0312041658860895
550.0, 0.03215193552468831
551.0, 0.03268433314539697
552.0, 0.03325973160095972
553.0, 0.033455447975893234
554.0, 0.032501213251347055
555.0, 0.030486036330014385
556.0, 0.027412757013356465
557.0, 0.024015828259053424
558.0, 0.019937217129571437
559.0, 0.016376729881035706
560.0, 0.013799264963310609
561.0, 0.011588708400620314
562.0, 0.011016555864542492
563.0, 0.008679722723472203
564.0, 0.00824940459968822
565.0, 0.007717381445974968
566.0, 0.007299944561130667
567.0, 0.007438165946099761
568.0, 0.0071153977508047325
569.0, 0.007447315707501701
570.0, 0.0076296462749650944
571.0, 0.008008926194898538
572.0, 0.008017202345616986
573.0, 0.008072140962768936
574.0, 0.008546051669998686
575.0, 0.008296732660043497
576.0, 0.008231299353750766
577.0, 0.008524565220611253
578.0, 0.00788382859527227
579.0, 0.00720076521965671
580.0, 0.006749624444300383
581.0, 0.006012416214267095
582.0, 0.004933182707106564
583.0, 0.004058774648894614
584.0, 0.004024027162106811
585.0, 0.004270843828047993
586.0, 0.003957200144535133
587.0, 0.0035789415703496234
588.0, 0.004153560727652605
589.0, 0.00347297520666229
590.0, 0.0036181598997072554
591.0, 0.003947601940919403
592.0, 0.0037426807951502325
593.0, 0.0038387570469552387
594.0, 0.0039680133602667846
595.0, 0.0027539908616735042
596.0, 0.002944612905117301
597.0, 0.0027584325690556697
598.0, 0.0032096704475765795
599.0, 0.003115863240318599
600.0, 0.0026795155439770495
601.0, 0.002462865547916143
602.0, 0.002400840421851741
603.0, 0.0014832414102174281
604.0, 0.0020864851314904382
605.0, 0.0016274964557082534
606.0, 0.0014862790201928386
607.0, 0.0015874866541147358
608.0, 0.0013847510699941607
609.0, 0.0009961670631241503
610.0, 0.0006568760113316733
611.0, 0.0004976347162255715
612.0, 0.0006361496339946117
613.0, 0.0005406655225514326
614.0, 0.00025925177710067895
615.0, 0.00011866930701858133
616.0, 0.00023911026857496788
617.0, 0.00015500570085712458
618.0, 0.0001933762105336921
619.0, 0.00034562960651617785
620.0, 0.0004979479599999202
621.0, 0.00046575200227584016
622.0, 0.0003253872249298324
623.0, 0.000452241448153196
624.0, 0.00019707745967865404
625.0, 0.0005152103245288318
626.0, 0.0002532424696123172
627.0, 0.0002050283715722515
628.0, 0.00025873718016741965
629.0, 0.0001944703929966621
630.0, 0.0003772118214926985
631.0, 3.459300810515687e-05
632.0, 2.9492026924698055e-05
633.0, 3.722126609794732e-05
634.0, 0.0003761392406632732
635.0, 0.0005066301544168758
636.0, 0.00023334922333116345
637.0, 0.0003071902130753858
638.0, 0.00023370028564309673
639.0, 0.00017419144965498504
640.0, 0.0001899564004337706
641.0, 0.00020982403383453896
642.0, 0.00017457747607006245
643.0, 8.669469075301241e-05
644.0, 1.38243768482231e-05
645.0, 2.3667384151522505e-05
646.0, 4.140544422119136e-05
647.0, 2.418757463324538e-05
648.0, 0.00016905895687307793
649.0, 0.00021173617875415557
650.0, 0.00012236136789508685
651.0, 0.00021190511174875112
652.0, 0.00023791656241426334
653.0, 0.00012506817728390575
654.0, 0.00019893761304763959
655.0, 0.00013849554739348512
656.0, 0.0001323182016596942
657.0, 0.00026741150636968723
658.0, 0.00032441872384938867
659.0, 2.9559628424562584e-05
660.0, 0.00014530773842665956
661.0, 0.00019505068871210327
662.0, 0.0004168787421287744
663.0, 0.0006526338023319051
664.0, 0.0005976841991373362
665.0, 0.00025209382231683697
666.0, 0.00027424350060375915
667.0, 0.00022922992219563123
668.0, 0.00020111898487143603
669.0, 0.00020550436463323308
670.0, 0.00016867709642358358
671.0, 0.0002023142850861327
672.0, 0.0002888346801449221
673.0, 0.00010118328813394808
674.0, 0.00023863552006784145
675.0, 0.00018202783231184444
676.0, 0.00010621655688830994
677.0, 0.0003364411733498932
678.0, 0.0004332073704315959
679.0, 0.00019058217776706188
680.0, 7.294406711489333e-05
681.0, 3.3575926740354476e-06
682.0, 0.00020299859681176843
683.0, 0.000422311200225612
684.0, 0.0005027129933165114
685.0, 0.0003618590089882143
686.0, 0.00023779801147077277
687.0, 0.0003228747928507882
688.0, 2.7909454038642817e-05
689.0, 0.00046397157923576177
690.0, 0.00021396762215637288
691.0, 0.00011705071668198318
692.0, 0.00015913294670050738
693.0, 0.0001628397620852068
694.0, 7.079736802595107e-05
695.0, 1.7845599465080626e-05
696.0, 0.00011666139131438796
697.0, 0.00017674059194209313
698.0, 8.321445704869646e-05
699.0, 9.308473034339085e-05
700.0, 0.0001569737832264517
701.0, 0.00025135433050358226
702.0, 0.00045189155125495954
703.0, 0.00039385126328999996
704.0, 0.0003914409882109778
705.0, 0.0005656175901943103
706.0, 0.0007240641312571715
707.0, 0.0005997393446531452
708.0, 0.0004396715100601326
709.0, 0.0007162732471283576
710.0, 0.0013490644926030578
711.0, 0.0009975592883018263
712.0, 0.000889016127783625
713.0, 0.001079119341068111
714.0, 0.0009218951311806416
715.0, 0.0008356587880032641
716.0, 0.0009695540975456631
717.0, 0.00062135255802841
718.0, 0.00013348643513081548
719.0, 5.4253702481716945e-05
720.0, 0.0004269478562953411
721.0, 0.00046078930648017026
722.0, 0.00047563632069993805
723.0, 0.000585936586309926
724.0, 0.0006196882182828024
725.0, 0.0006987525223984671
726.0, 0.0009323419828472571
727.0, 0.0004024910394867348
728.0, 0.00020088728557852702
729.0, 0.00013024996240384762
730.0, 0.00010947876362675554
731.0, 0.00011816995318732437
732.0, 0.00012652550163943333
733.0, 0.00028659257882556675
734.0, 0.0001164531922239169
735.0, 0.0005731357575229042
736.0, 0.0006882506847567558
737.0, 0.0007532948620274406
738.0, 0.0005989478222644224
739.0, 0.00021564708410754636
740.0, 0.0004701615926127117
741.0, 0.0007865047733822633
742.0, 0.0013720608027401942
743.0, 0.0009918286726602196
744.0, 0.000514002676766839
745.0, 0.00037483639443548105
746.0, 0.0006371834922473081
747.0, 0.0009707516989085914
748.0, 0.0006911669254628101
749.0, 0.0011195814074680395
750.0, 0.0007531968654868049
751.0, 0.000967507051676293
752.0, 0.0009753391979253153
753.0, 0.0007235920835018614
754.0, 0.000625553165401056
755.0, 0.0007552706646128463
756.0, 0.0003335874913170784
757.0, 0.0002792621736306626
758.0, 0.0002532248655008867
759.0, 9.277205795891547e-05
760.0, 1.9589172573428134e-05
761.0, 0.00012023042231316593
762.0, 0.00020908260261070916
763.0, 5.6281207811186376e-05
764.0, 7.9103529041652e-05
765.0, 0.00023914843214623365
766.0, 0.0005188137090287319
767.0, 0.0008889828831389496
768.0, 0.001154905186700159
769.0, 0.0013078673187299267
770.0, 0.0013892207728488173
771.0, 0.0013929040335059306
772.0, 0.0022562541788407517
773.0, 0.002318228199724855
774.0, 0.0020796802827561067
775.0, 0.0025573531365209318
776.0, 0.003102686394101613
777.0, 0.00324803634577508
778.0, 0.0032360057532736966
779.0, 0.0034180871794717294
780.0, 0.0038917739082572223
781.0, 0.0040683108381340035
782.0, 0.004250908774250016
783.0, 0.0047176329177142555
784.0, 0.004905319745038736
785.0, 0.00514726462918837
786.0, 0.005988146815275415
787.0, 0.006372410320196833
788.0, 0.007181057682237632
789.0, 0.00870667330192808
790.0, 0.009162006568240101
791.0, 0.009830223291225916
792.0, 0.01079834553169642
793.0, 0.012296726355375952
794.0, 0.014416757054178771
795.0, 0.015909679392335608
796.0, 0.018723607052446037
797.0, 0.02012672131708622
798.0, 0.022525789218510478
799.0, 0.02470515468537857
800.0, 0.028069757366757635
801.0, 0.03217353405847992
802.0, 0.03623399118982837
803.0, 0.04358887930926873
804.0, 0.050679306896595645
805.0, 0.05993774414155691
806.0, 0.071508924261115
807.0, 0.08565294546300303
808.0, 0.10275804519291284
809.0, 0.12230715390111448
810.0, 0.14327956666248665
811.0, 0.16501447557362442
812.0, 0.18503663922942268
813.0, 0.20324058811958437
814.0, 0.2181538425092503
815.0, 0.22620899824703136
816.0, 0.22823754810958968
817.0, 0.22185555134819587
818.0, 0.2064410910569874
819.0, 0.1883650431823189
820.0, 0.16248030528512247
821.0, 0.13928530476405387
822.0, 0.1192765418947646
823.0, 0.10326699532350143
824.0, 0.09177263295543936
825.0, 0.08255620122744559
826.0, 0.0758040817427027
827.0, 0.07500150579363567
828.0, 0.07305663131382555
829.0, 0.07560713881287973
830.0, 0.0804333476543696
831.0, 0.08732443854072963
832.0, 0.09788917866040106
833.0, 0.11074443377783129
834.0, 0.1248070896720582
835.0, 0.14161962998179514
836.0, 0.16225712264297937
837.0, 0.18148440249926764
838.0, 0.20245288599637953
839.0, 0.21978729399289043
840.0, 0.23378321245530762
841.0, 0.24299249064630415
842.0, 0.24538388184147275
843.0, 0.23986913059645515
844.0, 0.22643859723865228
845.0, 0.2049060465864286
846.0, 0.18306820480455038
847.0, 0.15854205568112986
848.0, 0.1353419324241061
849.0, 0.11514044105171654
850.0, 0.09862573123388688
851.0, 0.08552710908326841
852.0, 0.07467128736541305
853.0, 0.06625551305662407
854.0, 0.059376509833799274
855.0, 0.054104035556706585
856.0, 0.05064601735280143
857.0, 0.0483641459906105
858.0, 0.046556712354160035
859.0, 0.04552531075799746
860.0, 0.04608500538678223
861.0, 0.04791256902619976
862.0, 0.05183891319241296
863.0, 0.05746582951451336
864.0, 0.06495598306286578
865.0, 0.07453898013477749
866.0, 0.08761243343912366
867.0, 0.10504577158336662
868.0, 0.12574177520219182
869.0, 0.1468906213910568
870.0, 0.16698714099146497
871.0, 0.18967915367891075
872.0, 0.2048845337315095
873.0, 0.22065507681315003
874.0, 0.22885713732588156
875.0, 0.223524274811738
876.0, 0.20579457717817498
877.0, 0.18018640876790937
878.0, 0.14851559007366552
879.0, 0.11612913838213137
880.0, 0.09097638990822324
881.0, 0.07082002944302808
882.0, 0.054823153923242954
883.0, 0.042940762514557924
884.0, 0.034350475151469766
885.0, 0.02807594229482833
886.0, 0.02345807614839916
887.0, 0.01918626577460575
888.0, 0.017081892708860888
889.0, 0.014103998316395847
890.0, 0.012623636168032316
891.0, 0.011186633466825037
892.0, 0.01005257297370263
893.0, 0.00914961513646952
894.0, 0.007885579512017779
895.0, 0.006541313935301368
896.0, 0.006444612609421691
897.0, 0.005616202394650248
898.0, 0.005190650413148912
899.0, 0.005302340643494749
900.0, 0.004935242433893939
901.0, 0.0041439161542259585
902.0, 0.0038678306124214357
903.0, 0.004034747478292662
904.0, 0.003083981377873757
905.0, 0.003687026775403569
906.0, 0.003553702731448844
907.0, 0.0035127758337853182
908.0, 0.0033718486755082164
909.0, 0.003096291886921874
910.0, 0.0028209659634134366
911.0, 0.0026025885993311284
912.0, 0.0023761853612560137
913.0, 0.002135212657372129
914.0, 0.001909070391717237
915.0, 0.0021799026160161735
916.0, 0.002181110964493291
917.0, 0.0018583608647967306
918.0, 0.0017196637630105226
919.0, 0.0015356033821004398
920.0, 0.0010762841828995191
921.0, 0.00086743082902582
922.0, 0.0015247356376759834
923.0, 0.0008278198678493441
924.0, 0.0005909934691210639
925.0, 0.0009143939478417735
926.0, 0.0011085841574250117
927.0, 0.0010887336154212137
928.0, 0.0011539612990866918
929.0, 0.0010225669582947805
930.0, 0.0004958303178671028
931.0, 0.0005469943982542829
932.0, 0.0001145786581009618
933.0, 0.00040955748102984384
934.0, 0.0004897022720081156
935.0, 0.0008349160548537906
936.0, 0.00045261348054431553
937.0, 4.28797879342068e-05
938.0, 0.00012467140535373005
939.0, 0.00025661083755366124
940.0, 0.00024865755051583973
941.0, 0.0004302904118558153
942.0, 0.0003103499458175215
943.0, 0.0004885642543838168
944.0, 0.0007660449929924027
945.0, 0.0005886232142759279
946.0, 0.0007090103427698535
947.0, 0.0009938332923135598
948.0, 0.0008878454015514494
949.0, 0.0008763245292957484
950.0, 0.0010102624952622182
951.0, 0.0008908412397161929
952.0, 0.0009730198380339132
953.0, 0.0012565365441847066
954.0, 0.0010443125548900063
955.0, 0.0011391147132861767
956.0, 0.0014161878313221875
957.0, 0.0015035303568689403
958.0, 0.0016758246124397515
959.0, 0.0015695251990104563
960.0, 0.0011771783492563726
961.0, 0.0016843463426152213
962.0, 0.002299252252053018
963.0, 0.002258858827026938
964.0, 0.0023298541112626338
965.0, 0.0022391399907268484
966.0, 0.0022216828092875263
967.0, 0.002763608053396799
968.0, 0.0028442313520899275
969.0, 0.0028292098894558875
970.0, 0.0028981923907035368
971.0, 0.003426320210247016
972.0, 0.0037712555235693054
973.0, 0.0038131646634487412
974.0, 0.0039881071208352015
975.0, 0.004239069651047743
976.0, 0.004413795157895559
977.0, 0.004706475844880104
978.0, 0.004884291511452941
979.0, 0.005473091915019684
980.0, 0.005991619748362612
981.0, 0.006334683028903016
982.0, 0.006820717861148115
983.0, 0.007655903274201389
984.0, 0.008943696449131146
985.0, 0.01065362349345181
986.0, 0.012963252968399881
987.0, 0.01626835814953992
988.0, 0.019926532120519976
989.0, 0.02429867581754626
990.0, 0.029439521573433467
991.0, 0.03502910608415288
992.0, 0.04111960747383009
993.0, 0.04664492349319123
994.0, 0.049806614545115445
995.0, 0.051275786425682104
996.0, 0.05187664382055769
997.0, 0.04781613972828139
998.0, 0.04272216778848363
999.0, 0.03588660904547744
1000.0, 0.028953885153146893
1001.0, 0.022424059633983792
1002.0, 0.017919763225826047
1003.0, 0.014030988150271971
1004.0, 0.010750421380467492
1005.0, 0.008933380649194444
1006.0, 0.0079160533798517
1007.0, 0.006596040224525734
1008.0, 0.005697926344777352
1009.0, 0.004698927874658854
1010.0, 0.004177727408866702
1011.0, 0.00387247925950996
1012.0, 0.003505484965789533
1013.0, 0.0031740615447092553
1014.0, 0.002922609916964108
1015.0, 0.002775314671055768
1016.0, 0.0027266462692545758
1017.0, 0.0024180394303432353
1018.0, 0.0024183495117989463
1019.0, 0.002520010052600174
1020.0, 0.0022088000859411708
1021.0, 0.0020502541648332404
1022.0, 0.0015901733025583487
1023.0, 0.001406443611787561
1024.0, 0.0015092480600915968
1025.0, 0.0015930966211727122
1026.0, 0.0016145104330508248
1027.0, 0.0010745186129129352
1028.0, 0.0012478906058096904
1029.0, 0.0012921182635049664
1030.0, 0.0007080087481540503
1031.0, 0.0004355253149506165
1032.0, 0.0004905741929792057
1033.0, 0.0008517205292600985
1034.0, 0.0009474728759905986
1035.0, 0.0006646091566818775
1036.0, 0.0004622692912275989
1037.0, 6.211662630733721e-05
1038.0, 5.650642032038866e-05
1039.0, 0.00033168375550810995
1040.0, 0.0004247652138175927
1041.0, 0.00013486640901333303
1042.0, 0.0002238736713958204
1043.0, 0.000358808391468357
1044.0, 0.0002139468065801976
1045.0, 6.0507829351867735e-05
1046.0, 0.00023224023525367644
1047.0, 0.0004540175016451347
1048.0, 0.00042980425198281384
1049.0, 0.00047332371925895973
1050.0, 9.618793624485835e-05
1051.0, 0.00019034295427270036
1052.0, 0.00027765147676873817
1053.0, 0.0005904079443437061
1054.0, 0.0004512699548249272
1055.0, 0.00014124939892615803
1056.0, 0.00015552251691334303
1057.0, 4.8856467414162396e-05
1058.0, 0.00021002425196099645
1059.0, 0.00011393904372689024
1060.0, 1.0991622270888907e-05
1061.0, 0.00023989033521091237
1062.0, 0.0001607737294807141
1063.0, 0.00012224037336335
1064.0, 0.00024046628547291996
1065.0, 0.0006235827969627463
1066.0, 0.0008589365808300402
1067.0, 0.0007609135741515655
1068.0, 0.001137549164902176
1069.0, 0.001304818079526815
1070.0, 0.0013915420843448006
1071.0, 0.0011355955076965132
1072.0, 0.0017903606215598157
1073.0, 0.0019441978732124244
1074.0, 0.001932281905201977
1075.0, 0.0023523747601818996
1076.0, 0.002541968884636408
1077.0, 0.002489132147644131
1078.0, 0.00295271619020862
1079.0, 0.0029950260289631587
1080.0, 0.0036644534138709365
1081.0, 0.0030496693769808837
1082.0, 0.003731339887988085
1083.0, 0.0038408462048324437
1084.0, 0.004048713885576883
1085.0, 0.0041642025572443744
1086.0, 0.0041605868957077605
1087.0, 0.0041437270014762296
1088.0, 0.004234655775701413
1089.0, 0.004431998640765236
1090.0, 0.004485045455869726
1091.0, 0.0048460149281344175
1092.0, 0.005123314046834406
1093.0, 0.0048183078169097195
1094.0, 0.005163456371336576
1095.0, 0.005193081646126611
1096.0, 0.004847322766724175
1097.0, 0.0051580597155301226
1098.0, 0.005977517953287229
1099.0, 0.006183465241909101
1100.0, 0.005763353843063584
1101.0, 0.006017433045055622
1102.0, 0.006503661037882811
1103.0, 0.006297665887418353
1104.0, 0.005965396933804057
1105.0, 0.0060052334050321845
1106.0, 0.005995509848421911
1107.0, 0.005999356714185705
1108.0, 0.0058619444754592215
1109.0, 0.005693291816802734
1110.0, 0.005552131683626249
1111.0, 0.005244463432892992
1112.0, 0.004846884291953539
1113.0, 0.004404046119527048
1114.0, 0.0042726767292180345
1115.0, 0.004359275844673439
1116.0, 0.0048648295170622075
1117.0, 0.00480089978719488
1118.0, 0.004380654263311355
1119.0, 0.003830878647178461
1120.0, 0.0036640857802920073
1121.0, 0.003721817728122258
1122.0, 0.0033386006555017507
1123.0, 0.002893001833834932
1124.0, 0.0034543696582276765
1125.0, 0.003021933757422418
1126.0, 0.0026811395069300564
1127.0, 0.0027195779173354757
1128.0, 0.0023786191342278027
1129.0, 0.0020448848465921122
1130.0, 0.002081612082992726
1131.0, 0.001855011404582411
1132.0, 0.0016655145204702842
1133.0, 0.0018501071338405286
1134.0, 0.0017389336048136191
1135.0, 0.0013694214884785658
1136.0, 0.001386518423499438
1137.0, 0.0014823915467770939
1138.0, 0.001482063370646053
1139.0, 0.0011906365527765644
1140.0, 0.0018496154216365984
1141.0, 0.0020655946947594483
1142.0, 0.0019058676911104166
1143.0, 0.0018472116837568824
1144.0, 0.001658941263819763
1145.0, 0.0014097999570112062
1146.0, 0.00175642328649312
1147.0, 0.0020996223070815054
1148.0, 0.0019896050109106233
1149.0, 0.0017843249718124848
1150.0, 0.0020369146925727083
1151.0, 0.001807038942483583
1152.0, 0.0020730435274593922
1153.0, 0.0018308922163147966
1154.0, 0.0019451721092064262
1155.0, 0.002060961722792281
1156.0, 0.0020990901825280258
1157.0, 0.0026000936292008146
1158.0, 0.0029702588200711867
1159.0, 0.002638090376955702
1160.0, 0.003084319186339435
1161.0, 0.0030093633628058523
1162.0, 0.003270807106012318
1163.0, 0.0033617005580534706
1164.0, 0.003435313025780203
1165.0, 0.0034446443305011843
1166.0, 0.003667367780611674
1167.0, 0.0038763677481888684
1168.0, 0.0037826877707927997
1169.0, 0.0038228712456698072
1170.0, 0.004133818308987091
1171.0, 0.0037538666004245233
1172.0, 0.0042838570460342175
1173.0, 0.004178984152060408
1174.0, 0.004381287739842799
1175.0, 0.004241371230255226
1176.0, 0.004554188882195442
1177.0, 0.004641484371010239
1178.0, 0.004663693695609653
1179.0, 0.004736569121458238
1180.0, 0.0044779350992615935
1181.0, 0.004331217767078026
1182.0, 0.0045919785499705474
1183.0, 0.004287796318586964
1184.0, 0.004584964965453318
1185.0, 0.004295805470497817
1186.0, 0.00477713076710023
1187.0, 0.004379906302572183
1188.0, 0.0045325081279718816
1189.0, 0.004416166044440041
1190.0, 0.004300704558800544
1191.0, 0.004296582684381771
1192.0, 0.004298415588238923
1193.0, 0.004101893923790994
1194.0, 0.00404100830606239
1195.0, 0.0043173751092412905
1196.0, 0.004064019272572425
1197.0, 0.004062335106158459
1198.0, 0.0036275410647424373
1199.0, 0.003653626356328916
1200.0, 0.003398494810678381
1201.0, 0.0035247506865774387
1202.0, 0.0037256415281367718
1203.0, 0.0036367970378197345
1204.0, 0.003899193058774255
1205.0, 0.0038102352267410412
1206.0, 0.003382844825590413
1207.0, 0.0033734390452983096
1208.0, 0.003491878181493426
1209.0, 0.0033754587785597696
1210.0, 0.003080440177444972
1211.0, 0.0030635748872332763
1212.0, 0.0031041549431282396
1213.0, 0.0030880471334085342
1214.0, 0.0029547273386220105
1215.0, 0.0028584932897617404
1216.0, 0.0026003724073612464
1217.0, 0.002483139279098429
1218.0, 0.0023153858149065404
1219.0, 0.0020604035953937145
1220.0, 0.0020541640772931053
1221.0, 0.0020987182638349685
1222.0, 0.0016785904111432904
1223.0, 0.0015840496445559678
1224.0, 0.001785998002663739
1225.0, 0.0010362552595788782
1226.0, 0.0011344827923860262
1227.0, 0.0009803724403666528
1228.0, 0.0010418586956616933
1229.0, 0.0011343358160599924
1230.0, 0.0009621376995788365
1231.0, 0.0007808813539897704
1232.0, 0.0006488874047915999
1233.0, 0.0005561072089580841
1234.0, 0.0005350736524939561
1235.0, 0.0004739723479496632
1236.0, 0.00046820160828440837
1237.0, 0.0004883422642670886
1238.0, 0.0005383366321725203
1239.0, 0.0004552900734365112
1240.0, 0.0004520158741977651
1241.0, 0.000301206449610684
1242.0, 0.00023891086861255927
1243.0, 0.0001281288554300526
1244.0, 4.672701705874951e-05
1245.0, 4.743638920688854e-05
1246.0, 5.2601539993475336e-05
1247.0, 6.253037093064538e-05
1248.0, 9.250536680182728e-05
1249.0, 6.8044718237394e-05
1250.0, 7.982802195317801e-05
1251.0, 6.362070669768459e-05
1252.0, 4.631637595970389e-06
1253.0, 7.064068499704237e-05
1254.0, 5.075993813566603e-05
1255.0, 0.0001329016465045645
1256.0, 9.63448773914353e-05
1257.0, 0.00022542730795073414
1258.0, 0.0001416377449828185
1259.0, 0.00014434036412495547
1260.0, 0.0002098779294175828
1261.0, 0.000211141341526688
1262.0, 0.00018079603098375465
1263.0, 4.8395362488655866e-05
1264.0, 5.316932959492133e-05
1265.0, 0.00011959245034992841
1266.0, 0.000105803338142316
1267.0, 0.0004438763938165568
1268.0, 0.00016343683663644324
1269.0, 0.00026859461502961815
1270.0, 0.00018281674448545213
1271.0, 0.00011201240952532707
1272.0, 0.0002255414388690709
1273.0, 0.00020302229940005075
1274.0, 0.00013861524751440968
1275.0, 9.720169202993463e-05
1276.0, 3.903838530072011e-05
1277.0, 2.516935022712841e-05
1278.0, 0.00015466977841161473
1279.0, 0.0005023146503143811
1280.0, 5.650353897638152e-05
1281.0, 0.0004855816747685512
1282.0, 0.0006566597368401043
1283.0, 0.00018310288206421305
1284.0, 5.980989934830867e-05
1285.0, 9.497179749769945e-05
1286.0, 0.00011618434166346004
1287.0, 0.0001458411283491054
1288.0, 0.00013589584945008473
1289.0, 0.00010453684241621734
1290.0, 6.45420372345152e-05
1291.0, 6.076296094973227e-05
1292.0, 0.00022637967224109007
1293.0, 0.00042754083646309184
1294.0, 0.0003161032873102485
1295.0, 0.0004771661894934089
1296.0, 0.00040068149751821484
1297.0, 0.0006768858098875019
1298.0, 0.00038431054372041874
1299.0, 0.0005620319252958036
1300.0, 0.00035219591053958847
1301.0, 0.00017802017637302063
1302.0, 0.0003255298436517785
1303.0, 0.000508391485146475
1304.0, 0.0003236831791145779
1305.0, 0.0002569662352912305
1306.0, 0.00029567981103737715
1307.0, 0.0002489800102072945
1308.0, 0.0004731089164653238
1309.0, 0.0005884426966245417
1310.0, 0.0005945178928562591
1311.0, 0.0004880009428592558
1312.0, 0.0005527572812040076
1313.0, 0.0002715462143705579
1314.0, 0.0006701301197148836
1315.0, 0.00039510002171083117
1316.0, 0.0003985995500607817
1317.0, 0.0002057623405730878
1318.0, 0.0003279829017708551
1319.0, 0.00044913333550928826
1320.0, 0.0002475324081691112
1321.0, 0.0002820191672647419
1322.0, 0.00043631711344989046
1323.0, 0.0005566247923324019
1324.0, 0.0007322778970974806
1325.0, 0.0002745844923597124
1326.0, 0.00039676204470534635
1327.0, 0.0006605933823163107
1328.0, 0.0007141709146413827
1329.0, 0.0005836379969767838
1330.0, 0.0006043525154285396
1331.0, 0.0005542351607611379
1332.0, 0.0006972629161304276
1333.0, 0.0006366606501842846
1334.0, 0.0003969228214930473
1335.0, 0.0008685293185334389
1336.0, 0.0012135892669219788
1337.0, 0.0010875842338196123
1338.0, 0.0008351803376833302
1339.0, 0.0007677667949199364
1340.0, 0.0008352771779864431
1341.0, 0.0009119135546620063
1342.0, 0.001275311798486495
1343.0, 0.0012624598593927452
1344.0, 0.0008299544398882359
1345.0, 0.0013713031895577074
1346.0, 0.0012702975393630528
1347.0, 0.0015624232972470571
1348.0, 0.0013587016177616048
1349.0, 0.0017581443675338709
1350.0, 0.001569382176233357
1351.0, 0.0013282048399646039
1352.0, 0.0013307529033478038
1353.0, 0.0016858755513458638
1354.0, 0.001896535998194973
1355.0, 0.0019715525156578212
1356.0, 0.001922639290219001
1357.0, 0.001867616356109961
1358.0, 0.002110643906453064
1359.0, 0.002145781327510665
1360.0, 0.00208529260383252
1361.0, 0.002139144691525725
1362.0, 0.002284297515050631
1363.0, 0.0023237724979645906
1364.0, 0.002480593230822404
1365.0, 0.0022358943211258763
1366.0, 0.002485265498842628
1367.0, 0.0023859918771962957
1368.0, 0.0022354775766828543
1369.0, 0.0018836944962872327
1370.0, 0.0023502990937893787
1371.0, 0.0024072392628286072
1372.0, 0.0023138192825989745
1373.0, 0.002170667798468114
1374.0, 0.0019326787543975721
1375.0, 0.002102428078142826
1376.0, 0.002245456489393501
1377.0, 0.0019654526963435903
1378.0, 0.0020767315926556304
1379.0, 0.0020154739926974536
1380.0, 0.0016009455985501815
1381.0, 0.002115505257965095
1382.0, 0.001491577802199843
1383.0, 0.0015130623124126024
1384.0, 0.0018717689670851505
1385.0, 0.0019233353651273918
1386.0, 0.001782484018600779
1387.0, 0.0017829417590942507
1388.0, 0.0015319492560480776
1389.0, 0.0014865456201548937
1390.0, 0.0014913468128270003
1391.0, 0.0014648594928079069
1392.0, 0.001701827463662092
1393.0, 0.0017863045271122166
1394.0, 0.00158455701236564
1395.0, 0.0016610908295051567
1396.0, 0.0018862281805412271
1397.0, 0.0021939070951610897
1398.0, 0.0020916545359832206
1399.0, 0.0022524902323147467
1400.0, 0.0019585067823266284
1401.0, 0.0017482716363310209
1402.0, 0.0015420264557913026
1403.0, 0.001530162365077245
1404.0, 0.0017955416630620724
1405.0, 0.0017676523885888976
1406.0, 0.0017329179595225008
1407.0, 0.0019747262373223
1408.0, 0.001643553382253062
1409.0, 0.001518230464171822
1410.0, 0.0014706165185980134
1411.0, 0.0013896843459716955
1412.0, 0.001420781508004227
1413.0, 0.0013747407142192165
1414.0, 0.0014113227647184405
1415.0, 0.0015421509043982663
1416.0, 0.0013587833134731339
1417.0, 0.0013862181060332037
1418.0, 0.0011576818947401488
1419.0, 0.0012932342937250654
1420.0, 0.000926901747403553
1421.0, 0.0015108525761543018
1422.0, 0.0009818176134060025
1423.0, 0.0009103596448338442
1424.0, 0.0011910136014223007
1425.0, 0.0008214157785303485
1426.0, 0.0010008625617530247
1427.0, 0.001009400047400081
1428.0, 0.0008480888713136592
1429.0, 0.0006866390357110373
1430.0, 0.0006303511261292584
1431.0, 0.0007808662283694781
1432.0, 0.0008492199670627167
1433.0, 0.0008430824998861985
1434.0, 0.0007974581377554752
1435.0, 0.0007093415023752116
1436.0, 0.0007503148283034573
1437.0, 0.0007225571813235456
1438.0, 0.0006656599099948165
1439.0, 0.0010831143989055766
1440.0, 0.0010661754993868833
1441.0, 0.0007819950128235935
1442.0, 0.0006896095790960574
1443.0, 0.0005493031743301552
1444.0, 0.0005547205295016067
1445.0, 0.00046914104370524945
1446.0, 0.0005011518711916192
1447.0, 0.0005749852159463962
1448.0, 0.0006288760888711809
1449.0, 0.0005024231305747358
1450.0, 0.00038464354728976857
1451.0, 0.0006513230261880452
1452.0, 0.000581605025186492
1453.0, 0.0006276113724279291
1454.0, 0.000505156491164491
1455.0, 0.00046132317424793593
1456.0, 0.0006029288873870836
1457.0, 0.0005828567153550387
1458.0, 0.0005018782838760356
1459.0, 0.0004343401257896624
1460.0, 0.0003602769399634596
1461.0, 0.0004853824248489603
1462.0, 0.0007336196630270643
1463.0, 0.0007248014565406103
1464.0, 0.0006097873517259698
1465.0, 0.001076900576185609
1466.0, 0.0007151698825629529
1467.0, 0.00044459465587085674
1468.0, 0.0008186952759687012
1469.0, 0.0003389443603622637
1470.0, 0.0007091897998596376
1471.0, 0.0006971038181466655
1472.0, 0.0009710559243701215
1473.0, 0.0008050801040067002
1474.0, 0.0009270929467317917
1475.0, 0.0010485335972983765
1476.0, 0.0006996514736435056
1477.0, 0.0006275858951632202
1478.0, 0.0009631756036690752
1479.0, 0.0009928981503204465
1480.0, 0.0008755445812712507
1481.0, 0.000789413716741434
1482.0, 0.0008592976764288973
1483.0, 0.0011114524909390893
1484.0, 0.0009564351246501452
1485.0, 0.0008835462635437129
1486.0, 0.0012259626655155786
1487.0, 0.0008576045213652612
1488.0, 0.001314671353476085
1489.0, 0.0008237369923047783
1490.0, 0.0011218919440928372
1491.0, 0.0009477416694786679
1492.0, 0.001105561179182552
1493.0, 0.0012027892754478567
1494.0, 0.001178686311099928
1495.0, 0.0013375969311235805
1496.0, 0.0012652868711720512
1497.0, 0.0011512416184966236
1498.0, 0.0013849530844507922
1499.0, 0.0010778128605919977
1500.0, 0.001143471013254821
1501.0, 0.001289978018011066
1502.0, 0.0011532101200108485
1503.0, 0.0012089510488242185
1504.0, 0.0012018072376444799
1505.0, 0.001084718454141009
1506.0, 0.0010835268664336948
1507.0, 0.0009931893504609313
1508.0, 0.0009620075837344826
1509.0, 0.0010751782493928679
1510.0, 0.0010200871452475183
1511.0, 0.000890055821150368
1512.0, 0.0008633358569686768
1513.0, 0.0007706782638200814
1514.0, 0.0005172406034089492
1515.0, 0.00055777224627913
1516.0, 0.0007542751656517757
1517.0, 0.0006138765406983407
1518.0, 0.0008153010356306832
1519.0, 0.0005015058792865435
1520.0, 0.0007072761626943955
1521.0, 0.0010096377922580017
1522.0, 0.000953920207157847
1523.0, 0.0007140177614533788
1524.0, 0.0007799989448204984
1525.0, 0.000985000226494946
1526.0, 0.0008843282545243507
1527.0, 0.0009191093259025044
1528.0, 0.0010556101814163646
1529.0, 0.0010032365262476533
1530.0, 0.0007829732147450582
1531.0, 0.0005991075259575905
1532.0, 0.0005059610990727288
1533.0, 0.0004607942693319541
1534.0, 0.00048685668564518324
1535.0, 0.00048126776590055843
1536.0, 0.0004666767327081294
1537.0, 0.0004849945849074857
1538.0, 0.00039771828827748725
1539.0, 0.00033947677934925897
1540.0, 0.00046605259408233324
1541.0, 0.00045393065618182677
1542.0, 0.0004460903700878255
1543.0, 0.0005561027432596889
1544.0, 0.00035608845357527354
1545.0, 0.00042684489775597927
1546.0, 0.000507235337057224
1547.0, 0.0005000675937260389
1548.0, 0.00043887083625488235
1549.0, 0.00014798666519694897
1550.0, 0.0005399457544063942
1551.0, 0.00030615755216003215
1552.0, 0.00029236108186861474
1553.0, 0.0005054901634030234
1554.0, 0.00043043602651662535
1555.0, 0.0003462094865463238
1556.0, 0.0004768085975744463
1557.0, 3.0198041278191936e-05
1558.0, 5.326539536713977e-05
1559.0, 0.00019690911413819626
1560.0, 0.00040069545593739863
1561.0, 0.0003357867225297178
1562.0, 0.000396238481057376
1563.0, 0.0004531122815064665
1564.0, 0.0004046527246872948
1565.0, 0.00033361236777707106
1566.0, 0.00023584553945055293
1567.0, 0.00014775536573304247
1568.0, 5.4745627178533316e-05
1569.0, 7.716421724420454e-06
1570.0, 5.885804049982224e-09
1571, 0.0
1572, 0.0
1573, 0.0
1574, 0.0
1575, 0.0
1576, 0.0
1577, 0.0
1578, 0.0
1579, 0.0
1580, 0.0
1581, 0.0
1582, 0.0
1583, 0.0
1584, 0.0
1585, 0.0
1586, 0.0
1587, 0.0
1588, 0.0
1589, 0.0
1590, 0.0
1591, 0.0
1592, 0.0
1593, 0.0
1594, 0.0
1595, 0.0
1596, 0.0
1597, 0.0
1598, 0.0
1599, 0.0
