30, 0.0
31, 0.0
32, 0.0
33, 0.0
34, 0.0
35, 0.0
36, 0.0
37, 0.0
38, 0.0
39, 0.0
40, 0.0
41, 0.0
42, 0.0
43, 0.0
44, 0.0
45, 0.0
46, 0.0
47, 0.0
48, 0.0
49, 0.0
50, 0.0
51, 0.0
52, 0.0
53, 0.0
54, 0.0
55, 0.0
56, 0.0
57, 0.0
58, 0.0
59, 0.0
60, 0.0
61, 0.0
62, 0.0
63, 0.0
64, 0.0
65, 0.0
66, 0.0
67, 0.0
68, 0.0
69, 0.0
70, 0.0
71, 0.0
72, 0.0
73, 0.0
74, 0.0
75, 0.0
76, 0.0
77, 0.0
78, 0.0
79, 0.0
80, 0.0
81, 0.0
82, 0.0
83, 0.0
84, 0.0
85, 0.0
86, 0.0
87, 0.0
88, 0.0
89, 0.0
90, 0.0
91, 0.0
92, 0.0
93.0, 0.02025623225554026
94.0, 0.03673816648421178
95.0, 0.056114911415511746
96.0, 0.09052751054524105
97.0, 0.11506585841832878
98.0, 0.1258219901501746
99.0, 0.14323066706600132
100.0, 0.12227638029168772
101.0, 0.08892276652793211
102.0, 0.050903785300291444
103.0, 0.0188916373986614
104.0, 0.0035346457999242678
105.0, 0.011603345185073147
106.0, 0.012296511668338563
107.0, 0.0025619983718151193
108.0, 0.015385995961150013
109.0, 0.03486678015649635
110.0, 0.034114574203908864
111.0, 0.03526925643563787
112.0, 0.04034875961001752
113.0, 0.047236980493319536
114.0, 0.0559681420574961
115.0, 0.06476345964740723
116.0, 0.07522293240492132
117.0, 0.08408020632871245
118.0, 0.08337033540325191
119.0, 0.08678501041682772
120.0, 0.08516266489436236
121.0, 0.07981774076983242
122.0, 0.08030075585652313
123.0, 0.08140998245379161
124.0, 0.09196250431579711
125.0, 0.10054740170296436
126.0, 0.09373702521707317
127.0, 0.08713761273054614
128.0, 0.08183171425472888
129.0, 0.07867728972420956
130.0, 0.076936794871624
131.0, 0.07273772138859882
132.0, 0.06782902504529692
133.0, 0.05860226235313544
134.0, 0.04558402804064566
135.0, 0.03481287735366249
136.0, 0.02698991317375107
137.0, 0.021433053438434935
138.0, 0.018763651493381703
139.0, 0.020510775529822285
140.0, 0.028680484535546148
141.0, 0.03506472278138953
142.0, 0.0387360530318491
143.0, 0.0423496937842309
144.0, 0.04870654320636829
145.0, 0.05969960608246239
146.0, 0.07473695618216195
147.0, 0.09192795436341511
148.0, 0.10907326002556927
149.0, 0.12510852338173295
150.0, 0.13594153280214297
151.0, 0.14158646124123989
152.0, 0.14498372013978658
153.0, 0.14864068526483887
154.0, 0.14493064957835963
155.0, 0.13749149867655647
156.0, 0.1319259122864016
157.0, 0.12567545780297334
158.0, 0.11526570037174383
159.0, 0.10425776008227713
160.0, 0.09589548105141922
161.0, 0.09049440502877001
162.0, 0.08430287358779201
163.0, 0.08047918631645481
164.0, 0.07930779966738986
165.0, 0.07822800208975622
166.0, 0.07761912797995706
167.0, 0.07940601374331245
168.0, 0.08327654456729695
169.0, 0.08820676791067074
170.0, 0.09437749455374754
171.0, 0.10261560835571865
172.0, 0.11274702296187498
173.0, 0.12167436245828396
174.0, 0.1252608457923774
175.0, 0.13132879179007548
176.0, 0.1362852678573593
177.0, 0.13969404100111626
178.0, 0.14447748729656662
179.0, 0.15162917213288687
180.0, 0.16115143340682075
181.0, 0.17452230249489414
182.0, 0.19241291090479734
183.0, 0.2127280832351279
184.0, 0.23817537981155165
185.0, 0.267183423774242
186.0, 0.29877675956211514
187.0, 0.33441588370957037
188.0, 0.37812484978299793
189.0, 0.42608305375307
190.0, 0.4774123055237839
191.0, 0.5339516087481929
192.0, 0.5976268770145738
193.0, 0.6647935331869623
194.0, 0.7365065614736004
195.0, 0.8110206855297665
196.0, 0.8798951787182032
197.0, 0.9394579418214217
198.0, 0.9806836677855411
199.0, 0.9985952715039639
200.0, 0.9908921779941304
201.0, 0.9527739071619762
202.0, 0.894025769041495
203.0, 0.8209651676432435
204.0, 0.7404626729875412
205.0, 0.6638020243010332
206.0, 0.5900054245743109
207.0, 0.5229439424317338
208.0, 0.46445740557391046
209.0, 0.41395949838694746
210.0, 0.3735401962314681
211.0, 0.34234485063451325
212.0, 0.3190208250889513
213.0, 0.3031547671437481
214.0, 0.2970026213986631
215.0, 0.29542272504935146
216.0, 0.29762326541473566
217.0, 0.2985909272766088
218.0, 0.29055943885517027
219.0, 0.27527806771396074
220.0, 0.2537448735284398
221.0, 0.23057472528737968
222.0, 0.21022223066203669
223.0, 0.19383232377963025
224.0, 0.17732914295948055
225.0, 0.16455607140628523
226.0, 0.1591522298476015
227.0, 0.16118244298765888
228.0, 0.16246016832257568
229.0, 0.16619876928142677
230.0, 0.17299617641171397
231.0, 0.18219719895559092
232.0, 0.1944452182416553
233.0, 0.20965013848737465
234.0, 0.2245618747079881
235.0, 0.23805690021348502
236.0, 0.25063711266561484
237.0, 0.26090674952334764
238.0, 0.26743951323946674
239.0, 0.2677559818212676
240.0, 0.26154348002212663
241.0, 0.2536120210611486
242.0, 0.23846651765798862
243.0, 0.220960839754937
244.0, 0.2044968094130393
245.0, 0.18950875865163563
246.0, 0.17366907482993252
247.0, 0.15993112058707776
248.0, 0.1497842392836656
249.0, 0.14349654894610117
250.0, 0.13915352053223093
251.0, 0.13645366825639768
252.0, 0.13576202556646563
253.0, 0.13569138485482357
254.0, 0.1339727146434283
255.0, 0.1313564881337904
256.0, 0.12538077826564847
257.0, 0.11705273431522392
258.0, 0.10798383165987566
259.0, 0.0989981912579982
260.0, 0.08670333209339326
261.0, 0.07505671330943066
262.0, 0.06411626812336398
263.0, 0.05297361779650919
264.0, 0.04449849755841772
265.0, 0.03659624024129761
266.0, 0.029236602862630894
267.0, 0.023864403520566974
268.0, 0.021364348917027116
269.0, 0.015874719951331884
270.0, 0.01272847876579207
271.0, 0.01017849914677883
272.0, 0.005726368926662051
273.0, 0.0020527079358884626
274.0, 0.0015558496847858745
275.0, 0.005037990995572557
276.0, 0.008279207300397131
277.0, 0.011132865164515855
278.0, 0.013149930454896718
279.0, 0.014252295066194496
280.0, 0.015620669956846363
281.0, 0.01705827844096292
282.0, 0.016771419605731815
283.0, 0.015674000121971905
284.0, 0.014821286575516755
285.0, 0.01366461086435516
286.0, 0.011552082373158743
287.0, 0.009264138960082135
288.0, 0.006601503532034561
289.0, 0.0033214639124767627
290.0, 0.0005648887835921021
291.0, 0.004537578627005282
292.0, 0.009558793879330875
293.0, 0.014656761905896942
294.0, 0.019552823713234493
295.0, 0.02485777282072129
296.0, 0.031353401328526175
297.0, 0.03766630488816624
298.0, 0.044894093119168095
299.0, 0.05398654988750352
300.0, 0.06493806329670755
301.0, 0.07632237805353412
302.0, 0.08731575670978728
303.0, 0.09938300366641849
304.0, 0.1126839089073232
305.0, 0.1266635176765389
306.0, 0.14220094088831003
307.0, 0.15730860764956642
308.0, 0.17020663758751847
309.0, 0.18137699075120817
310.0, 0.19212308915589615
311.0, 0.19997830815593545
312.0, 0.20478097338453602
313.0, 0.20780296059339545
314.0, 0.21079167018740907
315.0, 0.2154501642855705
316.0, 0.21944142360725924
317.0, 0.2264549270084671
318.0, 0.23579857137621932
319.0, 0.24611288733717693
320.0, 0.2603308884274795
321.0, 0.277468015017268
322.0, 0.29537945598920606
323.0, 0.31243043846051777
324.0, 0.3261957582136825
325.0, 0.3313637699315196
326.0, 0.32876001028366747
327.0, 0.3169671585002447
328.0, 0.29801256600896664
329.0, 0.2766383777492344
330.0, 0.2510200392604431
331.0, 0.2246129787115121
332.0, 0.20135998801140836
333.0, 0.1829899544632973
334.0, 0.168468741096416
335.0, 0.15765402055210107
336.0, 0.14672273953843173
337.0, 0.13782466215777514
338.0, 0.1323888438576801
339.0, 0.1253135195203412
340.0, 0.12241470586552437
341.0, 0.11901184101773814
342.0, 0.11615296606897911
343.0, 0.11626578691363049
344.0, 0.11544625350249985
345.0, 0.11701616892913028
346.0, 0.12167429671692552
347.0, 0.1276826738951889
348.0, 0.13385028722032832
349.0, 0.1425894698713037
350.0, 0.15238708802485307
351.0, 0.16267875619701583
352.0, 0.17344001804376935
353.0, 0.18471912260484158
354.0, 0.19689730264756583
355.0, 0.20724760788902163
356.0, 0.2162058888597328
357.0, 0.22429747930288757
358.0, 0.23127495341559318
359.0, 0.23752758003297084
360.0, 0.24018495839641843
361.0, 0.23966797675868973
362.0, 0.23675736577011558
363.0, 0.2311144457974331
364.0, 0.22448838575498
365.0, 0.21386388887566993
366.0, 0.20088657571070262
367.0, 0.18786228501018598
368.0, 0.17567762720899718
369.0, 0.16241175480898465
370.0, 0.14989996397486363
371.0, 0.1391051592828721
372.0, 0.1299165547043997
373.0, 0.12038339652830403
374.0, 0.11264513349651234
375.0, 0.10579610664288305
376.0, 0.09937790207212441
377.0, 0.0931990577728968
378.0, 0.0865816977142294
379.0, 0.0786186621023014
380.0, 0.07197248014814449
381.0, 0.0659623345903808
382.0, 0.05901835470992595
383.0, 0.05274176839798113
384.0, 0.04642973519556108
385.0, 0.04080345275318006
386.0, 0.035343074964067536
387.0, 0.02954612799336732
388.0, 0.025030506899035684
389.0, 0.021190723213174938
390.0, 0.01686786829524624
391.0, 0.012742395593111333
392.0, 0.009546317853383772
393.0, 0.005921961011816715
394.0, 0.0027895936855471684
395.0, 0.0005935344057009792
396.0, 0.0007991363009238662
397.0, 0.0014482489119009572
398.0, 0.0011904527010326918
399.0, 0.00230956145856398
400.0, 0.003152184866627426
401.0, 0.003064255450877349
402.0, 0.0026958513854862063
403.0, 0.0030142300799450507
404.0, 0.0022803670046310552
405.0, 0.0022903448021241793
406.0, 0.002818613410036079
407.0, 0.002602521751818952
408.0, 0.002506477982683352
409.0, 0.0015244918177525746
410.0, 0.0003337076480331827
411.0, 0.000470334269215192
412.0, 0.0009291101672472488
413.0, 0.0032597480576461663
414.0, 0.004549755921353942
415.0, 0.006256567973660009
416.0, 0.008738829176102116
417.0, 0.011093428323616287
418.0, 0.01308608758229818
419.0, 0.016167505823282118
420.0, 0.018449125400808643
421.0, 0.01972734301304053
422.0, 0.021020077308533433
423.0, 0.023409482159670376
424.0, 0.02418391313719774
425.0, 0.024811793644294835
426.0, 0.02588573929048926
427.0, 0.026944658963889728
428.0, 0.027013231555925755
429.0, 0.02829669218856862
430.0, 0.029111674673146848
431.0, 0.028867145207198776
432.0, 0.028360766569032043
433.0, 0.028782524998850128
434.0, 0.02996879810925582
435.0, 0.030845977022888403
436.0, 0.03189788805682894
437.0, 0.03402017882990849
438.0, 0.037215034951399335
439.0, 0.038646732196083874
440.0, 0.04011259124952012
441.0, 0.04245686367226328
442.0, 0.04414517361013818
443.0, 0.043854175490272436
444.0, 0.047135580221809206
445.0, 0.047487435507192595
446.0, 0.047798628758850534
447.0, 0.04889701132867909
448.0, 0.048237591161886896
449.0, 0.0487002994063727
450.0, 0.049326580866693184
451.0, 0.049856381353072805
452.0, 0.050560705034667044
453.0, 0.05200445416793535
454.0, 0.05440521115511659
455.0, 0.05632462711212172
456.0, 0.05860315973720809
457.0, 0.06184257650567412
458.0, 0.06497635709418285
459.0, 0.06535612952951154
460.0, 0.06665440505525838
461.0, 0.06806406651394444
462.0, 0.06797731736629192
463.0, 0.06611336377636651
464.0, 0.06401060161000749
465.0, 0.060881505314666684
466.0, 0.0577462427380197
467.0, 0.05517181916422666
468.0, 0.05309567520026698
469.0, 0.051166298153714346
470.0, 0.05031976605252705
471.0, 0.04936600671421041
472.0, 0.048548012241454504
473.0, 0.04857674932385657
474.0, 0.04972445831276954
475.0, 0.05089006950853851
476.0, 0.050807104844781834
477.0, 0.05194919916083573
478.0, 0.053856466437174975
479.0, 0.054943447577492484
480.0, 0.0569189380144721
481.0, 0.05879932125399079
482.0, 0.06068228814531721
483.0, 0.0615883581318181
484.0, 0.06153392815471891
485.0, 0.0623279957232371
486.0, 0.061085494979596686
487.0, 0.06008145710117282
488.0, 0.05773312036687471
489.0, 0.053720125687625464
490.0, 0.05006325252884822
491.0, 0.04669665650407221
492.0, 0.04255876260235069
493.0, 0.0383118199974304
494.0, 0.034232923407176874
495.0, 0.030492097829405457
496.0, 0.02872366996684538
497.0, 0.027273989432666203
498.0, 0.025966541099421737
499.0, 0.024667915568006276
500.0, 0.02396443789017492
501.0, 0.02583799047256078
502.0, 0.02846546864173264
503.0, 0.029714801931596528
504.0, 0.031088242140641396
505.0, 0.03337759822866065
506.0, 0.036115271252188615
507.0, 0.03952487886775178
508.0, 0.04339931676051399
509.0, 0.04759033198418105
510.0, 0.051406413301183666
511.0, 0.0542561398642301
512.0, 0.056588396281604884
513.0, 0.05905928460745698
514.0, 0.061217881979959705
515.0, 0.060834309391310626
516.0, 0.05721384951219508
517.0, 0.05217374683580208
518.0, 0.04865999162806187
519.0, 0.044940486165455436
520.0, 0.040532174040661804
521.0, 0.03634552424186657
522.0, 0.0330390572529711
523.0, 0.02863927209051429
524.0, 0.02581083476343513
525.0, 0.023593389320894706
526.0, 0.021791198088570496
527.0, 0.02006216425225039
528.0, 0.017069287689288414
529.0, 0.014826209314664246
530.0, 0.013104702336351038
531.0, 0.012535682518241767
532.0, 0.012299873484373924
533.0, 0.010896229765750418
534.0, 0.0095544255569467
535.0, 0.00961105201568427
536.0, 0.009693239116433045
537.0, 0.008468057155188509
538.0, 0.006176805812502357
539.0, 0.004693111838675164
540.0, 0.004580558560212351
541.0, 0.003725617519624052
542.0, 0.0025582782855121714
543.0, 0.0017405596604290149
544.0, 0.0013302735695127294
545.0, 0.0014889151998928518
546.0, 0.0017595022744650109
547.0, 0.0005997066981715019
548.0, 0.000675381797340534
549.0, 0.0005783788604319961
550.0, 0.0002609399759843517
551.0, 0.00119879982693381
552.0, 0.0018095445912666437
553.0, 0.002747842628693936
554.0, 0.0037195722743148464
555.0, 0.0037900069597556507
556.0, 0.003755056660541989
557.0, 0.0023554542656165412
558.0, 0.002416117351548247
559.0, 0.0020892001551999946
560.0, 0.0005136081558287504
561.0, 9.555530957273308e-05
562.0, 0.0003502040702418524
563.0, 0.001766624868535227
564.0, 0.0027051687507239847
565.0, 0.0032961341544151318
566.0, 0.004164688967903862
567.0, 0.004407608246953742
568.0, 0.0054162234817108305
569.0, 0.006150120757175634
570.0, 0.0073641266623455165
571.0, 0.009226299823398896
572.0, 0.010729385162694675
573.0, 0.011579641919826906
574.0, 0.012664579912693416
575.0, 0.014303521892594546
576.0, 0.01567387245004978
577.0, 0.016464351044042817
578.0, 0.01777102505774043
579.0, 0.020162552057376562
580.0, 0.020738719149704824
581.0, 0.020506205102595387
582.0, 0.020871381149709368
583.0, 0.021741022499797518
584.0, 0.02162656256719512
585.0, 0.02173762955780674
586.0, 0.02239677359264836
587.0, 0.02218414489018372
588.0, 0.021752898237338437
589.0, 0.022944119868532113
590.0, 0.024158587223812974
591.0, 0.024219823105910684
592.0, 0.02508655832326568
593.0, 0.02681891401928162
594.0, 0.028187977048508502
595.0, 0.028623759917937277
596.0, 0.02952976708762062
597.0, 0.029533528435968022
598.0, 0.029977503665233603
599.0, 0.029889045120090215
600.0, 0.028838385372434872
601.0, 0.028447077778113783
602.0, 0.02760815211466895
603.0, 0.026586258426547184
604.0, 0.02529444408369133
605.0, 0.02407937584617314
606.0, 0.023096575737275832
607.0, 0.021736323395466717
608.0, 0.02064508236278791
609.0, 0.02016046975927324
610.0, 0.019715284403163242
611.0, 0.018851010797967502
612.0, 0.017816382702970146
613.0, 0.017912155960842006
614.0, 0.01802348748254446
615.0, 0.017566067568382485
616.0, 0.016598994024433853
617.0, 0.015767476083915922
618.0, 0.01593472174467417
619.0, 0.016962199958443887
620.0, 0.016833459065455348
621.0, 0.015965568980080815
622.0, 0.015211020210624475
623.0, 0.014715949655505434
624.0, 0.014060713533251371
625.0, 0.012958943424220618
626.0, 0.012823536287512762
627.0, 0.011238804754866664
628.0, 0.009755082482805655
629.0, 0.009234076442290141
630.0, 0.007805766335787943
631.0, 0.006735651048704634
632.0, 0.006272671436678952
633.0, 0.0057108808308694095
634.0, 0.0057883930776160206
635.0, 0.006239740004921005
636.0, 0.005474046991999443
637.0, 0.0056807303734521435
638.0, 0.0051743579773775965
639.0, 0.00547225997915892
640.0, 0.006106059057312528
641.0, 0.006269104718971855
642.0, 0.0066357143315791895
643.0, 0.007628585763755409
644.0, 0.007866897051307992
645.0, 0.00850969027912437
646.0, 0.008174615917101571
647.0, 0.006772629249261914
648.0, 0.006734868861658054
649.0, 0.005594117318089664
650.0, 0.005904973696133413
651.0, 0.005152580427817745
652.0, 0.0032653152811778735
653.0, 0.0018905158498004682
654.0, 0.0016507345043535713
655.0, 0.00038544942091626425
656.0, 7.764725421956881e-05
657.0, 0.0013819291293998373
658.0, 0.0021461267267869517
659.0, 0.0016377939741470064
660.0, 0.0019848046998681024
661.0, 0.0017567389634603808
662.0, 0.0010825777029925116
663.0, 0.0008505282727903394
664.0, 0.0005634513413863123
665.0, 0.0002956010836255785
666.0, 0.000848719625669147
667.0, 0.000451245179864483
668.0, 0.00017036080601290834
669.0, 0.00015755842554190607
670.0, 0.00045522977144554446
671.0, 0.0001417043924270448
672.0, 0.0003485695308632219
673.0, 3.5278622844493514e-05
674.0, 0.0007429929002829525
675.0, 0.0015018795266899933
676.0, 0.0015619064415562688
677.0, 0.0010838421806891856
678.0, 0.00077259797984995
679.0, 0.0018319860434521747
680.0, 0.0022885115016272922
681.0, 0.002900405071202175
682.0, 0.0028526412186624856
683.0, 0.002544842881737886
684.0, 0.0030304610766534006
685.0, 0.0037802392020853098
686.0, 0.005321784882209116
687.0, 0.005708885873564073
688.0, 0.006249027422939382
689.0, 0.007041712308639987
690.0, 0.007672888013878083
691.0, 0.008784434751192272
692.0, 0.009716518833160081
693.0, 0.010057607449681824
694.0, 0.011096025904636004
695.0, 0.012271369952388372
696.0, 0.013156927409926139
697.0, 0.014595733198315246
698.0, 0.01578538367793595
699.0, 0.018476035307258422
700.0, 0.020156370992000863
701.0, 0.021875525511707336
702.0, 0.023888397735259817
703.0, 0.025150264311395432
704.0, 0.027691451603811104
705.0, 0.03036665730060086
706.0, 0.03290892411682805
707.0, 0.03523865293483142
708.0, 0.038384982176221286
709.0, 0.041813278140150074
710.0, 0.04227689192243128
711.0, 0.04412065596881645
712.0, 0.04698173249925926
713.0, 0.050034521777996444
714.0, 0.05407638656301991
715.0, 0.05836859662933364
716.0, 0.06087362821738296
717.0, 0.06394254214721541
718.0, 0.0677031478989995
719.0, 0.07063427364440464
720.0, 0.07397135356282901
721.0, 0.07755464260614027
722.0, 0.0796501955017352
723.0, 0.0805078433523841
724.0, 0.08102566532265996
725.0, 0.08033250845970209
726.0, 0.07783995055430852
727.0, 0.07418899072565883
728.0, 0.06977100822203315
729.0, 0.06400406412551565
730.0, 0.058173115596453946
731.0, 0.05192912272027179
732.0, 0.04516528989579897
733.0, 0.03947458523729428
734.0, 0.03525935570559621
735.0, 0.03150354032030276
736.0, 0.027926400119852174
737.0, 0.02519769892473809
738.0, 0.023098512347291607
739.0, 0.020837043285135203
740.0, 0.018430600020464007
741.0, 0.016575763217941557
742.0, 0.015520050787142166
743.0, 0.013487671237500295
744.0, 0.013756106185534635
745.0, 0.013386719430306655
746.0, 0.01281114704232126
747.0, 0.012350014321922936
748.0, 0.011047865165183041
749.0, 0.009968310170392054
750.0, 0.009859329682383707
751.0, 0.009939083013832884
752.0, 0.008769486954224956
753.0, 0.007796666930351748
754.0, 0.008317035539358475
755.0, 0.008535887366531136
756.0, 0.006987534002836627
757.0, 0.004530112247997683
758.0, 0.004170826963109859
759.0, 0.004246866420896074
760.0, 0.004013066714317497
761.0, 0.004182142944546752
762.0, 0.004849816064831492
763.0, 0.00663363564577144
764.0, 0.0050180262052027195
765.0, 0.003724719394280376
766.0, 0.0038737327619551847
767.0, 0.004258649404292083
768.0, 0.004637303561518836
769.0, 0.005362790679249102
770.0, 0.004463754256919854
771.0, 0.005945052442036837
772.0, 0.006701053381951054
773.0, 0.006825116728963282
774.0, 0.0077907201044985636
775.0, 0.008588379993911275
776.0, 0.009863721125400257
777.0, 0.011592821001749689
778.0, 0.011899280651250019
779.0, 0.012138756602142588
780.0, 0.013746096727198849
781.0, 0.015960116288820835
782.0, 0.01712383865029239
783.0, 0.01760916939508255
784.0, 0.019889997464763665
785.0, 0.021141385201339423
786.0, 0.0223386676958916
787.0, 0.023543207212719665
788.0, 0.023900525346196813
789.0, 0.025255153811086402
790.0, 0.02506037988318685
791.0, 0.026400597694294994
792.0, 0.026408077520920746
793.0, 0.025403639438974834
794.0, 0.024741026435562176
795.0, 0.024337670490232124
796.0, 0.024112782192724894
797.0, 0.022953702057720245
798.0, 0.02137138910431451
799.0, 0.020504420143961106
800.0, 0.019330638420100344
801.0, 0.018354337930703592
802.0, 0.018544910211563716
803.0, 0.016399161664898198
804.0, 0.016334189599597863
805.0, 0.015526359305340898
806.0, 0.013987155575805063
807.0, 0.013203956599609622
808.0, 0.01308038437652661
809.0, 0.012611194778629266
810.0, 0.012473573084550015
811.0, 0.01060176712183946
812.0, 0.00861925733763039
813.0, 0.008277641812464927
814.0, 0.008623052702012154
815.0, 0.008333910627129978
816.0, 0.007600807520656003
817.0, 0.007868379148983792
818.0, 0.007908108339927698
819.0, 0.008154573093894163
820.0, 0.008149042677279365
821.0, 0.007247694992774297
822.0, 0.0064876966775613745
823.0, 0.0069351840029185045
824.0, 0.006724280320186647
825.0, 0.006599498571960895
826.0, 0.005464408679057425
827.0, 0.005018865539940508
828.0, 0.0047816339436250205
829.0, 0.004402574556340388
830.0, 0.004277207409551493
831.0, 0.00373531198807914
832.0, 0.003610568172394301
833.0, 0.0028710452167867427
834.0, 0.003090410243730809
835.0, 0.0029355993698498865
836.0, 0.0026281004534473083
837.0, 0.0027618503844289437
838.0, 0.0011142948942227222
839.0, 0.0014160071582467032
840.0, 0.0014897881692505998
841.0, 0.0009635410008012489
842.0, 0.0010118026180680007
843.0, 0.001180748526655602
844.0, 0.0008052532026245908
845.0, 0.000912530395483177
846.0, 0.0005636254007723086
847.0, 0.000388850272885175
848.0, 0.0004973875479795422
849.0, 0.001337581506678159
850.0, 0.001813277572646855
851.0, 0.001324627426383573
852.0, 0.0017186967687556462
853.0, 0.0014841632977323012
854.0, 0.0015352328014673934
855.0, 0.0015509749363570643
856.0, 0.0015714616840416648
857.0, 0.0015091639497803557
858.0, 0.0010887071710975148
859.0, 0.00025861527924638395
860.0, 0.0007773448137314391
861.0, 0.001159907314550018
862.0, 0.0017222181466168632
863.0, 0.0023994481563327204
864.0, 0.0025991028563507016
865.0, 0.002967161305460741
866.0, 0.003886204728141962
867.0, 0.004351907070302241
868.0, 0.006467328423479702
869.0, 0.008795759426948288
870.0, 0.011214814452625866
871.0, 0.01321931114127985
872.0, 0.014974358016907503
873.0, 0.016798091582216228
874.0, 0.01882162954890741
875.0, 0.021381598982588092
876.0, 0.02269938744429955
877.0, 0.025033015787671743
878.0, 0.028129591213438058
879.0, 0.029478432069679386
880.0, 0.030300651675829415
881.0, 0.0327750369378304
882.0, 0.03479049373475917
883.0, 0.03646394770063766
884.0, 0.0381646307852136
885.0, 0.040262610507355474
886.0, 0.041398664147959736
887.0, 0.04267983191261066
888.0, 0.044281691450339354
889.0, 0.04437785931388798
890.0, 0.04374478831604355
891.0, 0.043882510377662255
892.0, 0.0436153830907134
893.0, 0.041228118549400526
894.0, 0.0401625626015355
895.0, 0.03921880048384055
896.0, 0.0363004591994028
897.0, 0.0345866669203341
898.0, 0.03385067097041804
899.0, 0.031202309287357045
900.0, 0.029638086800983468
901.0, 0.02853528913030407
902.0, 0.026545390596489277
903.0, 0.024564045312094548
904.0, 0.02351079185704585
905.0, 0.02201987448235334
906.0, 0.019493539215618253
907.0, 0.018519608824996585
908.0, 0.016877731404567487
909.0, 0.015460699271045809
910.0, 0.014627794618975204
911.0, 0.013853538182243063
912.0, 0.012698559697144587
913.0, 0.01196193524051488
914.0, 0.011813041544661396
915.0, 0.010581740172105706
916.0, 0.009738736706749223
917.0, 0.00939228570332096
918.0, 0.009933822613850554
919.0, 0.010068202976806103
920.0, 0.008358146365127496
921.0, 0.008106438886812974
922.0, 0.008028832430684517
923.0, 0.006904653230829734
924.0, 0.006396687826157087
925.0, 0.005945078550728463
926.0, 0.0060887120109156135
927.0, 0.006214216603251786
928.0, 0.004436884739601598
929.0, 0.0030066220250137164
930.0, 0.0016724706472714928
931.0, 0.002670687246387713
932.0, 0.0021909181315391945
933.0, 0.001219207477719059
934.0, 0.0004174468412161964
935.0, 0.0006242618612172803
936.0, 0.001310385725866473
937.0, 0.001107370514329783
938.0, 0.00129395773447244
939.0, 0.0008886869391251321
940.0, 0.000985420092835787
941.0, 0.0008578187741943746
942.0, 0.0009694103545616513
943.0, 0.0015337611449543894
944.0, 0.000816848993540429
945.0, 0.001652862315047797
946.0, 0.00036875282209430677
947.0, 0.0003468035305934222
948.0, 0.00036441311516314455
949.0, 0.0006506806379588352
950.0, 0.0012329442676416173
951.0, 0.0023614639536284356
952.0, 0.0024543282405792197
953.0, 0.0027057904168631105
954.0, 0.005095925337723553
955.0, 0.0064202261976080725
956.0, 0.006742955358919705
957.0, 0.007962857283171637
958.0, 0.009233542738548291
959.0, 0.010809860228712623
960.0, 0.013082059114830387
961.0, 0.013978129306869988
962.0, 0.015833143431590743
963.0, 0.01769742928288112
964.0, 0.019636959149170137
965.0, 0.02188481896463243
966.0, 0.023176591314988115
967.0, 0.024519360067372008
968.0, 0.02620260215061512
969.0, 0.026542871896971496
970.0, 0.02825858183506904
971.0, 0.030394464166767575
972.0, 0.029971655763440977
973.0, 0.031041638416557923
974.0, 0.032384875726440464
975.0, 0.032413214694203135
976.0, 0.03227438590900846
977.0, 0.03303968247633325
978.0, 0.033655694128831876
979.0, 0.03578456244612868
980.0, 0.03485723304625915
981.0, 0.03459118239686705
982.0, 0.03512282856056998
983.0, 0.03604010664121396
984.0, 0.03658164990325372
985.0, 0.036825798706531514
986.0, 0.03829327219042367
987.0, 0.04086410395073086
988.0, 0.04163014349879351
989.0, 0.04484413812446634
990.0, 0.04679939616538513
991.0, 0.05081486644026249
992.0, 0.05521764909871461
993.0, 0.05943866444007614
994.0, 0.06603272082696098
995.0, 0.07234114237684215
996.0, 0.07958389843306736
997.0, 0.08941519851521035
998.0, 0.09793852000613572
999.0, 0.10759920167529581
1000.0, 0.11841521821600244
1001.0, 0.1286559134367114
1002.0, 0.13765004992790725
1003.0, 0.1456685667623927
1004.0, 0.1524959954133571
1005.0, 0.15632264670996737
1006.0, 0.15975474352289787
1007.0, 0.1608125749725421
1008.0, 0.158141963660041
1009.0, 0.1541094047861513
1010.0, 0.1499999643818647
1011.0, 0.14447937968482782
1012.0, 0.13746527885705126
1013.0, 0.13132007743936847
1014.0, 0.1240228408220461
1015.0, 0.11631129986695261
1016.0, 0.10878665585145957
1017.0, 0.1010232133255622
1018.0, 0.09439161545038997
1019.0, 0.08795900075517873
1020.0, 0.08086176314433373
1021.0, 0.07525600947050375
1022.0, 0.06980804433896887
1023.0, 0.06535426287407174
1024.0, 0.06092316752550645
1025.0, 0.05509904395871674
1026.0, 0.052967686207066336
1027.0, 0.05011091494102052
1028.0, 0.04569625347568277
1029.0, 0.04273793139129312
1030.0, 0.03977890262147131
1031.0, 0.0363644284723804
1032.0, 0.035360730100132506
1033.0, 0.034020431044546086
1034.0, 0.03332721607065935
1035.0, 0.03269060347293035
1036.0, 0.031119495241684166
1037.0, 0.02922812009235951
1038.0, 0.02751983079560873
1039.0, 0.02567266709915314
1040.0, 0.024287905794560444
1041.0, 0.02326787037715719
1042.0, 0.022022652688001642
1043.0, 0.022100111899745315
1044.0, 0.021035780133643784
1045.0, 0.019916420957627617
1046.0, 0.0192443082709737
1047.0, 0.018732955740546814
1048.0, 0.018142250053030145
1049.0, 0.016410993094778975
1050.0, 0.016365384112712416
1051.0, 0.015021216587764423
1052.0, 0.014716306790016254
1053.0, 0.01347581886481743
1054.0, 0.012268850319851523
1055.0, 0.011221222021726582
1056.0, 0.010559785090850073
1057.0, 0.010111621031691272
1058.0, 0.008905807638346296
1059.0, 0.00875603177070081
1060.0, 0.007487385742749793
1061.0, 0.006465120548970817
1062.0, 0.005635257439952943
1063.0, 0.005429538200737397
1064.0, 0.0048141323298887696
1065.0, 0.004437494798789123
1066.0, 0.004169294086861576
1067.0, 0.0029423817211785704
1068.0, 0.001980753957524649
1069.0, 0.0010699486243880812
1070.0, 0.0015821771216876564
1071.0, 0.000791602952953015
1072.0, 0.0002031695078212344
1073.0, 0.0001736244213615976
1074.0, 0.00014171140479748819
1075.0, 0.0007167507122866377
1076.0, 0.0008829827910674715
1077.0, 0.0001388312757101469
1078.0, 0.0001624720526897033
1079.0, 2.5616406778652673e-05
1080.0, 0.0001687128379756528
1081.0, 0.0002287395042665176
1082.0, 0.0010419336423324757
1083.0, 0.0006099224271481121
1084.0, 0.0003345234291802969
1085.0, 0.00125297315355698
1086.0, 0.0018299320927070456
1087.0, 0.0015273063764876624
1088.0, 0.0014024705076601553
1089.0, 0.001368016495995306
1090.0, 0.0016410187442295954
1091.0, 0.0020443291936088504
1092.0, 0.0021946725502148957
1093.0, 0.0020818414494864356
1094.0, 0.0011104131849008951
1095.0, 0.0007116360528116826
1096.0, 0.001140534317988931
1097.0, 0.00010787571041541284
1098.0, 0.0008854287080210622
1099.0, 0.0002727929170060155
1100.0, 0.0002855208677497084
1101.0, 0.0009322741148716094
1102.0, 0.00030613338410442247
1103.0, 0.0003432797676988472
1104.0, 0.0006856188500634096
1105.0, 0.0006883103314186176
1106.0, 0.0010065891238908524
1107.0, 0.0009627497295099999
1108.0, 0.001014533696445942
1109.0, 0.0009907167974011464
1110.0, 0.0003873090650824102
1111.0, 0.0006023082552260414
1112.0, 0.00030438505610383654
1113.0, 0.0002678598728486565
1114.0, 0.00044966918693698383
1115.0, 0.0004340807579378025
1116.0, 0.0010870586547219608
1117.0, 0.0004806094729303251
1118.0, 9.672599113798608e-05
1119.0, 0.001010946824996336
1120.0, 0.0007884063892831615
1121.0, 0.0007000952065322949
1122.0, 4.823315293478139e-06
1123.0, 0.0001948762271486345
1124.0, 0.0010430411764230975
1125.0, 0.0013301500155432037
1126.0, 0.0016828944553883038
1127.0, 0.0018649841713885517
1128.0, 0.0007011565005783741
1129.0, 0.0010503703228344644
1130.0, 0.00026636092518886887
1131.0, 8.830394043025884e-05
1132.0, 0.00010179127648562632
1133.0, 0.0006119558766323914
1134.0, 0.0014352248246102476
1135.0, 0.0018808555787005953
1136.0, 0.002191739658330103
1137.0, 0.00255942882704107
1138.0, 0.002797299875671109
1139.0, 0.0034466018896468437
1140.0, 0.0036009309715467983
1141.0, 0.004018755604407151
1142.0, 0.004539618589246806
1143.0, 0.005467721842098254
1144.0, 0.005110594087180043
1145.0, 0.005908884916824809
1146.0, 0.006682816213091333
1147.0, 0.006580092929539936
1148.0, 0.006777343709632851
1149.0, 0.00728013915539129
1150.0, 0.007524878094904165
1151.0, 0.008144989155223992
1152.0, 0.008507349788709102
1153.0, 0.008571724519608826
1154.0, 0.008938204948034842
1155.0, 0.0094439783402537
1156.0, 0.00952750909909873
1157.0, 0.00938261688332733
1158.0, 0.009036805354696646
1159.0, 0.008874439726562225
1160.0, 0.009232738594956462
1161.0, 0.009221370563082351
1162.0, 0.009076632695278686
1163.0, 0.00736115135385916
1164.0, 0.007481852745909845
1165.0, 0.007462654949449112
1166.0, 0.007927640331989401
1167.0, 0.006838103159244277
1168.0, 0.006781101314772113
1169.0, 0.007193509416012272
1170.0, 0.00687275080515065
1171.0, 0.006347364276571582
1172.0, 0.005493211964030279
1173.0, 0.006113621703028804
1174.0, 0.006436063490441409
1175.0, 0.00542481151872925
1176.0, 0.008277274923376206
1177.0, 0.00624685849567024
1178.0, 0.005041513423356626
1179.0, 0.006766524826060017
1180.0, 0.0075096227326428636
1181.0, 0.005817792759022542
1182.0, 0.004897513952154157
1183.0, 0.005247751213204641
1184.0, 0.003916482947716347
1185.0, 0.003936410300913398
1186.0, 0.0047263442238654725
1187.0, 0.004341888234954742
1188.0, 0.00418468078868285
1189.0, 0.003573177584081368
1190.0, 0.0037225648693600295
1191.0, 0.0035521953393163486
1192.0, 0.0034152670074315086
1193.0, 0.003469055028228042
1194.0, 0.00282230713959524
1195.0, 0.0023414203755401236
1196.0, 0.003078953146505737
1197.0, 0.0028488894397196273
1198.0, 0.0030003370780023906
1199.0, 0.0033297226438780813
1200.0, 0.003826156235132014
1201.0, 0.002230484548234271
1202.0, 0.0026400296421285395
1203.0, 0.002861865539376332
1204.0, 0.002823015772649808
1205.0, 0.0030440446041786044
1206.0, 0.0030852472623458436
1207.0, 0.0031491452009107766
1208.0, 0.00313951488302434
1209.0, 0.0034083447613816376
1210.0, 0.003099986411715157
1211.0, 0.002099518949709684
1212.0, 0.0027562408072515044
1213.0, 0.0029221652068469168
1214.0, 0.0024327878040800895
1215.0, 0.0029126927658383608
1216.0, 0.003549192710231549
1217.0, 0.003133166317396025
1218.0, 0.0029392792896730815
1219.0, 0.0033388053981548652
1220.0, 0.003675058231765041
1221.0, 0.005072744181664242
1222.0, 0.0027875683644317706
1223.0, 0.0035327890893420257
1224.0, 0.004152290291723022
1225.0, 0.004665741595429568
1226.0, 0.0032839730455200013
1227.0, 0.0028442650182566565
1228.0, 0.002346419820147275
1229.0, 0.0016803503797201164
1230.0, 0.0019178052098247516
1231.0, 0.0027840398504566065
1232.0, 0.0026823404345553124
1233.0, 0.0013760900810353034
1234.0, 0.0016180006445733518
1235.0, 0.0016863946840169862
1236.0, 0.0024468376316886015
1237.0, 0.0031972162960606423
1238.0, 0.0016843622855041687
1239.0, 0.003348939450420547
1240.0, 0.0036793132742403843
1241.0, 0.0027959791450748446
1242.0, 0.002217569413713632
1243.0, 0.0016286252058730522
1244.0, 0.0011683508049749273
1245.0, 0.0017893708211843143
1246.0, 0.0025734246867537237
1247.0, 0.0012855587047528993
1248.0, 0.002214142453008847
1249.0, 0.0025990711628377677
1250.0, 0.0014638622352705509
1251.0, 0.0019438610525050787
1252.0, 0.0018371521570260596
1253.0, 0.0018841353641888354
1254.0, 0.002165691885489241
1255.0, 0.0018638100996472898
1256.0, 0.0014647478426950175
1257.0, 0.001698114164369281
1258.0, 0.0018652920986168132
1259.0, 0.00128597798157162
1260.0, 0.0009392034430982821
1261.0, 0.0009401363377061207
1262.0, 0.0023633772805026422
1263.0, 0.0013489760782993447
1264.0, 0.000816859861257562
1265.0, 0.0012041740940109981
1266.0, 0.00032725018026185515
1267.0, 0.000326843106202804
1268.0, 0.0008430001905603947
1269.0, 0.0002634366735743167
1270.0, 0.00026815209700768944
1271.0, 0.0006986119632935758
1272.0, 0.00046078677578658485
1273.0, 0.00014301347065038417
1274.0, 0.0006872640341620328
1275.0, 0.0008840191652602699
1276.0, 0.0009390289435197705
1277.0, 7.807145504847699e-05
1278.0, 0.0004526092565180343
1279.0, 0.0009687683373836378
1280.0, 0.0011083807174499538
1281.0, 0.0010384417662386031
1282.0, 0.0014233071533279983
1283.0, 0.001726715644644155
1284.0, 0.0015380108934045964
1285.0, 0.0015391543230419459
1286.0, 0.0014841121373797316
1287.0, 0.0010873391769378744
1288.0, 0.0014602002016309863
1289.0, 0.0020057794641467007
1290.0, 0.00011779232849571444
1291.0, 0.0005567864372087668
1292.0, 0.0008767884080339235
1293.0, 0.0006338223676280138
1294.0, 0.0008763368741612056
1295.0, 0.0013661737846671282
1296.0, 0.0009666534196941241
1297.0, 0.0008225440006472224
1298.0, 0.0007261251243466914
1299.0, 0.00021180729291121658
1300.0, 3.55494362652973e-05
1301.0, 0.00010295067577255933
1302, 0.0
1303, 0.0
1304, 0.0
1305, 0.0
1306, 0.0
1307, 0.0
1308, 0.0
1309, 0.0
1310, 0.0
1311, 0.0
1312, 0.0
1313, 0.0
1314, 0.0
1315, 0.0
1316, 0.0
1317, 0.0
1318, 0.0
1319, 0.0
1320, 0.0
1321, 0.0
1322, 0.0
1323, 0.0
1324, 0.0
1325, 0.0
1326, 0.0
1327, 0.0
1328, 0.0
1329, 0.0
1330, 0.0
1331, 0.0
1332, 0.0
1333, 0.0
1334, 0.0
1335, 0.0
1336, 0.0
1337, 0.0
1338, 0.0
1339, 0.0
1340, 0.0
1341, 0.0
1342, 0.0
1343, 0.0
1344, 0.0
1345, 0.0
1346, 0.0
1347, 0.0
1348, 0.0
1349, 0.0
1350, 0.0
1351, 0.0
1352, 0.0
1353, 0.0
1354, 0.0
1355, 0.0
1356, 0.0
1357, 0.0
1358, 0.0
1359, 0.0
1360, 0.0
1361, 0.0
1362, 0.0
1363, 0.0
1364, 0.0
1365, 0.0
1366, 0.0
1367, 0.0
1368, 0.0
1369, 0.0
1370, 0.0
1371, 0.0
1372, 0.0
1373, 0.0
1374, 0.0
1375, 0.0
1376, 0.0
1377, 0.0
1378, 0.0
1379, 0.0
1380, 0.0
1381, 0.0
1382, 0.0
1383, 0.0
1384, 0.0
1385, 0.0
1386, 0.0
1387, 0.0
1388, 0.0
1389, 0.0
1390, 0.0
1391, 0.0
1392, 0.0
1393, 0.0
1394, 0.0
1395, 0.0
1396, 0.0
1397, 0.0
1398, 0.0
1399, 0.0
1400, 0.0
1401, 0.0
1402, 0.0
1403, 0.0
1404, 0.0
1405, 0.0
1406, 0.0
1407, 0.0
1408, 0.0
1409, 0.0
1410, 0.0
1411, 0.0
1412, 0.0
1413, 0.0
1414, 0.0
1415, 0.0
1416, 0.0
1417, 0.0
1418, 0.0
1419, 0.0
1420, 0.0
1421, 0.0
1422, 0.0
1423, 0.0
1424, 0.0
1425, 0.0
1426, 0.0
1427, 0.0
1428, 0.0
1429, 0.0
1430, 0.0
1431, 0.0
1432, 0.0
1433, 0.0
1434, 0.0
1435, 0.0
1436, 0.0
1437, 0.0
1438, 0.0
1439, 0.0
1440, 0.0
1441, 0.0
1442, 0.0
1443, 0.0
1444, 0.0
1445, 0.0
1446, 0.0
1447, 0.0
1448, 0.0
1449, 0.0
1450, 0.0
1451, 0.0
1452, 0.0
1453, 0.0
1454, 0.0
1455, 0.0
1456, 0.0
1457, 0.0
1458, 0.0
1459, 0.0
1460, 0.0
1461, 0.0
1462, 0.0
1463, 0.0
1464, 0.0
1465, 0.0
1466, 0.0
1467, 0.0
1468, 0.0
1469, 0.0
1470, 0.0
1471, 0.0
1472, 0.0
1473, 0.0
1474, 0.0
1475, 0.0
1476, 0.0
1477, 0.0
1478, 0.0
1479, 0.0
1480, 0.0
1481, 0.0
1482, 0.0
1483, 0.0
1484, 0.0
1485, 0.0
1486, 0.0
1487, 0.0
1488, 0.0
1489, 0.0
1490, 0.0
1491, 0.0
1492, 0.0
1493, 0.0
1494, 0.0
1495, 0.0
1496, 0.0
1497, 0.0
1498, 0.0
1499, 0.0
1500, 0.0
1501, 0.0
1502, 0.0
1503, 0.0
1504, 0.0
1505, 0.0
1506, 0.0
1507, 0.0
1508, 0.0
1509, 0.0
1510, 0.0
1511, 0.0
1512, 0.0
1513, 0.0
1514, 0.0
1515, 0.0
1516, 0.0
1517, 0.0
1518, 0.0
1519, 0.0
1520, 0.0
1521, 0.0
1522, 0.0
1523, 0.0
1524, 0.0
1525, 0.0
1526, 0.0
1527, 0.0
1528, 0.0
1529, 0.0
1530, 0.0
1531, 0.0
1532, 0.0
1533, 0.0
1534, 0.0
1535, 0.0
1536, 0.0
1537, 0.0
1538, 0.0
1539, 0.0
1540, 0.0
1541, 0.0
1542, 0.0
1543, 0.0
1544, 0.0
1545, 0.0
1546, 0.0
1547, 0.0
1548, 0.0
1549, 0.0
1550, 0.0
1551, 0.0
1552, 0.0
1553, 0.0
1554, 0.0
1555, 0.0
1556, 0.0
1557, 0.0
1558, 0.0
1559, 0.0
1560, 0.0
1561, 0.0
1562, 0.0
1563, 0.0
1564, 0.0
1565, 0.0
1566, 0.0
1567, 0.0
1568, 0.0
1569, 0.0
1570, 0.0
1571, 0.0
1572, 0.0
1573, 0.0
1574, 0.0
1575, 0.0
1576, 0.0
1577, 0.0
1578, 0.0
1579, 0.0
1580, 0.0
1581, 0.0
1582, 0.0
1583, 0.0
1584, 0.0
1585, 0.0
1586, 0.0
1587, 0.0
1588, 0.0
1589, 0.0
1590, 0.0
1591, 0.0
1592, 0.0
1593, 0.0
1594, 0.0
1595, 0.0
1596, 0.0
1597, 0.0
1598, 0.0
1599, 0.0
