30, 0.0
31, 0.0
32, 0.0
33, 0.0
34, 0.0
35, 0.0
36, 0.0
37, 0.0
38, 0.0
39, 0.0
40, 0.0
41, 0.0
42, 0.0
43, 0.0
44, 0.0
45, 0.0
46, 0.0
47, 0.0
48, 0.0
49, 0.0
50, 0.0
51, 0.0
52, 0.0
53, 0.0
54, 0.0
55, 0.0
56, 0.0
57, 0.0
58, 0.0
59, 0.0
60, 0.0
61, 0.0
62, 0.0
63, 0.0
64, 0.0
65, 0.0
66, 0.0
67, 0.0
68, 0.0
69, 0.0
70, 0.0
71, 0.0
72, 0.0
73, 0.0
74, 0.0
75, 0.0
76, 0.0
77, 0.0
78, 0.0
79, 0.0
80, 0.0
81, 0.0
82, 0.0
83, 0.0
84, 0.0
85, 0.0
86, 0.0
87, 0.0
88, 0.0
89, 0.0
90, 0.0
91, 0.0
92, 0.0
93, 0.0
94, 0.0
95, 0.0
96, 0.0
97, 0.0
98, 0.0
99, 0.0
100, 0.0
101, 0.0
102, 0.0
103, 0.0
104, 0.0
105, 0.0
106, 0.0
107, 0.0
108, 0.0
109, 0.0
110, 0.0
111, 0.0
112, 0.0
113, 0.0
114, 0.0
115, 0.0
116, 0.0
117, 0.0
118, 0.0
119, 0.0
120, 0.0
121, 0.0
122, 0.0
123, 0.0
124, 0.0
125, 0.0
126, 0.0
127, 0.0
128, 0.0
129, 0.0
130, 0.0
131, 0.0
132, 0.0
133, 0.0
134, 0.0
135, 0.0
136, 0.0
137, 0.0
138, 0.0
139, 0.0
140, 0.0
141, 0.0
142, 0.0
143, 0.0
144, 0.0
145, 0.0
146, 0.0
147, 0.0
148, 0.0
149, 0.0
150, 0.0
151, 0.0
152, 0.0
153, 0.0
154, 0.0
155, 0.0
156, 0.0
157, 0.0
158, 0.0
159, 0.0
160, 0.0
161, 0.0
162, 0.0
163, 0.0
164, 0.0
165, 0.0
166, 0.0
167, 0.0
168, 0.0
169, 0.0
170, 0.0
171, 0.0
172, 0.0
173, 0.0
174, 0.0
175, 0.0
176, 0.0
177.0, 0.004610775081137629
178.0, 0.01614694654723116
179.0, 0.007039513032831174
180.0, 0.0011707490207338795
181.0, 0.001443842483461288
182.0, 0.003193492140128085
183.0, 0.01047048610224529
184.0, 0.01555022119124635
185.0, 0.02045194260219991
186.0, 0.028863630298665316
187.0, 0.036921713872980606
188.0, 0.040491722695117895
189.0, 0.06129864805577756
190.0, 0.0686675031609904
191.0, 0.07048807323556518
192.0, 0.08300142279355545
193.0, 0.09308598671838776
194.0, 0.11664970398252855
195.0, 0.12819913579614417
196.0, 0.12156508090530867
197.0, 0.12146950865598038
198.0, 0.13759314210446805
199.0, 0.15088595278072817
200.0, 0.15664253246920556
201.0, 0.1583420703659935
202.0, 0.15622823346849754
203.0, 0.1573333955352312
204.0, 0.16222018678996694
205.0, 0.1652199139852849
206.0, 0.1569348456216365
207.0, 0.15936111672996206
208.0, 0.16873832576545564
209.0, 0.17808272227527644
210.0, 0.18334019572815569
211.0, 0.18017464673019967
212.0, 0.1849670357591547
213.0, 0.1911599303293413
214.0, 0.19063684522305643
215.0, 0.19055417510829464
216.0, 0.1958370203044195
217.0, 0.20403743962768553
218.0, 0.21017839378921718
219.0, 0.20841639099257836
220.0, 0.1972014601232252
221.0, 0.20554284408440937
222.0, 0.220331366558149
223.0, 0.21957714920464497
224.0, 0.20640061310328256
225.0, 0.19419923141536913
226.0, 0.18487576535966432
227.0, 0.17997667104636278
228.0, 0.18127895538708436
229.0, 0.17165491169407268
230.0, 0.1668442207721367
231.0, 0.15794579446606175
232.0, 0.13653141689726636
233.0, 0.1257885336481869
234.0, 0.12669510850491073
235.0, 0.1212608092264787
236.0, 0.10760130045967774
237.0, 0.09853054720296298
238.0, 0.08144512248343866
239.0, 0.08663969217918939
240.0, 0.09036350381562831
241.0, 0.06588720343345221
242.0, 0.052280252505328605
243.0, 0.06908386512736205
244.0, 0.07899763680777284
245.0, 0.06966318913404924
246.0, 0.06682724289815933
247.0, 0.07136349383674222
248.0, 0.07546813476824592
249.0, 0.07527610252571967
250.0, 0.07360402864928901
251.0, 0.08210074742290481
252.0, 0.0902852802324593
253.0, 0.1007555002433484
254.0, 0.10287204746875186
255.0, 0.08353661896010474
256.0, 0.1027007353376587
257.0, 0.11937897509311839
258.0, 0.1228737147807775
259.0, 0.12566214511185328
260.0, 0.1418073291596156
261.0, 0.14438106771303466
262.0, 0.14819881712133753
263.0, 0.15914770381901452
264.0, 0.17366850270806197
265.0, 0.1830535946827599
266.0, 0.18216892013435504
267.0, 0.185628148686933
268.0, 0.19740561042122587
269.0, 0.20118564015412232
270.0, 0.21694575056654206
271.0, 0.22459359468155013
272.0, 0.22112750935061865
273.0, 0.222561124180524
274.0, 0.2493878471469568
275.0, 0.2582046395271869
276.0, 0.26385671310338804
277.0, 0.2754664075855133
278.0, 0.28084371998447943
279.0, 0.27314927653964466
280.0, 0.2800486838524606
281.0, 0.29071273868514375
282.0, 0.2928491437931655
283.0, 0.299301966106924
284.0, 0.300320044344477
285.0, 0.2967677590727174
286.0, 0.2926217303796839
287.0, 0.28888440305260416
288.0, 0.27810587389305313
289.0, 0.266483603104014
290.0, 0.2525543633872975
291.0, 0.23825164520191405
292.0, 0.22918450194739365
293.0, 0.20561404440509365
294.0, 0.1849710972738019
295.0, 0.1742074785423641
296.0, 0.1681852125972474
297.0, 0.15211938414715384
298.0, 0.13906583400071418
299.0, 0.12017731235801256
300.0, 0.10596527980112405
301.0, 0.10782308537341675
302.0, 0.08736338924877977
303.0, 0.0741118260257926
304.0, 0.05997346363367767
305.0, 0.0416291036874282
306.0, 0.03459953154705378
307.0, 0.036533039540914254
308.0, 0.03297257493610035
309.0, 0.021103477935374648
310.0, 0.007433228243677847
311.0, 0.002291645194219519
312.0, 0.009821952053182348
313.0, 0.016413168387011456
314.0, 0.0067796445293505925
315.0, 0.007633110377352496
316.0, 0.020256935773162087
317.0, 0.015740991624745508
318.0, 0.012470815861436236
319.0, 0.019331078915497967
320.0, 0.008679097474658063
321.0, 0.003694439060166801
322.0, 0.008745174745914047
323.0, 0.009297243705686641
324.0, 0.009783692927541176
325.0, 0.013111829684229784
326.0, 0.02605453071749149
327.0, 0.033237341512154094
328.0, 0.03322914073515421
329.0, 0.0330451526344278
330.0, 0.0421546686162768
331.0, 0.05136086598385784
332.0, 0.033460917114938524
333.0, 0.021587270245774323
334.0, 0.06205054572462864
335.0, 0.061859307681849766
336.0, 0.06313226940896285
337.0, 0.0667008798457558
338.0, 0.07380961279115539
339.0, 0.09005275141909493
340.0, 0.09328390200359815
341.0, 0.09726736686437112
342.0, 0.10097003712020206
343.0, 0.10680508561688129
344.0, 0.12542536596180467
345.0, 0.12156910012045816
346.0, 0.12629009563047772
347.0, 0.13542140920383056
348.0, 0.13750865728045925
349.0, 0.13681885070884692
350.0, 0.1359788320941743
351.0, 0.13577543677813705
352.0, 0.14257765885979917
353.0, 0.15568514959030827
354.0, 0.16252088274700446
355.0, 0.1517445599542342
356.0, 0.14955705151171808
357.0, 0.1598007969863509
358.0, 0.16913955196021427
359.0, 0.17008513913294993
360.0, 0.1599341331366265
361.0, 0.160213610687849
362.0, 0.16686233041239915
363.0, 0.16351823549869046
364.0, 0.16118195455059675
365.0, 0.15788892425082146
366.0, 0.15545541179386202
367.0, 0.153766211814549
368.0, 0.15085494611997133
369.0, 0.15049133875378176
370.0, 0.14455275018214256
371.0, 0.1388377696417759
372.0, 0.13841758451554678
373.0, 0.14230789300635216
374.0, 0.1315327659648601
375.0, 0.11800151100867852
376.0, 0.1133094541758882
377.0, 0.1144716580312191
378.0, 0.1072503014603287
379.0, 0.1053895700239515
380.0, 0.10287738643784591
381.0, 0.10264938871216624
382.0, 0.10141597558538996
383.0, 0.08679517411736802
384.0, 0.07926494339546537
385.0, 0.07897751512552692
386.0, 0.07887672847479354
387.0, 0.07305672642432363
388.0, 0.0598564771332503
389.0, 0.051380366580935935
390.0, 0.05277241314130886
391.0, 0.0447881167677552
392.0, 0.021050828063870076
393.0, 0.007798249883338591
394.0, 0.0010037039672199236
395.0, 0.0011873571127530545
396.0, 0.002958572701185517
397.0, 0.0026984905379439654
398.0, 0.00695624088973385
399.0, 0.014131042991929
400.0, 0.020099012657416555
401.0, 0.012065494139356337
402.0, 0.0058236337557602815
403.0, 0.009274917000167122
404.0, 0.005013519226871951
405.0, 0.003214072094671768
406.0, 0.008805284228193714
407.0, 0.014164228136982813
408.0, 0.003010323950362145
409.0, 0.00754133097121661
410.0, 0.007767696705482654
411.0, 0.004934237955267995
412.0, 0.007409646886247084
413.0, 0.0058858363806950234
414.0, 0.009300557977504391
415.0, 0.015703521372084066
416.0, 0.013126756810379232
417.0, 0.010344400193070147
418.0, 0.010227458542974762
419.0, 0.015962577656485184
420.0, 0.026670865022258596
421.0, 0.03628778726080609
422.0, 0.03933411261810241
423.0, 0.03665396712691745
424.0, 0.050540979243821185
425.0, 0.05614541238291331
426.0, 0.0523170915000857
427.0, 0.04974866239681675
428.0, 0.05962903535530312
429.0, 0.05753746829852924
430.0, 0.058212769549137386
431.0, 0.06266291185202885
432.0, 0.06708442071749635
433.0, 0.06999786000227087
434.0, 0.07342940772122539
435.0, 0.07890460989077386
436.0, 0.07848972116146677
437.0, 0.07138874093023168
438.0, 0.06836506372230268
439.0, 0.0777018466341889
440.0, 0.0804877997323747
441.0, 0.07036540770378939
442.0, 0.06046647374400723
443.0, 0.06591098781793628
444.0, 0.054630990851653446
445.0, 0.04978857866834169
446.0, 0.045360304377150634
447.0, 0.045250268930336804
448.0, 0.05699379611558659
449.0, 0.04745458128855564
450.0, 0.04199693470492247
451.0, 0.04622493412085994
452.0, 0.04982087796908404
453.0, 0.04257628868225769
454.0, 0.033547769299849435
455.0, 0.045833205957461674
456.0, 0.053411383504837935
457.0, 0.05566231714776165
458.0, 0.06317704145875444
459.0, 0.06690746816412614
460.0, 0.07261617964542051
461.0, 0.09171894711324821
462.0, 0.10704147207104713
463.0, 0.1137765251315381
464.0, 0.13609770568476093
465.0, 0.14063538075343804
466.0, 0.15962491123815156
467.0, 0.17700123532179543
468.0, 0.18644423030232068
469.0, 0.21020030244746457
470.0, 0.23151969639949077
471.0, 0.2522442355423205
472.0, 0.278403835759531
473.0, 0.3104938298456413
474.0, 0.3393959142860545
475.0, 0.35433443449828483
476.0, 0.38876774867161523
477.0, 0.4206756029297799
478.0, 0.4484955222280574
479.0, 0.4841465520781732
480.0, 0.5110146852304709
481.0, 0.53641615255917
482.0, 0.5640278508165264
483.0, 0.5937549019687406
484.0, 0.6221792597002133
485.0, 0.6433662978666335
486.0, 0.652398787464652
487.0, 0.6723419854130749
488.0, 0.6925893522240462
489.0, 0.7044085256306207
490.0, 0.7176098497942578
491.0, 0.7401337219535205
492.0, 0.7626885129418937
493.0, 0.7784677270099235
494.0, 0.7914065325012348
495.0, 0.8090109991922505
496.0, 0.8275475400501995
497.0, 0.8338379456338664
498.0, 0.8471617815637835
499.0, 0.8607435892791381
500.0, 0.8660782539549889
501.0, 0.8821326261697445
502.0, 0.9133388130365221
503.0, 0.9241118221133541
504.0, 0.9301052451951283
505.0, 0.943240683273109
506.0, 0.9508599141322531
507.0, 0.9607081049584734
508.0, 0.9543684183077505
509.0, 0.9462439835808657
510.0, 0.9424889890766406
511.0, 0.9363690800999719
512.0, 0.9254656302882522
513.0, 0.9128727873355452
514.0, 0.8981005989180049
515.0, 0.8763786965454212
516.0, 0.8515692481077746
517.0, 0.832325820237188
518.0, 0.8010870844629414
519.0, 0.7646987130707611
520.0, 0.7347312881386256
521.0, 0.7092369457102629
522.0, 0.6770924242149495
523.0, 0.6498450171382847
524.0, 0.6218138617687495
525.0, 0.5903939547809393
526.0, 0.558862104599763
527.0, 0.528494811767967
528.0, 0.4945248148496904
529.0, 0.45563143876806333
530.0, 0.4353768876122971
531.0, 0.41282151448952564
532.0, 0.38454298582082824
533.0, 0.37024030556322873
534.0, 0.33161596833785756
535.0, 0.2987990935099124
536.0, 0.27673031122112673
537.0, 0.26360626954073924
538.0, 0.25322468252231445
539.0, 0.2259002356991505
540.0, 0.2074545480683038
541.0, 0.18838794755413965
542.0, 0.17473342883743745
543.0, 0.16227466609254795
544.0, 0.13747881454524596
545.0, 0.127258259143082
546.0, 0.1178812781142791
547.0, 0.10833859103809987
548.0, 0.09234214126344828
549.0, 0.07075464022731806
550.0, 0.07055557270184931
551.0, 0.059613016951787896
552.0, 0.058294416926260126
553.0, 0.055142789538656256
554.0, 0.043828604559978154
555.0, 0.035812913062687
556.0, 0.028010211632328006
557.0, 0.02488227539493619
558.0, 0.0219401828227059
559.0, 0.0203063767156998
560.0, 0.018131690259779017
561.0, 0.0062260279739327455
562.0, 0.006314280133556836
563.0, 0.0025886238557824397
564.0, 0.0015973292241304102
565.0, 0.0017082194053327018
566.0, 0.0010675831750990654
567.0, 0.004091666856081286
568.0, 0.0025787516801393383
569.0, 0.00045396192975591095
570.0, 0.0019755391900660893
571.0, 0.004766075653057141
572.0, 0.0002853533633799842
573.0, 0.006156358064668504
574.0, 0.004739670511050795
575.0, 0.010658223792758995
576.0, 0.016360157048356458
577.0, 0.009246246630500056
578.0, 0.005589333443603555
579.0, 0.0037843553513661784
580.0, 0.0015016969805543244
581.0, 0.001854925592108774
582.0, 0.007753802609201868
583.0, 0.013651502812032167
584.0, 0.005861263400732083
585.0, 0.0024333825500258747
586.0, 0.0007140535969606362
587.0, 0.004470811106712877
588.0, 0.009163073239533276
589.0, 0.004402351366269397
590.0, 0.0071854672039265936
591.0, 0.005571054783344264
592.0, 0.013421012228420688
593.0, 0.010977369230479785
594.0, 0.008771509900565962
595.0, 0.007452011505476113
596.0, 0.012805702441124908
597.0, 0.013003305356763143
598.0, 0.01495194232237366
599.0, 0.014060046010693602
600.0, 0.008049664057441848
601.0, 0.024869609618028827
602.0, 0.025976567092330902
603.0, 0.026251700598744716
604.0, 0.029112608656603492
605.0, 0.033872603618491606
606.0, 0.039535297570737524
607.0, 0.041151803248559514
608.0, 0.044236321041630375
609.0, 0.04456444130312551
610.0, 0.04736012492198657
611.0, 0.04989193835036852
612.0, 0.04514105534910556
613.0, 0.06198710159835835
614.0, 0.06104724882225934
615.0, 0.06326002096931667
616.0, 0.0668353670731147
617.0, 0.07011117661365317
618.0, 0.08852047455897198
619.0, 0.08681724854454073
620.0, 0.08947706370003879
621.0, 0.08541941638114699
622.0, 0.08138348455051851
623.0, 0.0892500912790901
624.0, 0.0987521965819946
625.0, 0.10300431784414617
626.0, 0.10262298872302113
627.0, 0.10422388003488198
628.0, 0.10979810143008793
629.0, 0.11509187582662186
630.0, 0.11461510848705794
631.0, 0.12166105035933551
632.0, 0.12021108282473346
633.0, 0.12047705212778613
634.0, 0.124820453464794
635.0, 0.12775907637823364
636.0, 0.12919095347589227
637.0, 0.1290036802678719
638.0, 0.1257942029337985
639.0, 0.12930679788890914
640.0, 0.13148796308722932
641.0, 0.12217990406542843
642.0, 0.11985411163262143
643.0, 0.12388030033484804
644.0, 0.12400338896289206
645.0, 0.12302296557040636
646.0, 0.11926758207583843
647.0, 0.11297853823058128
648.0, 0.12345335225687315
649.0, 0.11931255623543806
650.0, 0.11861205674561709
651.0, 0.12324540017503571
652.0, 0.120236342089044
653.0, 0.10447479378573363
654.0, 0.09618202045770263
655.0, 0.0987280093321631
656.0, 0.10617561232058284
657.0, 0.10155659948834958
658.0, 0.09210968276511648
659.0, 0.09306494138456997
660.0, 0.09262678258952546
661.0, 0.09852876832758672
662.0, 0.09488283536112224
663.0, 0.08530286735267477
664.0, 0.07889717682612395
665.0, 0.07812198421152283
666.0, 0.07957157836743532
667.0, 0.08170464971293631
668.0, 0.06900019596027206
669.0, 0.06410813225028923
670.0, 0.07366599972357807
671.0, 0.08268494735799398
672.0, 0.07274315034143551
673.0, 0.07776988295516805
674.0, 0.07440673574829405
675.0, 0.06638993307636631
676.0, 0.06351924414510653
677.0, 0.06533292456504335
678.0, 0.06393287137056623
679.0, 0.06864213416782074
680.0, 0.057972087061004964
681.0, 0.05587895287675528
682.0, 0.06404496290206764
683.0, 0.06789988992172345
684.0, 0.06131509275356609
685.0, 0.054416121007907
686.0, 0.05201562653542095
687.0, 0.05111759199369272
688.0, 0.047742958642036176
689.0, 0.04809199132881226
690.0, 0.058196881421844655
691.0, 0.05685227116152719
692.0, 0.051947838120074925
693.0, 0.03955077366936359
694.0, 0.040198429856812816
695.0, 0.047967561669046144
696.0, 0.04366808891053937
697.0, 0.037268925719248225
698.0, 0.043549438821905685
699.0, 0.03864791405217954
700.0, 0.03315554755104064
701.0, 0.03161232659768657
702.0, 0.03090163271278071
703.0, 0.032265456946335834
704.0, 0.0294333150224474
705.0, 0.030610631554261237
706.0, 0.021292317067167534
707.0, 0.022093466593649184
708.0, 0.03143344840711031
709.0, 0.019393045393850103
710.0, 0.029224242307945777
711.0, 0.035313555538741284
712.0, 0.026798694934019963
713.0, 0.01749028585041929
714.0, 0.014646383685292785
715.0, 0.015427248214279087
716.0, 0.019677927556803487
717.0, 0.003630015690859497
718.0, 0.0012216684838337597
719.0, 0.0024997590318695416
720.0, 0.0005897223616628729
721.0, 0.0008281692009375786
722.0, 0.0067243883569160666
723.0, 0.006375386553243221
724.0, 0.012867497015376367
725.0, 0.006849402770407832
726.0, 0.0014349636385046004
727.0, 0.005578903432650589
728.0, 0.003995799147239638
729.0, 0.0011716387355465432
730.0, 0.0003855970129258555
731.0, 0.009132787526252375
732.0, 0.010041390703083589
733.0, 0.006069096415914842
734.0, 0.008175146791889455
735.0, 0.0058947046148044744
736.0, 0.003971714258389992
737.0, 0.007924293502827535
738.0, 0.008318897123979875
739.0, 0.009565131774899576
740.0, 0.010410602555732479
741.0, 0.004656584000102962
742.0, 0.011635864082682934
743.0, 0.0071812270397037135
744.0, 0.007462184979213335
745.0, 0.010620345839268727
746.0, 0.012529002876159304
747.0, 0.012055126491151497
748.0, 0.006796478818177897
749.0, 0.001154540733094874
750.0, 0.0019801489811060403
751.0, 0.002146476622072117
752.0, 0.0032442818843196964
753.0, 0.01186163814186011
754.0, 0.022878579382549967
755.0, 0.0044914395202146065
756.0, 0.013538884702768888
757.0, 0.023268705079217775
758.0, 0.024030206658700204
759.0, 0.02366928380688385
760.0, 0.02881731481239662
761.0, 0.035897883184464234
762.0, 0.03275656991752108
763.0, 0.03956146022750222
764.0, 0.05340437685044184
765.0, 0.06279862527451445
766.0, 0.06668998553226119
767.0, 0.07082920193004272
768.0, 0.08137750845281463
769.0, 0.09273103842726892
770.0, 0.10466558561000483
771.0, 0.11293281123147464
772.0, 0.11988141025683853
773.0, 0.12606757152791032
774.0, 0.13268413730693765
775.0, 0.14891828797233203
776.0, 0.16610237677424547
777.0, 0.17401685422347118
778.0, 0.17667625783812932
779.0, 0.1886966683904977
780.0, 0.20170201441906094
781.0, 0.1939165011114322
782.0, 0.19472155685285278
783.0, 0.20308398344678838
784.0, 0.21351533740265125
785.0, 0.22328113485230755
786.0, 0.22798634964585365
787.0, 0.22869887232246786
788.0, 0.2336633965864814
789.0, 0.2365287981769603
790.0, 0.23443159232983327
791.0, 0.2472146968375522
792.0, 0.2505879864904946
793.0, 0.24382487480011122
794.0, 0.23966016145170158
795.0, 0.23635545513558984
796.0, 0.23706322747113748
797.0, 0.22806411999755144
798.0, 0.2204365042776529
799.0, 0.21456126928748948
800.0, 0.204469507483501
801.0, 0.1929950486294277
802.0, 0.1878173853118801
803.0, 0.18790700297391644
804.0, 0.18005640036602039
805.0, 0.18249670582615882
806.0, 0.18087567432101892
807.0, 0.17538021164894488
808.0, 0.17561708091427095
809.0, 0.1688970004091706
810.0, 0.15956509104276514
811.0, 0.15715830218271684
812.0, 0.16421911449898455
813.0, 0.17054244423520568
814.0, 0.17775728802298824
815.0, 0.19023962841478295
816.0, 0.19920339171352466
817.0, 0.21101304311944233
818.0, 0.21295624914793754
819.0, 0.2394611657356162
820.0, 0.2581108661099791
821.0, 0.26873139340606794
822.0, 0.2920936045668684
823.0, 0.3130711025366262
824.0, 0.3455453117117243
825.0, 0.3647853998747235
826.0, 0.3959469520708802
827.0, 0.430666903996057
828.0, 0.4609925415695132
829.0, 0.4941313948695392
830.0, 0.5339502048679609
831.0, 0.5771761297549215
832.0, 0.6256548732465144
833.0, 0.6680957452548504
834.0, 0.7120867387755766
835.0, 0.7574029160912793
836.0, 0.7967299335730214
837.0, 0.8305516003260592
838.0, 0.8701894903088964
839.0, 0.9060584867609394
840.0, 0.9332299100909035
841.0, 0.957620967797763
842.0, 0.9689387040916416
843.0, 0.9776410312813727
844.0, 0.9994968806771479
845.0, 0.9910153537401971
846.0, 0.9891906993273379
847.0, 0.9800397435218942
848.0, 0.963695063417957
849.0, 0.9437376702590519
850.0, 0.9217253459482987
851.0, 0.9022084172411399
852.0, 0.8873582988666073
853.0, 0.8495762815662911
854.0, 0.8176710960283009
855.0, 0.7942875021218037
856.0, 0.7705557413787095
857.0, 0.7447125619278779
858.0, 0.7222488965736714
859.0, 0.7085700649604858
860.0, 0.6863229694694309
861.0, 0.6577412553031848
862.0, 0.6436725881356684
863.0, 0.634592179311372
864.0, 0.6207820872143913
865.0, 0.6043110317136
866.0, 0.59240423409714
867.0, 0.594734392179884
868.0, 0.5847425196778508
869.0, 0.5768088757299379
870.0, 0.5634318327667673
871.0, 0.545542797575745
872.0, 0.5263844247956506
873.0, 0.5109185872763018
874.0, 0.5019362749316243
875.0, 0.46989684406494614
876.0, 0.462771613771514
877.0, 0.4437385870064047
878.0, 0.4217937341875991
879.0, 0.3959262028147182
880.0, 0.37003050635262136
881.0, 0.3572721868966363
882.0, 0.33501330185622025
883.0, 0.305524776202097
884.0, 0.28192276018463547
885.0, 0.2751262315992231
886.0, 0.25185051288430144
887.0, 0.22930970245924912
888.0, 0.22631542221248788
889.0, 0.20722545812214907
890.0, 0.21077459820439026
891.0, 0.19053214803790416
892.0, 0.1718901655157718
893.0, 0.15419094921368998
894.0, 0.14182478117693537
895.0, 0.13387625184592974
896.0, 0.12457119806346162
897.0, 0.11955966726672354
898.0, 0.10804801773655452
899.0, 0.09785647641607065
900.0, 0.08638762591390302
901.0, 0.07966473143310816
902.0, 0.07371361370678457
903.0, 0.06310461584217064
904.0, 0.05305930865253511
905.0, 0.04634948694414627
906.0, 0.028740969734473862
907.0, 0.025170729172331107
908.0, 0.025754611367307088
909.0, 0.0181261632509471
910.0, 0.010247422534488014
911.0, 0.005721032347411091
912.0, 0.001424424966092787
913.0, 0.00569563822885011
914.0, 0.008761974161577297
915.0, 0.0023410867829881383
916.0, 0.005565699342043519
917.0, 0.0025906130114619814
918.0, 0.007843615427757064
919.0, 0.011570021194819745
920.0, 0.01569725080230191
921.0, 0.0017443505288929945
922.0, 0.01575863628450176
923.0, 0.017515442637942087
924.0, 0.013712496372550252
925.0, 0.009235368141274397
926.0, 0.009348871487548437
927.0, 0.015059584914026258
928.0, 0.014511326673780219
929.0, 0.009361263566567227
930.0, 0.012669319503367511
931.0, 0.012671767357553303
932.0, 0.003953146535243866
933.0, 0.00595141083622568
934.0, 0.013918820258747428
935.0, 0.0065194943553200406
936.0, 0.000522853139660203
937.0, 0.0007359211313680051
938.0, 0.0085008108067868
939.0, 0.007420523061703574
940.0, 0.0031831312625422536
941.0, 0.0016719264568382953
942.0, 0.0038484551364412123
943.0, 0.007615306774841119
944.0, 0.00984893161376003
945.0, 0.012238840049612551
946.0, 0.016576447294671278
947.0, 0.020308825414848575
948.0, 0.014157042534298019
949.0, 0.016663290014642597
950.0, 0.018104782504247144
951.0, 0.011530330406254816
952.0, 0.01760776937513625
953.0, 0.033356450516172
954.0, 0.0228301918842693
955.0, 0.03175433712375669
956.0, 0.026927163304564402
957.0, 0.02621914779958807
958.0, 0.020608549645446596
959.0, 0.01652893891687142
960.0, 0.033926330379556086
961.0, 0.03507844226835266
962.0, 0.036868716342033
963.0, 0.034964908922559615
964.0, 0.04127322652203428
965.0, 0.03746814064825672
966.0, 0.03319898153797951
967.0, 0.03591659987372043
968.0, 0.04010990185626879
969.0, 0.04327663631970064
970.0, 0.03707930734186407
971.0, 0.033789041614456075
972.0, 0.04142108992745308
973.0, 0.047100944094042425
974.0, 0.04764550539895465
975.0, 0.05076718556507763
976.0, 0.05514827003280423
977.0, 0.05524263143451684
978.0, 0.056489449137252595
979.0, 0.052799665263487096
980.0, 0.05121581704521021
981.0, 0.05039037044843668
982.0, 0.04979407877858966
983.0, 0.049717514675677914
984.0, 0.050821447835989075
985.0, 0.04924749245404573
986.0, 0.041329023795617204
987.0, 0.03803866925733715
988.0, 0.04661274701533119
989.0, 0.048856264707354526
990.0, 0.05225859030705506
991.0, 0.045894120229926935
992.0, 0.044872234881717744
993.0, 0.04677424452435763
994.0, 0.03896503432985735
995.0, 0.0515205835291094
996.0, 0.04984473118854894
997.0, 0.04002853822217285
998.0, 0.04469217725202208
999.0, 0.049545094625551934
1000.0, 0.04625014713504261
1001.0, 0.04471193886531531
1002.0, 0.044839709061448886
1003.0, 0.03865446025116776
1004.0, 0.04008479192607806
1005.0, 0.05056052374643809
1006.0, 0.04380653991173741
1007.0, 0.041692707670948306
1008.0, 0.039989751922337925
1009.0, 0.04303744843994178
1010.0, 0.044187749593326504
1011.0, 0.04143481453888482
1012.0, 0.045045126341130434
1013.0, 0.041010853495776774
1014.0, 0.042043027343599694
1015.0, 0.043522401125079886
1016.0, 0.03816200215310269
1017.0, 0.0399381356178858
1018.0, 0.03557839446757835
1019.0, 0.033603759446617545
1020.0, 0.04214161231566543
1021.0, 0.04288703096358992
1022.0, 0.039826377750109644
1023.0, 0.03422138208818659
1024.0, 0.03774052679689404
1025.0, 0.03529898665985356
1026.0, 0.03318687285842643
1027.0, 0.032306204068608506
1028.0, 0.028495994910849115
1029.0, 0.027766031605170275
1030.0, 0.03393661266389268
1031.0, 0.030489744655977893
1032.0, 0.02129573347777615
1033.0, 0.022521288840108556
1034.0, 0.020295458885145296
1035.0, 0.025925480817652804
1036.0, 0.0266503863659387
1037.0, 0.021917027260072823
1038.0, 0.01927841757428705
1039.0, 0.019820411107662743
1040.0, 0.02118278786258006
1041.0, 0.015693542710701863
1042.0, 0.01750863826294974
1043.0, 0.016622403624096168
1044.0, 0.018313651989846805
1045.0, 0.01980035741584184
1046.0, 0.017191910869335643
1047.0, 0.012251417515315886
1048.0, 0.010836954120333501
1049.0, 0.015044471454592218
1050.0, 0.014355486822671659
1051.0, 0.011712940088307457
1052.0, 0.005419429805982325
1053.0, 0.01335624591632863
1054.0, 0.020310483065637732
1055.0, 0.014448157397954325
1056.0, 0.007708218700904312
1057.0, 0.007990632142498112
1058.0, 0.01093895792987519
1059.0, 0.014966762667496483
1060.0, 0.00583567425534398
1061.0, 0.013093744462558336
1062.0, 0.01428940520094289
1063.0, 0.014751155613885679
1064.0, 0.004519614505824689
1065.0, 0.003977877047546752
1066.0, 0.015337414320936084
1067.0, 0.01681697750066559
1068.0, 0.014504557276024671
1069.0, 0.015219344774941386
1070.0, 0.010207714601314345
1071.0, 0.012344070872187285
1072.0, 0.006319741119993053
1073.0, 0.01323676156577451
1074.0, 0.0073078149419049596
1075.0, 0.0006877896840233164
1076.0, 0.00565382862795149
1077.0, 0.007406231584380498
1078.0, 0.004394010581867995
1079.0, 0.001378791100491684
1080.0, 0.0036572690600784547
1081.0, 0.004939704167791457
1082.0, 0.0008292170754068129
1083.0, 0.007548166594917116
1084.0, 0.007009582141485385
1085.0, 0.003155666342324563
1086.0, 0.0014707149292784328
1087.0, 0.008357117181514292
1088.0, 0.0005577187640149238
1089.0, 0.008614866291058875
1090.0, 0.0006375453161937719
1091.0, 0.005971428006531004
1092.0, 0.0018963278311448185
1093.0, 0.0025289893454811096
1094.0, 0.00295790334718346
1095.0, 0.006057957709597216
1096.0, 0.008051901107321313
1097.0, 0.004598815954900788
1098.0, 0.003525949226317388
1099.0, 0.004902961597598374
1100.0, 0.01083812812283014
1101.0, 0.0017787452243627124
1102.0, 0.007232729639954559
1103.0, 0.0098710587690587
1104.0, 0.005470885106851311
1105.0, 0.0031249646737219034
1106.0, 0.0027625629652054825
1107.0, 0.002220535301261067
1108.0, 0.006703887710840165
1109.0, 0.00912410560943984
1110.0, 0.0036927401086322845
1111.0, 0.00297892075416489
1112.0, 0.007903796527658455
1113.0, 0.008084244605825049
1114.0, 0.002944747603540844
1115.0, 1.0323467373370948e-05
1116.0, 0.0002798115352452677
1117.0, 0.0004125971918898725
1118.0, 0.0012350806598566259
1119.0, 0.003875517515431535
1120.0, 0.002795937223393169
1121.0, 0.009241537878020203
1122.0, 0.0022994676357309335
1123.0, 0.0025787871734660743
1124.0, 0.0030144787015401265
1125.0, 0.004506962122567827
1126.0, 0.010151476620808281
1127.0, 0.00468009133322824
1128.0, 0.0015737611257913503
1129.0, 0.009544659288290033
1130.0, 0.004736990582437973
1131.0, 0.004392085711060774
1132.0, 0.005337928351108033
1133.0, 0.007301406273001428
1134.0, 0.0029850422638239365
1135.0, 0.012887326886610692
1136.0, 0.013388661786136622
1137.0, 0.009134738170967207
1138.0, 0.005905595530214513
1139.0, 0.002055706211573275
1140.0, 0.008112113238001685
1141.0, 0.011205964992391747
1142.0, 0.015883861775119558
1143.0, 0.014141430194616039
1144.0, 0.005336605547778464
1145.0, 0.0021731440063771004
1146.0, 0.0006276247898323361
1147.0, 0.0066627233310524924
1148.0, 0.008866015885101058
1149.0, 0.007634425139090614
1150.0, 0.0111450026478004
1151.0, 0.004955350119032581
1152.0, 0.00033817627493351696
1153.0, 0.0025657367604688323
1154.0, 0.00416398201284856
1155.0, 0.006183950230923136
1156.0, 0.012520158764853325
1157.0, 0.004903771201766586
1158.0, 0.008537578865775119
1159.0, 0.010971617028296184
1160.0, 0.006835650639673045
1161.0, 0.004616983019040762
1162.0, 0.003910219155337293
1163.0, 0.008949102144456504
1164.0, 0.005014466555483144
1165.0, 0.009195490809928748
1166.0, 0.009340995453199817
1167.0, 0.002140306057765588
1168.0, 0.0034999121637984782
1169.0, 0.011412968962948288
1170.0, 0.009815996777166582
1171.0, 0.005624946657403127
1172.0, 0.003947661669968524
1173.0, 0.002987670751655162
1174.0, 0.006626477489380973
1175.0, 0.008168537805410018
1176.0, 0.006813668113122025
1177.0, 0.013670015547418245
1178.0, 0.013816388746778535
1179.0, 0.015131100214170702
1180.0, 0.010508275503498792
1181.0, 0.005202731718013535
1182.0, 0.008019765892763757
1183.0, 0.006541700130926572
1184.0, 0.001036268280630135
1185.0, 0.004354932928902127
1186.0, 0.006608897584381666
1187.0, 0.0025745531157542433
1188.0, 0.0033664943513259534
1189.0, 0.011686646609030293
1190.0, 0.007437289465853385
1191.0, 0.00948542428747319
1192.0, 0.005956347167707172
1193.0, 0.006756752933431883
1194.0, 0.01434699811166358
1195.0, 0.01242428408534233
1196.0, 0.005898084603382793
1197.0, 0.007373202544787065
1198.0, 0.008844228870511324
1199.0, 0.009712071287899946
1200.0, 0.0008277350171272508
1201.0, 0.0013218192375406058
1202.0, 0.008908361779726906
1203.0, 0.005446163762646656
1204.0, 0.007250552466092831
1205.0, 0.012813058036359954
1206.0, 0.009363753387814925
1207.0, 0.005581825180200111
1208.0, 0.004695245367502497
1209.0, 0.0025482401310826333
1210.0, 0.003611515978752256
1211.0, 0.007547375281302277
1212.0, 0.00460799859334406
1213.0, 0.0010969710506213248
1214.0, 0.008089209627154387
1215.0, 0.015595721944672677
1216.0, 0.013169774243708375
1217.0, 0.007922962275903118
1218.0, 0.005571672801766142
1219.0, 0.006727080638170829
1220.0, 0.005272261732717573
1221.0, 0.009003721822427129
1222.0, 0.014472272705956508
1223.0, 0.006597987539967112
1224.0, 0.006219102087510648
1225.0, 0.0050709879190544436
1226.0, 0.0032347713359521238
1227.0, 0.00983703362980566
1228.0, 0.001693073889191406
1229.0, 0.007780307044741215
1230.0, 0.0038136234828452663
1231.0, 0.005527987400489154
1232.0, 0.0035038919004656147
1233.0, 0.005702246961035797
1234.0, 0.0059688155405913336
1235.0, 0.012253905121850706
1236.0, 0.007073274382697419
1237.0, 0.013738389928529398
1238.0, 0.011342636703273066
1239.0, 0.005257026603640837
1240.0, 0.0031505532312881544
1241.0, 0.009117044350977642
1242.0, 0.008232124939833243
1243.0, 0.0014438061694470984
1244.0, 0.008379213531645164
1245.0, 0.009880211401604961
1246.0, 0.011925047546793825
1247.0, 0.015996792722970707
1248.0, 0.007327931291957161
1249.0, 0.005167658214478198
1250.0, 0.017394011284902998
1251.0, 0.01047011610108143
1252.0, 0.01597290207879542
1253.0, 0.002480069155728388
1254.0, 0.011236856380808005
1255.0, 0.006849052570328918
1256.0, 0.0027200179769620546
1257.0, 0.008546309910226849
1258.0, 0.0089528835021751
1259.0, 0.013135047579634863
1260.0, 0.013386398627366429
1261.0, 0.007667200736945502
1262.0, 0.010992610327647402
1263.0, 0.015511827360905941
1264.0, 0.008172238330687717
1265.0, 0.011151135943208997
1266.0, 0.009651660518558963
1267.0, 0.015471501313336479
1268.0, 0.014008038675332275
1269.0, 0.019024433807931583
1270.0, 0.01932318831654888
1271.0, 0.014848294352556446
1272.0, 0.007367870645172268
1273.0, 0.00532964362006315
1274.0, 0.007175768945842995
1275.0, 0.004010650833797968
1276.0, 0.007055565887053211
1277.0, 0.013040155254862157
1278.0, 0.003845431011041209
1279.0, 0.0030444012640779223
1280.0, 0.005979503206459253
1281.0, 0.011134404955495936
1282.0, 0.017059982113597112
1283.0, 0.002982669694144203
1284.0, 0.004344671787746721
1285.0, 0.011996333067512152
1286.0, 0.003961001873126467
1287.0, 0.008702700199428006
1288.0, 0.004763818110941421
1289.0, 0.0017633680553221362
1290.0, 0.006116134303303225
1291.0, 0.008641582397607248
1292.0, 0.008475491301355345
1293.0, 0.008465266732994494
1294.0, 0.012311507470723139
1295.0, 0.0034119912402665103
1296.0, 0.008245344380469618
1297.0, 0.011346084102595938
1298.0, 0.0030740263412938193
1299.0, 0.010099174815371986
1300.0, 0.009499562326444428
1301.0, 0.0010541387486300582
1302.0, 0.0018802663827075946
1303.0, 7.301232719119375e-05
1304, 0.0
1305, 0.0
1306, 0.0
1307, 0.0
1308, 0.0
1309, 0.0
1310, 0.0
1311, 0.0
1312, 0.0
1313, 0.0
1314, 0.0
1315, 0.0
1316, 0.0
1317, 0.0
1318, 0.0
1319, 0.0
1320, 0.0
1321, 0.0
1322, 0.0
1323, 0.0
1324, 0.0
1325, 0.0
1326, 0.0
1327, 0.0
1328, 0.0
1329, 0.0
1330, 0.0
1331, 0.0
1332, 0.0
1333, 0.0
1334, 0.0
1335, 0.0
1336, 0.0
1337, 0.0
1338, 0.0
1339, 0.0
1340, 0.0
1341, 0.0
1342, 0.0
1343, 0.0
1344, 0.0
1345, 0.0
1346, 0.0
1347, 0.0
1348, 0.0
1349, 0.0
1350, 0.0
1351, 0.0
1352, 0.0
1353, 0.0
1354, 0.0
1355, 0.0
1356, 0.0
1357, 0.0
1358, 0.0
1359, 0.0
1360, 0.0
1361, 0.0
1362, 0.0
1363, 0.0
1364, 0.0
1365, 0.0
1366, 0.0
1367, 0.0
1368, 0.0
1369, 0.0
1370, 0.0
1371, 0.0
1372, 0.0
1373, 0.0
1374, 0.0
1375, 0.0
1376, 0.0
1377, 0.0
1378, 0.0
1379, 0.0
1380, 0.0
1381, 0.0
1382, 0.0
1383, 0.0
1384, 0.0
1385, 0.0
1386, 0.0
1387, 0.0
1388, 0.0
1389, 0.0
1390, 0.0
1391, 0.0
1392, 0.0
1393, 0.0
1394, 0.0
1395, 0.0
1396, 0.0
1397, 0.0
1398, 0.0
1399, 0.0
1400, 0.0
1401, 0.0
1402, 0.0
1403, 0.0
1404, 0.0
1405, 0.0
1406, 0.0
1407, 0.0
1408, 0.0
1409, 0.0
1410, 0.0
1411, 0.0
1412, 0.0
1413, 0.0
1414, 0.0
1415, 0.0
1416, 0.0
1417, 0.0
1418, 0.0
1419, 0.0
1420, 0.0
1421, 0.0
1422, 0.0
1423, 0.0
1424, 0.0
1425, 0.0
1426, 0.0
1427, 0.0
1428, 0.0
1429, 0.0
1430, 0.0
1431, 0.0
1432, 0.0
1433, 0.0
1434, 0.0
1435, 0.0
1436, 0.0
1437, 0.0
1438, 0.0
1439, 0.0
1440, 0.0
1441, 0.0
1442, 0.0
1443, 0.0
1444, 0.0
1445, 0.0
1446, 0.0
1447, 0.0
1448, 0.0
1449, 0.0
1450, 0.0
1451, 0.0
1452, 0.0
1453, 0.0
1454, 0.0
1455, 0.0
1456, 0.0
1457, 0.0
1458, 0.0
1459, 0.0
1460, 0.0
1461, 0.0
1462, 0.0
1463, 0.0
1464, 0.0
1465, 0.0
1466, 0.0
1467, 0.0
1468, 0.0
1469, 0.0
1470, 0.0
1471, 0.0
1472, 0.0
1473, 0.0
1474, 0.0
1475, 0.0
1476, 0.0
1477, 0.0
1478, 0.0
1479, 0.0
1480, 0.0
1481, 0.0
1482, 0.0
1483, 0.0
1484, 0.0
1485, 0.0
1486, 0.0
1487, 0.0
1488, 0.0
1489, 0.0
1490, 0.0
1491, 0.0
1492, 0.0
1493, 0.0
1494, 0.0
1495, 0.0
1496, 0.0
1497, 0.0
1498, 0.0
1499, 0.0
1500, 0.0
1501, 0.0
1502, 0.0
1503, 0.0
1504, 0.0
1505, 0.0
1506, 0.0
1507, 0.0
1508, 0.0
1509, 0.0
1510, 0.0
1511, 0.0
1512, 0.0
1513, 0.0
1514, 0.0
1515, 0.0
1516, 0.0
1517, 0.0
1518, 0.0
1519, 0.0
1520, 0.0
1521, 0.0
1522, 0.0
1523, 0.0
1524, 0.0
1525, 0.0
1526, 0.0
1527, 0.0
1528, 0.0
1529, 0.0
1530, 0.0
1531, 0.0
1532, 0.0
1533, 0.0
1534, 0.0
1535, 0.0
1536, 0.0
1537, 0.0
1538, 0.0
1539, 0.0
1540, 0.0
1541, 0.0
1542, 0.0
1543, 0.0
1544, 0.0
1545, 0.0
1546, 0.0
1547, 0.0
1548, 0.0
1549, 0.0
1550, 0.0
1551, 0.0
1552, 0.0
1553, 0.0
1554, 0.0
1555, 0.0
1556, 0.0
1557, 0.0
1558, 0.0
1559, 0.0
1560, 0.0
1561, 0.0
1562, 0.0
1563, 0.0
1564, 0.0
1565, 0.0
1566, 0.0
1567, 0.0
1568, 0.0
1569, 0.0
1570, 0.0
1571, 0.0
1572, 0.0
1573, 0.0
1574, 0.0
1575, 0.0
1576, 0.0
1577, 0.0
1578, 0.0
1579, 0.0
1580, 0.0
1581, 0.0
1582, 0.0
1583, 0.0
1584, 0.0
1585, 0.0
1586, 0.0
1587, 0.0
1588, 0.0
1589, 0.0
1590, 0.0
1591, 0.0
1592, 0.0
1593, 0.0
1594, 0.0
1595, 0.0
1596, 0.0
1597, 0.0
1598, 0.0
1599, 0.0
