30, 0.0
31, 0.0
32, 0.0
33, 0.0
34, 0.0
35, 0.0
36, 0.0
37, 0.0
38, 0.0
39, 0.0
40, 0.0
41, 0.0
42, 0.0
43, 0.0
44, 0.0
45, 0.0
46, 0.0
47, 0.0
48, 0.0
49, 0.0
50, 0.0
51, 0.0
52, 0.0
53, 0.0
54, 0.0
55, 0.0
56, 0.0
57, 0.0
58, 0.0
59, 0.0
60, 0.0
61, 0.0
62, 0.0
63, 0.0
64, 0.0
65, 0.0
66, 0.0
67, 0.0
68, 0.0
69, 0.0
70, 0.0
71, 0.0
72, 0.0
73, 0.0
74, 0.0
75, 0.0
76, 0.0
77, 0.0
78, 0.0
79, 0.0
80, 0.0
81, 0.0
82, 0.0
83, 0.0
84, 0.0
85, 0.0
86, 0.0
87, 0.0
88, 0.0
89, 0.0
90, 0.0
91, 0.0
92, 0.0
93, 0.0
94, 0.0
95, 0.0
96, 0.0
97, 0.0
98, 0.0
99, 0.0
100, 0.0
101, 0.0
102, 0.0
103, 0.0
104, 0.0
105, 0.0
106, 0.0
107, 0.0
108, 0.0
109, 0.0
110, 0.0
111, 0.0
112, 0.0
113, 0.0
114, 0.0
115, 0.0
116, 0.0
117, 0.0
118, 0.0
119, 0.0
120, 0.0
121, 0.0
122, 0.0
123, 0.0
124, 0.0
125, 0.0
126, 0.0
127, 0.0
128, 0.0
129, 0.0
130, 0.0
131, 0.0
132, 0.0
133, 0.0
134, 0.0
135, 0.0
136, 0.0
137, 0.0
138, 0.0
139, 0.0
140, 0.0
141, 0.0
142, 0.0
143, 0.0
144, 0.0
145, 0.0
146, 0.0
147, 0.0
148, 0.0
149, 0.0
150, 0.0
151, 0.0
152, 0.0
153, 0.0
154, 0.0
155, 0.0
156, 0.0
157, 0.0
158, 0.0
159.0, 0.0035351458130396247
160.0, 0.0006818642084025808
161.0, 0.0015574704440906736
162.0, 0.013955456416665112
163.0, 0.03364385627072877
164.0, 0.06575483117329217
165.0, 0.08513994277614714
166.0, 0.09743059616115643
167.0, 0.12048277905295149
168.0, 0.15027633994913736
169.0, 0.18216478816181333
170.0, 0.2110746565130889
171.0, 0.23109172268370756
172.0, 0.22194165986996864
173.0, 0.20039411651814637
174.0, 0.17663730180639572
175.0, 0.15413510806661568
176.0, 0.15346199860325813
177.0, 0.15872720972397086
178.0, 0.16420062562416035
179.0, 0.1681894050122159
180.0, 0.15927902129045257
181.0, 0.16382082767327868
182.0, 0.17831698983246974
183.0, 0.1925238851343175
184.0, 0.2021834719715507
185.0, 0.2106650373092618
186.0, 0.2246724181550005
187.0, 0.2383013276300979
188.0, 0.24345892815764653
189.0, 0.26936050988585686
190.0, 0.28569904923066003
191.0, 0.2891321088752922
192.0, 0.2905880367239014
193.0, 0.2927337772027979
194.0, 0.29435083275896096
195.0, 0.28758944613253457
196.0, 0.26593814246889586
197.0, 0.22871106479592646
198.0, 0.19586726637375224
199.0, 0.16818145423474135
200.0, 0.14885267872403793
201.0, 0.14157795331303674
202.0, 0.14206804916352683
203.0, 0.13583094807352508
204.0, 0.13303885190500828
205.0, 0.13881534035978946
206.0, 0.13890794232800774
207.0, 0.1359354126295723
208.0, 0.13305749456258661
209.0, 0.1319264437775854
210.0, 0.13273777298816447
211.0, 0.13201952823551424
212.0, 0.1348948347819632
213.0, 0.13949129962808335
214.0, 0.14362003617905011
215.0, 0.15066854902685295
216.0, 0.1588238861501763
217.0, 0.16948795846405038
218.0, 0.18077283155847984
219.0, 0.18249638086360662
220.0, 0.1834317531979733
221.0, 0.18431865794663557
222.0, 0.1848023475976734
223.0, 0.1862375220434635
224.0, 0.193673264377595
225.0, 0.20147346479060135
226.0, 0.2114211842213963
227.0, 0.22817902860205708
228.0, 0.2571534576827924
229.0, 0.2851153761091768
230.0, 0.3203076245570466
231.0, 0.35937079748417233
232.0, 0.39356118970992326
233.0, 0.4183154249321576
234.0, 0.41456403583821894
235.0, 0.39705021034670446
236.0, 0.3752373069575113
237.0, 0.3442224797459123
238.0, 0.3168358029415685
239.0, 0.303112152229069
240.0, 0.30011710374650663
241.0, 0.29981965790161114
242.0, 0.29817339992906666
243.0, 0.30111204484505555
244.0, 0.2961584028264028
245.0, 0.2767135183772239
246.0, 0.24796245999014704
247.0, 0.21080091315877042
248.0, 0.17489531521185667
249.0, 0.146411664530416
250.0, 0.12346449913167742
251.0, 0.09277531276104663
252.0, 0.07145853918806314
253.0, 0.05894762100824219
254.0, 0.04851870868347073
255.0, 0.03454695604537644
256.0, 0.03675380842276535
257.0, 0.04078966985457576
258.0, 0.04302712892998706
259.0, 0.04480885149289922
260.0, 0.04707246188284121
261.0, 0.05056970932175334
262.0, 0.05066508653116284
263.0, 0.048052232469218
264.0, 0.0471306200211566
265.0, 0.053055665407167774
266.0, 0.06471425270236969
267.0, 0.07665198888162997
268.0, 0.08702068625260624
269.0, 0.09998240576986854
270.0, 0.10899237718553786
271.0, 0.12650988844065578
272.0, 0.154971590289118
273.0, 0.18615886338394183
274.0, 0.20879325171447932
275.0, 0.23371366237529642
276.0, 0.24479813876106096
277.0, 0.2284018341852144
278.0, 0.185232809257782
279.0, 0.14722674222569865
280.0, 0.12383375470785321
281.0, 0.10532518665680486
282.0, 0.0886502698039731
283.0, 0.09259771121163278
284.0, 0.09761974473564038
285.0, 0.10278963809369891
286.0, 0.10315289739799277
287.0, 0.09009898699681534
288.0, 0.06526510119063725
289.0, 0.051745681860834045
290.0, 0.03784109228149824
291.0, 0.017867461810737287
292.0, 0.00404299457863664
293.0, 0.007116199362684181
294.0, 0.00774281325679569
295.0, 0.0038661296215288248
296.0, 0.006209823238849546
297.0, 0.019916709182202664
298.0, 0.019998462493444596
299.0, 0.010430180884196429
300.0, 0.005354194658372488
301.0, 0.012508531511301739
302.0, 0.017082742300428503
303.0, 0.018914692732149557
304.0, 0.014100715705226013
305.0, 0.006085991324703103
306.0, 0.005776723862541194
307.0, 0.006941617378432371
308.0, 0.0010299463861639462
309.0, 0.008395757028779744
310.0, 0.011098012104833611
311.0, 0.019962734986359313
312.0, 0.02167730102396754
313.0, 0.02465831883850632
314.0, 0.028481875047817143
315.0, 0.030791396119924073
316.0, 0.04449083406845699
317.0, 0.05154678732727381
318.0, 0.060433580248470495
319.0, 0.07310446403614777
320.0, 0.08336394216148275
321.0, 0.09996309653061469
322.0, 0.10062910808389584
323.0, 0.10259817310320299
324.0, 0.11330213822751625
325.0, 0.11499135679368468
326.0, 0.12321555813647442
327.0, 0.14585827880820662
328.0, 0.16950142949985536
329.0, 0.1884426983878715
330.0, 0.2291952350496862
331.0, 0.2700579979084816
332.0, 0.3087008204467118
333.0, 0.3504253901723535
334.0, 0.40052977756224056
335.0, 0.4543542603292844
336.0, 0.49583601263400734
337.0, 0.5088208359250938
338.0, 0.4884849711204097
339.0, 0.44728743963798984
340.0, 0.4101277096689471
341.0, 0.38438790596216527
342.0, 0.3649991913716846
343.0, 0.3588387759098268
344.0, 0.3816287712355874
345.0, 0.3950861626573206
346.0, 0.4204086366640775
347.0, 0.46463348507226665
348.0, 0.5164132035260602
349.0, 0.5473417753979325
350.0, 0.5544283720206746
351.0, 0.5203428442962926
352.0, 0.44670748976389163
353.0, 0.355247083221408
354.0, 0.2735782075171108
355.0, 0.2072915514927508
356.0, 0.15782500255016785
357.0, 0.12387119724106178
358.0, 0.10195814412965609
359.0, 0.08909334560265206
360.0, 0.06961729688882384
361.0, 0.059219860483747104
362.0, 0.05748654542935332
363.0, 0.0535727260876726
364.0, 0.05227083188722928
365.0, 0.05353053487205591
366.0, 0.04738956687196235
367.0, 0.03709570673378856
368.0, 0.033768546415596026
369.0, 0.023040991534837303
370.0, 0.01059933702465289
371.0, 0.002008912159111729
372.0, 0.002197266368950018
373.0, 0.005155571310832677
374.0, 0.00662710630797183
375.0, 0.012114167785028588
376.0, 0.012645710428465295
377.0, 0.005371869271305696
378.0, 0.0015088885085840485
379.0, 0.004456761441774543
380.0, 0.0063245511729652345
381.0, 0.011143949308564528
382.0, 0.021725020954768404
383.0, 0.028659042723158088
384.0, 0.037168407634654246
385.0, 0.04976629085575796
386.0, 0.0646245937105419
387.0, 0.07930776410976376
388.0, 0.09341473945875022
389.0, 0.11700817365040227
390.0, 0.14910385239318333
391.0, 0.18126938845986723
392.0, 0.20686650254181546
393.0, 0.2259922682006619
394.0, 0.2262557280506996
395.0, 0.1883309676547652
396.0, 0.1369313607191135
397.0, 0.10119504897656383
398.0, 0.08588980308283105
399.0, 0.06915855462722216
400.0, 0.06802658037905633
401.0, 0.07501760646831708
402.0, 0.07991683013934953
403.0, 0.0886224225524036
404.0, 0.09105347379019404
405.0, 0.09670636706598376
406.0, 0.10686358660103715
407.0, 0.11916844257985265
408.0, 0.13504384571800732
409.0, 0.15639550661926427
410.0, 0.183074499188867
411.0, 0.2151508687948695
412.0, 0.255057807833405
413.0, 0.3054149628739909
414.0, 0.34929694368075687
415.0, 0.39983568656759794
416.0, 0.4551762217368181
417.0, 0.4985833412724296
418.0, 0.5109989032338776
419.0, 0.514724069432981
420.0, 0.482978188335785
421.0, 0.42058343745247156
422.0, 0.347506861540233
423.0, 0.2803695341659586
424.0, 0.23383628250873936
425.0, 0.199455464593824
426.0, 0.17300502897638692
427.0, 0.1573050181294646
428.0, 0.16175556162454768
429.0, 0.16267246885018707
430.0, 0.16357440999630535
431.0, 0.1660015705988536
432.0, 0.1730667923050519
433.0, 0.19131755584268628
434.0, 0.20898600007065188
435.0, 0.22710400644501194
436.0, 0.25039264810262063
437.0, 0.2796895635289352
438.0, 0.31158962341977564
439.0, 0.35103204297735796
440.0, 0.38584564660764437
441.0, 0.41699368386792524
442.0, 0.44313634320824336
443.0, 0.45577376986424983
444.0, 0.4338081562990646
445.0, 0.3952981098173754
446.0, 0.34310325981793344
447.0, 0.27701296379163287
448.0, 0.20626818439606281
449.0, 0.164818090984595
450.0, 0.12775319475828378
451.0, 0.09306826148232768
452.0, 0.06753998625336827
453.0, 0.05531077297802297
454.0, 0.047112457981136925
455.0, 0.04076523767282808
456.0, 0.032529850960188934
457.0, 0.025198935359558496
458.0, 0.02303740069898302
459.0, 0.024367983425334427
460.0, 0.025321172571460396
461.0, 0.0312641743750771
462.0, 0.037073094258171214
463.0, 0.039287732380325104
464.0, 0.04442880548607524
465.0, 0.05072520546924435
466.0, 0.062290188894465956
467.0, 0.07309229551693255
468.0, 0.07850722557065788
469.0, 0.07795705336008936
470.0, 0.10070322259934111
471.0, 0.11996084419161354
472.0, 0.1356850540187841
473.0, 0.15196417208284305
474.0, 0.16845085696858278
475.0, 0.18396319354363036
476.0, 0.1943979595064173
477.0, 0.2016417472540718
478.0, 0.19476653674512828
479.0, 0.1651296534920529
480.0, 0.1283984825992578
481.0, 0.09318279568393675
482.0, 0.06818501732335049
483.0, 0.04920175618235191
484.0, 0.03110444488343655
485.0, 0.016074664675374224
486.0, 0.00952178659243722
487.0, 0.0024265597094277895
488.0, 0.006068604620996934
489.0, 0.006113475256707998
490.0, 0.0018018089874530688
491.0, 0.009354330514338954
492.0, 0.006405371452362196
493.0, 0.007483459462932036
494.0, 0.014618840051378413
495.0, 0.011482877289076657
496.0, 0.007872365284167975
497.0, 0.006348770313430835
498.0, 0.006986063641628803
499.0, 0.0034214638926283033
500.0, 0.007000749500915531
501.0, 0.012607427651168276
502.0, 0.012427997089235572
503.0, 0.013765141882115898
504.0, 0.016913700287464754
505.0, 0.020815194035033117
506.0, 0.0253364636725345
507.0, 0.0236230082216285
508.0, 0.023436705088379396
509.0, 0.03091819211105146
510.0, 0.03887568096016076
511.0, 0.03906115771342091
512.0, 0.04499634646309926
513.0, 0.05192836303790621
514.0, 0.06038710140019117
515.0, 0.06336101492245097
516.0, 0.059932861533776055
517.0, 0.062294123739430586
518.0, 0.0714463599360825
519.0, 0.07283477271553435
520.0, 0.07377730776561549
521.0, 0.07813972934666384
522.0, 0.08120467499585637
523.0, 0.07966564592774107
524.0, 0.08871797961597032
525.0, 0.08987949583681022
526.0, 0.09019180348024089
527.0, 0.1004217330868169
528.0, 0.10165050935235612
529.0, 0.10518793045497012
530.0, 0.10975102250934704
531.0, 0.12059659877941035
532.0, 0.1327581357908609
533.0, 0.13587543156551227
534.0, 0.15067179354708687
535.0, 0.15738320805285727
536.0, 0.17646870697807304
537.0, 0.20496391258768798
538.0, 0.22943665168744826
539.0, 0.2515258463931919
540.0, 0.28732306283079523
541.0, 0.3213231687345219
542.0, 0.358164727547448
543.0, 0.3978318675651559
544.0, 0.4313192970961231
545.0, 0.4745820052461625
546.0, 0.5042940805416812
547.0, 0.5197670638767555
548.0, 0.5263721560219574
549.0, 0.5215504412934099
550.0, 0.49714909341456176
551.0, 0.48086803008163803
552.0, 0.47197231124844813
553.0, 0.46272410623111854
554.0, 0.4544002294925409
555.0, 0.4589029827391165
556.0, 0.470293052332915
557.0, 0.4880517007347906
558.0, 0.5141917919886141
559.0, 0.545637665018013
560.0, 0.577806005442894
561.0, 0.610842259442334
562.0, 0.6586612854688046
563.0, 0.7149676119650192
564.0, 0.7758480422932331
565.0, 0.8356981541672357
566.0, 0.8894106377724911
567.0, 0.9393785753548474
568.0, 0.9865124315268795
569.0, 0.9962092364734432
570.0, 0.9701748956311463
571.0, 0.9116296515378256
572.0, 0.8101279123306958
573.0, 0.6958408760910204
574.0, 0.5889761074928809
575.0, 0.48599454799660385
576.0, 0.396695592402869
577.0, 0.33084232530698016
578.0, 0.2736796854373448
579.0, 0.2242012601002168
580.0, 0.1897072317816907
581.0, 0.16725134777040618
582.0, 0.14805631550996642
583.0, 0.12900848825369177
584.0, 0.11972027472983254
585.0, 0.09975846396722722
586.0, 0.09352515532880629
587.0, 0.09415732154252773
588.0, 0.08736091298106731
589.0, 0.0735217981333627
590.0, 0.053861269328395425
591.0, 0.05170156310899857
592.0, 0.048639848046016156
593.0, 0.046343262669702914
594.0, 0.05125034411450922
595.0, 0.05000222866160356
596.0, 0.04634951327032347
597.0, 0.03611769792917141
598.0, 0.024659767350118735
599.0, 0.02125819640593354
600.0, 0.0244052186049442
601.0, 0.014663114807713188
602.0, 0.01477745321903181
603.0, 0.014610189405254912
604.0, 0.009549080006531405
605.0, 0.005114302660434226
606.0, 0.008600509433501418
607.0, 0.008790970046614614
608.0, 0.00677220968884679
609.0, 0.0050392108721475475
610.0, 0.0043348358850574
611.0, 0.0016300196915038482
612.0, 0.0034287998595415392
613.0, 0.006923385295871489
614.0, 0.0042501981816615644
615.0, 0.0008692033741303441
616.0, 0.002831415833730601
617.0, 0.005597967414560761
618.0, 0.003936987398633756
619.0, 0.0010567271496110657
620.0, 0.002976558428731828
621.0, 0.005591969832870585
622.0, 0.003037904782758395
623.0, 0.0034848639748740707
624.0, 0.004402537401324445
625.0, 0.0071741652294731425
626.0, 0.0028583470709058183
627.0, 0.001816416652600508
628.0, 0.00271031828954314
629.0, 0.0018695865238339843
630.0, 0.003978334778661509
631.0, 0.004686649526486836
632.0, 0.00586537411308775
633.0, 0.004977972039911803
634.0, 0.005441008082204064
635.0, 0.00578698824726028
636.0, 0.009991986458330467
637.0, 0.011682527769998726
638.0, 0.01972032238211763
639.0, 0.02155166746924603
640.0, 0.015631111526554317
641.0, 0.012810691113073876
642.0, 0.01606313903447587
643.0, 0.012397228540928626
644.0, 0.009944606014515437
645.0, 0.015131113294133164
646.0, 0.018423259555063673
647.0, 0.011928970816329914
648.0, 0.020054535001971487
649.0, 0.02424322861456749
650.0, 0.024291687588914077
651.0, 0.024883394536091074
652.0, 0.0275844834242443
653.0, 0.03017660225387488
654.0, 0.030615089568610032
655.0, 0.022202273777287927
656.0, 0.01816193554114538
657.0, 0.01726774613302896
658.0, 0.017547558484556663
659.0, 0.020467254012603922
660.0, 0.026180175801458934
661.0, 0.02216279978457102
662.0, 0.020466713498162054
663.0, 0.01919913502765473
664.0, 0.019757489215447694
665.0, 0.02164315621080284
666.0, 0.014541602169855759
667.0, 0.021181131749654383
668.0, 0.030058043625663014
669.0, 0.03024549038339121
670.0, 0.028092231515428417
671.0, 0.030002353423384105
672.0, 0.02461774656529949
673.0, 0.029360496646120164
674.0, 0.035378322969712044
675.0, 0.03485448063433743
676.0, 0.031608758876507805
677.0, 0.02847959043536447
678.0, 0.024396310806474017
679.0, 0.02974351744014358
680.0, 0.02174761511170068
681.0, 0.017682246534483012
682.0, 0.01485764959489621
683.0, 0.009107834467078283
684.0, 0.009713886835721556
685.0, 0.007716984189506344
686.0, 0.004058722823583116
687.0, 0.002844094940708918
688.0, 0.0044208889945367555
689.0, 0.007101118003107504
690.0, 0.0076245556309287475
691.0, 0.006730986645697107
692.0, 0.0029154600974986857
693.0, 0.005691292022247026
694.0, 0.008730223035035694
695.0, 0.009045482784975835
696.0, 0.009948393264822738
697.0, 0.009819763945446716
698.0, 0.012723955956283728
699.0, 0.01045180493372227
700.0, 0.008650364104636826
701.0, 0.007400227441561675
702.0, 0.0043718021600356585
703.0, 0.003403679275863134
704.0, 0.0031433386178524986
705.0, 0.004891330102993393
706.0, 0.001335234640733418
707.0, 0.0032532314953647463
708.0, 0.0011404870610666573
709.0, 0.010681288292786683
710.0, 0.012448089943250935
711.0, 0.006619011317981613
712.0, 0.010722518696321971
713.0, 0.009000053398948847
714.0, 0.0007116466788958944
715.0, 0.0023849715840702653
716.0, 0.012266761244511077
717.0, 0.008344224949793958
718.0, 0.004218727573682068
719.0, 0.0011788934516302905
720.0, 0.00042401003705195444
721.0, 0.0006836076944378907
722.0, 0.0015973794104612224
723.0, 0.004821443064621685
724.0, 0.010836341121985393
725.0, 0.016221233490896048
726.0, 0.01713617404672037
727.0, 0.020638257671178262
728.0, 0.020080478661044364
729.0, 0.023437678696013157
730.0, 0.03218106258881762
731.0, 0.032816002341775924
732.0, 0.03245235464950498
733.0, 0.04034805773227264
734.0, 0.05089864406922152
735.0, 0.05027846612129009
736.0, 0.06098574342019821
737.0, 0.07102990943333155
738.0, 0.07130408636423267
739.0, 0.07028909178457002
740.0, 0.0783629342578537
741.0, 0.0912784711911557
742.0, 0.08133010415506423
743.0, 0.08432981708963913
744.0, 0.07957749533374722
745.0, 0.0823941858018365
746.0, 0.09424702728000404
747.0, 0.0958414890542757
748.0, 0.08289200589535728
749.0, 0.07945035326219535
750.0, 0.07933383747179011
751.0, 0.07686579190256577
752.0, 0.06561102173443317
753.0, 0.05126308269320573
754.0, 0.04171481753027136
755.0, 0.024404332852075602
756.0, 0.022127107171685513
757.0, 0.01902163149556694
758.0, 0.014566675296723824
759.0, 0.010165788236210203
760.0, 0.005284097905525994
761.0, 0.0011746166199334707
762.0, 0.0012296989957504053
763.0, 0.0058960795143958
764.0, 0.005201579856532346
765.0, 0.00389633349407873
766.0, 0.0026434078519284275
767.0, 0.0040024708816353135
768.0, 0.00345705918367511
769.0, 0.002373945042425806
770.0, 0.003042979581157142
771.0, 0.002263443797175959
772.0, 0.001946576692216039
773.0, 0.008384419492437631
774.0, 0.011885968747169764
775.0, 0.0035545509793273294
776.0, 0.01580014669758473
777.0, 0.016905667155915
778.0, 0.015968599415862053
779.0, 0.021977475760016553
780.0, 0.03184716555521237
781.0, 0.03516871286477704
782.0, 0.024984270845866383
783.0, 0.02775643023768107
784.0, 0.03456173327056592
785.0, 0.04253507151610318
786.0, 0.05185593804941108
787.0, 0.05717857678825578
788.0, 0.05786560855643862
789.0, 0.07500892258090658
790.0, 0.07461999285644383
791.0, 0.08128729410004995
792.0, 0.08940600233756855
793.0, 0.09374194087452384
794.0, 0.09482877516586032
795.0, 0.09084622015783955
796.0, 0.08692672498103403
797.0, 0.08569902717387655
798.0, 0.07731785253404899
799.0, 0.07922393156250113
800.0, 0.08649151878921411
801.0, 0.08101309061601132
802.0, 0.07125652611669155
803.0, 0.06319722779295316
804.0, 0.059663134596486714
805.0, 0.05603518336609478
806.0, 0.04837655833778489
807.0, 0.04116459605013689
808.0, 0.035918983504759874
809.0, 0.02491120124681094
810.0, 0.03157771998075168
811.0, 0.019512631030982355
812.0, 0.020241608442530663
813.0, 0.027471000581365278
814.0, 0.02489717593741273
815.0, 0.018081609356648015
816.0, 0.018643760138439526
817.0, 0.011243275800218284
818.0, 0.010638754654000748
819.0, 0.010759853834951398
820.0, 0.011938997688730964
821.0, 0.01277808851332825
822.0, 0.011098148717212535
823.0, 0.012395898645796112
824.0, 0.01534471882681743
825.0, 0.005912057507296248
826.0, 0.000311884456298671
827.0, 0.0037707239652435957
828.0, 0.005939146699657297
829.0, 0.0032499211903475626
830.0, 0.008386949082799515
831.0, 0.011611134673148421
832.0, 0.009860128021453104
833.0, 0.006992043761735588
834.0, 0.004877323149882153
835.0, 0.005877443441657785
836.0, 0.0068747080013429746
837.0, 0.0019571313303232466
838.0, 0.0025375054910872514
839.0, 0.001438527781136742
840.0, 0.003767520206531821
841.0, 0.0060098422881473415
842.0, 0.005046456787684744
843.0, 0.003276612794524129
844.0, 0.003178663764441586
845.0, 0.0023745569002279095
846.0, 0.009519755180809443
847.0, 0.006067012303689142
848.0, 0.004126188739970021
849.0, 0.010860849244557626
850.0, 0.01740661013015825
851.0, 0.013956235762015134
852.0, 0.009424057530675828
853.0, 0.012406554984516222
854.0, 0.013559857381602834
855.0, 0.006230163047809183
856.0, 0.004523027944812905
857.0, 0.006946952615737821
858.0, 0.00677872218049406
859.0, 0.009672047343229443
860.0, 0.005826192490189906
861.0, 0.00651375286109034
862.0, 0.007228911403834185
863.0, 0.003811012683411389
864.0, 0.003932849389370289
865.0, 0.0076254348496680125
866.0, 0.004522872075176159
867.0, 0.0024577828527173723
868.0, 0.003656181248006225
869.0, 0.0021310111266017863
870.0, 0.002568460060667962
871.0, 0.003170297636247045
872.0, 0.0026318103815635946
873.0, 0.0040546459944826585
874.0, 0.008037391736307256
875.0, 0.0019697072614202147
876.0, 0.0052247723228897565
877.0, 0.007498955245813036
878.0, 0.003952640460405634
879.0, 0.003950521619201525
880.0, 0.006076727551563103
881.0, 0.0019457191882214341
882.0, 0.006140919639214572
883.0, 0.0007441372929914477
884.0, 0.004892344474209042
885.0, 0.008209662705414265
886.0, 0.006001057165058683
887.0, 0.002710214711341083
888.0, 0.0012358306061510831
889.0, 0.0013717073577985722
890.0, 6.826499234606565e-05
891.0, 0.0026418546054756274
892.0, 0.005865873395652184
893.0, 0.006005150660701309
894.0, 0.006737609482102182
895.0, 0.010185617238963251
896.0, 0.01146026888936033
897.0, 0.0065558519970490186
898.0, 0.007115861516225537
899.0, 0.013966846464867701
900.0, 0.004465256734733796
901.0, 0.002810983993726558
902.0, 0.0056948985840073706
903.0, 0.002826660202513324
904.0, 0.0052087980327525
905.0, 0.009417842303072823
906.0, 0.007613408126597049
907.0, 0.005121092138362712
908.0, 0.006688028124022367
909.0, 0.0073863084943082925
910.0, 0.006921644651298067
911.0, 0.00807545024677196
912.0, 0.009668345587094859
913.0, 0.010908082572318647
914.0, 0.017401440704117418
915.0, 0.019526367899416888
916.0, 0.022389420938786243
917.0, 0.022982055215089347
918.0, 0.026943904673964462
919.0, 0.03357220487327058
920.0, 0.028012728931781743
921.0, 0.026292900734672626
922.0, 0.032976438982111805
923.0, 0.04006849734033493
924.0, 0.03598637311799255
925.0, 0.034977755138857515
926.0, 0.034461192432838704
927.0, 0.02787885456581853
928.0, 0.030414948329548035
929.0, 0.029713970002969877
930.0, 0.020886997002400935
931.0, 0.023430905432110242
932.0, 0.019482451829164374
933.0, 0.015291672327659895
934.0, 0.015737667575297983
935.0, 0.015801967043785347
936.0, 0.01638068166434174
937.0, 0.0107061119112997
938.0, 0.013519069983217415
939.0, 0.0210807598956584
940.0, 0.02152907401884407
941.0, 0.012733168961706365
942.0, 0.010339024861498037
943.0, 0.018138894481116948
944.0, 0.01676921129091479
945.0, 0.0190787765332534
946.0, 0.01873164409509029
947.0, 0.018361706387739284
948.0, 0.021280152362877367
949.0, 0.020763314927620527
950.0, 0.017827118199935536
951.0, 0.01656879622758108
952.0, 0.01685119387043877
953.0, 0.0229615411108918
954.0, 0.015784717421247974
955.0, 0.01638859296934889
956.0, 0.010497723731868023
957.0, 0.014816237404573076
958.0, 0.01629324914997136
959.0, 0.007397386861885857
960.0, 0.008975185022497542
961.0, 0.017650846522988872
962.0, 0.014923121358761636
963.0, 0.023044363926514218
964.0, 0.02445179086441255
965.0, 0.030580576553073172
966.0, 0.028089861311092604
967.0, 0.023051504044346027
968.0, 0.029487793574141764
969.0, 0.03316180206573114
970.0, 0.03697118469079354
971.0, 0.042522780861522294
972.0, 0.04651938993634076
973.0, 0.04942854177789173
974.0, 0.04981464526877611
975.0, 0.05134946233856142
976.0, 0.05049003061222302
977.0, 0.0434848101795549
978.0, 0.04158760397887526
979.0, 0.02579625611330017
980.0, 0.01920728452145393
981.0, 0.01699460029965515
982.0, 0.01569079253087271
983.0, 0.015400745406597733
984.0, 0.012890278099250528
985.0, 0.008987870128746385
986.0, 0.010769535125236523
987.0, 0.018143052180557135
988.0, 0.017718529365362456
989.0, 0.02152198255009951
990.0, 0.018657258276957793
991.0, 0.02316190872026668
992.0, 0.028619900509099558
993.0, 0.02907275361473676
994.0, 0.03295901471812626
995.0, 0.03606461600316395
996.0, 0.027113256292204263
997.0, 0.030283227720226704
998.0, 0.04034547549065463
999.0, 0.03732082556180538
1000.0, 0.03282031454459265
1001.0, 0.029120387203421097
1002.0, 0.023444592789100712
1003.0, 0.020287329357792355
1004.0, 0.01373834928831049
1005.0, 0.010290555510567385
1006.0, 0.016200277131483434
1007.0, 0.019843923914749057
1008.0, 0.022197228328100532
1009.0, 0.02606654123806963
1010.0, 0.024815922906019236
1011.0, 0.019537853198187304
1012.0, 0.024924057318954567
1013.0, 0.03550591747441903
1014.0, 0.037449193227273074
1015.0, 0.0330213723140508
1016.0, 0.031900993265603535
1017.0, 0.03503366943207764
1018.0, 0.0398166740407622
1019.0, 0.04519515458863679
1020.0, 0.053942546268565095
1021.0, 0.06492779474281059
1022.0, 0.06596001195082407
1023.0, 0.07594689081196952
1024.0, 0.07639951237735793
1025.0, 0.07880590495172804
1026.0, 0.07745228193096984
1027.0, 0.066486624680842
1028.0, 0.05088083561572398
1029.0, 0.040485582511851206
1030.0, 0.03403127147422492
1031.0, 0.02331258152395032
1032.0, 0.02290614037774888
1033.0, 0.01645189196774639
1034.0, 0.0054350453099515595
1035.0, 0.00848294128110521
1036.0, 0.009628896677258848
1037.0, 0.008201815183730183
1038.0, 0.008143169081202163
1039.0, 0.002876825951572329
1040.0, 0.004563089959649944
1041.0, 0.0015243420280972853
1042.0, 0.0029961257090741927
1043.0, 0.0063782397460798905
1044.0, 0.002802938544759708
1045.0, 0.005942959038444773
1046.0, 0.0024556815992366914
1047.0, 0.002649780753726511
1048.0, 0.0009497537728383894
1049.0, 0.00989401251866675
1050.0, 0.0093950169835629
1051.0, 0.008872305591742822
1052.0, 0.01226231990909727
1053.0, 0.01576131586927578
1054.0, 0.013662869040000192
1055.0, 0.009304787093994456
1056.0, 0.00793923024643286
1057.0, 0.009173973875439586
1058.0, 0.010118110942312542
1059.0, 0.009386261375450579
1060.0, 0.00915052959306809
1061.0, 0.011434012302728622
1062.0, 0.0030298469876810664
1063.0, 0.00523314255523469
1064.0, 0.008057811065949596
1065.0, 0.0047689153487919245
1066.0, 0.0024497665902485136
1067.0, 0.0038287002563787875
1068.0, 0.002926621716091442
1069.0, 0.00199864548352967
1070.0, 0.0029266461380306748
1071.0, 0.012437042486834443
1072.0, 0.01566527110973845
1073.0, 0.018689387023777294
1074.0, 0.02387856067439243
1075.0, 0.03207637522129029
1076.0, 0.03815280593147627
1077.0, 0.04159142806935489
1078.0, 0.04783860218205406
1079.0, 0.04764475549056526
1080.0, 0.05429177795940075
1081.0, 0.061431171151007755
1082.0, 0.07059486068655293
1083.0, 0.06870077181886239
1084.0, 0.06807114680036816
1085.0, 0.07178935190413359
1086.0, 0.07056247784122788
1087.0, 0.06339451619495112
1088.0, 0.057375720369985915
1089.0, 0.058185232616137145
1090.0, 0.0526100632162101
1091.0, 0.04457705596497937
1092.0, 0.03854182483801855
1093.0, 0.030767881766302595
1094.0, 0.027424889685408967
1095.0, 0.02346694631647958
1096.0, 0.019539210632955904
1097.0, 0.015195979828011606
1098.0, 0.0045512815977967105
1099.0, 0.009009868220428877
1100.0, 0.0036107491842189586
1101.0, 0.008001210966023062
1102.0, 0.01223854358980358
1103.0, 0.013804885393858105
1104.0, 0.012002402178356686
1105.0, 0.005190836977944368
1106.0, 0.003580493960785152
1107.0, 0.011001255947392282
1108.0, 0.012684115608552185
1109.0, 0.011439289586814212
1110.0, 0.008336941073612643
1111.0, 0.011014789776780082
1112.0, 0.005397156116467224
1113.0, 0.010947550883838773
1114.0, 0.00883970824255802
1115.0, 0.000709478651107506
1116.0, 0.0018002591083312613
1117.0, 0.009289314098019646
1118.0, 0.006563986061754835
1119.0, 0.00592492900762147
1120.0, 0.00206905524076637
1121.0, 0.010459926400356869
1122.0, 0.01241877060388587
1123.0, 0.014821518159899686
1124.0, 0.010269068384065569
1125.0, 0.005883322454870682
1126.0, 0.0013899304501820964
1127.0, 0.002384861078471123
1128.0, 0.0012931870157465702
1129.0, 0.0013779146662193963
1130.0, 0.0023820884657407867
1131.0, 0.005909376740945841
1132.0, 0.002517690866821075
1133.0, 0.007187660957167476
1134.0, 0.009562441196983315
1135.0, 0.012541977255517351
1136.0, 0.009114802364648894
1137.0, 0.008403642153355786
1138.0, 0.009957221320608353
1139.0, 0.007622813826240863
1140.0, 0.009529901258341971
1141.0, 0.007205866553343644
1142.0, 0.009592272779969288
1143.0, 0.0037492473505753815
1144.0, 0.011727105138999059
1145.0, 0.007193503990867766
1146.0, 0.007211790627750692
1147.0, 0.002736180428538534
1148.0, 0.002454698371055682
1149.0, 0.00840107122707597
1150.0, 0.008154762642299567
1151.0, 0.006398145649917872
1152.0, 0.007455031833394135
1153.0, 0.008188720960584182
1154.0, 0.011298756342924508
1155.0, 0.012519212457353995
1156.0, 0.01533209821836317
1157.0, 0.010087203394088246
1158.0, 0.0072720435555914354
1159.0, 0.002755034947772632
1160.0, 0.0018926940598380662
1161.0, 0.005484140124007129
1162.0, 0.0024256054252974084
1163.0, 0.00810841922976354
1164.0, 0.005000292757217249
1165.0, 0.004450581253772668
1166.0, 0.007451666740676653
1167.0, 0.009521303389659225
1168.0, 0.01008130538524165
1169.0, 0.010699369940605503
1170.0, 0.007413183216715174
1171.0, 0.013297695402648819
1172.0, 0.017496537386722962
1173.0, 0.009149587806804136
1174.0, 0.010363951846102231
1175.0, 0.007977582331732999
1176.0, 0.0024147098542976757
1177.0, 0.011644234680950346
1178.0, 0.010507581051125262
1179.0, 0.0033309439260879974
1180.0, 0.00683273952239114
1181.0, 0.008781378840925738
1182.0, 0.005968998969421275
1183.0, 0.006636958802047414
1184.0, 0.010038639191862292
1185.0, 0.011378620011939417
1186.0, 0.003013581613414572
1187.0, 0.000728945589149254
1188.0, 0.0036790310390153783
1189.0, 0.005238495409040982
1190.0, 0.004343802006254872
1191.0, 0.004299136225883272
1192.0, 0.005860586189819857
1193.0, 0.005738759618264828
1194.0, 0.005873627417160466
1195.0, 0.009107022234194859
1196.0, 0.008390648528308921
1197.0, 0.008709942458249817
1198.0, 0.009744143437320836
1199.0, 0.009940244898944095
1200.0, 0.004619550479323503
1201.0, 0.0113349523150159
1202.0, 0.012377713597530959
1203.0, 0.010437433748972007
1204.0, 0.01136617164111828
1205.0, 0.009422833453341143
1206.0, 0.007724938832507225
1207.0, 0.0017719814952100168
1208.0, 0.0015837731176339693
1209.0, 0.011964787885199904
1210.0, 0.016701345130828715
1211.0, 0.013169858350768851
1212.0, 0.008938542073704581
1213.0, 0.0068222881962833395
1214.0, 0.021555471737187668
1215.0, 0.013436668768139858
1216.0, 0.015499232300235423
1217.0, 0.014202219667494262
1218.0, 0.008287031749059561
1219.0, 0.0068463010439572
1220.0, 0.011160882088846557
1221.0, 0.009503471993253144
1222.0, 0.004197774803705617
1223.0, 0.007744138659484546
1224.0, 0.004415248650888878
1225.0, 0.005536673684833359
1226.0, 0.005958293644375562
1227.0, 0.0006199761147879486
1228.0, 0.009581936946565209
1229.0, 0.008005302043250085
1230.0, 0.003567234514066053
1231.0, 0.009949832774326662
1232.0, 0.014362289975360713
1233.0, 0.009246974271069871
1234.0, 0.004395822119753574
1235.0, 0.004210069700010581
1236.0, 0.003826874853544167
1237.0, 0.003994256083444718
1238.0, 0.004616851325111074
1239.0, 0.006348047393978161
1240.0, 0.003855834232106101
1241.0, 0.010659993343902097
1242.0, 0.004418927691534951
1243.0, 0.0015862858143927982
1244.0, 0.003987755010259755
1245.0, 0.006092063948307948
1246.0, 0.005529647692981113
1247.0, 0.004973313604592957
1248.0, 0.008010868692459292
1249.0, 0.01208178503900373
1250.0, 0.014119634261481724
1251.0, 0.019571674268460255
1252.0, 0.01475674547819407
1253.0, 0.006809230227480343
1254.0, 0.015396747098577301
1255.0, 0.012722034010313734
1256.0, 0.01209209114852629
1257.0, 0.00801305145499671
1258.0, 0.007355836796721161
1259.0, 0.0076129220340216954
1260.0, 0.006111802050915767
1261.0, 0.0044554672852422945
1262.0, 0.006628941885334279
1263.0, 0.011248545651980905
1264.0, 0.009690412971931852
1265.0, 0.007606882365789038
1266.0, 0.009833754274087326
1267.0, 0.007866104453863756
1268.0, 0.0019746392811845577
1269.0, 0.013289478907851728
1270.0, 0.017024198661848865
1271.0, 0.01000977436967574
1272.0, 0.008474153900101042
1273.0, 0.007796784794171844
1274.0, 0.0066085443222731735
1275.0, 0.007920095747717364
1276.0, 0.010525683004532025
1277.0, 0.012441546513493294
1278.0, 0.011625015858815877
1279.0, 0.006640138604849346
1280.0, 0.0005937668681906593
1281.0, 0.0028096988197927227
1282.0, 0.009330748856064585
1283.0, 0.001906821865474175
1284.0, 0.0011152239732420963
1285.0, 0.00927244990449074
1286.0, 0.003239285321902566
1287.0, 0.006857344470319498
1288.0, 0.0036818054767310798
1289.0, 0.0010466213572322054
1290.0, 0.0022723522389520158
1291.0, 0.0014486112012820078
1292.0, 0.0009946869841633318
1293.0, 0.0004892098102741192
1294.0, 0.003813565481862297
1295.0, 0.007443727071311782
1296.0, 0.009587035469876956
1297.0, 0.01086211484755569
1298.0, 0.011433797005396413
1299.0, 0.01355551205124069
1300.0, 0.01895542060924305
1301.0, 0.006288817730180429
1302.0, 3.3906068143421526e-05
1303.0, 6.812515128742848e-05
1304, 0.0
1305, 0.0
1306, 0.0
1307, 0.0
1308, 0.0
1309, 0.0
1310, 0.0
1311, 0.0
1312, 0.0
1313, 0.0
1314, 0.0
1315, 0.0
1316, 0.0
1317, 0.0
1318, 0.0
1319, 0.0
1320, 0.0
1321, 0.0
1322, 0.0
1323, 0.0
1324, 0.0
1325, 0.0
1326, 0.0
1327, 0.0
1328, 0.0
1329, 0.0
1330, 0.0
1331, 0.0
1332, 0.0
1333, 0.0
1334, 0.0
1335, 0.0
1336, 0.0
1337, 0.0
1338, 0.0
1339, 0.0
1340, 0.0
1341, 0.0
1342, 0.0
1343, 0.0
1344, 0.0
1345, 0.0
1346, 0.0
1347, 0.0
1348, 0.0
1349, 0.0
1350, 0.0
1351, 0.0
1352, 0.0
1353, 0.0
1354, 0.0
1355, 0.0
1356, 0.0
1357, 0.0
1358, 0.0
1359, 0.0
1360, 0.0
1361, 0.0
1362, 0.0
1363, 0.0
1364, 0.0
1365, 0.0
1366, 0.0
1367, 0.0
1368, 0.0
1369, 0.0
1370, 0.0
1371, 0.0
1372, 0.0
1373, 0.0
1374, 0.0
1375, 0.0
1376, 0.0
1377, 0.0
1378, 0.0
1379, 0.0
1380, 0.0
1381, 0.0
1382, 0.0
1383, 0.0
1384, 0.0
1385, 0.0
1386, 0.0
1387, 0.0
1388, 0.0
1389, 0.0
1390, 0.0
1391, 0.0
1392, 0.0
1393, 0.0
1394, 0.0
1395, 0.0
1396, 0.0
1397, 0.0
1398, 0.0
1399, 0.0
1400, 0.0
1401, 0.0
1402, 0.0
1403, 0.0
1404, 0.0
1405, 0.0
1406, 0.0
1407, 0.0
1408, 0.0
1409, 0.0
1410, 0.0
1411, 0.0
1412, 0.0
1413, 0.0
1414, 0.0
1415, 0.0
1416, 0.0
1417, 0.0
1418, 0.0
1419, 0.0
1420, 0.0
1421, 0.0
1422, 0.0
1423, 0.0
1424, 0.0
1425, 0.0
1426, 0.0
1427, 0.0
1428, 0.0
1429, 0.0
1430, 0.0
1431, 0.0
1432, 0.0
1433, 0.0
1434, 0.0
1435, 0.0
1436, 0.0
1437, 0.0
1438, 0.0
1439, 0.0
1440, 0.0
1441, 0.0
1442, 0.0
1443, 0.0
1444, 0.0
1445, 0.0
1446, 0.0
1447, 0.0
1448, 0.0
1449, 0.0
1450, 0.0
1451, 0.0
1452, 0.0
1453, 0.0
1454, 0.0
1455, 0.0
1456, 0.0
1457, 0.0
1458, 0.0
1459, 0.0
1460, 0.0
1461, 0.0
1462, 0.0
1463, 0.0
1464, 0.0
1465, 0.0
1466, 0.0
1467, 0.0
1468, 0.0
1469, 0.0
1470, 0.0
1471, 0.0
1472, 0.0
1473, 0.0
1474, 0.0
1475, 0.0
1476, 0.0
1477, 0.0
1478, 0.0
1479, 0.0
1480, 0.0
1481, 0.0
1482, 0.0
1483, 0.0
1484, 0.0
1485, 0.0
1486, 0.0
1487, 0.0
1488, 0.0
1489, 0.0
1490, 0.0
1491, 0.0
1492, 0.0
1493, 0.0
1494, 0.0
1495, 0.0
1496, 0.0
1497, 0.0
1498, 0.0
1499, 0.0
1500, 0.0
1501, 0.0
1502, 0.0
1503, 0.0
1504, 0.0
1505, 0.0
1506, 0.0
1507, 0.0
1508, 0.0
1509, 0.0
1510, 0.0
1511, 0.0
1512, 0.0
1513, 0.0
1514, 0.0
1515, 0.0
1516, 0.0
1517, 0.0
1518, 0.0
1519, 0.0
1520, 0.0
1521, 0.0
1522, 0.0
1523, 0.0
1524, 0.0
1525, 0.0
1526, 0.0
1527, 0.0
1528, 0.0
1529, 0.0
1530, 0.0
1531, 0.0
1532, 0.0
1533, 0.0
1534, 0.0
1535, 0.0
1536, 0.0
1537, 0.0
1538, 0.0
1539, 0.0
1540, 0.0
1541, 0.0
1542, 0.0
1543, 0.0
1544, 0.0
1545, 0.0
1546, 0.0
1547, 0.0
1548, 0.0
1549, 0.0
1550, 0.0
1551, 0.0
1552, 0.0
1553, 0.0
1554, 0.0
1555, 0.0
1556, 0.0
1557, 0.0
1558, 0.0
1559, 0.0
1560, 0.0
1561, 0.0
1562, 0.0
1563, 0.0
1564, 0.0
1565, 0.0
1566, 0.0
1567, 0.0
1568, 0.0
1569, 0.0
1570, 0.0
1571, 0.0
1572, 0.0
1573, 0.0
1574, 0.0
1575, 0.0
1576, 0.0
1577, 0.0
1578, 0.0
1579, 0.0
1580, 0.0
1581, 0.0
1582, 0.0
1583, 0.0
1584, 0.0
1585, 0.0
1586, 0.0
1587, 0.0
1588, 0.0
1589, 0.0
1590, 0.0
1591, 0.0
1592, 0.0
1593, 0.0
1594, 0.0
1595, 0.0
1596, 0.0
1597, 0.0
1598, 0.0
1599, 0.0
