30, 0.0
31, 0.0
32, 0.0
33, 0.0
34, 0.0
35, 0.0
36, 0.0
37, 0.0
38, 0.0
39, 0.0
40, 0.0
41, 0.0
42, 0.0
43, 0.0
44, 0.0
45, 0.0
46, 0.0
47, 0.0
48, 0.0
49, 0.0
50, 0.0
51, 0.0
52, 0.0
53, 0.0
54, 0.0
55, 0.0
56, 0.0
57, 0.0
58, 0.0
59, 0.0
60, 0.0
61, 0.0
62, 0.0
63, 0.0
64, 0.0
65, 0.0
66, 0.0
67, 0.0
68, 0.0
69, 0.0
70, 0.0
71, 0.0
72, 0.0
73, 0.0
74, 0.0
75, 0.0
76, 0.0
77, 0.0
78, 0.0
79, 0.0
80, 0.0
81, 0.0
82, 0.0
83, 0.0
84, 0.0
85, 0.0
86, 0.0
87, 0.0
88, 0.0
89, 0.0
90, 0.0
91, 0.0
92, 0.0
93, 0.0
94, 0.0
95, 0.0
96, 0.0
97, 0.0
98, 0.0
99.0, 0.009485700055020467
100.0, 0.028425559768240405
101.0, 0.052965461174037734
102.0, 0.08213069288029329
103.0, 0.08586048806035479
104.0, 0.08561307879866431
105.0, 0.08030225610878428
106.0, 0.06695990385447866
107.0, 0.047190616028143874
108.0, 0.01626578623778861
109.0, 0.0068486583895522755
110.0, 0.005038424751620982
111.0, 0.002613567564051708
112.0, 0.0015053461497304141
113.0, 0.006156490963820718
114.0, 0.008154423524432452
115.0, 0.014974661539006149
116.0, 0.020985492052860183
117.0, 0.017658398390411913
118.0, 0.025103139049684302
119.0, 0.031909043681936644
120.0, 0.04373371829285582
121.0, 0.05872874834415135
122.0, 0.07558299547477648
123.0, 0.09971188662302684
124.0, 0.11875245191071243
125.0, 0.139262819474709
126.0, 0.15994159411734743
127.0, 0.18370037286844185
128.0, 0.21859567603523147
129.0, 0.26120822008220834
130.0, 0.31451546673962527
131.0, 0.38306390743954705
132.0, 0.44565878029773165
133.0, 0.47215349091138975
134.0, 0.4583848097577205
135.0, 0.41568728120904924
136.0, 0.35780031207148555
137.0, 0.2952553460551334
138.0, 0.23695788652264177
139.0, 0.18853672620633935
140.0, 0.16481226384383138
141.0, 0.12683759119377674
142.0, 0.10522055987432372
143.0, 0.09950903715772631
144.0, 0.0782078287944932
145.0, 0.07652322075911831
146.0, 0.07284575115367985
147.0, 0.062186468854308716
148.0, 0.05333895380561894
149.0, 0.05472208981021259
150.0, 0.049076208564292824
151.0, 0.042373457970860326
152.0, 0.04314899950210319
153.0, 0.04617447033919264
154.0, 0.04348871030343322
155.0, 0.026738114847305042
156.0, 0.030038907585024505
157.0, 0.028176510884057118
158.0, 0.040730037762452646
159.0, 0.058022351960479966
160.0, 0.05899094736867312
161.0, 0.07977112550230506
162.0, 0.09828097509502237
163.0, 0.10340858583924706
164.0, 0.11075523937477735
165.0, 0.1278402114544108
166.0, 0.1291451431392726
167.0, 0.14570480746172054
168.0, 0.13812198942378837
169.0, 0.11716266368709986
170.0, 0.0947660218693198
171.0, 0.0800676704680106
172.0, 0.0715222014492089
173.0, 0.0662874350978911
174.0, 0.06251346941016954
175.0, 0.06211623562612623
176.0, 0.06625527938632873
177.0, 0.07071087633521618
178.0, 0.0822470292152054
179.0, 0.0958416393102259
180.0, 0.09952085469999894
181.0, 0.09499823076167288
182.0, 0.09851981669036468
183.0, 0.12478992601998534
184.0, 0.1365508720135152
185.0, 0.13735767062038085
186.0, 0.1284320941213065
187.0, 0.11534114001000913
188.0, 0.12006635364567982
189.0, 0.09959343681486951
190.0, 0.10199664635230347
191.0, 0.10999071476021238
192.0, 0.11203704881683886
193.0, 0.11150215019104484
194.0, 0.12891606083234275
195.0, 0.15107701594583295
196.0, 0.16053026696427752
197.0, 0.164053503858992
198.0, 0.1712377565853975
199.0, 0.1695669349160087
200.0, 0.1784602354675429
201.0, 0.1933772502622818
202.0, 0.22088620800829492
203.0, 0.25943651988439953
204.0, 0.2957239253195476
205.0, 0.277374095317756
206.0, 0.26690037464446914
207.0, 0.23463938516509936
208.0, 0.18870412781034718
209.0, 0.1452695960677475
210.0, 0.10477188815708573
211.0, 0.08904642647766035
212.0, 0.05915861322617953
213.0, 0.03963051373664408
214.0, 0.03588381979814393
215.0, 0.03341240379260338
216.0, 0.03390812950661184
217.0, 0.03227461904610512
218.0, 0.029895119929211695
219.0, 0.03120563734234947
220.0, 0.035306132288837576
221.0, 0.028319231280775202
222.0, 0.05486803260304022
223.0, 0.050413579261479595
224.0, 0.04826332733524682
225.0, 0.06232565169310471
226.0, 0.08761458944258055
227.0, 0.10588781319363183
228.0, 0.12254193985355867
229.0, 0.14275720114945875
230.0, 0.15788279173600797
231.0, 0.16694710784706032
232.0, 0.18399983653110202
233.0, 0.21812022857803606
234.0, 0.2260717090961464
235.0, 0.22768884796139982
236.0, 0.2263679904845141
237.0, 0.2206506925383289
238.0, 0.21986007985098072
239.0, 0.21738642586272358
240.0, 0.20671080093400815
241.0, 0.191681105290394
242.0, 0.17397942708391156
243.0, 0.15290757364849794
244.0, 0.1368781418620658
245.0, 0.11240961113180248
246.0, 0.0930538706647522
247.0, 0.07701892689825938
248.0, 0.060515212815684054
249.0, 0.04421441507733677
250.0, 0.0351429658985088
251.0, 0.022799679374187188
252.0, 0.01358874132473466
253.0, 0.00720833593431798
254.0, 0.0010466938064091907
255.0, 0.0003583450131000563
256.0, 0.0002596777238046585
257.0, 0.006237915655523802
258.0, 0.01664516486064272
259.0, 0.029677378512255187
260.0, 0.04249911893256009
261.0, 0.027828099480144614
262.0, 0.03257546870580699
263.0, 0.025121845231467134
264.0, 0.02442054885244696
265.0, 0.03818362144170655
266.0, 0.02657147651453058
267.0, 0.02414870983594765
268.0, 0.03272382633847913
269.0, 0.04604729893477138
270.0, 0.05998963068587133
271.0, 0.07374200529832886
272.0, 0.09334696787516175
273.0, 0.10524394556858564
274.0, 0.13396644247299064
275.0, 0.16886483131867588
276.0, 0.18730688003163312
277.0, 0.17075034980829118
278.0, 0.17930331676037536
279.0, 0.16820806349641632
280.0, 0.14863505049044456
281.0, 0.14323220238115175
282.0, 0.1587927463769926
283.0, 0.17469116197355714
284.0, 0.15027478903681765
285.0, 0.16329696159706925
286.0, 0.20496944304675577
287.0, 0.24756759494590824
288.0, 0.27662417005856216
289.0, 0.32455289181696323
290.0, 0.3571355887916517
291.0, 0.3920628198265338
292.0, 0.4369477936018736
293.0, 0.4816786034390953
294.0, 0.5045198775975179
295.0, 0.4767512979973847
296.0, 0.4479111545226579
297.0, 0.4180529776898529
298.0, 0.3945662418797598
299.0, 0.3737217216838306
300.0, 0.3470613679812511
301.0, 0.34366062633334293
302.0, 0.3260937003037988
303.0, 0.3092520746409318
304.0, 0.27442649499580013
305.0, 0.22361753727369907
306.0, 0.18919135816893837
307.0, 0.1800631863036518
308.0, 0.16123847531271185
309.0, 0.1344408330881298
310.0, 0.13149907189784488
311.0, 0.1570515352003009
312.0, 0.157879362654254
313.0, 0.1421398837749212
314.0, 0.16041702036830732
315.0, 0.1719424157640624
316.0, 0.16974670418221394
317.0, 0.16550224894462318
318.0, 0.17942290670461614
319.0, 0.1897223305733671
320.0, 0.2120263888544911
321.0, 0.2281223776855926
322.0, 0.2442967024071043
323.0, 0.27122006594703624
324.0, 0.29004115603011693
325.0, 0.32366843874933177
326.0, 0.3442973605202393
327.0, 0.3652434139701285
328.0, 0.38531846885247684
329.0, 0.3965673801937581
330.0, 0.41167659517252375
331.0, 0.3776307199439056
332.0, 0.35263072445099486
333.0, 0.3218765641089147
334.0, 0.2782872385500165
335.0, 0.23177199341379043
336.0, 0.21622536963220368
337.0, 0.20171464103912362
338.0, 0.1991522055556335
339.0, 0.19933019549357175
340.0, 0.19299747233877865
341.0, 0.1772050105232652
342.0, 0.1681294097312541
343.0, 0.15382958071862127
344.0, 0.12010012832850184
345.0, 0.08923478156718988
346.0, 0.0768567443536582
347.0, 0.07772292631516615
348.0, 0.041957422185502885
349.0, 0.027172730690156344
350.0, 0.024119813247066725
351.0, 0.02281031667032715
352.0, 0.0183088497764596
353.0, 0.013506425149112404
354.0, 0.020119010709895198
355.0, 0.010395479997520945
356.0, 0.014633908858996767
357.0, 0.023901146713614364
358.0, 0.029443602213345212
359.0, 0.03454120594422311
360.0, 0.03380691316437019
361.0, 0.06965296454367736
362.0, 0.07567100546933626
363.0, 0.07638194462872328
364.0, 0.08214512997383977
365.0, 0.05912236519906277
366.0, 0.048228570025630475
367.0, 0.06279014420816918
368.0, 0.053569022776645096
369.0, 0.033099633624219686
370.0, 0.01683166557074263
371.0, 0.002763642805811901
372.0, 0.0049663054422678585
373.0, 0.012001596121146204
374.0, 0.017412755769142647
375.0, 0.017176461757188857
376.0, 0.01439806706046183
377.0, 0.01818854099784042
378.0, 0.011715050603452189
379.0, 0.0032960587705779497
380.0, 0.005239997326458663
381.0, 0.011952050222024783
382.0, 0.01856432111816418
383.0, 0.026123908515302198
384.0, 0.027387620959523042
385.0, 0.03438329569922728
386.0, 0.03772213940667833
387.0, 0.035007623993165336
388.0, 0.027203611599699192
389.0, 0.01687325265835664
390.0, 0.0020898889682536594
391.0, 0.01217543322179553
392.0, 0.011876590636005708
393.0, 0.011429702464786261
394.0, 0.014939476935222884
395.0, 0.015061382967159864
396.0, 0.030034747777260076
397.0, 0.015914022496040323
398.0, 0.020626497188925973
399.0, 0.026684678724999227
400.0, 0.022881042079776603
401.0, 0.013618294378494935
402.0, 0.004428615401476421
403.0, 0.002771122974677565
404.0, 0.001115402420035497
405.0, 0.002582179162174702
406.0, 0.005137611219819073
407.0, 0.006741865767851025
408.0, 0.023946685708022036
409.0, 0.01717040075980003
410.0, 0.03882262714542785
411.0, 0.05523318913527352
412.0, 0.06094944757634747
413.0, 0.06873355455918033
414.0, 0.07812435689398843
415.0, 0.06295931612982585
416.0, 0.0821281875420182
417.0, 0.10619124504462583
418.0, 0.1131183798380005
419.0, 0.10296914505006934
420.0, 0.10826836012041931
421.0, 0.09907725913426692
422.0, 0.1067463956093672
423.0, 0.10465674054103231
424.0, 0.09859262352891625
425.0, 0.09705874309109351
426.0, 0.0927540124355684
427.0, 0.09636167508568995
428.0, 0.1023070096694127
429.0, 0.11531378807752683
430.0, 0.13852547094627948
431.0, 0.1659011256005613
432.0, 0.18469133825851802
433.0, 0.20906768122057703
434.0, 0.23698143853162446
435.0, 0.26476103621778185
436.0, 0.3034013946503025
437.0, 0.3431693315649793
438.0, 0.36688552132269947
439.0, 0.41688499429349385
440.0, 0.46609479502888107
441.0, 0.4955740894028909
442.0, 0.5294710532564127
443.0, 0.565617585353549
444.0, 0.5874837782695873
445.0, 0.5947445588036804
446.0, 0.5936218862399585
447.0, 0.5628133960609288
448.0, 0.5280901392764749
449.0, 0.49272169339968874
450.0, 0.4536914298086718
451.0, 0.41597707011498236
452.0, 0.3765345361178306
453.0, 0.3590696143520332
454.0, 0.3522069896554035
455.0, 0.3387131449215779
456.0, 0.3162409510155786
457.0, 0.29992487463479933
458.0, 0.2897671451794517
459.0, 0.3127540021033511
460.0, 0.3287544187722919
461.0, 0.3432912146176866
462.0, 0.37133042833765256
463.0, 0.41545076477096815
464.0, 0.4309920038677694
465.0, 0.45726078218952615
466.0, 0.5179098053225262
467.0, 0.5720735118145285
468.0, 0.6210762964110115
469.0, 0.6861638184973917
470.0, 0.776871025099142
471.0, 0.816530241585647
472.0, 0.8725411186738659
473.0, 0.9180737597272167
474.0, 0.9382372067966317
475.0, 0.9472339791031189
476.0, 0.9755893004422125
477.0, 0.9731513708533077
478.0, 0.9836632518859205
479.0, 0.9949433899130488
480.0, 0.9772940174471646
481.0, 0.9308369972156469
482.0, 0.8763518552279524
483.0, 0.8246472580065665
484.0, 0.7279860652557615
485.0, 0.6351498688956715
486.0, 0.5541497146676222
487.0, 0.4807072449296337
488.0, 0.412052563077626
489.0, 0.353873040571384
490.0, 0.2968129716784785
491.0, 0.2483986896752175
492.0, 0.22873411942527616
493.0, 0.2092431948625001
494.0, 0.18640121159396691
495.0, 0.17744395156012263
496.0, 0.16154568531503197
497.0, 0.14013775642534282
498.0, 0.12715081319020186
499.0, 0.11576635004804346
500.0, 0.10475833717893993
501.0, 0.09518750542477881
502.0, 0.08638113867795091
503.0, 0.08057229059083819
504.0, 0.07390819728118435
505.0, 0.07068476293803178
506.0, 0.06575503319162916
507.0, 0.05890621492419538
508.0, 0.05483782960695582
509.0, 0.05084530113339822
510.0, 0.05737630295521368
511.0, 0.0623271281694463
512.0, 0.050301867182583816
513.0, 0.040425581352934524
514.0, 0.044344898960243635
515.0, 0.03302241479960134
516.0, 0.017270870605267875
517.0, 0.028618586686535642
518.0, 0.03147731327069202
519.0, 0.03023159098752177
520.0, 0.029593183792948504
521.0, 0.026724290386638854
522.0, 0.018885347834025425
523.0, 0.004488590314973898
524.0, 0.015656335532399177
525.0, 0.014920824574399874
526.0, 0.006648698943818763
527.0, 0.006270067955495372
528.0, 0.01210337415252041
529.0, 0.0027293737806810096
530.0, 0.001651938004997572
531.0, 0.0020748713221846863
532.0, 0.01064531697675008
533.0, 0.017242488235281034
534.0, 0.011371106576604631
535.0, 0.018085742926134765
536.0, 0.0041950886896604585
537.0, 0.014679671629767337
538.0, 0.019547315508496324
539.0, 0.018055709088212045
540.0, 0.020643683228046234
541.0, 0.0301894591980625
542.0, 0.006762482946786752
543.0, 0.026793779605625737
544.0, 0.011612002058783724
545.0, 0.011656191308208901
546.0, 0.016673292492363937
547.0, 0.009653750067337057
548.0, 0.029104752868214033
549.0, 0.048459155171654035
550.0, 0.0413747925272945
551.0, 0.041584201938594814
552.0, 0.0565174152894921
553.0, 0.06250806501266153
554.0, 0.04030975497043552
555.0, 0.04032139378360841
556.0, 0.03864141508665898
557.0, 0.04123748656010674
558.0, 0.04196433765159778
559.0, 0.040432905835681834
560.0, 0.034444049763610735
561.0, 0.024164292445048068
562.0, 0.0415641500255073
563.0, 0.016031067145523745
564.0, 0.03856297009523059
565.0, 0.03894719446615934
566.0, 0.033829037584274566
567.0, 0.049349049613010024
568.0, 0.05285948705760976
569.0, 0.04445122890697538
570.0, 0.02943279384566357
571.0, 0.047464039707838294
572.0, 0.05915404546867231
573.0, 0.06701389875109054
574.0, 0.08991162887838874
575.0, 0.10644916005202675
576.0, 0.10350070912636045
577.0, 0.10688153238572044
578.0, 0.11859533696019554
579.0, 0.12670982645931939
580.0, 0.13298701108628405
581.0, 0.14673874106207385
582.0, 0.1588612689652015
583.0, 0.16697554105924473
584.0, 0.18754449884994615
585.0, 0.19574222440772765
586.0, 0.2071422392246337
587.0, 0.22831732720669903
588.0, 0.2480888393938262
589.0, 0.27136637667130487
590.0, 0.2559949400345123
591.0, 0.2531974843217948
592.0, 0.24610593995271854
593.0, 0.2356469350774988
594.0, 0.22506854497300957
595.0, 0.21375756869949156
596.0, 0.2127341440329517
597.0, 0.2099713008695312
598.0, 0.21652749534354598
599.0, 0.22890547248664272
600.0, 0.2210435567111328
601.0, 0.20319217703839457
602.0, 0.224828191018457
603.0, 0.21406557016504577
604.0, 0.2040911467369759
605.0, 0.23355995209518302
606.0, 0.23501948650014023
607.0, 0.22386728172546935
608.0, 0.23093724608392546
609.0, 0.23987099574451093
610.0, 0.2293795483285624
611.0, 0.23812143725015472
612.0, 0.25305844930821136
613.0, 0.2570208494816594
614.0, 0.2573659997419984
615.0, 0.2647596787141717
616.0, 0.27551944623239255
617.0, 0.29842729540915647
618.0, 0.3084123728478843
619.0, 0.3143530760771721
620.0, 0.318883982887971
621.0, 0.319624737882566
622.0, 0.3202501211605762
623.0, 0.3312005645396241
624.0, 0.31819379684104093
625.0, 0.3272547023431955
626.0, 0.3274397661094594
627.0, 0.3233184108036083
628.0, 0.32063221460015534
629.0, 0.316861328918025
630.0, 0.3040165477858286
631.0, 0.3061960761857926
632.0, 0.30405444165391443
633.0, 0.2922940049460277
634.0, 0.2785818780350649
635.0, 0.270616404673538
636.0, 0.26685064769403366
637.0, 0.2568501263859149
638.0, 0.24782211301952684
639.0, 0.22637601412449573
640.0, 0.22315693600597547
641.0, 0.20200289329815627
642.0, 0.1739967318838151
643.0, 0.16208076720797635
644.0, 0.16827705379650085
645.0, 0.178788549655403
646.0, 0.167715972266162
647.0, 0.14514489367277492
648.0, 0.13440960183995893
649.0, 0.12508898273104932
650.0, 0.1090711524139037
651.0, 0.0978087762091777
652.0, 0.10400880751330736
653.0, 0.08287862703062704
654.0, 0.08061532108051885
655.0, 0.06839872058383094
656.0, 0.05788186314022533
657.0, 0.06282868014460638
658.0, 0.0697774666611567
659.0, 0.027042100796440538
660.0, 0.055923075072290676
661.0, 0.060390224442336465
662.0, 0.03567925070733845
663.0, 0.023467460914250574
664.0, 0.033855251936194944
665.0, 0.040090930730625314
666.0, 0.019377279289902766
667.0, 0.023767477269854974
668.0, 0.02499591430680926
669.0, 0.026039918408533026
670.0, 0.027481381866530884
671.0, 0.03320209763387778
672.0, 0.039417521386742316
673.0, 0.03202007318134461
674.0, 0.04429420270004466
675.0, 0.04784279147033872
676.0, 0.045433598852452746
677.0, 0.04582687190027214
678.0, 0.044440084050303426
679.0, 0.040014836249752765
680.0, 0.040789902218150556
681.0, 0.039459203863862785
682.0, 0.034925579546150776
683.0, 0.03294144668049147
684.0, 0.029440632327094648
685.0, 0.0191170666069174
686.0, 0.015718104107246902
687.0, 0.03011471717841518
688.0, 0.020196392111408334
689.0, 0.008948513245266191
690.0, 0.017929161116101176
691.0, 0.016107568520492187
692.0, 0.006951941064259671
693.0, 0.013251934588202386
694.0, 0.030238268883030404
695.0, 0.0060247648321177325
696.0, 0.0032119079016325754
697.0, 0.008083266999990034
698.0, 0.012080106438220932
699.0, 0.014223127184303986
700.0, 0.020206786502289256
701.0, 0.02603750525113957
702.0, 0.01989048490141297
703.0, 0.015045854220138618
704.0, 0.012929632697362812
705.0, 0.026279283016559445
706.0, 0.028511689935621507
707.0, 0.0285194188252242
708.0, 0.027355326095193887
709.0, 0.024400867048440786
710.0, 0.039039965411165486
711.0, 0.022863028479148784
712.0, 0.029671953125488062
713.0, 0.03229893211586125
714.0, 0.03386713913874543
715.0, 0.03633606629120862
716.0, 0.035043302081810584
717.0, 0.025567815924403426
718.0, 0.024321617146031958
719.0, 0.03650884452274161
720.0, 0.03485529323446187
721.0, 0.015250707770117423
722.0, 0.021045181560438414
723.0, 0.04203014506267747
724.0, 0.036296056455679425
725.0, 0.012006130988713183
726.0, 0.010277814308006061
727.0, 0.020046629215542795
728.0, 0.02133068869383662
729.0, 0.024939454210327283
730.0, 0.024774559432555496
731.0, 0.022984200056533465
732.0, 0.0309269282553392
733.0, 0.022271224583787094
734.0, 0.004888195052577276
735.0, 0.012325788251059377
736.0, 0.015476957249900765
737.0, 0.016543536890910687
738.0, 0.017923464676847547
739.0, 0.01834212719580679
740.0, 0.018323897667269922
741.0, 0.01700376591843575
742.0, 0.014291743822846528
743.0, 0.006188275968716004
744.0, 0.005923870395355551
745.0, 0.004558148036338097
746.0, 0.0011092453216756796
747.0, 0.0039540788627112295
748.0, 0.008276740994575607
749.0, 0.01662259827916167
750.0, 0.021786078196919502
751.0, 0.014864754497754217
752.0, 0.012211421805933983
753.0, 0.011635026610312444
754.0, 0.012753929116965454
755.0, 0.019969790204159406
756.0, 0.007228571234809517
757.0, 0.01711074699200906
758.0, 0.014306035937336724
759.0, 0.009206711752844857
760.0, 0.013133087187726895
761.0, 0.02350414606204634
762.0, 0.024034523954855485
763.0, 0.0037249886160029594
764.0, 0.0024787196944025427
765.0, 0.007384267936104057
766.0, 0.007143875137766935
767.0, 0.01478968190382721
768.0, 0.019518169544942558
769.0, 0.018976778802266975
770.0, 0.018799436331632797
771.0, 0.017067099141121058
772.0, 0.001607192848159928
773.0, 0.0007221918236447197
774.0, 0.0038397128403803577
775.0, 0.007706896900619891
776.0, 0.00969497758932734
777.0, 0.01169343400148151
778.0, 0.016001166056724143
779.0, 0.01991386181558024
780.0, 0.03021852029969934
781.0, 0.04506320268343436
782.0, 0.025906652761793422
783.0, 0.01244791269014121
784.0, 0.012274778089811282
785.0, 0.011297178201316538
786.0, 0.007147172283863195
787.0, 0.026225115155745063
788.0, 0.015264320108594538
789.0, 0.02561871631164546
790.0, 0.02133285159198698
791.0, 0.013945754889899761
792.0, 0.014890453041916416
793.0, 0.01629309741264106
794.0, 0.008057744673575631
795.0, 0.007901937486898956
796.0, 0.007629052491709157
797.0, 0.010937990439069352
798.0, 0.0064788075517594945
799.0, 0.014372943351724184
800.0, 0.015121016503742585
801.0, 0.007045110320391031
802.0, 0.010794423158223274
803.0, 0.02451624772313572
804.0, 0.02212956715255987
805.0, 0.03765488343981485
806.0, 0.04173392197223673
807.0, 0.04032155151261415
808.0, 0.04752531052467824
809.0, 0.04853606632395236
810.0, 0.029484513236050808
811.0, 0.02670277694374474
812.0, 0.05198199372677163
813.0, 0.045711911859453634
814.0, 0.049990525516883266
815.0, 0.03954671128411478
816.0, 0.03917396218557633
817.0, 0.05561465505852317
818.0, 0.06780978337073149
819.0, 0.05930685616456555
820.0, 0.034791262872931036
821.0, 0.05243280876205075
822.0, 0.05393211454116172
823.0, 0.06957222290618344
824.0, 0.06860297588532838
825.0, 0.057059432904488935
826.0, 0.06326178378941927
827.0, 0.08188976924627102
828.0, 0.06287165504073793
829.0, 0.06649450727760894
830.0, 0.06572062798263167
831.0, 0.07092247556420089
832.0, 0.07708517487194744
833.0, 0.08642726100483061
834.0, 0.08302242174044584
835.0, 0.052852835657230715
836.0, 0.05864301060704044
837.0, 0.05123841400702321
838.0, 0.08604534734475822
839.0, 0.07315023087586571
840.0, 0.06672147386137395
841.0, 0.05962126055820929
842.0, 0.04883485229899517
843.0, 0.053611604862741497
844.0, 0.06335222272232259
845.0, 0.05943595615797162
846.0, 0.059896001757346475
847.0, 0.054515625282938324
848.0, 0.05478358939845549
849.0, 0.0610867452651045
850.0, 0.0636637701737768
851.0, 0.05683212045493515
852.0, 0.05210756565692676
853.0, 0.0733640131127626
854.0, 0.06681643506276655
855.0, 0.03782618529580118
856.0, 0.048571555084476095
857.0, 0.05422234792556771
858.0, 0.04595640081975161
859.0, 0.04620276070421621
860.0, 0.06012862061386302
861.0, 0.052600464435963376
862.0, 0.05701167887393324
863.0, 0.05963286058475346
864.0, 0.04659954321158544
865.0, 0.04093417775453249
866.0, 0.043873050768737626
867.0, 0.03831138928604288
868.0, 0.025751444385420055
869.0, 0.03445347047037198
870.0, 0.0393601157464823
871.0, 0.039764157561924744
872.0, 0.036780491758837595
873.0, 0.029637794183012406
874.0, 0.03296962955179113
875.0, 0.045776300454204395
876.0, 0.05196056663705135
877.0, 0.041874539481864044
878.0, 0.03165870259154293
879.0, 0.025425491435158834
880.0, 0.05634872392588949
881.0, 0.019288009178148637
882.0, 0.02733598043834331
883.0, 0.03540283587905181
884.0, 0.028538190495733702
885.0, 0.025273226454494913
886.0, 0.0259843198508237
887.0, 0.03447204286731918
888.0, 0.018006237693002906
889.0, 0.03347278366608816
890.0, 0.012387153751322637
891.0, 0.021716819096730604
892.0, 0.036415467793310216
893.0, 0.037132730088468714
894.0, 0.028855037660977474
895.0, 0.007824937784645271
896.0, 0.0007473191486727804
897.0, 0.008364534412160979
898.0, 0.0148425411008932
899.0, 0.022035178860339684
900.0, 0.01519631639813284
901.0, 0.00717218045944635
902.0, 0.005189044911494718
903.0, 0.00686114137596413
904.0, 0.016048568766103326
905.0, 0.0009702374698803981
906.0, 0.01130219692819559
907.0, 0.006696834826198353
908.0, 0.0023618713683588367
909.0, 0.004646020329176384
910.0, 0.00611041136292214
911.0, 0.009895833965521707
912.0, 0.019196507563119677
913.0, 0.01300391605207995
914.0, 0.017146932882056386
915.0, 0.036143421778938895
916.0, 0.02295053518754569
917.0, 0.016672443437639857
918.0, 0.01638467640435546
919.0, 0.009605628376122872
920.0, 0.00249515461397144
921.0, 0.006073681375245576
922.0, 0.004861007948508362
923.0, 0.01687382618777849
924.0, 0.02359402357004181
925.0, 0.013073442699073443
926.0, 0.005425152369856403
927.0, 0.006171967845646539
928.0, 0.006651726445865294
929.0, 0.004141914093963358
930.0, 0.00625547062029542
931.0, 0.014191099214970826
932.0, 0.010845384076602363
933.0, 0.0017526454495319019
934.0, 0.002021391938861189
935.0, 0.0031823471994854085
936.0, 0.002888933224164331
937.0, 0.00474355420443263
938.0, 0.007161704611887113
939.0, 0.006678152213559636
940.0, 0.007659659391335522
941.0, 0.008993681755562293
942.0, 0.008260428039436893
943.0, 0.004305014273133609
944.0, 0.008437702841219629
945.0, 0.014363389132689164
946.0, 0.010527821372658739
947.0, 0.00327020575843649
948.0, 0.005818313897379598
949.0, 0.012175607276421179
950.0, 0.0014422668968055979
951.0, 0.01681636601060513
952.0, 0.014413106366675999
953.0, 0.005622599443389699
954.0, 0.005379396493957554
955.0, 0.005210031627868574
956.0, 0.00440138292063098
957.0, 0.005730699834143343
958.0, 0.006920484830552539
959.0, 0.012824336529146862
960.0, 0.00960949745484984
961.0, 0.01654894388935916
962.0, 0.009749542450658776
963.0, 0.00564044322132538
964.0, 0.011692572162279076
965.0, 0.01285386919806463
966.0, 0.015516302520434191
967.0, 0.027896914323986714
968.0, 0.01560013383655947
969.0, 0.0029296451730302445
970.0, 0.028819888477515265
971.0, 0.0070478773967879195
972.0, 0.00823394802904101
973.0, 0.015100062190113261
974.0, 0.018126846907677033
975.0, 0.01512238473067444
976.0, 0.010934381460267803
977.0, 0.015379701480447018
978.0, 0.02388693694871913
979.0, 0.008153208740476146
980.0, 0.014752582639934684
981.0, 0.026610805279433977
982.0, 0.03840728571180273
983.0, 0.0429395214165392
984.0, 0.04226348538187978
985.0, 0.04274754580800331
986.0, 0.04019855219408444
987.0, 0.024944999143933305
988.0, 0.02864181693622596
989.0, 0.04526019107940194
990.0, 0.06972127501278137
991.0, 0.06435878497602801
992.0, 0.07823257977834638
993.0, 0.07879682327295644
994.0, 0.07079205246915783
995.0, 0.0770244188767109
996.0, 0.09023822781929845
997.0, 0.09803696662242208
998.0, 0.11371952097416517
999.0, 0.11524268057279953
1000.0, 0.11539621952678689
1001.0, 0.10746240854343557
1002.0, 0.123921538477386
1003.0, 0.13033761739997105
1004.0, 0.12965702377547544
1005.0, 0.15228912448241919
1006.0, 0.18425035672813245
1007.0, 0.17675110183878437
1008.0, 0.18555732482694123
1009.0, 0.19465094171854597
1010.0, 0.21623405546892205
1011.0, 0.22870291688157568
1012.0, 0.2515725456848823
1013.0, 0.26884488475800317
1014.0, 0.2703504886639736
1015.0, 0.26970588287744574
1016.0, 0.2830904519153333
1017.0, 0.30574711555862605
1018.0, 0.3067241394243942
1019.0, 0.32122967764666177
1020.0, 0.3316933595708889
1021.0, 0.34926402907049814
1022.0, 0.3758194475798443
1023.0, 0.4175381570781877
1024.0, 0.44611015618997174
1025.0, 0.45580595060163526
1026.0, 0.4912996620687951
1027.0, 0.549549779473321
1028.0, 0.5571288866463401
1029.0, 0.6726354326911734
1030.0, 0.7107036718682701
1031.0, 0.7527000744507786
1032.0, 0.818506496317578
1033.0, 0.8743905837893767
1034.0, 0.8841930422064085
1035.0, 0.8714837038330933
1036.0, 0.8861433084704511
1037.0, 0.9010965167028911
1038.0, 0.8661363792443375
1039.0, 0.816028962635336
1040.0, 0.7492150213110563
1041.0, 0.6950085894402468
1042.0, 0.6135452915502343
1043.0, 0.537995129241729
1044.0, 0.4866415241650008
1045.0, 0.44637572371933026
1046.0, 0.39944345152906363
1047.0, 0.3440596766210201
1048.0, 0.30438985233127686
1049.0, 0.28241189486516
1050.0, 0.25188825807568216
1051.0, 0.22626867167517153
1052.0, 0.2331419547771917
1053.0, 0.24935564113011258
1054.0, 0.23826904863802606
1055.0, 0.22207210044080586
1056.0, 0.23163744501961744
1057.0, 0.24356701468584407
1058.0, 0.24761991346089288
1059.0, 0.2908047066968635
1060.0, 0.3015287149358471
1061.0, 0.3246766510290743
1062.0, 0.3607866979901516
1063.0, 0.38695172122101745
1064.0, 0.4044996229041557
1065.0, 0.4201022859848996
1066.0, 0.4311482111525022
1067.0, 0.42791514950999654
1068.0, 0.4131052867221184
1069.0, 0.41436970741315626
1070.0, 0.32405954381186575
1071.0, 0.31228873882066194
1072.0, 0.28786017791953367
1073.0, 0.26494641274185227
1074.0, 0.21233069872453178
1075.0, 0.1681727708905813
1076.0, 0.14097069493552872
1077.0, 0.11867363503542494
1078.0, 0.10161060839927269
1079.0, 0.07176282334891583
1080.0, 0.06751418148251413
1081.0, 0.05107079653948432
1082.0, 0.06871436522876236
1083.0, 0.04834455788594423
1084.0, 0.05447601998747144
1085.0, 0.04496972900496844
1086.0, 0.04019424570841965
1087.0, 0.04319239566901781
1088.0, 0.031486657270361214
1089.0, 0.012619290996314753
1090.0, 0.002838882400753725
1091.0, 0.007835359997825704
1092.0, 0.014425414826228274
1093.0, 0.01795528050955162
1094.0, 0.02358307544467549
1095.0, 0.02500616350672499
1096.0, 0.020022955979044674
1097.0, 0.018216920194404317
1098.0, 0.019120196325500032
1099.0, 0.019725427369018646
1100.0, 0.019720413012392926
1101.0, 0.010138174975847243
1102.0, 0.023992412168776046
1103.0, 0.025715153881786253
1104.0, 0.021488653086744032
1105.0, 0.03436391602112646
1106.0, 0.02187341925256892
1107.0, 0.017993128674489784
1108.0, 0.01800226728806217
1109.0, 0.02324850294195619
1110.0, 0.04132520515194256
1111.0, 0.053542337277201056
1112.0, 0.04020881003435355
1113.0, 0.03480430503596668
1114.0, 0.049780370701111507
1115.0, 0.034954709574132416
1116.0, 0.018860487191134357
1117.0, 0.024034053412581677
1118.0, 0.028632844733618323
1119.0, 0.029498641340669523
1120.0, 0.03357404323171941
1121.0, 0.030536957780424496
1122.0, 0.018685755773981468
1123.0, 0.022395448619756772
1124.0, 0.02573885213335902
1125.0, 0.032656730326142726
1126.0, 0.028065032142686918
1127.0, 0.03430603044099339
1128.0, 0.0318020259021439
1129.0, 0.04400836252589049
1130.0, 0.047639361401571136
1131.0, 0.05528770504224518
1132.0, 0.060560241648890234
1133.0, 0.056919388076562126
1134.0, 0.06362173627885506
1135.0, 0.07041785356034966
1136.0, 0.06284123049442158
1137.0, 0.0730659597128456
1138.0, 0.07079573418160866
1139.0, 0.07065962655993549
1140.0, 0.06977185424106763
1141.0, 0.0950477503117142
1142.0, 0.10824892277572665
1143.0, 0.1187837888352093
1144.0, 0.135873438866451
1145.0, 0.14981244852816678
1146.0, 0.163069224532691
1147.0, 0.17152620603618055
1148.0, 0.20743714489415027
1149.0, 0.2038978558475972
1150.0, 0.30011589657758897
1151.0, 0.3100356257440443
1152.0, 0.3308563387528995
1153.0, 0.373088030842804
1154.0, 0.39121995079604704
1155.0, 0.40654046543856065
1156.0, 0.4168214816480453
1157.0, 0.39574900341129643
1158.0, 0.3575389605759578
1159.0, 0.2966683590611728
1160.0, 0.24917974336994808
1161.0, 0.19496713374717362
1162.0, 0.1596596845656586
1163.0, 0.1617672102557109
1164.0, 0.13001564817617273
1165.0, 0.10608622711311692
1166.0, 0.11190217902260544
1167.0, 0.1123696718553887
1168.0, 0.0881000413729139
1169.0, 0.06574242626577739
1170.0, 0.0688215925693172
1171.0, 0.07537960645331782
1172.0, 0.05259358360111794
1173.0, 0.0548806539329186
1174.0, 0.045538840671519545
1175.0, 0.04170005914182081
1176.0, 0.05015924179789618
1177.0, 0.04701746792625908
1178.0, 0.045495956723422736
1179.0, 0.043019516503151695
1180.0, 0.04532028078365163
1181.0, 0.05052002885653155
1182.0, 0.047774109895437435
1183.0, 0.04596119235533703
1184.0, 0.04012944792127273
1185.0, 0.03205364888382829
1186.0, 0.011555233622298535
1187.0, 0.029158407766127277
1188.0, 0.01644564064566002
1189.0, 0.038074665523357185
1190.0, 0.02672772585196688
1191.0, 0.02189648753290368
1192.0, 0.02276628209105619
1193.0, 0.014974377044363042
1194.0, 0.018378998287456913
1195.0, 0.037728401929170645
1196.0, 0.03533381499143866
1197.0, 0.004970403636522479
1198.0, 0.035097634630323116
1199.0, 0.012019533768065263
1200.0, 0.03140597470886527
1201.0, 0.02495795256899774
1202.0, 0.021130507165665054
1203.0, 0.03801876464802205
1204.0, 0.03511273741252039
1205.0, 0.022573404567120127
1206.0, 0.02540755414609499
1207.0, 0.03116328634276331
1208.0, 0.024402787824982616
1209.0, 0.017019953934714446
1210.0, 0.009317063273946444
1211.0, 0.026301449993788806
1212.0, 0.019429332164632225
1213.0, 0.012186605242730415
1214.0, 0.00903867411972493
1215.0, 0.02603546010558776
1216.0, 0.022564931505857106
1217.0, 0.011669190567010369
1218.0, 0.018339004251816737
1219.0, 0.025894800202731976
1220.0, 0.015499318244130388
1221.0, 0.009871203572502
1222.0, 0.02323612275027916
1223.0, 0.016510362891380085
1224.0, 0.021098344785309666
1225.0, 0.009336579258818117
1226.0, 0.004244484892197489
1227.0, 0.0034975076118080803
1228.0, 0.0015346996270679393
1229.0, 0.00940558135358696
1230.0, 0.011951981890235166
1231.0, 0.01203475519630771
1232.0, 0.007137919924127973
1233.0, 0.017585900983066404
1234.0, 0.032791654215703375
1235.0, 0.016055242033044294
1236.0, 0.031330504744821
1237.0, 0.01953150833253438
1238.0, 0.012717958569995613
1239.0, 0.031828411599987366
1240.0, 0.02752159877367956
1241.0, 0.020418015187288932
1242.0, 0.02269617425615888
1243.0, 0.03365305190140678
1244.0, 0.04115005992834056
1245.0, 0.030980203046907507
1246.0, 0.025210019366803667
1247.0, 0.03574291002976129
1248.0, 0.033948200760603
1249.0, 0.010882215637648086
1250.0, 0.008378602973696062
1251.0, 0.038808524738186856
1252.0, 0.009870841191527056
1253.0, 0.001493453885217027
1254.0, 0.030288565993148872
1255.0, 0.013524847936579435
1256.0, 0.035664486367892996
1257.0, 0.015951997206586355
1258.0, 0.011745795138343115
1259.0, 0.023306655525911293
1260.0, 0.03211079894577173
1261.0, 0.04553761216135467
1262.0, 0.04137896307006619
1263.0, 0.015797343229771596
1264.0, 0.037765565738925186
1265.0, 0.022072811383806047
1266.0, 0.03507775577069949
1267.0, 0.018758319570539694
1268.0, 0.04914802304653608
1269.0, 0.04105907832807227
1270.0, 0.01952316405207088
1271.0, 0.02524640891279
1272.0, 0.013098599159306279
1273.0, 0.015224816526209443
1274.0, 0.019646555440270885
1275.0, 0.0320748347035995
1276.0, 0.053125770922109135
1277.0, 0.04900785682274602
1278.0, 0.03714785392093521
1279.0, 0.044202810214950754
1280.0, 0.041091456086393696
1281.0, 0.009882904793785044
1282.0, 0.022099691211211667
1283.0, 0.026183237466957596
1284.0, 0.01700427246139374
1285.0, 0.04186867311275405
1286.0, 0.036778351867483065
1287.0, 0.04153123970261678
1288.0, 0.05686332574853609
1289.0, 0.04022175796614494
1290.0, 0.030960022582480855
1291.0, 0.05126437290677854
1292.0, 0.05308476487261212
1293.0, 0.04370000821958658
1294.0, 0.048235695428671385
1295.0, 0.053448630572253075
1296.0, 0.04651365895278697
1297.0, 0.04557568011936931
1298.0, 0.04140540390628598
1299.0, 0.0355718947337088
1300.0, 0.039672549361219535
1301.0, 0.04871740700900979
1302.0, 0.05017771000885487
1303.0, 0.04731933725545239
1304.0, 0.04598298908131388
1305.0, 0.038598990001985196
1306.0, 0.03196974971405305
1307.0, 0.04759159852162527
1308.0, 0.07079230990757368
1309.0, 0.06989543896815065
1310.0, 0.07945774078926524
1311.0, 0.0734501130853109
1312.0, 0.06374662589338881
1313.0, 0.05353893297751987
1314.0, 0.03637230496217611
1315.0, 0.03614231020040343
1316.0, 0.02395137601102109
1317.0, 0.024577100512781287
1318.0, 0.04161037874258926
1319.0, 0.046262060869342155
1320.0, 0.044435792163504816
1321.0, 0.05518891063327781
1322.0, 0.05103139280759785
1323.0, 0.03488853827319314
1324.0, 0.046792117913663014
1325.0, 0.05240230198167565
1326.0, 0.041413476120009556
1327.0, 0.030281145879461027
1328.0, 0.051524374877212294
1329.0, 0.014971941102563231
1330.0, 0.036359595082962284
1331.0, 0.05802380410249048
1332.0, 0.0405452448029765
1333.0, 0.04493109031317705
1334.0, 0.0697051280794257
1335.0, 0.04902073740535556
1336.0, 0.03793562061157006
1337.0, 0.039739097263828446
1338.0, 0.059977877377489816
1339.0, 0.06665512571937794
1340.0, 0.042452721872843914
1341.0, 0.053297637983029895
1342.0, 0.05946291852101576
1343.0, 0.049815484041224024
1344.0, 0.05125828794820055
1345.0, 0.05687098012973027
1346.0, 0.044465251319363845
1347.0, 0.0069878767702273095
1348.0, 0.038664472853358535
1349.0, 0.041489711002284504
1350.0, 0.03953034574709294
1351.0, 0.06087367095863447
1352.0, 0.05862497157640893
1353.0, 0.05799632946164417
1354.0, 0.04763892323257044
1355.0, 0.0486948329440412
1356.0, 0.05684963611551019
1357.0, 0.04040658732131237
1358.0, 0.025781898763122302
1359.0, 0.03494866606829887
1360.0, 0.05225671914962834
1361.0, 0.022711956292445174
1362.0, 0.04916204163031988
1363.0, 0.03174654640779651
1364.0, 0.03137716678815229
1365.0, 0.04528993314852965
1366.0, 0.06483676685547868
1367.0, 0.04435683064290713
1368.0, 0.03963042482035639
1369.0, 0.03894291203156417
1370.0, 0.03012419073793276
1371.0, 0.044171606881286386
1372.0, 0.04223509695520938
1373.0, 0.030151585328829108
1374.0, 0.024687886747142833
1375.0, 0.030415685702994848
1376.0, 0.04520557917418138
1377.0, 0.03324584461556166
1378.0, 0.03654986319095977
1379.0, 0.022597132544729524
1380.0, 0.03170295562425916
1381.0, 0.031320742510429704
1382.0, 0.03243127141460427
1383.0, 0.0479008470659065
1384.0, 0.02702797409522392
1385.0, 0.0411004197371724
1386.0, 0.024015114145810857
1387.0, 0.029976621562945737
1388.0, 0.04154910847506971
1389.0, 0.0370940894229277
1390.0, 0.027630020040960428
1391.0, 0.03568899315438533
1392.0, 0.034334259660048466
1393.0, 0.031851964197818515
1394.0, 0.0457411933728241
1395.0, 0.04904706900492305
1396.0, 0.04713371010150661
1397.0, 0.03796886762365542
1398.0, 0.04197153337293224
1399.0, 0.01854395618329027
1400.0, 0.02189183696605245
1401.0, 0.052443098044727146
1402.0, 0.02907784880738442
1403.0, 0.037035028402032225
1404.0, 0.027863942885618415
1405.0, 0.024865302318447687
1406.0, 0.038687064908141236
1407.0, 0.029628656928935994
1408.0, 0.02979816382526552
1409.0, 0.034114976685783845
1410.0, 0.03013981809070303
1411.0, 0.032136342809678885
1412.0, 0.019914577621811466
1413.0, 0.005647300472912311
1414.0, 0.020602709053930246
1415.0, 0.030362865060073026
1416.0, 0.028843933789577874
1417.0, 0.04338953398714432
1418.0, 0.01489720864613963
1419.0, 0.010633476436332223
1420.0, 0.03578356771066483
1421.0, 0.037279048684790386
1422.0, 0.01393756632585233
1423.0, 0.0032471311495638287
1424.0, 0.018518232491793164
1425.0, 0.008262312263871623
1426.0, 0.00861848777203931
1427.0, 0.007587028910358291
1428.0, 0.015474439351964025
1429.0, 0.010680919031234809
1430.0, 0.026567745570675157
1431.0, 0.018503504950669054
1432.0, 0.013418744866207586
1433.0, 0.026333079765815483
1434.0, 0.036129134217931805
1435.0, 0.02874928383537217
1436.0, 0.01628210206050203
1437.0, 0.024949606904626342
1438.0, 0.0270748862337475
1439.0, 0.04133151410446273
1440.0, 0.03497790376963446
1441.0, 0.03699998733937629
1442.0, 0.042571785923863535
1443.0, 0.06163619129131545
1444.0, 0.017873225683956388
1445.0, 0.036782172639683045
1446.0, 0.048272165002986506
1447.0, 0.016029641585996884
1448.0, 0.027777664096361596
1449.0, 0.03260099572776542
1450.0, 0.04061716346619084
1451.0, 0.045069887605303845
1452.0, 0.02430103337526319
1453.0, 0.005780749327300974
1454.0, 0.013076919982046213
1455.0, 0.01954057021891856
1456.0, 0.030780971820034468
1457.0, 0.03561517561903904
1458.0, 0.033021610793887976
1459.0, 0.03585554892893093
1460.0, 0.011171079214334356
1461.0, 0.0146426257914655
1462.0, 0.046764132147283595
1463.0, 0.03235325504669487
1464.0, 0.019779793033655603
1465.0, 0.013625147375173828
1466.0, 0.008008765330660647
1467.0, 0.005855617484847379
1468.0, 0.0025704268370561603
1469.0, 0.012258282895480217
1470.0, 0.015539405838028732
1471.0, 0.02764533391528316
1472.0, 0.010487442685265951
1473.0, 0.03171490337599797
1474.0, 0.02611151579460055
1475.0, 0.033730325323629504
1476.0, 0.015932956865457554
1477.0, 0.009198587608411498
1478.0, 0.018095345383748
1479.0, 0.024841880008062416
1480.0, 0.031295354710235625
1481.0, 0.036602137961103176
1482.0, 0.038797232744402645
1483.0, 0.04070909398245482
1484.0, 0.03938943737374573
1485.0, 0.03645118841999895
1486.0, 0.03438535704110468
1487.0, 0.024635349359691455
1488.0, 0.02340067386089113
1489.0, 0.012497218491050437
1490.0, 0.02944328539056576
1491.0, 0.020651663535637507
1492.0, 0.021169201220096735
1493.0, 0.005569365345522127
1494.0, 0.0015889833759207407
1495.0, 0.015302220027783465
1496.0, 0.03469613667554208
1497.0, 0.01145132003130376
1498.0, 0.03931360843299395
1499.0, 0.042551440535622403
1500.0, 0.023259181226133324
1501.0, 0.016428706204624645
1502.0, 0.006156364190904982
1503.0, 0.0026505905863503463
1504.0, 0.019830482441724747
1505.0, 0.017565226106594254
1506.0, 0.017784814030984496
1507.0, 0.02401918609415636
1508.0, 0.02806533958460453
1509.0, 0.03524357095463073
1510.0, 0.03734095750148806
1511.0, 0.03782399230741683
1512.0, 0.03783504111858262
1513.0, 0.03673779242800753
1514.0, 0.036409043183720714
1515.0, 0.03254009046491488
1516.0, 0.04968322020458005
1517.0, 0.04455290577715128
1518.0, 0.04925667552669846
1519.0, 0.027797677405462608
1520.0, 0.03268833265428374
1521.0, 0.04047861318095421
1522.0, 0.026849480566580257
1523.0, 0.0021641669787891924
1524.0, 0.0432790354569768
1525.0, 0.04846342243787519
1526.0, 0.03138519483959322
1527.0, 0.050630759512433544
1528.0, 0.03496928093711642
1529.0, 0.021330368094672314
1530.0, 0.004926992649752371
1531.0, 0.011096752122519819
1532.0, 0.020263334060962562
1533.0, 0.040562713642168506
1534.0, 0.0504255964179005
1535.0, 0.05279982622603962
1536.0, 0.05308842648187861
1537.0, 0.041564423506557736
1538.0, 0.03543156577452256
1539.0, 0.02212472201640575
1540.0, 0.016201341577647983
1541.0, 0.028978979389140586
1542.0, 0.017023480136787242
1543.0, 0.009305672944761837
1544.0, 0.022591002407085267
1545.0, 0.018063000194521894
1546.0, 0.018272815875068956
1547.0, 0.0194178567879601
1548.0, 0.006871106098502798
1549.0, 0.029642596942407468
1550.0, 0.025017194858090737
1551.0, 0.03065344449825325
1552.0, 0.05692020557903375
1553.0, 0.035778512797008034
1554.0, 0.031045681036869003
1555.0, 0.017369504813613372
1556.0, 0.007315141032259355
1557.0, 0.06047388492333473
1558.0, 0.009927882714589775
1559.0, 0.02383404144487538
1560.0, 0.04833339841381343
1561.0, 0.027394963022770225
1562.0, 0.021687570999981986
1563.0, 0.035591238901937765
1564.0, 0.02147362740999
1565.0, 0.004120865350415978
1566.0, 0.0078158586375368
1567.0, 0.0058249431962128
1568.0, 0.001251106603700766
1569.0, 0.024722036789493813
1570.0, 0.014212738098683127
1571.0, 7.378949429756316e-06
1572, 0.0
1573, 0.0
1574, 0.0
1575, 0.0
1576, 0.0
1577, 0.0
1578, 0.0
1579, 0.0
1580, 0.0
1581, 0.0
1582, 0.0
1583, 0.0
1584, 0.0
1585, 0.0
1586, 0.0
1587, 0.0
1588, 0.0
1589, 0.0
1590, 0.0
1591, 0.0
1592, 0.0
1593, 0.0
1594, 0.0
1595, 0.0
1596, 0.0
1597, 0.0
1598, 0.0
1599, 0.0
