30, 0.0
31, 0.0
32, 0.0
33, 0.0
34, 0.0
35, 0.0
36, 0.0
37, 0.0
38, 0.0
39, 0.0
40, 0.0
41, 0.0
42, 0.0
43, 0.0
44, 0.0
45, 0.0
46, 0.0
47, 0.0
48, 0.0
49, 0.0
50, 0.0
51, 0.0
52, 0.0
53, 0.0
54, 0.0
55, 0.0
56, 0.0
57, 0.0
58, 0.0
59, 0.0
60, 0.0
61, 0.0
62, 0.0
63, 0.0
64, 0.0
65, 0.0
66, 0.0
67, 0.0
68, 0.0
69, 0.0
70, 0.0
71, 0.0
72, 0.0
73, 0.0
74, 0.0
75, 0.0
76, 0.0
77, 0.0
78, 0.0
79, 0.0
80, 0.0
81, 0.0
82, 0.0
83, 0.0
84, 0.0
85, 0.0
86, 0.0
87, 0.0
88, 0.0
89, 0.0
90, 0.0
91, 0.0
92, 0.0
93, 0.0
94, 0.0
95, 0.0
96, 0.0
97, 0.0
98, 0.0
99, 0.0
100, 0.0
101, 0.0
102, 0.0
103, 0.0
104, 0.0
105, 0.0
106, 0.0
107, 0.0
108, 0.0
109, 0.0
110, 0.0
111, 0.0
112, 0.0
113, 0.0
114, 0.0
115, 0.0
116, 0.0
117, 0.0
118, 0.0
119, 0.0
120, 0.0
121, 0.0
122, 0.0
123, 0.0
124, 0.0
125, 0.0
126, 0.0
127, 0.0
128, 0.0
129, 0.0
130, 0.0
131, 0.0
132, 0.0
133, 0.0
134, 0.0
135, 0.0
136, 0.0
137, 0.0
138, 0.0
139, 0.0
140, 0.0
141, 0.0
142, 0.0
143, 0.0
144, 0.0
145, 0.0
146, 0.0
147, 0.0
148, 0.0
149, 0.0
150, 0.0
151, 0.0
152, 0.0
153.0, 0.0005523891506676106
154.0, 0.0035992049925096118
155.0, 0.01257992364683442
156.0, 0.004679568034519636
157.0, 0.0043751228032578825
158.0, 0.010318793833418485
159.0, 0.011256278066482992
160.0, 0.009966091787359589
161.0, 0.015199822035290935
162.0, 0.01945685417068816
163.0, 0.018221108782931858
164.0, 0.017273993472720302
165.0, 0.01922850881832843
166.0, 0.024887701042899908
167.0, 0.029761801513523475
168.0, 0.026196124908551957
169.0, 0.025918390311451097
170.0, 0.03435117580325979
171.0, 0.040519911321533895
172.0, 0.034402695028210015
173.0, 0.03251019413681769
174.0, 0.031063981400586447
175.0, 0.0326123628093752
176.0, 0.03840632303819714
177.0, 0.04138185603622952
178.0, 0.043474114023937804
179.0, 0.05162179320271544
180.0, 0.061743364932607715
181.0, 0.06643198841184494
182.0, 0.07236158647921656
183.0, 0.07429905102803185
184.0, 0.07391830816501822
185.0, 0.07281888085490544
186.0, 0.06866233717444654
187.0, 0.06710820537172087
188.0, 0.06603156553659138
189.0, 0.06345237641989475
190.0, 0.060636991465127923
191.0, 0.05502483970125235
192.0, 0.053453493578781104
193.0, 0.05433949964961308
194.0, 0.05090731685598612
195.0, 0.04133012000028292
196.0, 0.03666955729545295
197.0, 0.030794961708040733
198.0, 0.019923580881111933
199.0, 0.01607647405819658
200.0, 0.017081119329573895
201.0, 0.017187889254999197
202.0, 0.013317097066719916
203.0, 0.005961842484441697
204.0, 0.000818002360445754
205.0, 0.0012001754654687351
206.0, 0.0021551902748137243
207.0, 0.006620143769210024
208.0, 0.00885650983723277
209.0, 0.005584469297720087
210.0, 0.005511853552593051
211.0, 0.007883993836755337
212.0, 0.0016737969367700595
213.0, 0.000966609046490746
214.0, 0.00158335862868013
215.0, 0.00632840171084326
216.0, 0.012659599613338901
217.0, 0.01651862742236599
218.0, 0.020317425247962945
219.0, 0.024814457778855225
220.0, 0.02928889797242352
221.0, 0.03210706427112445
222.0, 0.03989603664396436
223.0, 0.04959164557925256
224.0, 0.05609427271325582
225.0, 0.057723210153761924
226.0, 0.06599182834646522
227.0, 0.07614145626984432
228.0, 0.08217719027079354
229.0, 0.085170453503979
230.0, 0.09416793878941451
231.0, 0.09364033850065803
232.0, 0.09668326026540433
233.0, 0.10432531064857466
234.0, 0.11032818569438888
235.0, 0.1089059852557025
236.0, 0.10868317065501636
237.0, 0.10859225477836029
238.0, 0.10698835860144504
239.0, 0.10475711858985763
240.0, 0.09613598425652317
241.0, 0.09232071198897525
242.0, 0.09076405026716859
243.0, 0.08386793876094498
244.0, 0.07816134918637987
245.0, 0.0721377052180544
246.0, 0.0652117777336943
247.0, 0.059539849654989485
248.0, 0.059571476663758303
249.0, 0.055859578471227564
250.0, 0.049969463610386344
251.0, 0.04726417786843756
252.0, 0.04977301072853484
253.0, 0.04773404584097606
254.0, 0.04200617163966058
255.0, 0.036635887213299384
256.0, 0.03152000903404124
257.0, 0.022996840386454
258.0, 0.022474243011741373
259.0, 0.02166212225971113
260.0, 0.01873148004324537
261.0, 0.014962766395438622
262.0, 0.012715348460863614
263.0, 0.018033957850109476
264.0, 0.018267304663904055
265.0, 0.013357808183109476
266.0, 0.015896879866301568
267.0, 0.021251300417771058
268.0, 0.022796105496025936
269.0, 0.02596191919668308
270.0, 0.03320325412597578
271.0, 0.03391343071967184
272.0, 0.043187227196415635
273.0, 0.04897881435336869
274.0, 0.05502304703657328
275.0, 0.06984862534897092
276.0, 0.0783151606841165
277.0, 0.08486158604897029
278.0, 0.08902758554883175
279.0, 0.09204890195727806
280.0, 0.09769520610717801
281.0, 0.10259433607764742
282.0, 0.10138809426488325
283.0, 0.0973862515018728
284.0, 0.09493090912859116
285.0, 0.09241879039401724
286.0, 0.07700212668673019
287.0, 0.06963803741152244
288.0, 0.0683826242033326
289.0, 0.05775343620766349
290.0, 0.04479100304814598
291.0, 0.038004051780588
292.0, 0.035507339131277085
293.0, 0.032468206263019765
294.0, 0.026389212471586338
295.0, 0.020283612558908988
296.0, 0.014463050959518275
297.0, 0.011514861845564897
298.0, 0.010966550282778523
299.0, 0.004899757675296834
300.0, 0.0024033011009142475
301.0, 0.0010652269618929807
302.0, 0.004446430596258066
303.0, 0.00976161117213689
304.0, 0.01175389082884393
305.0, 0.012474204562310052
306.0, 0.010787895169289914
307.0, 0.007736811550471222
308.0, 0.006812166052665828
309.0, 0.004608190750328037
310.0, 0.004332884271543539
311.0, 0.005569136382170445
312.0, 0.007561786087167071
313.0, 0.011466780781862071
314.0, 0.022981867230369223
315.0, 0.030640641327665266
316.0, 0.03272458022393147
317.0, 0.03339668913270344
318.0, 0.036958006359105657
319.0, 0.040766149605882415
320.0, 0.045522899458493624
321.0, 0.05218571448954977
322.0, 0.059244946084136635
323.0, 0.056990264928418966
324.0, 0.06417441865467835
325.0, 0.07485191613077181
326.0, 0.08307929700449482
327.0, 0.09088527190525265
328.0, 0.09340351664420977
329.0, 0.10024587341604063
330.0, 0.10811219873559332
331.0, 0.11343293685015686
332.0, 0.12165059835064936
333.0, 0.13362906909378144
334.0, 0.14712111255090582
335.0, 0.15905157552578864
336.0, 0.1680677895658216
337.0, 0.17740952538539081
338.0, 0.18406829384786988
339.0, 0.1963467262665115
340.0, 0.21109135306327054
341.0, 0.21813560225703268
342.0, 0.21953835981972494
343.0, 0.22056170070321068
344.0, 0.21876621229048618
345.0, 0.21640927934358897
346.0, 0.2184607544994688
347.0, 0.211705855398169
348.0, 0.2057895506667727
349.0, 0.19971021013802023
350.0, 0.19257476543761018
351.0, 0.18841854076137143
352.0, 0.18117956259552218
353.0, 0.17832741956029516
354.0, 0.17767889825079242
355.0, 0.1755207955480585
356.0, 0.17275349704637052
357.0, 0.17301707135620456
358.0, 0.1776649098895418
359.0, 0.1825285688188744
360.0, 0.18345755291652943
361.0, 0.18128705887366534
362.0, 0.18093981742268356
363.0, 0.18237110547751706
364.0, 0.18368788947234882
365.0, 0.1829817526644465
366.0, 0.17752060588853225
367.0, 0.18188904246995397
368.0, 0.17675285310219804
369.0, 0.1656582250301827
370.0, 0.16176506035227517
371.0, 0.14988581069355228
372.0, 0.13870530071058976
373.0, 0.1297069694286987
374.0, 0.12188299854108732
375.0, 0.11465626968313296
376.0, 0.11173467457624314
377.0, 0.10188523452152796
378.0, 0.09194398208586473
379.0, 0.08448466696218024
380.0, 0.07648166484543527
381.0, 0.07612867872393912
382.0, 0.07794535037167104
383.0, 0.07968003244821525
384.0, 0.0805759833934044
385.0, 0.08200696060453823
386.0, 0.09027717734873167
387.0, 0.1014217855810312
388.0, 0.11095198179660504
389.0, 0.12122131908125156
390.0, 0.13673196296339096
391.0, 0.1490658402184665
392.0, 0.17221023396011986
393.0, 0.19188164641399505
394.0, 0.2055921299134191
395.0, 0.2272067173523355
396.0, 0.24120133911716102
397.0, 0.25800661470645986
398.0, 0.27389425302515663
399.0, 0.2875577646778515
400.0, 0.3034351764348154
401.0, 0.3138042529828439
402.0, 0.318886716711499
403.0, 0.32107422600514474
404.0, 0.32183037077029775
405.0, 0.3207060735103091
406.0, 0.31358967020804496
407.0, 0.3038166490841205
408.0, 0.29270001993968486
409.0, 0.2824497294317943
410.0, 0.2759807278898884
411.0, 0.2661762744121797
412.0, 0.251400317061855
413.0, 0.2354570036890619
414.0, 0.21946854916596403
415.0, 0.20076385503923105
416.0, 0.18205554141462682
417.0, 0.16165615301328312
418.0, 0.13881177807724215
419.0, 0.11972568514246225
420.0, 0.11026731184516876
421.0, 0.08813931874713057
422.0, 0.07373629199037847
423.0, 0.06115873871636739
424.0, 0.04721749292024884
425.0, 0.03552574283722266
426.0, 0.025942685343580053
427.0, 0.01928315893280256
428.0, 0.009228185563651207
429.0, 0.0009102881790512422
430.0, 0.0015378992873838822
431.0, 0.004466216921127817
432.0, 0.009230417057310878
433.0, 0.010059209590873815
434.0, 0.008290982671926288
435.0, 0.005840691756809267
436.0, 0.0013908721000742631
437.0, 0.003209384893706726
438.0, 0.004983835258487372
439.0, 0.00208060881966259
440.0, 0.0021010168804054506
441.0, 0.006806486358157424
442.0, 0.007747319867744454
443.0, 0.014939834352694888
444.0, 0.023118995052840853
445.0, 0.025966935652878668
446.0, 0.030465829427962585
447.0, 0.029844706534687224
448.0, 0.028072475124533675
449.0, 0.03272249507866641
450.0, 0.04393513696484117
451.0, 0.04805930487918711
452.0, 0.052234668427997476
453.0, 0.05135164161326552
454.0, 0.05541908953352008
455.0, 0.06700146162475581
456.0, 0.07289231598300759
457.0, 0.07580516716221902
458.0, 0.07958002460427564
459.0, 0.0853968140093528
460.0, 0.09137071131927277
461.0, 0.09581407952624396
462.0, 0.09917193474360216
463.0, 0.10222620050882454
464.0, 0.10260701857190424
465.0, 0.10315917696710936
466.0, 0.10765513724915007
467.0, 0.1087782921232468
468.0, 0.11127567605643236
469.0, 0.1161781321852944
470.0, 0.1175565138257559
471.0, 0.113710368672444
472.0, 0.11736965514667977
473.0, 0.11618332943769866
474.0, 0.11313846486851749
475.0, 0.11220323915182648
476.0, 0.11197184786384537
477.0, 0.10377940011151789
478.0, 0.08886672989923529
479.0, 0.07792562719962887
480.0, 0.07011209580562769
481.0, 0.06377427066898853
482.0, 0.058055751546061296
483.0, 0.045415191987162616
484.0, 0.04058934743354435
485.0, 0.037916470159301316
486.0, 0.0331679321094421
487.0, 0.027604526695021614
488.0, 0.022447386617250892
489.0, 0.017921964885944545
490.0, 0.015359426086176214
491.0, 0.01819518199286146
492.0, 0.021865493072142538
493.0, 0.010540075846682201
494.0, 0.013641249489521789
495.0, 0.01414748193168819
496.0, 0.008652344148034159
497.0, 0.006143247489062512
498.0, 0.011090460350798357
499.0, 0.015122685040444358
500.0, 0.00846267312135281
501.0, 0.007724965855507851
502.0, 0.011146718514532082
503.0, 0.007185651933015275
504.0, 0.01510510886784134
505.0, 0.015623715227879597
506.0, 0.011469103513864296
507.0, 0.00890655954314901
508.0, 0.009992763120753805
509.0, 0.009961826626407079
510.0, 0.011644217805084171
511.0, 0.010546870002899163
512.0, 0.011369489454974875
513.0, 0.013816185646061395
514.0, 0.011961523201899265
515.0, 0.011886003793708112
516.0, 0.006430641357678876
517.0, 0.005578010403822598
518.0, 0.004778747753621561
519.0, 0.0029406593092555357
520.0, 0.004869106720417994
521.0, 0.009861499535727517
522.0, 0.005528566969003984
523.0, 0.0014306084120272347
524.0, 0.0025431459991962875
525.0, 0.0010065882482399857
526.0, 0.0014230917639636623
527.0, 0.0008198853314706903
528.0, 0.0025810480135588314
529.0, 0.006656810559103114
530.0, 0.010959517777932026
531.0, 0.010224736338174376
532.0, 0.007977341979890475
533.0, 0.0065759684878912905
534.0, 0.0065729981611530285
535.0, 0.00871156451325792
536.0, 0.012689981490881153
537.0, 0.007732140762241583
538.0, 0.007963514707955829
539.0, 0.012843279064511342
540.0, 0.014347714480050629
541.0, 0.009085528491873107
542.0, 0.0076016770912637295
543.0, 0.008476345653568803
544.0, 0.0057162083595466906
545.0, 0.003942283760036014
546.0, 0.005413407003095871
547.0, 0.00440319272728317
548.0, 0.002492083312558651
549.0, 0.005033392327631379
550.0, 0.0071247194304928105
551.0, 0.007033737661522992
552.0, 0.013184407893574064
553.0, 0.018904876516695097
554.0, 0.02696896917422065
555.0, 0.03272331721902195
556.0, 0.035593881859626766
557.0, 0.03986281275033535
558.0, 0.05103446511884489
559.0, 0.06406269201905274
560.0, 0.0756958614545005
561.0, 0.08671187514818174
562.0, 0.09759100669398915
563.0, 0.10950754495884903
564.0, 0.12867545199445948
565.0, 0.14935646973102126
566.0, 0.16871922361837016
567.0, 0.19450034890312196
568.0, 0.22796903461360665
569.0, 0.26205942161565754
570.0, 0.29426240963420586
571.0, 0.3368071415262716
572.0, 0.3792208304485175
573.0, 0.4259431072781311
574.0, 0.4803434510338174
575.0, 0.5334349113971981
576.0, 0.5795520765092202
577.0, 0.636325869833537
578.0, 0.6913209382902503
579.0, 0.7429789072096263
580.0, 0.7979818296643754
581.0, 0.8510591512176678
582.0, 0.8988601249165372
583.0, 0.9440215254225447
584.0, 0.9777292046723858
585.0, 0.9957670423546838
586.0, 0.9983841830193626
587.0, 0.97734348069342
588.0, 0.9416226666310069
589.0, 0.8917493901197284
590.0, 0.8315673727199387
591.0, 0.7619209864768194
592.0, 0.6825802532941618
593.0, 0.6107388709552382
594.0, 0.550976708417305
595.0, 0.49410266632734673
596.0, 0.44133009426756303
597.0, 0.3973958053434509
598.0, 0.36005438848454463
599.0, 0.3314373465962821
600.0, 0.3025879214409844
601.0, 0.27480013635997824
602.0, 0.24956063848546142
603.0, 0.22550064852481186
604.0, 0.20115978002683044
605.0, 0.17537528243615175
606.0, 0.15044693812353618
607.0, 0.13114767768627517
608.0, 0.11378999147893515
609.0, 0.09334721722913887
610.0, 0.07853346135977679
611.0, 0.07031803464825936
612.0, 0.0690981658740274
613.0, 0.06725230501340713
614.0, 0.05980978922237009
615.0, 0.05259738994482937
616.0, 0.06307166190835886
617.0, 0.06636342154421664
618.0, 0.06809974957308414
619.0, 0.07703943912800522
620.0, 0.08714560921940348
621.0, 0.08921426121360285
622.0, 0.10276788148929136
623.0, 0.11588850198663901
624.0, 0.1212644201188072
625.0, 0.13431082319201265
626.0, 0.15842453922535
627.0, 0.17209047177682796
628.0, 0.1930684766722893
629.0, 0.21760217453955882
630.0, 0.2465185510387286
631.0, 0.277673584795497
632.0, 0.30703721971464487
633.0, 0.33408759321090875
634.0, 0.36532454709354745
635.0, 0.40627416876656763
636.0, 0.4382919844723742
637.0, 0.46850786066206745
638.0, 0.5082387670062327
639.0, 0.5474858962246275
640.0, 0.5797333857629346
641.0, 0.6102960741507566
642.0, 0.6306828613292288
643.0, 0.6452483422732882
644.0, 0.6580357839232527
645.0, 0.658033298183435
646.0, 0.6500052443213429
647.0, 0.6464544957273485
648.0, 0.6358779842565424
649.0, 0.6221436078013703
650.0, 0.6162407120226937
651.0, 0.6175268321882513
652.0, 0.611988742134888
653.0, 0.6039033465738107
654.0, 0.603041127724864
655.0, 0.6043359992142757
656.0, 0.6013750949979061
657.0, 0.5992073738585553
658.0, 0.5924572537265641
659.0, 0.5996300093402881
660.0, 0.6049933580960372
661.0, 0.6030317406634108
662.0, 0.6003547041978059
663.0, 0.6011402186225978
664.0, 0.6044221305990148
665.0, 0.6117038245244428
666.0, 0.6136071364053809
667.0, 0.6173162903346671
668.0, 0.6241313236063049
669.0, 0.6183236429991101
670.0, 0.6132056405696299
671.0, 0.5993053401789722
672.0, 0.578358192514204
673.0, 0.5551100162048683
674.0, 0.5243572374438763
675.0, 0.48003264385019123
676.0, 0.43991518755434195
677.0, 0.40005785543058103
678.0, 0.3523703994925449
679.0, 0.30939148447152587
680.0, 0.27837800900615506
681.0, 0.25190359817791447
682.0, 0.22221945044903454
683.0, 0.1956005435566205
684.0, 0.17555151307244274
685.0, 0.16034389205040375
686.0, 0.14386825638712158
687.0, 0.12598529567930347
688.0, 0.11790399915925684
689.0, 0.1074844253758627
690.0, 0.1001941346492691
691.0, 0.09481877960738207
692.0, 0.08777432978896109
693.0, 0.08050655268874392
694.0, 0.07927773145440493
695.0, 0.07397276584592122
696.0, 0.06525776966806361
697.0, 0.06050871805238215
698.0, 0.059699559089282116
699.0, 0.05919202687342292
700.0, 0.05694636215620361
701.0, 0.051420669875820155
702.0, 0.0519478826921706
703.0, 0.05005380230043662
704.0, 0.045408644338665816
705.0, 0.04252679660145297
706.0, 0.042734117937941
707.0, 0.03795293186373708
708.0, 0.035906599355170314
709.0, 0.0349433235750821
710.0, 0.03324086891039452
711.0, 0.03264500926669188
712.0, 0.03025668603279131
713.0, 0.0184568894216509
714.0, 0.0168060879856596
715.0, 0.014436410059572583
716.0, 0.013709734907880246
717.0, 0.012526168562812683
718.0, 0.008552834109882548
719.0, 0.005142510050737259
720.0, 0.00449739740368839
721.0, 0.004773935585003778
722.0, 0.0018646779124288652
723.0, 0.0026691628760646883
724.0, 0.0031506755409570607
725.0, 0.004055177127875367
726.0, 0.005824798610267921
727.0, 0.005560152020905904
728.0, 0.0062248831467548674
729.0, 0.005823639600101801
730.0, 0.0075119126206416795
731.0, 0.010493816786282206
732.0, 0.006218069281810284
733.0, 0.009304540029266166
734.0, 0.010434539401104724
735.0, 0.011608781344011623
736.0, 0.012654140795453043
737.0, 0.01278482455783608
738.0, 0.011269221969953436
739.0, 0.007496533790682798
740.0, 0.013868999483127682
741.0, 0.010353701437271446
742.0, 0.009417622863332323
743.0, 0.007244086274812324
744.0, 0.0006135159128990894
745.0, 0.0040522367757729605
746.0, 0.009522335813405948
747.0, 0.0058605614962599075
748.0, 0.001287598319891338
749.0, 0.006366592660540182
750.0, 0.009633180240252061
751.0, 0.012171863901089281
752.0, 0.017591425471170378
753.0, 0.019354676881907885
754.0, 0.025752476465175735
755.0, 0.03614434156710667
756.0, 0.04469305156912687
757.0, 0.05103811466072902
758.0, 0.06022655410241477
759.0, 0.07453982546847877
760.0, 0.08176477886169492
761.0, 0.09290108861424265
762.0, 0.1068005257735896
763.0, 0.11760578860520622
764.0, 0.12999976070473018
765.0, 0.15516662985010396
766.0, 0.17817748394728442
767.0, 0.1965143510991971
768.0, 0.21809528591397595
769.0, 0.2458942493595304
770.0, 0.2728739020506188
771.0, 0.2969676227827904
772.0, 0.33129560825947396
773.0, 0.3567206310082894
774.0, 0.3853175567699255
775.0, 0.4195541395456809
776.0, 0.45285096230439853
777.0, 0.48249892279660844
778.0, 0.5123452475996133
779.0, 0.5432357063626573
780.0, 0.5823025680843722
781.0, 0.6060455269731813
782.0, 0.6324958251885988
783.0, 0.6594899665857811
784.0, 0.6801541444732425
785.0, 0.7020660205464103
786.0, 0.7132417837589322
787.0, 0.7120964733407801
788.0, 0.7178237937166526
789.0, 0.7202528191699515
790.0, 0.716234566571757
791.0, 0.7076296320654685
792.0, 0.6919553609100618
793.0, 0.6794778720916343
794.0, 0.6640623115369028
795.0, 0.6376712606855334
796.0, 0.6061427984788855
797.0, 0.57761828998345
798.0, 0.548560313479039
799.0, 0.509609413910098
800.0, 0.4781412362005702
801.0, 0.43951443128101025
802.0, 0.40811880734200895
803.0, 0.37472426049495755
804.0, 0.33202679057310186
805.0, 0.2907960704598715
806.0, 0.26509015522552937
807.0, 0.23927440114113505
808.0, 0.20659148615855286
809.0, 0.17541811992854303
810.0, 0.14457170376797696
811.0, 0.11997030345161902
812.0, 0.10226833448889536
813.0, 0.07206983883644255
814.0, 0.050610971626775594
815.0, 0.03588220244415348
816.0, 0.022538090099085615
817.0, 0.01123410854715589
818.0, 0.003636397878317633
819.0, 0.00264140342838014
820.0, 0.006299588138170567
821.0, 0.0027793892124007226
822.0, 0.0036749261399771347
823.0, 0.00249390780859612
824.0, 0.003141336285382236
825.0, 0.005480599389800769
826.0, 0.009080712899968747
827.0, 0.012889188432938018
828.0, 0.015253053011104852
829.0, 0.02754650139362342
830.0, 0.039040157021440175
831.0, 0.044390489464116
832.0, 0.0524428171846708
833.0, 0.06640021511525401
834.0, 0.07772248156280834
835.0, 0.09044830371885915
836.0, 0.09561251803027808
837.0, 0.1122767411705582
838.0, 0.1293438874831765
839.0, 0.1421294093154558
840.0, 0.15399899953433077
841.0, 0.16587190299961033
842.0, 0.17862484634532996
843.0, 0.19418002013947472
844.0, 0.19273233568926768
845.0, 0.1957016995513936
846.0, 0.20198347107809514
847.0, 0.20225297653949623
848.0, 0.20214400222783827
849.0, 0.20661983667410289
850.0, 0.2042833168043998
851.0, 0.19567889679336076
852.0, 0.18908846853154188
853.0, 0.18179455303878256
854.0, 0.17730196839379805
855.0, 0.17545642117100052
856.0, 0.16444782993309567
857.0, 0.16662825846748852
858.0, 0.1678178452362498
859.0, 0.16782498199366624
860.0, 0.1685729851044779
861.0, 0.1751335908917218
862.0, 0.18631219542290903
863.0, 0.19722184158382558
864.0, 0.21441592430890075
865.0, 0.22810257989900068
866.0, 0.24151079888666377
867.0, 0.2532665940862069
868.0, 0.2692858828126321
869.0, 0.28722338474977843
870.0, 0.29780129582661946
871.0, 0.30021737885520733
872.0, 0.3032437046247366
873.0, 0.30617845404107796
874.0, 0.30198406985551074
875.0, 0.2924925738368736
876.0, 0.2793864219497815
877.0, 0.26556416884530537
878.0, 0.25309917576279256
879.0, 0.23354222567616148
880.0, 0.21861574202421538
881.0, 0.1962277358746716
882.0, 0.17942452160197997
883.0, 0.1700821873199679
884.0, 0.1604524222980379
885.0, 0.14743484613778024
886.0, 0.13723726701689345
887.0, 0.12823418219665733
888.0, 0.11886015923463329
889.0, 0.1150428930723834
890.0, 0.10100458072234285
891.0, 0.08907175514985834
892.0, 0.08471627775914259
893.0, 0.07622197439370884
894.0, 0.07201802919432453
895.0, 0.06145494271442474
896.0, 0.05974045518297954
897.0, 0.05971582492212794
898.0, 0.05458439854440991
899.0, 0.046741025297918355
900.0, 0.04167950487574597
901.0, 0.03841389549790505
902.0, 0.033641054982956345
903.0, 0.027084159250607687
904.0, 0.020585809869938538
905.0, 0.014036228759211782
906.0, 0.013319141373521068
907.0, 0.014091311070294139
908.0, 0.009526103270832151
909.0, 0.0052164139316419516
910.0, 0.006332901817596106
911.0, 0.004620364842107549
912.0, 0.006316760424997328
913.0, 0.010872243949872015
914.0, 0.014059225642334847
915.0, 0.01793383204501422
916.0, 0.023187756631920492
917.0, 0.025484027864473784
918.0, 0.03946012945075252
919.0, 0.047311799102338764
920.0, 0.06385214995339458
921.0, 0.08025645245297622
922.0, 0.0966224147114976
923.0, 0.11841038559463012
924.0, 0.14523133753780973
925.0, 0.17256006512710412
926.0, 0.20468431339749957
927.0, 0.24698189511096802
928.0, 0.28215966655006125
929.0, 0.3229181691455551
930.0, 0.3660660053490474
931.0, 0.4097687945120224
932.0, 0.4558012699404678
933.0, 0.4936815003491116
934.0, 0.5343521964420989
935.0, 0.5597537014889754
936.0, 0.574781912401989
937.0, 0.577037977495854
938.0, 0.5601349568388344
939.0, 0.5282409451448906
940.0, 0.4837125744215141
941.0, 0.4361545226672636
942.0, 0.3878817915500652
943.0, 0.3483824863677244
944.0, 0.3093533871528521
945.0, 0.2734711693096693
946.0, 0.24766350741372842
947.0, 0.2239824272742941
948.0, 0.19563524528022067
949.0, 0.1737169092388161
950.0, 0.15870756355213442
951.0, 0.13741773951691896
952.0, 0.1265595590661405
953.0, 0.11066243457085961
954.0, 0.09251794112874202
955.0, 0.07641118723367926
956.0, 0.060604057975959476
957.0, 0.04618110898629601
958.0, 0.03366274217648961
959.0, 0.01956189593416669
960.0, 0.019540201404023207
961.0, 0.01141909423579764
962.0, 0.0043058703140619655
963.0, 0.0024269704337421473
964.0, 0.01167577693947212
965.0, 0.019277141287981296
966.0, 0.019304796940295733
967.0, 0.01983980351077311
968.0, 0.012957354535252671
969.0, 0.015554155843003716
970.0, 0.012514087876934237
971.0, 0.011005155597335801
972.0, 0.010520287306638417
973.0, 0.004567584268980472
974.0, 0.005623113144244053
975.0, 0.014467874818414644
976.0, 0.026287324124732427
977.0, 0.0440333281770662
978.0, 0.06487667570001393
979.0, 0.09312121895890271
980.0, 0.12374986199683505
981.0, 0.15607849464586976
982.0, 0.19835378562270775
983.0, 0.2464426777769888
984.0, 0.2963235402081423
985.0, 0.34478697590674573
986.0, 0.4091731697385878
987.0, 0.4779994763780969
988.0, 0.5456635684632357
989.0, 0.6177226123933145
990.0, 0.6926825195082689
991.0, 0.7585181976918465
992.0, 0.8094855306034755
993.0, 0.8370306215919737
994.0, 0.8260595582106035
995.0, 0.7785882793940836
996.0, 0.6992755526904327
997.0, 0.5976822767807477
998.0, 0.49256987043789446
999.0, 0.4011640923869066
1000.0, 0.32864223996972564
1001.0, 0.27820424792685766
1002.0, 0.24524186948498264
1003.0, 0.22516094600622688
1004.0, 0.22189544709484582
1005.0, 0.2251322784074473
1006.0, 0.22468154102586724
1007.0, 0.2246344772644161
1008.0, 0.23268081655346354
1009.0, 0.24241179302406957
1010.0, 0.2448664565374678
1011.0, 0.2520894294530853
1012.0, 0.2612982624876477
1013.0, 0.27043244929029603
1014.0, 0.2779810163796076
1015.0, 0.2858017767710459
1016.0, 0.2957724096187844
1017.0, 0.30593692404000045
1018.0, 0.31204053485310296
1019.0, 0.3146287930168001
1020.0, 0.3198904541435053
1021.0, 0.331170164794879
1022.0, 0.327651619552763
1023.0, 0.32313730327045137
1024.0, 0.3170565946987471
1025.0, 0.306116375908761
1026.0, 0.2968424344394246
1027.0, 0.28347404919938946
1028.0, 0.27129563011067287
1029.0, 0.2493722225286498
1030.0, 0.22938872660214712
1031.0, 0.21102861918263435
1032.0, 0.19526854028226132
1033.0, 0.1804021918511312
1034.0, 0.16665290428520316
1035.0, 0.15557514373683226
1036.0, 0.143622199785275
1037.0, 0.1336364467635137
1038.0, 0.13186018099378968
1039.0, 0.12284050264822781
1040.0, 0.11353878979484346
1041.0, 0.10983478677836113
1042.0, 0.10815988411024191
1043.0, 0.106169708284593
1044.0, 0.09952673742619549
1045.0, 0.09003240497334736
1046.0, 0.09697677791469796
1047.0, 0.1017340833210827
1048.0, 0.10577554826825082
1049.0, 0.10931818985894841
1050.0, 0.11834100626825145
1051.0, 0.12531365901727212
1052.0, 0.1356127170854997
1053.0, 0.15113929717231042
1054.0, 0.16523592194979728
1055.0, 0.18083279406516445
1056.0, 0.1952077657381316
1057.0, 0.2111648680312819
1058.0, 0.227737697492813
1059.0, 0.24017908510008032
1060.0, 0.2563540170912782
1061.0, 0.2705741630256682
1062.0, 0.2798681310482559
1063.0, 0.29018475696127055
1064.0, 0.2877831242099765
1065.0, 0.2795343942423983
1066.0, 0.26958098559912835
1067.0, 0.2532657419054334
1068.0, 0.22762696681989586
1069.0, 0.19334800910676098
1070.0, 0.16095412384293595
1071.0, 0.1309999788800744
1072.0, 0.10199648464731904
1073.0, 0.07444512792515434
1074.0, 0.050157579931164535
1075.0, 0.03643969510548381
1076.0, 0.023312528331061996
1077.0, 0.01708934518322379
1078.0, 0.010436257130678445
1079.0, 0.009821944484946714
1080.0, 0.005825580191647762
1081.0, 0.0018854661939075497
1082.0, 0.0016484760437633311
1083.0, 0.005479164190334677
1084.0, 0.004990843526951576
1085.0, 0.0006965497414183218
1086.0, 0.0007547057186241982
1087.0, 0.00330219874130963
1088.0, 0.007057470146182622
1089.0, 0.0067737729214646875
1090.0, 0.005433914820332357
1091.0, 0.0038863065852856363
1092.0, 0.0022614760104582663
1093.0, 0.001960526346841104
1094.0, 0.001993044066241881
1095.0, 0.001966680236083771
1096.0, 0.0017599111917271848
1097.0, 0.00092982316693225
1098.0, 0.0008230870024360743
1099.0, 0.0026532558663274284
1100.0, 0.0028192225531356975
1101.0, 0.0018524335295630446
1102.0, 0.00217916533868552
1103.0, 0.0024159476563422244
1104.0, 0.002853695453497657
1105.0, 0.005345764751049252
1106.0, 0.005920225519027407
1107.0, 0.005471709562391531
1108.0, 0.007152814881848665
1109.0, 0.010215561751996415
1110.0, 0.01357411046548595
1111.0, 0.014175554166374296
1112.0, 0.013144818398276548
1113.0, 0.014115156385912262
1114.0, 0.01625687996962352
1115.0, 0.01708264910265301
1116.0, 0.01974082156371774
1117.0, 0.018486011900343435
1118.0, 0.020913798889888688
1119.0, 0.020040589315581284
1120.0, 0.017126664669005757
1121.0, 0.018698655131454023
1122.0, 0.016997370673615675
1123.0, 0.014365393268954358
1124.0, 0.018358447340471
1125.0, 0.021054794995754956
1126.0, 0.01863086836256314
1127.0, 0.019613809624571998
1128.0, 0.018710864983486064
1129.0, 0.018332097363849765
1130.0, 0.019104551989162194
1131.0, 0.022138649028771506
1132.0, 0.021804735963146703
1133.0, 0.022445008101191554
1134.0, 0.021072088352732377
1135.0, 0.015277591057223185
1136.0, 0.017050243722485214
1137.0, 0.017348486481519904
1138.0, 0.013924883859481525
1139.0, 0.01681371250999638
1140.0, 0.015113012485982789
1141.0, 0.016933184156401486
1142.0, 0.016349565789446793
1143.0, 0.01696624453807256
1144.0, 0.01947734232762317
1145.0, 0.02074180678773217
1146.0, 0.022624351939560132
1147.0, 0.025163526083346863
1148.0, 0.025355899318655756
1149.0, 0.030040789996715337
1150.0, 0.0370148325145046
1151.0, 0.03480762226065569
1152.0, 0.039413199355048015
1153.0, 0.04452851400394146
1154.0, 0.04924247705958311
1155.0, 0.05525040833721905
1156.0, 0.06283127187688789
1157.0, 0.06906333396943067
1158.0, 0.07031322584795864
1159.0, 0.07241927697685485
1160.0, 0.07536121466221322
1161.0, 0.07670698800284917
1162.0, 0.07761005479445526
1163.0, 0.07450015832881351
1164.0, 0.07294217325745919
1165.0, 0.06802628495717097
1166.0, 0.06401269998320958
1167.0, 0.060325365754253915
1168.0, 0.05366688115059498
1169.0, 0.04891781437981298
1170.0, 0.046690445954303175
1171.0, 0.04459106264200804
1172.0, 0.039455341259968406
1173.0, 0.03622055574782514
1174.0, 0.043631232560212806
1175.0, 0.0444650583934639
1176.0, 0.04788485409866862
1177.0, 0.047467117863115665
1178.0, 0.044700068032144
1179.0, 0.04357616904346273
1180.0, 0.03570918481030274
1181.0, 0.022823558547996108
1182.0, 0.023579366363065405
1183.0, 0.024230431172846744
1184.0, 0.0208646223168904
1185.0, 0.016625760608424276
1186.0, 0.019860998469943388
1187.0, 0.02019320418245409
1188.0, 0.01880641585428686
1189.0, 0.015645570921786763
1190.0, 0.013715660058032016
1191.0, 0.013127223910940233
1192.0, 0.01108225005833429
1193.0, 0.009495821737988923
1194.0, 0.008903753854802061
1195.0, 0.010777665700519311
1196.0, 0.005914812293633426
1197.0, 0.010715541383328694
1198.0, 0.009708929638998902
1199.0, 0.0050499880925349684
1200.0, 0.0018334881379749451
1201.0, 0.0039889839970537935
1202.0, 0.0057803391431711145
1203.0, 0.004842213941839776
1204.0, 0.005366918689079565
1205.0, 0.006115917610949839
1206.0, 0.004126805033273522
1207.0, 0.005107683729787636
1208.0, 0.001085272777352125
1209.0, 0.002538447934139843
1210.0, 0.0011630605685702443
1211.0, 0.0018476980894919048
1212.0, 0.00297433972219601
1213.0, 0.002322295870470616
1214.0, 0.0057479142606185725
1215.0, 0.004190443043143307
1216.0, 0.0021467240031788548
1217.0, 0.0011129960167244235
1218.0, 0.0013571988396501276
1219.0, 0.001831151584939296
1220.0, 0.004308472111528528
1221.0, 0.006441568027845713
1222.0, 0.003874541680013809
1223.0, 0.005695499339973227
1224.0, 0.004848913025868551
1225.0, 0.0048631748177719505
1226.0, 0.0029815128257018263
1227.0, 0.002187803092529118
1228.0, 0.0019049202118993711
1229.0, 0.0019329594591533897
1230.0, 0.004518836533931294
1231.0, 0.00527324041273341
1232.0, 0.0033217260553877925
1233.0, 0.006951226415074838
1234.0, 0.0009105554578463029
1235.0, 0.002993137365799783
1236.0, 0.0035744720299512446
1237.0, 0.004876948559479459
1238.0, 0.00291288247992237
1239.0, 0.0033130595929218554
1240.0, 0.002224860746953843
1241.0, 0.003919235554582527
1242.0, 0.003864690853769392
1243.0, 0.000793485663496018
1244.0, 0.0038486900734623075
1245.0, 0.0025666461119040157
1246.0, 0.002608309010182542
1247.0, 0.00458030684301074
1248.0, 0.0015707982615981199
1249.0, 0.0010203833697427253
1250.0, 0.0009747185113687764
1251.0, 0.0025199319118832473
1252.0, 0.0023106255043048836
1253.0, 0.005426304408371649
1254.0, 0.006997525278798744
1255.0, 0.003913269806574515
1256.0, 0.0022236771746396446
1257.0, 0.0037615503100222078
1258.0, 0.00298549899453089
1259.0, 0.0023654605253799546
1260.0, 0.0026508633178251913
1261.0, 0.0032758221236015984
1262.0, 0.0028303542943753173
1263.0, 0.005169161485633737
1264.0, 0.0015775154266250725
1265.0, 0.004763184457448462
1266.0, 0.0033072092967775463
1267.0, 0.001993392170695977
1268.0, 0.008241957818884513
1269.0, 0.008493089236632556
1270.0, 0.007206356162741299
1271.0, 0.009099812805453038
1272.0, 0.004541071404245503
1273.0, 0.0062428514734191665
1274.0, 0.008661760851049456
1275.0, 0.005508653236645027
1276.0, 0.0018366954476163077
1277.0, 0.0045622885988405686
1278.0, 0.005483543026482665
1279.0, 0.004898873976903578
1280.0, 0.003487615340156961
1281.0, 0.004319956914374702
1282.0, 0.0034904511478781102
1283.0, 0.0022805956721326315
1284.0, 0.0025007490851446513
1285.0, 0.0037730497954591826
1286.0, 0.005508272519473559
1287.0, 0.0048651804900673905
1288.0, 0.004926662378917799
1289.0, 0.006604454637779309
1290.0, 0.0038048321002222404
1291.0, 0.0009552113283956565
1292.0, 0.0016973919975449931
1293.0, 0.008026127347120202
1294.0, 0.0032122125232725758
1295.0, 0.001232751212750797
1296.0, 0.002899612903449107
1297.0, 0.003983497645686305
1298.0, 0.00389880374613392
1299.0, 0.0025266582308405726
1300.0, 0.0030161657607227915
1301.0, 0.003216205246071266
1302, 0.0
1303, 0.0
1304, 0.0
1305, 0.0
1306, 0.0
1307, 0.0
1308, 0.0
1309, 0.0
1310, 0.0
1311, 0.0
1312, 0.0
1313, 0.0
1314, 0.0
1315, 0.0
1316, 0.0
1317, 0.0
1318, 0.0
1319, 0.0
1320, 0.0
1321, 0.0
1322, 0.0
1323, 0.0
1324, 0.0
1325, 0.0
1326, 0.0
1327, 0.0
1328, 0.0
1329, 0.0
1330, 0.0
1331, 0.0
1332, 0.0
1333, 0.0
1334, 0.0
1335, 0.0
1336, 0.0
1337, 0.0
1338, 0.0
1339, 0.0
1340, 0.0
1341, 0.0
1342, 0.0
1343, 0.0
1344, 0.0
1345, 0.0
1346, 0.0
1347, 0.0
1348, 0.0
1349, 0.0
1350, 0.0
1351, 0.0
1352, 0.0
1353, 0.0
1354, 0.0
1355, 0.0
1356, 0.0
1357, 0.0
1358, 0.0
1359, 0.0
1360, 0.0
1361, 0.0
1362, 0.0
1363, 0.0
1364, 0.0
1365, 0.0
1366, 0.0
1367, 0.0
1368, 0.0
1369, 0.0
1370, 0.0
1371, 0.0
1372, 0.0
1373, 0.0
1374, 0.0
1375, 0.0
1376, 0.0
1377, 0.0
1378, 0.0
1379, 0.0
1380, 0.0
1381, 0.0
1382, 0.0
1383, 0.0
1384, 0.0
1385, 0.0
1386, 0.0
1387, 0.0
1388, 0.0
1389, 0.0
1390, 0.0
1391, 0.0
1392, 0.0
1393, 0.0
1394, 0.0
1395, 0.0
1396, 0.0
1397, 0.0
1398, 0.0
1399, 0.0
1400, 0.0
1401, 0.0
1402, 0.0
1403, 0.0
1404, 0.0
1405, 0.0
1406, 0.0
1407, 0.0
1408, 0.0
1409, 0.0
1410, 0.0
1411, 0.0
1412, 0.0
1413, 0.0
1414, 0.0
1415, 0.0
1416, 0.0
1417, 0.0
1418, 0.0
1419, 0.0
1420, 0.0
1421, 0.0
1422, 0.0
1423, 0.0
1424, 0.0
1425, 0.0
1426, 0.0
1427, 0.0
1428, 0.0
1429, 0.0
1430, 0.0
1431, 0.0
1432, 0.0
1433, 0.0
1434, 0.0
1435, 0.0
1436, 0.0
1437, 0.0
1438, 0.0
1439, 0.0
1440, 0.0
1441, 0.0
1442, 0.0
1443, 0.0
1444, 0.0
1445, 0.0
1446, 0.0
1447, 0.0
1448, 0.0
1449, 0.0
1450, 0.0
1451, 0.0
1452, 0.0
1453, 0.0
1454, 0.0
1455, 0.0
1456, 0.0
1457, 0.0
1458, 0.0
1459, 0.0
1460, 0.0
1461, 0.0
1462, 0.0
1463, 0.0
1464, 0.0
1465, 0.0
1466, 0.0
1467, 0.0
1468, 0.0
1469, 0.0
1470, 0.0
1471, 0.0
1472, 0.0
1473, 0.0
1474, 0.0
1475, 0.0
1476, 0.0
1477, 0.0
1478, 0.0
1479, 0.0
1480, 0.0
1481, 0.0
1482, 0.0
1483, 0.0
1484, 0.0
1485, 0.0
1486, 0.0
1487, 0.0
1488, 0.0
1489, 0.0
1490, 0.0
1491, 0.0
1492, 0.0
1493, 0.0
1494, 0.0
1495, 0.0
1496, 0.0
1497, 0.0
1498, 0.0
1499, 0.0
1500, 0.0
1501, 0.0
1502, 0.0
1503, 0.0
1504, 0.0
1505, 0.0
1506, 0.0
1507, 0.0
1508, 0.0
1509, 0.0
1510, 0.0
1511, 0.0
1512, 0.0
1513, 0.0
1514, 0.0
1515, 0.0
1516, 0.0
1517, 0.0
1518, 0.0
1519, 0.0
1520, 0.0
1521, 0.0
1522, 0.0
1523, 0.0
1524, 0.0
1525, 0.0
1526, 0.0
1527, 0.0
1528, 0.0
1529, 0.0
1530, 0.0
1531, 0.0
1532, 0.0
1533, 0.0
1534, 0.0
1535, 0.0
1536, 0.0
1537, 0.0
1538, 0.0
1539, 0.0
1540, 0.0
1541, 0.0
1542, 0.0
1543, 0.0
1544, 0.0
1545, 0.0
1546, 0.0
1547, 0.0
1548, 0.0
1549, 0.0
1550, 0.0
1551, 0.0
1552, 0.0
1553, 0.0
1554, 0.0
1555, 0.0
1556, 0.0
1557, 0.0
1558, 0.0
1559, 0.0
1560, 0.0
1561, 0.0
1562, 0.0
1563, 0.0
1564, 0.0
1565, 0.0
1566, 0.0
1567, 0.0
1568, 0.0
1569, 0.0
1570, 0.0
1571, 0.0
1572, 0.0
1573, 0.0
1574, 0.0
1575, 0.0
1576, 0.0
1577, 0.0
1578, 0.0
1579, 0.0
1580, 0.0
1581, 0.0
1582, 0.0
1583, 0.0
1584, 0.0
1585, 0.0
1586, 0.0
1587, 0.0
1588, 0.0
1589, 0.0
1590, 0.0
1591, 0.0
1592, 0.0
1593, 0.0
1594, 0.0
1595, 0.0
1596, 0.0
1597, 0.0
1598, 0.0
1599, 0.0
