30, 0.0
31, 0.0
32, 0.0
33, 0.0
34, 0.0
35, 0.0
36, 0.0
37, 0.0
38, 0.0
39, 0.0
40, 0.0
41, 0.0
42, 0.0
43, 0.0
44, 0.0
45, 0.0
46, 0.0
47, 0.0
48, 0.0
49, 0.0
50, 0.0
51, 0.0
52, 0.0
53, 0.0
54, 0.0
55, 0.0
56, 0.0
57, 0.0
58, 0.0
59, 0.0
60, 0.0
61, 0.0
62, 0.0
63, 0.0
64, 0.0
65, 0.0
66, 0.0
67, 0.0
68, 0.0
69, 0.0
70, 0.0
71, 0.0
72, 0.0
73, 0.0
74, 0.0
75, 0.0
76, 0.0
77, 0.0
78, 0.0
79, 0.0
80, 0.0
81, 0.0
82, 0.0
83, 0.0
84, 0.0
85, 0.0
86, 0.0
87, 0.0
88, 0.0
89, 0.0
90, 0.0
91, 0.0
92, 0.0
93, 0.0
94, 0.0
95, 0.0
96, 0.0
97, 0.0
98, 0.0
99, 0.0
100, 0.0
101, 0.0
102, 0.0
103, 0.0
104, 0.0
105, 0.0
106, 0.0
107, 0.0
108, 0.0
109, 0.0
110, 0.0
111, 0.0
112, 0.0
113, 0.0
114, 0.0
115, 0.0
116, 0.0
117, 0.0
118, 0.0
119, 0.0
120, 0.0
121, 0.0
122, 0.0
123, 0.0
124, 0.0
125, 0.0
126, 0.0
127, 0.0
128, 0.0
129, 0.0
130, 0.0
131, 0.0
132, 0.0
133, 0.0
134, 0.0
135, 0.0
136, 0.0
137, 0.0
138, 0.0
139, 0.0
140, 0.0
141, 0.0
142, 0.0
143, 0.0
144, 0.0
145, 0.0
146, 0.0
147, 0.0
148, 0.0
149, 0.0
150, 0.0
151, 0.0
152.0, 0.0038663251615334822
153.0, 0.003654477231337185
154.0, 0.0007296255585144058
155.0, 0.005508076329146991
156.0, 0.005040413690311956
157.0, 0.002536259730263067
158.0, 0.0058384248836107835
159.0, 0.02267812436811569
160.0, 0.042879059398215354
161.0, 0.06500390907241704
162.0, 0.09013000709645376
163.0, 0.11768092719468447
164.0, 0.14817297082216813
165.0, 0.18757599127205102
166.0, 0.23277534784263282
167.0, 0.2689148481543543
168.0, 0.30728672734289036
169.0, 0.3307453074245889
170.0, 0.31975194742679663
171.0, 0.26004463177032494
172.0, 0.19881159834404402
173.0, 0.1419045549618609
174.0, 0.09581210043149048
175.0, 0.06858018167563747
176.0, 0.057842406356123435
177.0, 0.047576773900696215
178.0, 0.038787515605873804
179.0, 0.035243182921812166
180.0, 0.03474477324000173
181.0, 0.03859140614356244
182.0, 0.038553535869345755
183.0, 0.03467104846984901
184.0, 0.03261267873835674
185.0, 0.01162959488324463
186.0, 0.0009475683600328968
187.0, 0.0013002095384115659
188.0, 0.004876373825576731
189.0, 0.0036277550269500926
190.0, 0.0007856004192379046
191.0, 0.005104337282724169
192.0, 0.015434994101169195
193.0, 0.026706484931943972
194.0, 0.030634619936878365
195.0, 0.038614592821709204
196.0, 0.054000582921615164
197.0, 0.07247731616248357
198.0, 0.0877900677314124
199.0, 0.10554214129411278
200.0, 0.12925639082248985
201.0, 0.15620400426989095
202.0, 0.1776501256258387
203.0, 0.1949565255937424
204.0, 0.21449148187926476
205.0, 0.2368527719692817
206.0, 0.25403543425729264
207.0, 0.2580813434718056
208.0, 0.2543232913040487
209.0, 0.24682750716577737
210.0, 0.23741712809992316
211.0, 0.22152895903430897
212.0, 0.2127113079622784
213.0, 0.2033333910770813
214.0, 0.18878663824163333
215.0, 0.19178758407135174
216.0, 0.1794978490100554
217.0, 0.16694779381270247
218.0, 0.16203167632654245
219.0, 0.15415635064560596
220.0, 0.14504811345027604
221.0, 0.14729016117425273
222.0, 0.14895683009029873
223.0, 0.13530478214892022
224.0, 0.14565552298713763
225.0, 0.14760925788312343
226.0, 0.14498154500771504
227.0, 0.14592019628982403
228.0, 0.15134398331282276
229.0, 0.14514492372089696
230.0, 0.13846818030039945
231.0, 0.13143761680545096
232.0, 0.11633925640229191
233.0, 0.09820143241939651
234.0, 0.08248121299985083
235.0, 0.06302645728350026
236.0, 0.03892902326865068
237.0, 0.023897139326880153
238.0, 0.016057377525585094
239.0, 0.01524878129091724
240.0, 0.012683341999816754
241.0, 0.0018228144168770614
242.0, 0.004359493189044023
243.0, 0.005192039987923378
244.0, 0.005774891764262464
245.0, 0.0027870650281734523
246.0, 0.00572718478262731
247.0, 0.015401901400435437
248.0, 0.018669451046553282
249.0, 0.016784879413588128
250.0, 0.016440594536396402
251.0, 0.01641445258320613
252.0, 0.016017204898664948
253.0, 0.020126591803402646
254.0, 0.027726962498443017
255.0, 0.01988548660392004
256.0, 0.017840244909738994
257.0, 0.013772237307070674
258.0, 0.005683918882411448
259.0, 0.0014293721168779903
260.0, 0.004155602713340143
261.0, 0.005476443792917607
262.0, 0.009436918580975059
263.0, 0.018466987296416368
264.0, 0.01897303171380691
265.0, 0.02395270007676559
266.0, 0.031190414767422788
267.0, 0.0351021064145189
268.0, 0.031082714287084492
269.0, 0.02593082380381252
270.0, 0.02103497987371445
271.0, 0.01709918835053825
272.0, 0.013948551014043457
273.0, 0.010322006420572714
274.0, 0.006384099626523454
275.0, 0.0019058920564090293
276.0, 0.0022744552686806817
277.0, 0.004703068449492478
278.0, 0.0038179621911636043
279.0, 0.00441946716873746
280.0, 0.00676371770123316
281.0, 0.005506602961854032
282.0, 0.006244543598300102
283.0, 0.004562708514347172
284.0, 0.005754952397032257
285.0, 0.012096635334499093
286.0, 0.015300722782807
287.0, 0.01485638765482005
288.0, 0.01737695792069762
289.0, 0.029013993926518197
290.0, 0.04235367662738603
291.0, 0.042615969794411644
292.0, 0.05487871157108973
293.0, 0.06574347105854793
294.0, 0.07226616187865813
295.0, 0.07828057454949303
296.0, 0.0871596859933233
297.0, 0.09457308038039651
298.0, 0.09875041629660075
299.0, 0.09334803249150601
300.0, 0.07554852500515656
301.0, 0.06023813610556372
302.0, 0.05754287569467115
303.0, 0.04892533345486774
304.0, 0.030257094350878967
305.0, 0.020916760843889177
306.0, 0.010168672089042614
307.0, 0.007413099014186089
308.0, 0.010167532919878665
309.0, 0.01093435427370116
310.0, 0.00884331180370026
311.0, 0.012028648068464178
312.0, 0.01619587140878702
313.0, 0.014276201554632145
314.0, 0.005417041380862012
315.0, 0.006201608257184618
316.0, 0.010704637174526205
317.0, 0.0045158764921343275
318.0, 0.007951754631966026
319.0, 0.0010052474995854391
320.0, 0.010104177560452314
321.0, 0.00912425713138443
322.0, 0.004039346099834046
323.0, 0.005965430131304061
324.0, 0.018613761018841792
325.0, 0.018149373686174183
326.0, 0.01508586970541683
327.0, 0.017288702606015446
328.0, 0.024108143185445303
329.0, 0.026047896118500783
330.0, 0.03578123105855363
331.0, 0.04977276082322195
332.0, 0.06087834434108403
333.0, 0.06273861789302576
334.0, 0.07314933836585001
335.0, 0.08393479565532523
336.0, 0.09119115910372061
337.0, 0.09457147307065764
338.0, 0.09559473525370353
339.0, 0.09221499200311395
340.0, 0.0964629313477471
341.0, 0.1016665723356531
342.0, 0.09911004114442376
343.0, 0.111174363159839
344.0, 0.11525545990145067
345.0, 0.11383177575367642
346.0, 0.11333228098598049
347.0, 0.11243822084898882
348.0, 0.09136121500739729
349.0, 0.07935565656357035
350.0, 0.0706835448924615
351.0, 0.05525447997909314
352.0, 0.03855673668055679
353.0, 0.029395474298366375
354.0, 0.03633270554036434
355.0, 0.043869443888630746
356.0, 0.04200259986385443
357.0, 0.042684146574224834
358.0, 0.05225850931786734
359.0, 0.06918343565268892
360.0, 0.0886291086906777
361.0, 0.10612761897384787
362.0, 0.12167946946025823
363.0, 0.14860968070680589
364.0, 0.16546983750994465
365.0, 0.18203069449878292
366.0, 0.21801766644481163
367.0, 0.24119978178526275
368.0, 0.2613023749155758
369.0, 0.2864455093970247
370.0, 0.3133186009703644
371.0, 0.33313213669908665
372.0, 0.3295772572829829
373.0, 0.3169039498955472
374.0, 0.2945343415308076
375.0, 0.2633699846929423
376.0, 0.22939280682774477
377.0, 0.17855491448053762
378.0, 0.14078865066956317
379.0, 0.11729055117263863
380.0, 0.09634912075403128
381.0, 0.07502685954555527
382.0, 0.06469374457956832
383.0, 0.05451754378781564
384.0, 0.050504921883790514
385.0, 0.054521412572672213
386.0, 0.045917206609326786
387.0, 0.04404802832492336
388.0, 0.03917851480097542
389.0, 0.029894081561673443
390.0, 0.02324412935336627
391.0, 0.029181808128553935
392.0, 0.02960148677490543
393.0, 0.023635537286924812
394.0, 0.017806795923259757
395.0, 0.017309536384379254
396.0, 0.023341319570925244
397.0, 0.029559443017363442
398.0, 0.02688111404676437
399.0, 0.020761924077533425
400.0, 0.022951757428558203
401.0, 0.029384140597509233
402.0, 0.025590922055178027
403.0, 0.02189309962917456
404.0, 0.024750596590100805
405.0, 0.03208386664771877
406.0, 0.03592012213461213
407.0, 0.03825949962033994
408.0, 0.03895195555680468
409.0, 0.039807391273692275
410.0, 0.041984215627848286
411.0, 0.03671269760158009
412.0, 0.03370198394519772
413.0, 0.027586900290479534
414.0, 0.024251223699299662
415.0, 0.031762551383017056
416.0, 0.02129781147257412
417.0, 0.012859588907344635
418.0, 0.009227812496766807
419.0, 0.009582868525368219
420.0, 0.01444937632341533
421.0, 0.01898808128861988
422.0, 0.01685382730957391
423.0, 0.019572675091053034
424.0, 0.02784125266167248
425.0, 0.03230861906402295
426.0, 0.03101245888194205
427.0, 0.039523636253197825
428.0, 0.045697490165066613
429.0, 0.04744358057277282
430.0, 0.0544354270820405
431.0, 0.05768430550756523
432.0, 0.05275935533709757
433.0, 0.054973629116484714
434.0, 0.054491432592710394
435.0, 0.03424135545703411
436.0, 0.0395931824311465
437.0, 0.03477287285077732
438.0, 0.023487839194382944
439.0, 0.018925003548520062
440.0, 0.0226991348517054
441.0, 0.011508647582052885
442.0, 0.0033103662722644626
443.0, 0.0006671102037260365
444.0, 0.0032657028233413973
445.0, 0.006536449538906241
446.0, 0.01303441460050032
447.0, 0.005834503154701427
448.0, 0.001144245479772577
449.0, 0.0012350895668170098
450.0, 0.0013858982912241247
451.0, 0.0019622952239061442
452.0, 0.0006307006401440906
453.0, 0.0063160785671434886
454.0, 0.009962740667254234
455.0, 0.006980290791568149
456.0, 0.0027804871831423284
457.0, 0.012600710668233215
458.0, 0.008833975689298718
459.0, 0.0007071864799505966
460.0, 0.001416704084779677
461.0, 0.0009057052998754128
462.0, 0.011887614655165276
463.0, 0.01247799345152126
464.0, 0.0105718802971933
465.0, 0.018121918892640743
466.0, 0.02512103909458252
467.0, 0.027174826229936694
468.0, 0.03519450221506935
469.0, 0.047043800110701826
470.0, 0.05587445315307233
471.0, 0.056211329176174614
472.0, 0.05831920157433588
473.0, 0.06553495450715528
474.0, 0.07391753429664531
475.0, 0.07706418219515614
476.0, 0.07327358135738843
477.0, 0.07399431768510073
478.0, 0.07118994319287873
479.0, 0.06602925648173304
480.0, 0.06056360837612134
481.0, 0.0536811892808913
482.0, 0.0413786916781328
483.0, 0.03927961081800816
484.0, 0.038029300826246594
485.0, 0.029994972163257073
486.0, 0.018084188509053186
487.0, 0.01716680314376059
488.0, 0.024250674133259164
489.0, 0.025777154078899262
490.0, 0.020182855697931726
491.0, 0.014128343572604195
492.0, 0.014862474824736844
493.0, 0.021052933886397313
494.0, 0.019301795913618153
495.0, 0.016295933438638492
496.0, 0.01568848886033431
497.0, 0.011220775831799593
498.0, 0.023771041454137536
499.0, 0.01970723085188341
500.0, 0.019281811799535253
501.0, 0.029405818190620027
502.0, 0.03158097217812925
503.0, 0.023773257783212928
504.0, 0.031979709945326756
505.0, 0.041731652592489274
506.0, 0.048176180560034795
507.0, 0.053280776598053
508.0, 0.04777010561312005
509.0, 0.059870928169990054
510.0, 0.06797207521009214
511.0, 0.0682312619168148
512.0, 0.07384969221818119
513.0, 0.09097407038536653
514.0, 0.09991173857641496
515.0, 0.10310416305232475
516.0, 0.10232547168773681
517.0, 0.10243057844805077
518.0, 0.10881852973245713
519.0, 0.12035888838806931
520.0, 0.12414609701984804
521.0, 0.12935138944025265
522.0, 0.13612883635967818
523.0, 0.14169001347985655
524.0, 0.15602254597636817
525.0, 0.1641331923457793
526.0, 0.17365402465778626
527.0, 0.18406365249618903
528.0, 0.2001777974672496
529.0, 0.23285730627005088
530.0, 0.24994030908474385
531.0, 0.2692725507930423
532.0, 0.29387914145681526
533.0, 0.31981162927269063
534.0, 0.3435202528335218
535.0, 0.3571426540934344
536.0, 0.3755602396999941
537.0, 0.39524923147188795
538.0, 0.4083650525716954
539.0, 0.41105367603973264
540.0, 0.40961605968602754
541.0, 0.41322102374046965
542.0, 0.40576281639219935
543.0, 0.3801394621930329
544.0, 0.3495544904597837
545.0, 0.32903173428887983
546.0, 0.28552562206473425
547.0, 0.2638985659188178
548.0, 0.23685760399930889
549.0, 0.2010696271726305
550.0, 0.173663716584338
551.0, 0.1669900216894128
552.0, 0.14642073799573377
553.0, 0.13789070086446004
554.0, 0.13245808583300975
555.0, 0.11937386459015646
556.0, 0.11104925064297812
557.0, 0.1074791990609708
558.0, 0.10457273773560385
559.0, 0.10375967234093392
560.0, 0.09928976368082196
561.0, 0.08966732716426283
562.0, 0.09266038537378621
563.0, 0.08992775539453722
564.0, 0.08520954347082163
565.0, 0.0839776946909831
566.0, 0.08601224128856756
567.0, 0.08682162101783938
568.0, 0.09099390155543206
569.0, 0.08776881299111003
570.0, 0.08772575057949888
571.0, 0.09314331061576617
572.0, 0.09867019631499489
573.0, 0.1037149151639511
574.0, 0.10669331888420606
575.0, 0.11241281784176708
576.0, 0.11245446107265415
577.0, 0.10952331266051607
578.0, 0.11663303298306324
579.0, 0.1214274341559528
580.0, 0.12034262693045833
581.0, 0.1159863020314731
582.0, 0.11956972655873462
583.0, 0.12960080167860516
584.0, 0.12683103856243086
585.0, 0.12068332353207747
586.0, 0.11837978347263009
587.0, 0.11281194490908433
588.0, 0.10252365467527517
589.0, 0.09182535640136137
590.0, 0.08262967942841391
591.0, 0.06819267627697533
592.0, 0.05241306473907758
593.0, 0.042057116221420714
594.0, 0.03773421990956732
595.0, 0.03338503104289221
596.0, 0.027542588174681856
597.0, 0.019392315329252705
598.0, 0.017321969259408543
599.0, 0.014511098836176132
600.0, 0.006918385616879823
601.0, 0.011593353536199565
602.0, 0.0013496709119673125
603.0, 0.0007242351493529194
604.0, 0.004837756884990041
605.0, 0.0028881166005016736
606.0, 0.003334856482231119
607.0, 0.0009679711302137652
608.0, 0.0010782363951008995
609.0, 0.00224913565492201
610.0, 0.002809547884387842
611.0, 0.0009330831068626839
612.0, 0.002895124855684582
613.0, 0.0039262433903763955
614.0, 0.0018540927012999945
615.0, 0.0012087508670924334
616.0, 0.006975466727631507
617.0, 0.007578930762563044
618.0, 0.012403580486683273
619.0, 0.003975932084999461
620.0, 0.0004217074599278933
621.0, 0.000982759178584492
622.0, 0.0009568258960502277
623.0, 0.00204732736704059
624.0, 0.0030719954801297967
625.0, 0.0026919181277246292
626.0, 0.004380261791473277
627.0, 0.002792161335798212
628.0, 0.0045047357440320965
629.0, 0.010857957897582128
630.0, 0.010727937516740962
631.0, 0.006040356812065745
632.0, 0.00895768742221927
633.0, 0.00925489977406927
634.0, 0.009816406828457143
635.0, 0.02091241242009889
636.0, 0.018390185207804118
637.0, 0.010024045726504994
638.0, 0.010481410418098913
639.0, 0.018471859143277754
640.0, 0.02491302738909526
641.0, 0.024801399283868642
642.0, 0.026965901339124992
643.0, 0.03410822480282905
644.0, 0.031010841648557955
645.0, 0.03523159375326818
646.0, 0.049597359417881536
647.0, 0.048267154279436085
648.0, 0.05492874701553717
649.0, 0.058137415701104735
650.0, 0.07209132946639854
651.0, 0.08503597032716298
652.0, 0.08679899273396906
653.0, 0.09053112861674431
654.0, 0.10079493126346721
655.0, 0.12395391211479823
656.0, 0.13316009429258804
657.0, 0.1367590880011908
658.0, 0.14898826599101084
659.0, 0.16451326228120106
660.0, 0.18294105404897001
661.0, 0.20332367884657104
662.0, 0.21812515667692828
663.0, 0.23098769446126513
664.0, 0.24447595671218486
665.0, 0.2542232291680592
666.0, 0.27767662350160716
667.0, 0.27344512005843363
668.0, 0.2745292135993904
669.0, 0.2833014413218706
670.0, 0.28697904108836564
671.0, 0.2846813561200792
672.0, 0.27845371637484945
673.0, 0.2749846930276381
674.0, 0.26886710773246975
675.0, 0.25538399604356415
676.0, 0.23545473768470415
677.0, 0.21709821824454922
678.0, 0.20162737826727592
679.0, 0.17848869496684544
680.0, 0.1596961980747185
681.0, 0.14091052356837488
682.0, 0.1168175876751795
683.0, 0.09762108711373811
684.0, 0.08779936264324689
685.0, 0.0810154849981474
686.0, 0.06861935346308809
687.0, 0.055271917870548304
688.0, 0.048365774480229266
689.0, 0.04759711063819833
690.0, 0.044674945967631954
691.0, 0.039773119004528144
692.0, 0.035947848584868256
693.0, 0.03242714688526015
694.0, 0.027958408982074405
695.0, 0.022376108285679725
696.0, 0.014660336439053807
697.0, 0.014836599882865377
698.0, 0.016855041437053204
699.0, 0.012348282573097393
700.0, 0.0062253667402588295
701.0, 0.008386505042826517
702.0, 0.011012783917508234
703.0, 0.0040302452108703
704.0, 0.0023270586033653034
705.0, 0.004584953353553148
706.0, 0.008704500268372325
707.0, 0.0027187135106078856
708.0, 0.006335621888498429
709.0, 0.0031116354615977546
710.0, 0.007945030648040677
711.0, 0.012526096314311707
712.0, 0.009165924750641798
713.0, 0.0035671719339293163
714.0, 0.006616194045575116
715.0, 0.002317193846137015
716.0, 0.0014800466062583214
717.0, 0.007780835799247339
718.0, 0.005317986711170183
719.0, 0.0046686780858946324
720.0, 0.0034165345283258468
721.0, 0.003505530336230358
722.0, 0.0009182188796952265
723.0, 0.0010109578165266413
724.0, 0.0037984578699426716
725.0, 0.003872143069182314
726.0, 0.00044244996817877227
727.0, 0.0022859724894652976
728.0, 0.005556848610209513
729.0, 0.0017733043990535336
730.0, 0.007645968115549584
731.0, 0.014983498385586685
732.0, 0.01253449657647601
733.0, 0.01206893675666634
734.0, 0.014447373729361177
735.0, 0.011213041281598904
736.0, 0.013213777738142255
737.0, 0.02048854492482792
738.0, 0.02469878072292311
739.0, 0.01981754864117035
740.0, 0.01106936868051142
741.0, 0.01561179288434544
742.0, 0.018483486165048912
743.0, 0.023577474639855038
744.0, 0.02784603999693501
745.0, 0.025797213744767827
746.0, 0.025584798795787955
747.0, 0.022408516969393794
748.0, 0.02093859148927862
749.0, 0.017740083880622808
750.0, 0.013517613525662015
751.0, 0.011389064599563507
752.0, 0.01429397411987849
753.0, 0.018878189975253156
754.0, 0.015243156809695046
755.0, 0.015736775367297482
756.0, 0.013629743539219091
757.0, 0.012568534693766615
758.0, 0.017911886459107105
759.0, 0.015864665585686485
760.0, 0.020865877092352166
761.0, 0.0325992233201439
762.0, 0.03173428156372205
763.0, 0.02993834365176574
764.0, 0.03469837923011496
765.0, 0.03522483239450996
766.0, 0.03541502116164472
767.0, 0.038250420798520965
768.0, 0.045544464423188026
769.0, 0.0430253753699231
770.0, 0.03776517673725867
771.0, 0.037446781948912454
772.0, 0.02924106211897149
773.0, 0.032561049252262116
774.0, 0.032597628915180206
775.0, 0.030837091578984017
776.0, 0.027338716950141437
777.0, 0.019793788843586936
778.0, 0.012424550521796017
779.0, 0.019580226579863105
780.0, 0.014221459718886347
781.0, 0.015888482371531815
782.0, 0.01736043553992582
783.0, 0.012245690073710737
784.0, 0.007600007603581307
785.0, 0.01154779014438847
786.0, 0.014704367357521696
787.0, 0.016552035324569895
788.0, 0.013927528913579906
789.0, 0.0071898766327049245
790.0, 0.0007967953255646489
791.0, 0.0014616196946395388
792.0, 0.010650716410882319
793.0, 0.01697135780196809
794.0, 0.009635428435663694
795.0, 0.011504136136657685
796.0, 0.010759711874206835
797.0, 0.0069069353174902115
798.0, 0.009070438463285334
799.0, 0.0007938788033265328
800.0, 0.002194388166762636
801.0, 0.013490962077960609
802.0, 0.009428378770681358
803.0, 0.005696222804289595
804.0, 0.007253073098158667
805.0, 0.00018902688027293637
806.0, 0.00248384169662552
807.0, 0.001708787852430144
808.0, 0.004603830940148908
809.0, 0.002572794902845803
810.0, 0.0024648546571475203
811.0, 0.004612395260459069
812.0, 0.000710699425526812
813.0, 0.0015895440515306127
814.0, 0.008159837443626439
815.0, 0.002651589201575454
816.0, 0.0002946098331623704
817.0, 0.0009427292169380376
818.0, 0.0015443694191675222
819.0, 0.0040057344373148765
820.0, 0.0059429756064035034
821.0, 0.007826175227411117
822.0, 0.002751576563833047
823.0, 0.004542031456392277
824.0, 0.0009030606045272952
825.0, 0.00527811550875987
826.0, 0.010144135126825767
827.0, 0.0016986666271783407
828.0, 0.004910035226002046
829.0, 0.0026154066748147837
830.0, 0.00278599130379392
831.0, 0.0014092655553622642
832.0, 0.005139587487057652
833.0, 0.0016803188481443409
834.0, 0.00027565972122067117
835.0, 0.0016319130499960794
836.0, 0.003086208721479654
837.0, 0.0018483634263871678
838.0, 0.0034046707636851605
839.0, 0.003946088681781281
840.0, 0.0008802267342736041
841.0, 0.0014527999770821232
842.0, 0.004499449498431989
843.0, 0.001347538324859272
844.0, 0.0019173993873261815
845.0, 0.0034005662585120983
846.0, 0.0018018915124373815
847.0, 0.002573728443565201
848.0, 0.0026602229615107827
849.0, 0.005554362501347255
850.0, 0.007342993208763902
851.0, 0.005960140435704408
852.0, 0.010240168695904254
853.0, 0.012541733701357834
854.0, 0.0026363702138424367
855.0, 0.002163993842069479
856.0, 0.003200672056837028
857.0, 0.011831351147425085
858.0, 0.009760268578327078
859.0, 0.006904844437939941
860.0, 0.008479294925191025
861.0, 0.007746261525176851
862.0, 0.005529699994925779
863.0, 0.015023028687665986
864.0, 0.010664779687304102
865.0, 0.011081978357675926
866.0, 0.01699697340629539
867.0, 0.028386407397275173
868.0, 0.03780909090433716
869.0, 0.030920604491402565
870.0, 0.040243780669647164
871.0, 0.035757056116990565
872.0, 0.04228733876907774
873.0, 0.04809823865509577
874.0, 0.04632114527863368
875.0, 0.04810701493514561
876.0, 0.06002458547322458
877.0, 0.06505210927118145
878.0, 0.06553418211107731
879.0, 0.07390068361573428
880.0, 0.08919316419722802
881.0, 0.09165886101275267
882.0, 0.09671822943806843
883.0, 0.11870743799225372
884.0, 0.12823813616145513
885.0, 0.14487452351623775
886.0, 0.14439761253692315
887.0, 0.15140123160292873
888.0, 0.16530150881073058
889.0, 0.16977413719733658
890.0, 0.17060122469326114
891.0, 0.1844612232055808
892.0, 0.18641289134957495
893.0, 0.1935838999066776
894.0, 0.20468752588173383
895.0, 0.21152903186184077
896.0, 0.21497571169082422
897.0, 0.21596551522703264
898.0, 0.21784320745011576
899.0, 0.22208132394063887
900.0, 0.20110652306649668
901.0, 0.18455544108017333
902.0, 0.17156803720014094
903.0, 0.16283750419182635
904.0, 0.15285405433577592
905.0, 0.13569618043478196
906.0, 0.1189403853222183
907.0, 0.11422084437010802
908.0, 0.0975172420431466
909.0, 0.07868393863413699
910.0, 0.07137019432443512
911.0, 0.06449525443438292
912.0, 0.055515842791795965
913.0, 0.048328521287250716
914.0, 0.03994518435343164
915.0, 0.037744782603295765
916.0, 0.03493919738306418
917.0, 0.020815265255197682
918.0, 0.0175794370151336
919.0, 0.014911793503502715
920.0, 0.007439484028291886
921.0, 0.006210746708470519
922.0, 0.009367803861220924
923.0, 0.014474795838552434
924.0, 0.010653413440838927
925.0, 0.009174818423590633
926.0, 0.0026099280546746516
927.0, 0.0030422591562267644
928.0, 0.0012953629568810488
929.0, 0.00603880144030435
930.0, 0.003035178482444454
931.0, 0.0010901502582818692
932.0, 0.0009365106726376786
933.0, 0.000986570130229643
934.0, 0.004348750537192064
935.0, 0.0007257467284392737
936.0, 0.002617446193716749
937.0, 0.007812165288543818
938.0, 0.018332182449779626
939.0, 0.009981652229430002
940.0, 0.01109134822393846
941.0, 0.017436018083607445
942.0, 0.023891091386241448
943.0, 0.026717509602076174
944.0, 0.028248263973919874
945.0, 0.032964685318840545
946.0, 0.037778958856589676
947.0, 0.04422626478973491
948.0, 0.06094665107701018
949.0, 0.06634265709924811
950.0, 0.07967160202532715
951.0, 0.09163945634390908
952.0, 0.10060910870158837
953.0, 0.12269696023186094
954.0, 0.13971867286735914
955.0, 0.15405006391334153
956.0, 0.1878913806140072
957.0, 0.21715135562185028
958.0, 0.25877755572022276
959.0, 0.3086469461207919
960.0, 0.35788970690156574
961.0, 0.4115256833326915
962.0, 0.46486950962554824
963.0, 0.5409693108787633
964.0, 0.6122658363578869
965.0, 0.7009401010201549
966.0, 0.7798325495471649
967.0, 0.8481817984772348
968.0, 0.9132920621618978
969.0, 0.9647696194753831
970.0, 0.9915814118158829
971.0, 0.9994031779979675
972.0, 0.9842789922472637
973.0, 0.9304157473568662
974.0, 0.8778069408391935
975.0, 0.7926715437237001
976.0, 0.6978988616954243
977.0, 0.620646973433801
978.0, 0.5225386818540768
979.0, 0.4399402467329917
980.0, 0.38773606085654777
981.0, 0.3415807714341644
982.0, 0.28490756263440264
983.0, 0.2417108538147029
984.0, 0.212656928825219
985.0, 0.19230418467270335
986.0, 0.179951424728177
987.0, 0.15259329230567611
988.0, 0.14051970289653876
989.0, 0.13278954031912613
990.0, 0.12458960947436765
991.0, 0.11745879238669406
992.0, 0.10496831212690491
993.0, 0.09201887259845724
994.0, 0.0839090001218571
995.0, 0.07237648570379618
996.0, 0.0614277733511392
997.0, 0.04242881976507127
998.0, 0.04286456482064814
999.0, 0.037538709077421885
1000.0, 0.0303324631403675
1001.0, 0.030452812654733666
1002.0, 0.026494097537065706
1003.0, 0.014006181625768947
1004.0, 0.012590970725172783
1005.0, 0.008997686673958229
1006.0, 0.0024421969627257583
1007.0, 0.005318525847679807
1008.0, 0.011920830838970609
1009.0, 0.005590209885424083
1010.0, 0.0022305396139589277
1011.0, 0.00447006164254662
1012.0, 0.0015602913167774377
1013.0, 0.0011072076803701207
1014.0, 0.0019533329051718215
1015.0, 0.005934942009108814
1016.0, 0.0074270032184582824
1017.0, 0.007834263827846888
1018.0, 0.0012748076789186947
1019.0, 0.0012999737912739093
1020.0, 0.0020551043255521684
1021.0, 0.003725960852931056
1022.0, 0.0066214531846750455
1023.0, 0.005951067873790091
1024.0, 0.00256659868702677
1025.0, 0.009362286631242696
1026.0, 0.011486208762790408
1027.0, 0.006452669548579315
1028.0, 0.006344804216225471
1029.0, 0.012232828825156314
1030.0, 0.013989926521377065
1031.0, 0.020039546042241885
1032.0, 0.015259515757493422
1033.0, 0.018487237433149364
1034.0, 0.019745869441672226
1035.0, 0.019748782802782167
1036.0, 0.019239037122688204
1037.0, 0.02298844052440735
1038.0, 0.028560838751419737
1039.0, 0.024393178075443972
1040.0, 0.024827610910582783
1041.0, 0.03295774970091089
1042.0, 0.03575328867293317
1043.0, 0.03693736344195067
1044.0, 0.04171481723708708
1045.0, 0.045720954354385425
1046.0, 0.05827336564229851
1047.0, 0.07582181382470628
1048.0, 0.07196160066276237
1049.0, 0.07683692742110121
1050.0, 0.07723076663528537
1051.0, 0.08083431976932534
1052.0, 0.07816857806189136
1053.0, 0.07349972092721288
1054.0, 0.06949282280610192
1055.0, 0.06495791088852396
1056.0, 0.05707080123402857
1057.0, 0.04683661341639709
1058.0, 0.04286638843967852
1059.0, 0.031186881145543528
1060.0, 0.02944825047690634
1061.0, 0.014749464480042952
1062.0, 0.01613311358586912
1063.0, 0.014281003577688915
1064.0, 0.012739131143465879
1065.0, 0.01647222755390956
1066.0, 0.011122325035203526
1067.0, 0.00857084137687307
1068.0, 0.005791076035489256
1069.0, 0.010227381449322314
1070.0, 0.002509064453933092
1071.0, 0.007717724664236128
1072.0, 0.005991223361963644
1073.0, 0.004046620614349647
1074.0, 0.005222125189811974
1075.0, 0.005278315653021037
1076.0, 0.01028465636686536
1077.0, 0.004497518314812083
1078.0, 0.0033280745048674767
1079.0, 0.00236092115238703
1080.0, 0.001000260072553705
1081.0, 0.0002925581706574578
1082.0, 0.011130939734270607
1083.0, 0.015472226822705909
1084.0, 0.014262196233206981
1085.0, 0.018895583168231492
1086.0, 0.013264425410774208
1087.0, 0.021865970871012014
1088.0, 0.031268121485984096
1089.0, 0.03316827479780633
1090.0, 0.03480697768143094
1091.0, 0.03418964983727163
1092.0, 0.03884626571638934
1093.0, 0.04194985923740631
1094.0, 0.04423780779018299
1095.0, 0.05085118374100815
1096.0, 0.04653239454315103
1097.0, 0.04020773592767968
1098.0, 0.03689063288435902
1099.0, 0.029682519299992802
1100.0, 0.025371433543435747
1101.0, 0.024750726224802042
1102.0, 0.022657321760804327
1103.0, 0.02188504722246166
1104.0, 0.02202117923838257
1105.0, 0.016311829403760126
1106.0, 0.010732555183505419
1107.0, 0.013895423065427766
1108.0, 0.018459211842917173
1109.0, 0.015368468973841868
1110.0, 0.017230878522180502
1111.0, 0.022446329772868593
1112.0, 0.020085484777596342
1113.0, 0.011389677315024289
1114.0, 0.007185442528182942
1115.0, 0.010371157123936724
1116.0, 0.010345293679543682
1117.0, 0.012451748353035459
1118.0, 0.010567891644154885
1119.0, 0.009911573323539305
1120.0, 0.014721984306432253
1121.0, 0.016980945445133015
1122.0, 0.01468284478198332
1123.0, 0.012885719448418676
1124.0, 0.01691148216023092
1125.0, 0.023271161964625156
1126.0, 0.0217906587050466
1127.0, 0.013602492187177233
1128.0, 0.012796600037013132
1129.0, 0.018047535203652366
1130.0, 0.013490938688271635
1131.0, 0.007345570553835644
1132.0, 0.006842868717628464
1133.0, 0.008634466963496177
1134.0, 0.010322607740292797
1135.0, 0.012059298973179167
1136.0, 0.010404253436933946
1137.0, 0.004741543021721504
1138.0, 0.002653424881791353
1139.0, 0.0032031876318607834
1140.0, 0.0043927682727085285
1141.0, 0.0036963837165077318
1142.0, 0.0017332587834801249
1143.0, 0.006603408792995797
1144.0, 0.010968004350464935
1145.0, 0.010920095141780238
1146.0, 0.006912471216366911
1147.0, 0.000175551732089374
1148.0, 0.005255529598329419
1149.0, 0.012215057472998716
1150.0, 0.013742115288835751
1151.0, 0.0012128429807096584
1152.0, 0.0029157024576554978
1153.0, 0.002570770759960107
1154.0, 0.001632386735480911
1155.0, 0.006395268539249362
1156.0, 0.010682482784661525
1157.0, 0.0071557240620061455
1158.0, 0.0013276404327360596
1159.0, 0.0033456264982677517
1160.0, 0.0005889455979588839
1161.0, 0.0008573388393549576
1162.0, 0.004460327963427115
1163.0, 0.004106778363875299
1164.0, 0.0024963371632253668
1165.0, 0.0006620027182947514
1166.0, 0.0063261539563643655
1167.0, 0.0039057342451308645
1168.0, 0.000810269287568278
1169.0, 0.00583057942958894
1170.0, 0.0037551726568850257
1171.0, 0.006355698969849306
1172.0, 0.001176670981443596
1173.0, 0.0021534968187847748
1174.0, 0.003965091586885749
1175.0, 0.002710202123155104
1176.0, 0.000866623207247522
1177.0, 0.0012770141808342117
1178.0, 0.005816271946479871
1179.0, 0.0074902947765296685
1180.0, 0.004640389060287123
1181.0, 0.0018694958978747553
1182.0, 0.003557720606577733
1183.0, 0.0032478422785462606
1184.0, 0.005348659542720446
1185.0, 0.000899859275502561
1186.0, 0.005780436798603956
1187.0, 0.013098437962665061
1188.0, 0.006811750829943711
1189.0, 0.0009400711008833661
1190.0, 0.004494933287679856
1191.0, 0.009128953696853988
1192.0, 0.009666639245878902
1193.0, 0.003050538369598689
1194.0, 0.009631355753751559
1195.0, 0.006152350512635424
1196.0, 0.004961730186978366
1197.0, 0.0023310874194056807
1198.0, 0.001888113360471291
1199.0, 0.001218389984705797
1200.0, 0.0017113782526844853
1201.0, 0.0015885036625409412
1202.0, 0.002073796069982641
1203.0, 0.003435311272286619
1204.0, 0.0032097750510915748
1205.0, 0.00689289104903589
1206.0, 0.0004957788734338662
1207.0, 0.014010325670070631
1208.0, 0.0099807423713039
1209.0, 0.018449097684951767
1210.0, 0.010537065544420509
1211.0, 0.0030450843864726824
1212.0, 0.0020247264624795092
1213.0, 0.004874838465632229
1214.0, 0.00883171350949136
1215.0, 0.008756980141150866
1216.0, 0.0056909610865197285
1217.0, 0.004639310758453357
1218.0, 0.0121245868082218
1219.0, 0.007576524134542252
1220.0, 0.01397857373236278
1221.0, 0.006692911387525857
1222.0, 0.004427116877273487
1223.0, 0.00485135338756915
1224.0, 0.01168898150355257
1225.0, 0.00584313828865602
1226.0, 0.0029878000061929113
1227.0, 0.003996351591403375
1228.0, 0.010635915972622676
1229.0, 0.011698056440360847
1230.0, 0.0072841366784340495
1231.0, 0.0025008982413059285
1232.0, 0.00508749041566107
1233.0, 0.0062312828290114865
1234.0, 0.0026088360365912754
1235.0, 0.002870753973776027
1236.0, 0.006164540021898441
1237.0, 0.010369100180917329
1238.0, 0.011181378920914867
1239.0, 0.007101073490677151
1240.0, 0.006929915206329599
1241.0, 0.012911110161405748
1242.0, 0.013100043715822459
1243.0, 0.010027677329226803
1244.0, 0.007025002401591257
1245.0, 0.01441058204954975
1246.0, 0.009866263107848126
1247.0, 0.010400227132957567
1248.0, 0.0035746101933309335
1249.0, 0.004145191490759939
1250.0, 0.010948946131661714
1251.0, 0.013429132036453578
1252.0, 0.004693922907668442
1253.0, 0.0033420235994645418
1254.0, 0.008067332313039879
1255.0, 0.005734269242808782
1256.0, 0.010656908301022916
1257.0, 0.011589862905122879
1258.0, 0.0073479593971336726
1259.0, 0.011205295035179514
1260.0, 0.00604981423516913
1261.0, 0.008810409884302777
1262.0, 0.007863869330738207
1263.0, 0.012853586186667295
1264.0, 0.014214489505743076
1265.0, 0.008497721607358183
1266.0, 0.0053374811568873415
1267.0, 0.007048976103292537
1268.0, 0.008377642220701881
1269.0, 0.005821127993278887
1270.0, 0.007794059802850732
1271.0, 0.007583148161636911
1272.0, 0.010991661341177891
1273.0, 0.0052796695051290175
1274.0, 0.0015089671430477578
1275.0, 0.011247784581284545
1276.0, 0.015195496775128369
1277.0, 0.006918924958025452
1278.0, 0.005019926244937749
1279.0, 0.0070385326241761284
1280.0, 0.00967261780194345
1281.0, 0.010421675986666507
1282.0, 0.008384925805590087
1283.0, 0.014261568235274405
1284.0, 0.0008351738407775635
1285.0, 0.007313007551309548
1286.0, 0.016312024610265853
1287.0, 0.013838915812478144
1288.0, 0.0060580355102072
1289.0, 0.010458361953366455
1290.0, 0.01141705015950942
1291.0, 0.008070668542825163
1292.0, 0.0031410305520416615
1293.0, 8.641942594966255e-05
1294.0, 0.007641976550858756
1295.0, 0.014472390335471475
1296.0, 0.005856990253498103
1297.0, 0.0035602697367626496
1298.0, 0.015416556732984144
1299.0, 0.017251712332660703
1300.0, 0.02296944766975971
1301.0, 0.01870366439150948
1302.0, 0.007880692056064585
1303.0, 0.004570104147956676
1304.0, 0.007926510515479747
1305.0, 0.013257649441550461
1306.0, 0.013503932649152768
1307.0, 0.01312180976287566
1308.0, 0.01459904852589008
1309.0, 0.014356756872948085
1310.0, 0.01757114082542405
1311.0, 0.019124208623426796
1312.0, 0.009264933160318624
1313.0, 0.005658963624714291
1314.0, 0.0024605847707262554
1315.0, 0.00048609675383070976
1316.0, 0.01061447332063344
1317, 0.0
1318, 0.0
1319, 0.0
1320, 0.0
1321, 0.0
1322, 0.0
1323, 0.0
1324, 0.0
1325, 0.0
1326, 0.0
1327, 0.0
1328, 0.0
1329, 0.0
1330, 0.0
1331, 0.0
1332, 0.0
1333, 0.0
1334, 0.0
1335, 0.0
1336, 0.0
1337, 0.0
1338, 0.0
1339, 0.0
1340, 0.0
1341, 0.0
1342, 0.0
1343, 0.0
1344, 0.0
1345, 0.0
1346, 0.0
1347, 0.0
1348, 0.0
1349, 0.0
1350, 0.0
1351, 0.0
1352, 0.0
1353, 0.0
1354, 0.0
1355, 0.0
1356, 0.0
1357, 0.0
1358, 0.0
1359, 0.0
1360, 0.0
1361, 0.0
1362, 0.0
1363, 0.0
1364, 0.0
1365, 0.0
1366, 0.0
1367, 0.0
1368, 0.0
1369, 0.0
1370, 0.0
1371, 0.0
1372, 0.0
1373, 0.0
1374, 0.0
1375, 0.0
1376, 0.0
1377, 0.0
1378, 0.0
1379, 0.0
1380, 0.0
1381, 0.0
1382, 0.0
1383, 0.0
1384, 0.0
1385, 0.0
1386, 0.0
1387, 0.0
1388, 0.0
1389, 0.0
1390, 0.0
1391, 0.0
1392, 0.0
1393, 0.0
1394, 0.0
1395, 0.0
1396, 0.0
1397, 0.0
1398, 0.0
1399, 0.0
1400, 0.0
1401, 0.0
1402, 0.0
1403, 0.0
1404, 0.0
1405, 0.0
1406, 0.0
1407, 0.0
1408, 0.0
1409, 0.0
1410, 0.0
1411, 0.0
1412, 0.0
1413, 0.0
1414, 0.0
1415, 0.0
1416, 0.0
1417, 0.0
1418, 0.0
1419, 0.0
1420, 0.0
1421, 0.0
1422, 0.0
1423, 0.0
1424, 0.0
1425, 0.0
1426, 0.0
1427, 0.0
1428, 0.0
1429, 0.0
1430, 0.0
1431, 0.0
1432, 0.0
1433, 0.0
1434, 0.0
1435, 0.0
1436, 0.0
1437, 0.0
1438, 0.0
1439, 0.0
1440, 0.0
1441, 0.0
1442, 0.0
1443, 0.0
1444, 0.0
1445, 0.0
1446, 0.0
1447, 0.0
1448, 0.0
1449, 0.0
1450, 0.0
1451, 0.0
1452, 0.0
1453, 0.0
1454, 0.0
1455, 0.0
1456, 0.0
1457, 0.0
1458, 0.0
1459, 0.0
1460, 0.0
1461, 0.0
1462, 0.0
1463, 0.0
1464, 0.0
1465, 0.0
1466, 0.0
1467, 0.0
1468, 0.0
1469, 0.0
1470, 0.0
1471, 0.0
1472, 0.0
1473, 0.0
1474, 0.0
1475, 0.0
1476, 0.0
1477, 0.0
1478, 0.0
1479, 0.0
1480, 0.0
1481, 0.0
1482, 0.0
1483, 0.0
1484, 0.0
1485, 0.0
1486, 0.0
1487, 0.0
1488, 0.0
1489, 0.0
1490, 0.0
1491, 0.0
1492, 0.0
1493, 0.0
1494, 0.0
1495, 0.0
1496, 0.0
1497, 0.0
1498, 0.0
1499, 0.0
1500, 0.0
1501, 0.0
1502, 0.0
1503, 0.0
1504, 0.0
1505, 0.0
1506, 0.0
1507, 0.0
1508, 0.0
1509, 0.0
1510, 0.0
1511, 0.0
1512, 0.0
1513, 0.0
1514, 0.0
1515, 0.0
1516, 0.0
1517, 0.0
1518, 0.0
1519, 0.0
1520, 0.0
1521, 0.0
1522, 0.0
1523, 0.0
1524, 0.0
1525, 0.0
1526, 0.0
1527, 0.0
1528, 0.0
1529, 0.0
1530, 0.0
1531, 0.0
1532, 0.0
1533, 0.0
1534, 0.0
1535, 0.0
1536, 0.0
1537, 0.0
1538, 0.0
1539, 0.0
1540, 0.0
1541, 0.0
1542, 0.0
1543, 0.0
1544, 0.0
1545, 0.0
1546, 0.0
1547, 0.0
1548, 0.0
1549, 0.0
1550, 0.0
1551, 0.0
1552, 0.0
1553, 0.0
1554, 0.0
1555, 0.0
1556, 0.0
1557, 0.0
1558, 0.0
1559, 0.0
1560, 0.0
1561, 0.0
1562, 0.0
1563, 0.0
1564, 0.0
1565, 0.0
1566, 0.0
1567, 0.0
1568, 0.0
1569, 0.0
1570, 0.0
1571, 0.0
1572, 0.0
1573, 0.0
1574, 0.0
1575, 0.0
1576, 0.0
1577, 0.0
1578, 0.0
1579, 0.0
1580, 0.0
1581, 0.0
1582, 0.0
1583, 0.0
1584, 0.0
1585, 0.0
1586, 0.0
1587, 0.0
1588, 0.0
1589, 0.0
1590, 0.0
1591, 0.0
1592, 0.0
1593, 0.0
1594, 0.0
1595, 0.0
1596, 0.0
1597, 0.0
1598, 0.0
1599, 0.0
