30, 0.0
31, 0.0
32, 0.0
33, 0.0
34, 0.0
35, 0.0
36, 0.0
37, 0.0
38, 0.0
39, 0.0
40, 0.0
41, 0.0
42, 0.0
43, 0.0
44, 0.0
45, 0.0
46, 0.0
47, 0.0
48, 0.0
49, 0.0
50, 0.0
51, 0.0
52, 0.0
53, 0.0
54, 0.0
55, 0.0
56, 0.0
57, 0.0
58, 0.0
59, 0.0
60, 0.0
61, 0.0
62, 0.0
63, 0.0
64, 0.0
65, 0.0
66, 0.0
67, 0.0
68, 0.0
69, 0.0
70, 0.0
71, 0.0
72, 0.0
73, 0.0
74, 0.0
75, 0.0
76, 0.0
77, 0.0
78, 0.0
79, 0.0
80, 0.0
81, 0.0
82, 0.0
83, 0.0
84, 0.0
85, 0.0
86, 0.0
87, 0.0
88, 0.0
89, 0.0
90, 0.0
91, 0.0
92, 0.0
93, 0.0
94, 0.0
95, 0.0
96, 0.0
97, 0.0
98, 0.0
99, 0.0
100, 0.0
101, 0.0
102, 0.0
103, 0.0
104, 0.0
105, 0.0
106, 0.0
107, 0.0
108, 0.0
109, 0.0
110, 0.0
111, 0.0
112, 0.0
113, 0.0
114, 0.0
115, 0.0
116, 0.0
117, 0.0
118, 0.0
119, 0.0
120, 0.0
121, 0.0
122, 0.0
123, 0.0
124, 0.0
125, 0.0
126, 0.0
127, 0.0
128, 0.0
129, 0.0
130, 0.0
131, 0.0
132, 0.0
133, 0.0
134, 0.0
135, 0.0
136, 0.0
137, 0.0
138, 0.0
139, 0.0
140, 0.0
141, 0.0
142, 0.0
143, 0.0
144, 0.0
145, 0.0
146, 0.0
147, 0.0
148, 0.0
149, 0.0
150, 0.0
151, 0.0
152, 0.0
153, 0.0
154, 0.0
155, 0.0
156, 0.0
157, 0.0
158, 0.0
159, 0.0
160.0, 0.00010129528897982672
161.0, 0.0044876004993714535
162.0, 0.0029162197654202123
163.0, 0.0037396482599862707
164.0, 0.01719981016974184
165.0, 0.014520922360481343
166.0, 0.009524777298568888
167.0, 0.0035503960622316148
168.0, 0.0021425783693461
169.0, 0.0020283315672529993
170.0, 0.005765584005495189
171.0, 0.015416621375680634
172.0, 0.022039756055649395
173.0, 0.011742432069191495
174.0, 0.010249858639754214
175.0, 0.009234276747703694
176.0, 0.009084290803273852
177.0, 0.01244416719645666
178.0, 0.008089223916204527
179.0, 0.013562612608927513
180.0, 0.01709890869322649
181.0, 0.013117530036968233
182.0, 0.02005043929220771
183.0, 0.02193013505739831
184.0, 0.01919876500534048
185.0, 0.01881496641109569
186.0, 0.027104237352715707
187.0, 0.03049262500198671
188.0, 0.0369638752400625
189.0, 0.042779536131224476
190.0, 0.044628512240898414
191.0, 0.053527108618155045
192.0, 0.06178002884533049
193.0, 0.0717862544652687
194.0, 0.0816724782078887
195.0, 0.08097833702678073
196.0, 0.09056012625378893
197.0, 0.08991584758698062
198.0, 0.0805499989749679
199.0, 0.07471449650593716
200.0, 0.050593055450247795
201.0, 0.035469703409845364
202.0, 0.03297451341514562
203.0, 0.03425275319056706
204.0, 0.030277700916937222
205.0, 0.02462397238225762
206.0, 0.02590870715270457
207.0, 0.03220283468629333
208.0, 0.0363422018346174
209.0, 0.04097058970486554
210.0, 0.05216694962660988
211.0, 0.059939739012204785
212.0, 0.0601729730121714
213.0, 0.06548318982357229
214.0, 0.0677228073904824
215.0, 0.07205734615027523
216.0, 0.07749941974819094
217.0, 0.0773198179639508
218.0, 0.0760018027377865
219.0, 0.07912291563525774
220.0, 0.08602125120857687
221.0, 0.09361795882426283
222.0, 0.10035785634386936
223.0, 0.10064671086512851
224.0, 0.11002898009625504
225.0, 0.12354578496236242
226.0, 0.12674389651907111
227.0, 0.14158585611013486
228.0, 0.17081043955450337
229.0, 0.19135206049721565
230.0, 0.19662780836497762
231.0, 0.21571555639328002
232.0, 0.22708248013124896
233.0, 0.23580527510071472
234.0, 0.24184581339477904
235.0, 0.23768464396200065
236.0, 0.22506673714549508
237.0, 0.21407412694472142
238.0, 0.19814191058427372
239.0, 0.16986627395271567
240.0, 0.141610634066303
241.0, 0.12697662013589797
242.0, 0.11062319243762399
243.0, 0.08825367180815216
244.0, 0.07194657678921527
245.0, 0.06021817091801649
246.0, 0.05070761064533024
247.0, 0.03802279280780296
248.0, 0.02510758012538509
249.0, 0.02190006433326747
250.0, 0.005874102853353427
251.0, 0.0014706824207799919
252.0, 0.0027285544985612108
253.0, 0.0076583465629155275
254.0, 0.0029872211152410484
255.0, 0.0026593564482970742
256.0, 0.0020507745806552916
257.0, 0.002078345380225318
258.0, 0.0008730847891475814
259.0, 0.008614393435426521
260.0, 0.021307866233087648
261.0, 0.03110561598321972
262.0, 0.033564123238451475
263.0, 0.03257240665565886
264.0, 0.038746331967580164
265.0, 0.05367923740557608
266.0, 0.06523496014089758
267.0, 0.061945939708063356
268.0, 0.07200418885052184
269.0, 0.0850766221980222
270.0, 0.09133487336734229
271.0, 0.09638815384704279
272.0, 0.11711878489108178
273.0, 0.1264607958499811
274.0, 0.14693768962293832
275.0, 0.1659934149789012
276.0, 0.16854342964319402
277.0, 0.20073863846809817
278.0, 0.21774975926623677
279.0, 0.21751792915633886
280.0, 0.21365815354567855
281.0, 0.22555986334420505
282.0, 0.23791684947023792
283.0, 0.2373165591841069
284.0, 0.22147689833171522
285.0, 0.1981638932322895
286.0, 0.17980108991974547
287.0, 0.16874752084927486
288.0, 0.15222804246365637
289.0, 0.13589319339206982
290.0, 0.126557782842969
291.0, 0.11452358437654675
292.0, 0.09680903526597075
293.0, 0.09843466886180217
294.0, 0.10241149916500428
295.0, 0.08266751678897968
296.0, 0.0696933094568077
297.0, 0.0701336217722181
298.0, 0.06928326883885122
299.0, 0.06130772679326431
300.0, 0.051461404819599404
301.0, 0.04733788541449403
302.0, 0.036707659046019615
303.0, 0.030770664393410807
304.0, 0.0353811274611026
305.0, 0.018847186628059422
306.0, 0.019756154667865216
307.0, 0.015353458393088638
308.0, 0.00857758052362305
309.0, 0.013931693029305404
310.0, 0.011465134147593483
311.0, 0.0071400826462950555
312.0, 0.005687323960533345
313.0, 0.0033544820898655826
314.0, 0.0015470664371313209
315.0, 0.0053549697261110925
316.0, 0.005384728656964365
317.0, 0.001069057744558015
318.0, 0.00020940809496467882
319.0, 0.003665405128444881
320.0, 0.008714882482732632
321.0, 0.0030412597769965606
322.0, 0.0009114341369160167
323.0, 0.0019501103218093911
324.0, 0.002260205733206291
325.0, 0.004850804575838562
326.0, 0.0013183216188637783
327.0, 0.0014079770781452337
328.0, 0.002122012430622505
329.0, 0.005973601099642532
330.0, 0.011570931632087408
331.0, 0.01344733390620039
332.0, 0.010149458923635054
333.0, 0.004434303751803553
334.0, 0.00621589694816835
335.0, 0.0015105494786614398
336.0, 0.0027909264358589895
337.0, 0.006279362609850476
338.0, 0.003675810385260614
339.0, 0.002160875292695167
340.0, 0.0011406310672064067
341.0, 0.000500494025462746
342.0, 0.002422593823940134
343.0, 0.004474336329962561
344.0, 0.007587984423481261
345.0, 0.007985696612280397
346.0, 0.007252463943799064
347.0, 0.00411272643694674
348.0, 0.0015324245010169026
349.0, 0.0016008162306439826
350.0, 0.0014921807589985642
351.0, 0.003509392868229665
352.0, 0.005633296157987696
353.0, 0.0013725864575457733
354.0, 0.004726328610424895
355.0, 0.012824923404853944
356.0, 0.010604607583163755
357.0, 0.005303502727623022
358.0, 0.021152499947492055
359.0, 0.011357877950809331
360.0, 0.013656218995015085
361.0, 0.02052353229494381
362.0, 0.024393946949451795
363.0, 0.03050037767660701
364.0, 0.03005802283445403
365.0, 0.036512188006189175
366.0, 0.04182338741749003
367.0, 0.043349355953704205
368.0, 0.05014412065549376
369.0, 0.056374938166587854
370.0, 0.054886261741298
371.0, 0.05919259756166062
372.0, 0.0700736327515209
373.0, 0.07042100528707998
374.0, 0.0657796870552251
375.0, 0.07923152888298735
376.0, 0.08609969460885795
377.0, 0.07928506115612234
378.0, 0.08486909747409667
379.0, 0.0840419270368287
380.0, 0.0766155614586122
381.0, 0.07761845102057614
382.0, 0.08354552140826944
383.0, 0.07967473562236606
384.0, 0.07980446442674674
385.0, 0.06954278641538852
386.0, 0.07020481437184047
387.0, 0.07471201740048299
388.0, 0.06431212828076258
389.0, 0.06540825415807414
390.0, 0.06848236043092208
391.0, 0.07365011730440246
392.0, 0.08082638833494775
393.0, 0.08712934088093874
394.0, 0.09100403040039914
395.0, 0.09113436086631722
396.0, 0.09381807278432665
397.0, 0.10202671406064524
398.0, 0.1144323469797803
399.0, 0.13003392557196844
400.0, 0.13562544930634352
401.0, 0.14096148970410846
402.0, 0.14961803604216886
403.0, 0.15700486476609568
404.0, 0.15861429461356533
405.0, 0.16063717497065094
406.0, 0.16271402980859978
407.0, 0.1551031531236167
408.0, 0.1417514542874957
409.0, 0.14381064934515203
410.0, 0.13359094348977563
411.0, 0.12411094924778361
412.0, 0.12704332484836967
413.0, 0.1382564669022407
414.0, 0.14069571016604215
415.0, 0.13495929483283528
416.0, 0.13767945544725613
417.0, 0.14451891647245926
418.0, 0.1541926591725387
419.0, 0.17458399100874533
420.0, 0.18421781413159752
421.0, 0.19685184743401526
422.0, 0.2125307305848668
423.0, 0.22836667572042896
424.0, 0.2446077257512269
425.0, 0.25742787131383904
426.0, 0.2637326177798637
427.0, 0.28861168847100216
428.0, 0.3183892517572185
429.0, 0.33053219312044424
430.0, 0.3350265914330106
431.0, 0.3397053739211338
432.0, 0.32865907870942224
433.0, 0.3174364747408617
434.0, 0.3089536252886004
435.0, 0.2675944690531756
436.0, 0.23535429741323532
437.0, 0.20336660754444336
438.0, 0.16841079154961786
439.0, 0.13615645493461134
440.0, 0.11830964359960054
441.0, 0.10595151036154817
442.0, 0.0882886667850663
443.0, 0.07470651956826406
444.0, 0.06569978739191755
445.0, 0.05170753014632531
446.0, 0.04665828910195335
447.0, 0.041478426487786046
448.0, 0.03639637103160077
449.0, 0.03081952344471041
450.0, 0.024460893809502608
451.0, 0.02190160953908198
452.0, 0.03364748086334384
453.0, 0.0338924754540464
454.0, 0.02631497059166766
455.0, 0.022215913389930755
456.0, 0.02590825664719141
457.0, 0.0360345423250756
458.0, 0.029082957800539246
459.0, 0.02669915868806565
460.0, 0.0338770245188769
461.0, 0.032742779118056585
462.0, 0.03927252599893753
463.0, 0.04250264663195361
464.0, 0.04657406925602044
465.0, 0.0520850674038871
466.0, 0.05270010467903502
467.0, 0.04401392551120543
468.0, 0.04472063558246436
469.0, 0.05543521952811425
470.0, 0.060274528960668525
471.0, 0.05859626898352231
472.0, 0.06138030511845505
473.0, 0.05573273419180587
474.0, 0.05582824230008879
475.0, 0.059610842559526166
476.0, 0.05955576399440927
477.0, 0.05615108579119315
478.0, 0.05797859474149886
479.0, 0.059613132702076514
480.0, 0.06298950044774551
481.0, 0.05427007282357998
482.0, 0.04040053832535867
483.0, 0.03958924221568334
484.0, 0.039626111683724576
485.0, 0.032254172678033155
486.0, 0.03256496656566866
487.0, 0.030747490147031934
488.0, 0.01766371510770487
489.0, 0.010370121182889455
490.0, 0.011403392957098591
491.0, 0.015516119101992817
492.0, 0.0131881896163963
493.0, 0.007261171252627886
494.0, 0.008829271753754286
495.0, 0.005116136664507773
496.0, 0.002043758495317176
497.0, 0.00048298832225836247
498.0, 0.0023675068614636007
499.0, 0.005480783535726698
500.0, 0.0036181835985531307
501.0, 0.00910304500894087
502.0, 0.004946927720867251
503.0, 0.002973960701365973
504.0, 0.007453446445893757
505.0, 0.010508546787318674
506.0, 0.007867384000642927
507.0, 0.0013740379424481142
508.0, 0.003009632736493206
509.0, 0.008114854411923342
510.0, 0.009733183514043791
511.0, 0.009675382421408654
512.0, 0.002460677627356078
513.0, 0.0028858317056882307
514.0, 0.005269735106336815
515.0, 0.005300992772079702
516.0, 0.004588463056258479
517.0, 0.0075701755408555576
518.0, 0.00943475219053087
519.0, 0.009025738863747076
520.0, 0.01176577005154358
521.0, 0.0186639222894849
522.0, 0.024059760825919038
523.0, 0.024029078499512826
524.0, 0.031122459343008013
525.0, 0.026979403359055618
526.0, 0.026109845540080775
527.0, 0.035904653122987296
528.0, 0.03455190632602382
529.0, 0.04871822735540987
530.0, 0.053771975625171525
531.0, 0.05501701627370971
532.0, 0.05899527174230508
533.0, 0.06487599819905629
534.0, 0.06929486275014467
535.0, 0.06043436992567241
536.0, 0.06476023551128393
537.0, 0.07211146986018864
538.0, 0.07323683430260301
539.0, 0.06966216456491586
540.0, 0.06032515767309541
541.0, 0.06460315362327525
542.0, 0.06936189380284796
543.0, 0.07230038965154789
544.0, 0.07317918532200755
545.0, 0.07105320389363184
546.0, 0.07715955465033453
547.0, 0.0723028805820478
548.0, 0.07386638070270478
549.0, 0.0725494082443099
550.0, 0.06534104466147435
551.0, 0.07062615463339898
552.0, 0.07713032934774876
553.0, 0.07829915836681556
554.0, 0.07522967248438131
555.0, 0.07698243998145947
556.0, 0.08736243179297395
557.0, 0.09718855912462818
558.0, 0.09857425119673827
559.0, 0.09568118021732107
560.0, 0.10199616257183103
561.0, 0.11140440308902778
562.0, 0.11941871845282398
563.0, 0.137309701569179
564.0, 0.14314708370289012
565.0, 0.14461725344390394
566.0, 0.1482005750791734
567.0, 0.16373899804273134
568.0, 0.182537143178073
569.0, 0.1793712127794957
570.0, 0.18212942487821948
571.0, 0.19562403247806223
572.0, 0.21328292198880008
573.0, 0.22392490166557358
574.0, 0.23160182947384217
575.0, 0.2531777576179026
576.0, 0.2479623641224591
577.0, 0.25675685008999166
578.0, 0.2699405440344534
579.0, 0.2769056834043209
580.0, 0.2820651394284883
581.0, 0.290084056858598
582.0, 0.28855841904846213
583.0, 0.2897008390803954
584.0, 0.2838036761685966
585.0, 0.27532153611362636
586.0, 0.26941445844264394
587.0, 0.2582583042358202
588.0, 0.2517489783838959
589.0, 0.23926810073188315
590.0, 0.22986928523170005
591.0, 0.22757746002637252
592.0, 0.22286724365708369
593.0, 0.20864284773873157
594.0, 0.2164262560321562
595.0, 0.20079547534845985
596.0, 0.17872284660013024
597.0, 0.16914249240497128
598.0, 0.16746703439200486
599.0, 0.1625368881620907
600.0, 0.15308057548494736
601.0, 0.14149922893058772
602.0, 0.13250576052557217
603.0, 0.12598504728770324
604.0, 0.11819869753372796
605.0, 0.10807914087913018
606.0, 0.10667782908341542
607.0, 0.09734686638856681
608.0, 0.0892733287080806
609.0, 0.08393753828077866
610.0, 0.07550113346765056
611.0, 0.0656137145599156
612.0, 0.0641906049114308
613.0, 0.06433283059983723
614.0, 0.048890321038287735
615.0, 0.03899489923335266
616.0, 0.03846544558370966
617.0, 0.0358595891659319
618.0, 0.0315928045069421
619.0, 0.033215992156844135
620.0, 0.02940532892524555
621.0, 0.026301749973615635
622.0, 0.02379445252690533
623.0, 0.0184493836448938
624.0, 0.017553086415736326
625.0, 0.023357389430239097
626.0, 0.02635260115757723
627.0, 0.025833506451834198
628.0, 0.029337722930835176
629.0, 0.03138959696413905
630.0, 0.02105286168317539
631.0, 0.03219828439752425
632.0, 0.027765336944810443
633.0, 0.028319085395706548
634.0, 0.03547963990951566
635.0, 0.035659423394400654
636.0, 0.029992780376160745
637.0, 0.03644647503611475
638.0, 0.03143878429636757
639.0, 0.03229640587126973
640.0, 0.03460759902087132
641.0, 0.03606750233457799
642.0, 0.037419204502047915
643.0, 0.03924786290963719
644.0, 0.03495530222252223
645.0, 0.03886955745367963
646.0, 0.034166285762706035
647.0, 0.03047451027234303
648.0, 0.030974927423511957
649.0, 0.028530710029604875
650.0, 0.02727293624511703
651.0, 0.025730127144745582
652.0, 0.02202845704126857
653.0, 0.021043170241270674
654.0, 0.02138923214184857
655.0, 0.017536921547677504
656.0, 0.007086085864380051
657.0, 0.0013109919544266608
658.0, 0.0027237872264186335
659.0, 0.004117537399307762
660.0, 0.0014927666467997413
661.0, 0.0005195326348942751
662.0, 0.0012737663532306376
663.0, 0.0021618097275367836
664.0, 0.001157248479787695
665.0, 0.005530656410656047
666.0, 0.0006765807002513322
667.0, 0.0005679317240759696
668.0, 0.0031771840745204623
669.0, 0.0030914837562219257
670.0, 0.0038947179141579297
671.0, 0.0010254362506062677
672.0, 0.006891043266340827
673.0, 0.003150168062435981
674.0, 0.0033086053867247044
675.0, 0.00029604215861977383
676.0, 0.001797223626294962
677.0, 0.003910161285627361
678.0, 0.0037618120979328856
679.0, 0.0025463237927544147
680.0, 0.0016399562307684236
681.0, 0.008013986755765298
682.0, 0.002457068772418814
683.0, 0.008315953158694822
684.0, 0.004092671852952101
685.0, 0.0006869456545221282
686.0, 0.0037494901575653387
687.0, 0.0035336746657714546
688.0, 0.00021778998073221197
689.0, 0.001890424587570679
690.0, 0.005177377556610784
691.0, 0.0013628876777944977
692.0, 0.001842977235001291
693.0, 0.0025144001150343167
694.0, 0.005402043928553746
695.0, 0.005328532247751183
696.0, 0.002535909130588945
697.0, 0.005076833872385931
698.0, 0.0011440164560211747
699.0, 0.0017656057955930781
700.0, 0.004237413347716275
701.0, 0.006792273691450686
702.0, 0.010163382987643691
703.0, 0.0095194281626696
704.0, 0.007226017643380433
705.0, 0.008897498268702533
706.0, 0.004249862118794388
707.0, 0.006876438395041481
708.0, 0.013081725752882844
709.0, 0.013315886704314231
710.0, 0.012187288831275643
711.0, 0.012345903840231053
712.0, 0.010372511534967079
713.0, 0.014797830766817493
714.0, 0.01455703424550012
715.0, 0.013710181158102361
716.0, 0.016655994342635476
717.0, 0.013159358434773515
718.0, 0.010909198139962292
719.0, 0.01311116859377539
720.0, 0.014955377093892353
721.0, 0.016275673726459664
722.0, 0.016947000625148312
723.0, 0.014371079313616265
724.0, 0.01149920357405876
725.0, 0.02246133896297417
726.0, 0.024688593559710748
727.0, 0.02294845487342744
728.0, 0.01716275110233007
729.0, 0.01183140625482789
730.0, 0.012998107400999374
731.0, 0.018967520915543528
732.0, 0.016782431167804583
733.0, 0.019282918946716493
734.0, 0.02312484260998631
735.0, 0.019498601376814247
736.0, 0.019029938133036023
737.0, 0.019046655199266734
738.0, 0.012599429812487859
739.0, 0.011995593078959739
740.0, 0.005393799778625921
741.0, 0.008559836857938416
742.0, 0.015153263724771727
743.0, 0.013799756695037734
744.0, 0.011610379190900673
745.0, 0.01586649754198297
746.0, 0.012960025796490702
747.0, 0.00946387422421008
748.0, 0.01252073401692079
749.0, 0.017779238780806554
750.0, 0.011515662216054243
751.0, 0.0030332910596781925
752.0, 0.007418403829117931
753.0, 0.011363813141341758
754.0, 0.010899080631466681
755.0, 0.004554123503888711
756.0, 0.008250463125771886
757.0, 0.0094350169986863
758.0, 0.004579049500588171
759.0, 0.0024265690006753902
760.0, 0.006860780574540331
761.0, 0.01290252668381746
762.0, 0.018566314721146743
763.0, 0.010921571549320948
764.0, 0.0005234497998018108
765.0, 0.002555068687282701
766.0, 0.009487280431635908
767.0, 0.006081726295125024
768.0, 0.005150506220816231
769.0, 0.002353595186559453
770.0, 0.00021372097959751384
771.0, 0.0030647326761452285
772.0, 0.0028443154210333575
773.0, 0.0016547801874517377
774.0, 0.0015896427271665306
775.0, 0.0052229005548958055
776.0, 0.009929130052705059
777.0, 0.006840181726533399
778.0, 0.00639634792539266
779.0, 0.007244330628483837
780.0, 0.007252076560880487
781.0, 0.005952609625250935
782.0, 0.006492335705969998
783.0, 0.011665026971405167
784.0, 0.009842158657075994
785.0, 0.005132755663013778
786.0, 0.0016873520568215416
787.0, 0.004294981337688504
788.0, 0.007158608606671779
789.0, 0.0031625734615577912
790.0, 0.00447300618519372
791.0, 0.0006082185888589799
792.0, 0.006530686973209706
793.0, 0.012453722749840492
794.0, 0.010074456854006071
795.0, 0.006617164783880614
796.0, 0.008000528055212121
797.0, 0.008197558884439776
798.0, 0.00375863555800104
799.0, 0.006143438141851995
800.0, 0.008115306403085438
801.0, 0.0046145702354960655
802.0, 0.004721008582633063
803.0, 0.002564839375663362
804.0, 0.0006988625685903937
805.0, 0.005397616602593948
806.0, 0.012436035423594468
807.0, 0.01171164512689391
808.0, 0.009724948982351272
809.0, 0.012707118107317178
810.0, 0.011966605266069782
811.0, 0.013694449653791633
812.0, 0.017755590511968195
813.0, 0.017079775651846204
814.0, 0.014203377138609568
815.0, 0.011118179254122909
816.0, 0.012923217767918955
817.0, 0.019014731106439392
818.0, 0.017174289878575534
819.0, 0.017623733738661638
820.0, 0.019323493107199427
821.0, 0.011694127348406988
822.0, 0.003840371085562547
823.0, 0.007800546248323665
824.0, 0.010980440032537212
825.0, 0.011462371313698634
826.0, 0.015036869299813169
827.0, 0.015628266590183983
828.0, 0.011712494090867175
829.0, 0.010270317583341796
830.0, 0.012310230925501485
831.0, 0.006843740554482582
832.0, 0.01370827733415122
833.0, 0.014296753332158484
834.0, 0.01671810244468282
835.0, 0.013313008443330266
836.0, 0.011071991648388802
837.0, 0.011440275393979543
838.0, 0.0071331480953904
839.0, 0.0092824210184201
840.0, 0.01185304007568566
841.0, 0.01613297104407116
842.0, 0.017395876705128877
843.0, 0.014030865564535205
844.0, 0.013947430144124758
845.0, 0.018215720621758406
846.0, 0.01899475665304134
847.0, 0.01499605934502166
848.0, 0.017597366391636834
849.0, 0.019811206244841936
850.0, 0.020416870739642958
851.0, 0.016944864292794133
852.0, 0.018296728354458308
853.0, 0.02160153938329484
854.0, 0.01974361244947915
855.0, 0.01913611781418882
856.0, 0.02804418497040884
857.0, 0.013462379289840674
858.0, 0.020176543476246048
859.0, 0.019840864106427592
860.0, 0.015623945711803509
861.0, 0.015327396416900107
862.0, 0.01748200477222981
863.0, 0.01734131963583694
864.0, 0.014010669025890897
865.0, 0.014605512619424724
866.0, 0.015125187173885321
867.0, 0.015370731209940192
868.0, 0.012004604613701278
869.0, 0.01291012600889725
870.0, 0.016983406037685563
871.0, 0.01766081642778948
872.0, 0.015078616692475049
873.0, 0.013730626258939274
874.0, 0.0092799505112216
875.0, 0.016674447639830923
876.0, 0.019225626684417966
877.0, 0.011520773643106287
878.0, 0.013080566048339416
879.0, 0.012567191045060409
880.0, 0.0032919140265871816
881.0, 0.003909238338208357
882.0, 0.008895816308918177
883.0, 0.012605594100268895
884.0, 0.010872853507938299
885.0, 0.009355721452157564
886.0, 0.013297147674467739
887.0, 0.015659386462002812
888.0, 0.01019836250507139
889.0, 0.005920831597915496
890.0, 0.012417737246913788
891.0, 0.00855050568344847
892.0, 0.005463761304128358
893.0, 0.0006030648780727917
894.0, 0.003608776081494424
895.0, 0.0023823662260766152
896.0, 0.003803767113281781
897.0, 0.004192235755500777
898.0, 0.002194872444040793
899.0, 0.007012442960006166
900.0, 0.000564951385497431
901.0, 0.0013628858087639801
902.0, 0.00552440893914571
903.0, 0.002284460635727695
904.0, 0.007048591287304201
905.0, 0.0025813687921620193
906.0, 0.003657324409439648
907.0, 0.0019049608911502112
908.0, 0.004381530857130212
909.0, 0.002454791153881067
910.0, 0.0028434835094861746
911.0, 0.006508991760101154
912.0, 0.0018063678279170562
913.0, 0.00337387134885549
914.0, 0.00044935141022918516
915.0, 0.0013712409311154095
916.0, 0.0010722417167583816
917.0, 0.0027924112310665737
918.0, 0.0036609369829443427
919.0, 0.00887130632883273
920.0, 0.009127556819514654
921.0, 0.013752181711823679
922.0, 0.002438121587586314
923.0, 0.001644352203551662
924.0, 0.009434498335801036
925.0, 0.011434576414684983
926.0, 0.009554139529232614
927.0, 0.009812546236198084
928.0, 0.005764336191609249
929.0, 0.011106523233971332
930.0, 0.014523463422996891
931.0, 0.016915016280523613
932.0, 0.014369919948267097
933.0, 0.011707107529107428
934.0, 0.014129105595111727
935.0, 0.015165605896180297
936.0, 0.0102095653804985
937.0, 0.006985680534742421
938.0, 0.010033817158933754
939.0, 0.01636818738728522
940.0, 0.010937767017375167
941.0, 0.009200077637208535
942.0, 0.015685150368982007
943.0, 0.02200604436030055
944.0, 0.02185908309191099
945.0, 0.02054770837983597
946.0, 0.01988181254990248
947.0, 0.01613716969288359
948.0, 0.02440317417740074
949.0, 0.029563929041434598
950.0, 0.025886954960595936
951.0, 0.029789282782432182
952.0, 0.031588569319908985
953.0, 0.027723219697662053
954.0, 0.027251652473614513
955.0, 0.03202607019357428
956.0, 0.031203835702019525
957.0, 0.026916122917592385
958.0, 0.03446656069769876
959.0, 0.042348790021896045
960.0, 0.04313961937552722
961.0, 0.042350133376107095
962.0, 0.047676939671464975
963.0, 0.04891132873241262
964.0, 0.05627538680835436
965.0, 0.07067910944795787
966.0, 0.07700944899320027
967.0, 0.08062351925413698
968.0, 0.1019239206978038
969.0, 0.10702790656251653
970.0, 0.1174484647654451
971.0, 0.13180751023220838
972.0, 0.14900491019024456
973.0, 0.16441897389920823
974.0, 0.18884710884185985
975.0, 0.21746291345573138
976.0, 0.2476936858083454
977.0, 0.2876214862141381
978.0, 0.32722757680555264
979.0, 0.3742904317611553
980.0, 0.4174822105137383
981.0, 0.46413885899963736
982.0, 0.5194643412323708
983.0, 0.5802270150919527
984.0, 0.6518591740223556
985.0, 0.7227114044312555
986.0, 0.7867993797535375
987.0, 0.8546853361436828
988.0, 0.91905550414723
989.0, 0.9656999836097914
990.0, 0.9763083304669821
991.0, 0.9989497743427764
992.0, 0.9906987875170723
993.0, 0.9397043302965667
994.0, 0.8710154949947028
995.0, 0.7977304478159184
996.0, 0.7329597253065488
997.0, 0.6677972052295957
998.0, 0.5921516796172441
999.0, 0.5325429517982475
1000.0, 0.4796918438975608
1001.0, 0.4168909523548228
1002.0, 0.3512621870914457
1003.0, 0.31272552861106734
1004.0, 0.2684871551298108
1005.0, 0.2319700275130195
1006.0, 0.20093339182875802
1007.0, 0.16710646935243859
1008.0, 0.14197733492510178
1009.0, 0.12120659061789295
1010.0, 0.0938022208848091
1011.0, 0.08801145964795908
1012.0, 0.08280318752112216
1013.0, 0.06591366282133854
1014.0, 0.05617939798288389
1015.0, 0.04558375737811544
1016.0, 0.04572534499922638
1017.0, 0.04012511556921357
1018.0, 0.03868138636152136
1019.0, 0.037042764015684224
1020.0, 0.025885187864342973
1021.0, 0.024929328977567968
1022.0, 0.021301488352752064
1023.0, 0.015859160234825555
1024.0, 0.016150517287418308
1025.0, 0.01897874445146932
1026.0, 0.011930678207035939
1027.0, 0.012208012879785624
1028.0, 0.009282055940739269
1029.0, 0.00659416259972625
1030.0, 0.006853645219042208
1031.0, 0.0068797588606045205
1032.0, 0.00634031743905033
1033.0, 0.001726895606852782
1034.0, 0.0030626027916214804
1035.0, 0.010630294361002109
1036.0, 0.007975478160640433
1037.0, 0.004453767668892051
1038.0, 0.005350499015391739
1039.0, 0.009188680281989815
1040.0, 0.01131203521941863
1041.0, 0.011613517189686095
1042.0, 0.011952023614269279
1043.0, 0.015038656797085744
1044.0, 0.01670643285733451
1045.0, 0.012931071166003451
1046.0, 0.01639137833062399
1047.0, 0.030753010549416666
1048.0, 0.031775538336654696
1049.0, 0.04150495824080622
1050.0, 0.04534881525128928
1051.0, 0.043874861922564734
1052.0, 0.05264039708547211
1053.0, 0.05859204359007675
1054.0, 0.06571059010175777
1055.0, 0.06892217974482001
1056.0, 0.06401399672724076
1057.0, 0.0668222548581108
1058.0, 0.07314802709445027
1059.0, 0.0715318540545012
1060.0, 0.06920403742908848
1061.0, 0.05814191688296087
1062.0, 0.04954157745716526
1063.0, 0.04543584268320033
1064.0, 0.03103724287251473
1065.0, 0.03031814680323375
1066.0, 0.03157243650979912
1067.0, 0.020126728794061383
1068.0, 0.015571695690305422
1069.0, 0.019430102885827277
1070.0, 0.010896164934653526
1071.0, 0.004313366671857059
1072.0, 0.006958829559569196
1073.0, 0.009345851877166437
1074.0, 0.012804074724861149
1075.0, 0.0020265125572937496
1076.0, 0.0027969340713210845
1077.0, 0.0011207108082313556
1078.0, 0.0005430226391579576
1079.0, 0.00136312958619323
1080.0, 0.003080215255891363
1081.0, 0.007390202921152459
1082.0, 0.0010722036389217767
1083.0, 0.005690384626596486
1084.0, 0.006933902752462341
1085.0, 0.008056185554491682
1086.0, 0.0022346069648536073
1087.0, 0.0016376681930912814
1088.0, 0.002439154698632865
1089.0, 0.0018994560652204062
1090.0, 0.0023134021075607147
1091.0, 0.0032695510268758708
1092.0, 0.005342825591521643
1093.0, 0.004072906574815166
1094.0, 0.0023604467169070814
1095.0, 0.0054427418067456625
1096.0, 0.003514226862646466
1097.0, 0.0032032005905507366
1098.0, 0.0032605918337731245
1099.0, 0.00946544073523948
1100.0, 0.018149630354647228
1101.0, 0.010176920663015945
1102.0, 0.009941381268883987
1103.0, 0.015113340714810086
1104.0, 0.012692758539058331
1105.0, 0.008530086044689848
1106.0, 0.005000865264021912
1107.0, 0.003799725092709953
1108.0, 0.00910350050649791
1109.0, 0.00825547695124761
1110.0, 0.0007281108060130928
1111.0, 0.002977137662124919
1112.0, 0.005289736485367623
1113.0, 0.004890334100561916
1114.0, 0.008440642577806096
1115.0, 0.010239485309247754
1116.0, 0.008409038850931807
1117.0, 0.003652464304657053
1118.0, 0.0030087884654284745
1119.0, 0.008645021803228615
1120.0, 0.00899922884950225
1121.0, 0.005747550212742897
1122.0, 0.00500642204393799
1123.0, 0.005533886082532829
1124.0, 0.004726011162491538
1125.0, 0.003999156605768967
1126.0, 0.00639166302250207
1127.0, 0.011153872272398231
1128.0, 0.004863596795462353
1129.0, 0.012894591096406281
1130.0, 0.0063965326347140035
1131.0, 0.007465072209162739
1132.0, 0.009220176233275899
1133.0, 0.011417901483096104
1134.0, 0.013406137388769964
1135.0, 0.01547292238015353
1136.0, 0.017410573687178174
1137.0, 0.015108669303040782
1138.0, 0.017723886934510623
1139.0, 0.016409783481467453
1140.0, 0.017332833093192855
1141.0, 0.015378499209125544
1142.0, 0.01743190258953976
1143.0, 0.018557737650392855
1144.0, 0.021417131058094674
1145.0, 0.024010543144643605
1146.0, 0.02550543168000814
1147.0, 0.020984035559755376
1148.0, 0.0262020130399369
1149.0, 0.03449924643187012
1150.0, 0.035670213415854475
1151.0, 0.03571373360009347
1152.0, 0.03488888935701387
1153.0, 0.04057133796801059
1154.0, 0.0436071440314535
1155.0, 0.04660678562964551
1156.0, 0.05097668745867222
1157.0, 0.050275191282655673
1158.0, 0.0537213033622564
1159.0, 0.05946630106064068
1160.0, 0.06800341686197742
1161.0, 0.07093657667166184
1162.0, 0.07463726141900486
1163.0, 0.06767449499117523
1164.0, 0.07878957456412812
1165.0, 0.08398722148653266
1166.0, 0.07040241323962458
1167.0, 0.07002025980000227
1168.0, 0.06530655629490884
1169.0, 0.06298518735999173
1170.0, 0.06297391628871699
1171.0, 0.059002719712138774
1172.0, 0.05242514126665449
1173.0, 0.044807215609659765
1174.0, 0.04111019457671669
1175.0, 0.04051238802502326
1176.0, 0.03757699317946615
1177.0, 0.03773021553797524
1178.0, 0.026352377378675875
1179.0, 0.025419464344228097
1180.0, 0.022960897775711312
1181.0, 0.013275415216375368
1182.0, 0.023722266830554267
1183.0, 0.019927700766196807
1184.0, 0.01692306991689052
1185.0, 0.019724300257821393
1186.0, 0.008134718120556087
1187.0, 0.008063824580542455
1188.0, 0.011278348574168056
1189.0, 0.004640667450978408
1190.0, 0.00454407387515688
1191.0, 0.00491647328923861
1192.0, 0.002131139605948682
1193.0, 0.006187924943822313
1194.0, 0.0031830349302950597
1195.0, 0.004034337781184897
1196.0, 0.008512496465716791
1197.0, 0.009055668468377716
1198.0, 0.005744858586585501
1199.0, 0.007707013280880504
1200.0, 0.005788784830427729
1201.0, 0.0021148078875686594
1202.0, 0.0010951092299988207
1203.0, 0.009679353904496438
1204.0, 0.007821357715940997
1205.0, 0.0021368722695488777
1206.0, 0.0036353116884405914
1207.0, 0.005676030014565232
1208.0, 0.0026806059475670964
1209.0, 0.00264146618783049
1210.0, 0.0030620731252202996
1211.0, 0.0023382850252938025
1212.0, 0.0056336571691079605
1213.0, 0.007143193337507329
1214.0, 0.0033610969394030654
1215.0, 0.0004383477963567605
1216.0, 0.001689922093218457
1217.0, 0.00790481102791978
1218.0, 0.003309154044940141
1219.0, 0.00337311549075441
1220.0, 0.0007349494381150392
1221.0, 0.005051368659490398
1222.0, 0.005727338454249646
1223.0, 0.0007630302279840594
1224.0, 0.0066782224490041136
1225.0, 0.008622230194721334
1226.0, 0.00782449444006033
1227.0, 0.0034742207919003535
1228.0, 0.0026444687913935606
1229.0, 0.007838207244622367
1230.0, 0.004080716065547942
1231.0, 0.001452546516856932
1232.0, 0.0035251840036518824
1233.0, 0.002759885248106834
1234.0, 0.002576262307143868
1235.0, 0.0013735192499218717
1236.0, 0.0018096091361250659
1237.0, 0.008871106970749347
1238.0, 0.006023873498836996
1239.0, 0.004346452422318308
1240.0, 0.004656269649869087
1241.0, 0.007082618256588361
1242.0, 0.006025178475017696
1243.0, 0.007153153925819227
1244.0, 0.010194472524904042
1245.0, 0.007870120481989602
1246.0, 0.009780912903279027
1247.0, 0.00687870671428039
1248.0, 0.0003346639582973319
1249.0, 0.00552732064374478
1250.0, 0.008279675149170648
1251.0, 0.009317754047316322
1252.0, 0.012798016565571155
1253.0, 0.011337266769776524
1254.0, 0.004655173800284678
1255.0, 0.0048234576441549175
1256.0, 0.0066097885302247176
1257.0, 0.004820244742887402
1258.0, 0.005569831426132259
1259.0, 0.007087049292961082
1260.0, 0.005466501822172168
1261.0, 0.0050762900795283126
1262.0, 0.002393839014232774
1263.0, 0.0010004140400673878
1264.0, 0.009326224963732992
1265.0, 0.009067972847115044
1266.0, 0.0036690193532527924
1267.0, 0.01044649887420848
1268.0, 0.009940872984180485
1269.0, 0.0022860614211410633
1270.0, 0.007032273202950574
1271.0, 0.010200973018630865
1272.0, 0.0009516930972673578
1273.0, 0.0034344657167740137
1274.0, 0.00927365565424187
1275.0, 0.007749361744318481
1276.0, 0.007162523496585802
1277.0, 0.0016735218666045265
1278.0, 0.002594329024506414
1279.0, 0.007178434993056736
1280.0, 0.012733850276214067
1281.0, 0.01448540325643312
1282.0, 0.012041552919374981
1283.0, 0.006118681532727891
1284.0, 0.004864351224573007
1285.0, 0.0037614401972193923
1286.0, 0.0025539501908514416
1287.0, 0.005465244003273686
1288, 0.0
1289, 0.0
1290, 0.0
1291, 0.0
1292, 0.0
1293, 0.0
1294, 0.0
1295, 0.0
1296, 0.0
1297, 0.0
1298, 0.0
1299, 0.0
1300, 0.0
1301, 0.0
1302, 0.0
1303, 0.0
1304, 0.0
1305, 0.0
1306, 0.0
1307, 0.0
1308, 0.0
1309, 0.0
1310, 0.0
1311, 0.0
1312, 0.0
1313, 0.0
1314, 0.0
1315, 0.0
1316, 0.0
1317, 0.0
1318, 0.0
1319, 0.0
1320, 0.0
1321, 0.0
1322, 0.0
1323, 0.0
1324, 0.0
1325, 0.0
1326, 0.0
1327, 0.0
1328, 0.0
1329, 0.0
1330, 0.0
1331, 0.0
1332, 0.0
1333, 0.0
1334, 0.0
1335, 0.0
1336, 0.0
1337, 0.0
1338, 0.0
1339, 0.0
1340, 0.0
1341, 0.0
1342, 0.0
1343, 0.0
1344, 0.0
1345, 0.0
1346, 0.0
1347, 0.0
1348, 0.0
1349, 0.0
1350, 0.0
1351, 0.0
1352, 0.0
1353, 0.0
1354, 0.0
1355, 0.0
1356, 0.0
1357, 0.0
1358, 0.0
1359, 0.0
1360, 0.0
1361, 0.0
1362, 0.0
1363, 0.0
1364, 0.0
1365, 0.0
1366, 0.0
1367, 0.0
1368, 0.0
1369, 0.0
1370, 0.0
1371, 0.0
1372, 0.0
1373, 0.0
1374, 0.0
1375, 0.0
1376, 0.0
1377, 0.0
1378, 0.0
1379, 0.0
1380, 0.0
1381, 0.0
1382, 0.0
1383, 0.0
1384, 0.0
1385, 0.0
1386, 0.0
1387, 0.0
1388, 0.0
1389, 0.0
1390, 0.0
1391, 0.0
1392, 0.0
1393, 0.0
1394, 0.0
1395, 0.0
1396, 0.0
1397, 0.0
1398, 0.0
1399, 0.0
1400, 0.0
1401, 0.0
1402, 0.0
1403, 0.0
1404, 0.0
1405, 0.0
1406, 0.0
1407, 0.0
1408, 0.0
1409, 0.0
1410, 0.0
1411, 0.0
1412, 0.0
1413, 0.0
1414, 0.0
1415, 0.0
1416, 0.0
1417, 0.0
1418, 0.0
1419, 0.0
1420, 0.0
1421, 0.0
1422, 0.0
1423, 0.0
1424, 0.0
1425, 0.0
1426, 0.0
1427, 0.0
1428, 0.0
1429, 0.0
1430, 0.0
1431, 0.0
1432, 0.0
1433, 0.0
1434, 0.0
1435, 0.0
1436, 0.0
1437, 0.0
1438, 0.0
1439, 0.0
1440, 0.0
1441, 0.0
1442, 0.0
1443, 0.0
1444, 0.0
1445, 0.0
1446, 0.0
1447, 0.0
1448, 0.0
1449, 0.0
1450, 0.0
1451, 0.0
1452, 0.0
1453, 0.0
1454, 0.0
1455, 0.0
1456, 0.0
1457, 0.0
1458, 0.0
1459, 0.0
1460, 0.0
1461, 0.0
1462, 0.0
1463, 0.0
1464, 0.0
1465, 0.0
1466, 0.0
1467, 0.0
1468, 0.0
1469, 0.0
1470, 0.0
1471, 0.0
1472, 0.0
1473, 0.0
1474, 0.0
1475, 0.0
1476, 0.0
1477, 0.0
1478, 0.0
1479, 0.0
1480, 0.0
1481, 0.0
1482, 0.0
1483, 0.0
1484, 0.0
1485, 0.0
1486, 0.0
1487, 0.0
1488, 0.0
1489, 0.0
1490, 0.0
1491, 0.0
1492, 0.0
1493, 0.0
1494, 0.0
1495, 0.0
1496, 0.0
1497, 0.0
1498, 0.0
1499, 0.0
1500, 0.0
1501, 0.0
1502, 0.0
1503, 0.0
1504, 0.0
1505, 0.0
1506, 0.0
1507, 0.0
1508, 0.0
1509, 0.0
1510, 0.0
1511, 0.0
1512, 0.0
1513, 0.0
1514, 0.0
1515, 0.0
1516, 0.0
1517, 0.0
1518, 0.0
1519, 0.0
1520, 0.0
1521, 0.0
1522, 0.0
1523, 0.0
1524, 0.0
1525, 0.0
1526, 0.0
1527, 0.0
1528, 0.0
1529, 0.0
1530, 0.0
1531, 0.0
1532, 0.0
1533, 0.0
1534, 0.0
1535, 0.0
1536, 0.0
1537, 0.0
1538, 0.0
1539, 0.0
1540, 0.0
1541, 0.0
1542, 0.0
1543, 0.0
1544, 0.0
1545, 0.0
1546, 0.0
1547, 0.0
1548, 0.0
1549, 0.0
1550, 0.0
1551, 0.0
1552, 0.0
1553, 0.0
1554, 0.0
1555, 0.0
1556, 0.0
1557, 0.0
1558, 0.0
1559, 0.0
1560, 0.0
1561, 0.0
1562, 0.0
1563, 0.0
1564, 0.0
1565, 0.0
1566, 0.0
1567, 0.0
1568, 0.0
1569, 0.0
1570, 0.0
1571, 0.0
1572, 0.0
1573, 0.0
1574, 0.0
1575, 0.0
1576, 0.0
1577, 0.0
1578, 0.0
1579, 0.0
1580, 0.0
1581, 0.0
1582, 0.0
1583, 0.0
1584, 0.0
1585, 0.0
1586, 0.0
1587, 0.0
1588, 0.0
1589, 0.0
1590, 0.0
1591, 0.0
1592, 0.0
1593, 0.0
1594, 0.0
1595, 0.0
1596, 0.0
1597, 0.0
1598, 0.0
1599, 0.0
