30, 0.0
31, 0.0
32, 0.0
33, 0.0
34, 0.0
35, 0.0
36, 0.0
37, 0.0
38, 0.0
39, 0.0
40, 0.0
41, 0.0
42, 0.0
43, 0.0
44, 0.0
45, 0.0
46, 0.0
47, 0.0
48, 0.0
49, 0.0
50, 0.0
51, 0.0
52, 0.0
53, 0.0
54, 0.0
55, 0.0
56, 0.0
57, 0.0
58, 0.0
59, 0.0
60, 0.0
61, 0.0
62, 0.0
63, 0.0
64, 0.0
65, 0.0
66, 0.0
67, 0.0
68, 0.0
69, 0.0
70, 0.0
71, 0.0
72, 0.0
73, 0.0
74, 0.0
75, 0.0
76, 0.0
77, 0.0
78, 0.0
79, 0.0
80, 0.0
81, 0.0
82, 0.0
83, 0.0
84, 0.0
85, 0.0
86, 0.0
87, 0.0
88, 0.0
89, 0.0
90, 0.0
91, 0.0
92, 0.0
93, 0.0
94, 0.0
95, 0.0
96, 0.0
97, 0.0
98, 0.0
99, 0.0
100, 0.0
101, 0.0
102, 0.0
103, 0.0
104, 0.0
105, 0.0
106, 0.0
107, 0.0
108, 0.0
109, 0.0
110, 0.0
111, 0.0
112, 0.0
113, 0.0
114, 0.0
115, 0.0
116, 0.0
117, 0.0
118, 0.0
119.0, 1.3511864141967035e-05
120.0, 0.00013747392049029455
121.0, 0.004372765111424113
122.0, 0.01074510876528151
123.0, 0.018156262189255236
124.0, 0.0179722112585775
125.0, 0.022201123801305463
126.0, 0.03019157804926536
127.0, 0.032690446805340216
128.0, 0.03919362508471001
129.0, 0.046770179355218086
130.0, 0.05362780988693822
131.0, 0.05531355921006527
132.0, 0.06067982938864431
133.0, 0.06827238355301826
134.0, 0.07039782432596536
135.0, 0.06971727261173442
136.0, 0.0687570073601569
137.0, 0.06880886028701456
138.0, 0.06889101749690121
139.0, 0.06935329599413599
140.0, 0.06959828503494547
141.0, 0.06776010656356599
142.0, 0.06798566103396052
143.0, 0.06832077570842168
144.0, 0.06794640612228191
145.0, 0.05969614838348963
146.0, 0.05725971178673775
147.0, 0.05703584397765983
148.0, 0.052264285040880806
149.0, 0.051161525070710256
150.0, 0.04702553308559086
151.0, 0.03850741260236087
152.0, 0.0346815267353438
153.0, 0.03005351252422986
154.0, 0.02596409382539039
155.0, 0.024377233645891238
156.0, 0.020023398372202048
157.0, 0.01425091939596209
158.0, 0.008077264492041552
159.0, 0.007768190734054499
160.0, 0.0041197241359984885
161.0, 0.0014103357870021743
162.0, 0.0034294910704544424
163.0, 0.001489438925740032
164.0, 0.0008035411613983435
165.0, 0.0012455268365846052
166.0, 0.0009683879956794773
167.0, 0.0014169478520409536
168.0, 0.0018785163249238398
169.0, 0.0020104440397609347
170.0, 0.001364222576686814
171.0, 0.0009830267211720753
172.0, 0.0016736364281572922
173.0, 0.005563759082975812
174.0, 0.007113270872194806
175.0, 0.009861141091368607
176.0, 0.014508212691366623
177.0, 0.016207369373816456
178.0, 0.014330775248477576
179.0, 0.010081922183147782
180.0, 0.004267881262436436
181.0, 0.006060850831091874
182.0, 0.007085765396314478
183.0, 0.0065912722952684135
184.0, 0.0060960590518507425
185.0, 0.0043526986976468555
186.0, 0.0022588522451658976
187.0, 0.0003060327121402844
188.0, 0.0019106935356104223
189.0, 0.004901564615108856
190.0, 0.008211098591366702
191.0, 0.009280290794761645
192.0, 0.013183323426626528
193.0, 0.021136025740261105
194.0, 0.03323868273489479
195.0, 0.04089443972632721
196.0, 0.046652675649840825
197.0, 0.05094066391111333
198.0, 0.053890110619873526
199.0, 0.05257497194340401
200.0, 0.05065333920624645
201.0, 0.04827250752765417
202.0, 0.0440019174357483
203.0, 0.03901467705463727
204.0, 0.03545595594585136
205.0, 0.0346339271969203
206.0, 0.03913002060147923
207.0, 0.03611265158674572
208.0, 0.031686161097924
209.0, 0.03808776338319287
210.0, 0.038594225856631546
211.0, 0.03956839426572283
212.0, 0.04205762722236886
213.0, 0.043119796053323646
214.0, 0.042839074400504155
215.0, 0.04253706586326213
216.0, 0.043285154879191795
217.0, 0.040140535512902184
218.0, 0.037783813247866345
219.0, 0.036024102569015816
220.0, 0.033697735758902225
221.0, 0.0342386455351323
222.0, 0.03553308726682291
223.0, 0.037195107629412055
224.0, 0.04266990450100855
225.0, 0.048270150448089216
226.0, 0.05444527200957187
227.0, 0.06181263478706358
228.0, 0.07217690823513499
229.0, 0.08513038362070387
230.0, 0.10029458431387746
231.0, 0.11677998701108287
232.0, 0.13151201337087032
233.0, 0.14605507290560707
234.0, 0.16069784554567676
235.0, 0.16867979772526362
236.0, 0.170183207833629
237.0, 0.167218667107239
238.0, 0.1613352081323659
239.0, 0.1497022146556917
240.0, 0.13328302787710555
241.0, 0.11442039817441355
242.0, 0.10191317723080519
243.0, 0.0913919403486917
244.0, 0.07829959087879443
245.0, 0.06109962720459824
246.0, 0.05332309330094005
247.0, 0.04450143307382147
248.0, 0.03632824494979282
249.0, 0.031077437214828647
250.0, 0.022646301739757103
251.0, 0.017677159249070106
252.0, 0.01563507354183337
253.0, 0.012275728719388805
254.0, 0.014686193989097946
255.0, 0.015266678071316549
256.0, 0.011473024206470797
257.0, 0.01158787765294922
258.0, 0.009137422933714896
259.0, 0.007187530443485873
260.0, 0.009198630338315533
261.0, 0.012685172501444183
262.0, 0.012020351786573069
263.0, 0.009935814461960546
264.0, 0.016060373847243663
265.0, 0.01752540513235084
266.0, 0.01880219160402236
267.0, 0.021225000536322647
268.0, 0.024819188235760643
269.0, 0.02818774829131738
270.0, 0.033902794223430316
271.0, 0.044462303877329655
272.0, 0.0470779392308586
273.0, 0.05393356940494182
274.0, 0.06522080786567422
275.0, 0.081173331871468
276.0, 0.09305176324801773
277.0, 0.1082707145834177
278.0, 0.1276699370389468
279.0, 0.14678947805800138
280.0, 0.16591902560109828
281.0, 0.18408251036477805
282.0, 0.2005267438613
283.0, 0.20633924201229836
284.0, 0.20289026801884616
285.0, 0.19295493393465069
286.0, 0.1793727662191281
287.0, 0.16232916459451346
288.0, 0.1430536108646102
289.0, 0.12393325497267978
290.0, 0.11291567197842892
291.0, 0.09958117447918997
292.0, 0.08782044595331653
293.0, 0.07856272690180557
294.0, 0.06755187777006223
295.0, 0.06332696504026253
296.0, 0.059978072781749346
297.0, 0.05309672487942037
298.0, 0.0512074012790519
299.0, 0.048828833545065405
300.0, 0.04512926353710448
301.0, 0.03856709111474054
302.0, 0.03454483283476408
303.0, 0.031677235781559766
304.0, 0.028971739985014403
305.0, 0.0230498663883237
306.0, 0.019901336537149004
307.0, 0.01747724867134894
308.0, 0.014722706346153476
309.0, 0.0072050380525053165
310.0, 0.006391137930541649
311.0, 0.007560092286429242
312.0, 0.007046509826306179
313.0, 0.00870818665170329
314.0, 0.0065194545785633926
315.0, 0.002905565625072781
316.0, 0.0023934853374762174
317.0, 0.001724363463919338
318.0, 0.0009974456361214296
319.0, 0.0005576097726238811
320.0, 0.0017440341612723767
321.0, 0.0013305659509351018
322.0, 0.0012498086677508427
323.0, 0.0023652454510416474
324.0, 0.006700389020697219
325.0, 0.007122485747913581
326.0, 0.0061747712364540845
327.0, 0.005483752464751643
328.0, 0.003125778101874101
329.0, 0.0036126664259523425
330.0, 0.005168395523351298
331.0, 0.005357681651370615
332.0, 0.004102147134561195
333.0, 0.0021416973304366725
334.0, 0.00043629735083975697
335.0, 0.0015292443066634016
336.0, 0.0012421781081045932
337.0, 0.0017497452340386683
338.0, 0.003182923729867295
339.0, 0.0032595611068363555
340.0, 0.0022307617910730525
341.0, 0.0030943583313739597
342.0, 0.006775231002277064
343.0, 0.0034105160009880752
344.0, 0.0036283594704237484
345.0, 0.004115687362940021
346.0, 0.0020515389768439433
347.0, 0.004678721518815426
348.0, 0.004285025726999811
349.0, 0.0028693300323533533
350.0, 0.0037954537966748674
351.0, 0.006315301998230497
352.0, 0.006788758298348532
353.0, 0.005504310469809743
354.0, 0.004251001203958737
355.0, 0.005009891009481191
356.0, 0.0058283353856440605
357.0, 0.006398634003420401
358.0, 0.0074877317732169445
359.0, 0.008615793152543459
360.0, 0.009536616858768209
361.0, 0.010488268521644289
362.0, 0.015858288095990252
363.0, 0.013120194240829905
364.0, 0.009754253332923575
365.0, 0.01102026180577752
366.0, 0.015082443685288039
367.0, 0.018451551775860768
368.0, 0.021557699007843864
369.0, 0.02490469053808327
370.0, 0.021854142816562432
371.0, 0.023402868017807044
372.0, 0.02668474222546969
373.0, 0.024869140560497313
374.0, 0.028200842969045528
375.0, 0.03112587247595573
376.0, 0.03339623353522162
377.0, 0.03672072493458894
378.0, 0.03681993803220475
379.0, 0.03674778145873601
380.0, 0.037554166018586924
381.0, 0.04087099752389988
382.0, 0.03991610901638111
383.0, 0.037354785442762176
384.0, 0.03460437815460267
385.0, 0.035989165591225454
386.0, 0.03291281336780784
387.0, 0.030383844134340362
388.0, 0.0314499020102134
389.0, 0.03282247820078882
390.0, 0.030910234504936688
391.0, 0.029487535820682927
392.0, 0.0321457722485733
393.0, 0.03195855097827391
394.0, 0.0351909489386135
395.0, 0.03858512330860752
396.0, 0.03738390016209181
397.0, 0.04010142378695064
398.0, 0.04270293833508886
399.0, 0.04643734381033054
400.0, 0.05457362147390129
401.0, 0.061265425885628874
402.0, 0.06532641126969117
403.0, 0.06952125395682561
404.0, 0.08248675665212922
405.0, 0.08941488283227399
406.0, 0.09366857534934293
407.0, 0.0958674686864171
408.0, 0.09562638562826094
409.0, 0.09433656873810706
410.0, 0.09130007153981184
411.0, 0.08689607313278112
412.0, 0.08503986935984367
413.0, 0.08393453317823889
414.0, 0.08262923075387671
415.0, 0.08088114216623767
416.0, 0.08031285332932678
417.0, 0.08165457859697318
418.0, 0.0850715016215159
419.0, 0.09074545789616913
420.0, 0.09856691377350472
421.0, 0.10798520740860856
422.0, 0.11959207680516508
423.0, 0.13389735196928196
424.0, 0.14914049676534674
425.0, 0.16679272749862112
426.0, 0.1862447517146562
427.0, 0.20698899894946607
428.0, 0.23924503682438555
429.0, 0.26075653833545476
430.0, 0.28304667534023914
431.0, 0.3206136952444692
432.0, 0.3401243994060801
433.0, 0.34810044659595935
434.0, 0.34675428723178475
435.0, 0.33841536341228734
436.0, 0.3267354255391216
437.0, 0.30981733184183885
438.0, 0.28595337026878304
439.0, 0.25172531445593715
440.0, 0.22015761474708698
441.0, 0.19439156484489678
442.0, 0.17261516487861234
443.0, 0.15035418410967524
444.0, 0.13385333295820134
445.0, 0.1194736140685193
446.0, 0.10514803208610556
447.0, 0.0867531652397972
448.0, 0.0762653990546638
449.0, 0.06900364157991512
450.0, 0.062289573746646114
451.0, 0.05035866533694178
452.0, 0.050076142009943855
453.0, 0.04889909950612891
454.0, 0.04512371013730928
455.0, 0.04161141698912043
456.0, 0.03400819094218012
457.0, 0.030197801729881974
458.0, 0.03170631723637529
459.0, 0.037269790620644214
460.0, 0.03235801693760869
461.0, 0.027819015869039756
462.0, 0.025772186760486104
463.0, 0.0229010213191327
464.0, 0.02002767561398292
465.0, 0.019807624064477312
466.0, 0.021469208126258153
467.0, 0.017294529273998407
468.0, 0.019680686382438913
469.0, 0.020859349060143067
470.0, 0.019356014830455927
471.0, 0.020374567067286634
472.0, 0.020870804001723576
473.0, 0.020480169638765748
474.0, 0.01904941266941991
475.0, 0.016490228683350306
476.0, 0.018851047769029503
477.0, 0.021263823075325365
478.0, 0.021558442275678588
479.0, 0.016952399387330733
480.0, 0.020643684616585965
481.0, 0.01992329500000028
482.0, 0.0129756008201032
483.0, 0.016192577340286753
484.0, 0.014197219795396896
485.0, 0.011470837108787943
486.0, 0.01068751295934841
487.0, 0.018192576505060214
488.0, 0.014086509797737679
489.0, 0.008714217240015058
490.0, 0.006138670880757528
491.0, 0.00882190981262148
492.0, 0.007070148420412434
493.0, 0.004489084035758839
494.0, 0.00298377537126016
495.0, 0.006236159550305804
496.0, 0.0032666851583619304
497.0, 0.0014628840403073814
498.0, 0.0025953509999387136
499.0, 0.003413678076114505
500.0, 0.0014347739017080176
501.0, 7.098798650602175e-05
502.0, 0.0004985305009459818
503.0, 0.0033487969691397
504.0, 0.0022545254509508286
505.0, 0.0015986563670507652
506.0, 0.002273813756332509
507.0, 0.0029305835181973436
508.0, 0.0019271003637902702
509.0, 0.0009635335994379303
510.0, 0.0004573991399926925
511.0, 0.0003931910822596841
512.0, 0.0012111445837490733
513.0, 0.0020200596408488764
514.0, 0.0025029016886791225
515.0, 0.0022656397236027115
516.0, 0.0022470156546110474
517.0, 0.004182043489507682
518.0, 0.006212140035542049
519.0, 0.0022789859758611287
520.0, 0.0017035110396491978
521.0, 0.0011067550891898
522.0, 0.002026806953491251
523.0, 0.009377009153642864
524.0, 0.0040399970074832614
525.0, 0.0007640422593510456
526.0, 0.0021001861980715496
527.0, 0.009644378487331396
528.0, 0.00630685174952307
529.0, 0.005824694613021163
530.0, 0.008653498407926126
531.0, 0.013573187527970605
532.0, 0.013447864350050479
533.0, 0.011891703596503213
534.0, 0.013327916567677726
535.0, 0.0234504732398129
536.0, 0.014985457133506472
537.0, 0.017572488087825654
538.0, 0.022704251237482466
539.0, 0.02013847500854312
540.0, 0.023068238411274304
541.0, 0.023571538297540804
542.0, 0.022331914835512452
543.0, 0.02006319569563232
544.0, 0.01912072621686835
545.0, 0.02301923227638464
546.0, 0.025188966727398072
547.0, 0.021478897789017338
548.0, 0.01785321437127102
549.0, 0.023711230810081006
550.0, 0.029706431752639623
551.0, 0.030726508837647083
552.0, 0.026124857984694053
553.0, 0.02476633188261325
554.0, 0.02602021011531224
555.0, 0.02927688826191711
556.0, 0.0325121192187103
557.0, 0.03495193898668609
558.0, 0.03701622474652171
559.0, 0.0390738568066473
560.0, 0.04205233089748584
561.0, 0.042737734948222826
562.0, 0.04216166080345744
563.0, 0.04201449244177555
564.0, 0.046230505476753524
565.0, 0.04756357339341352
566.0, 0.0509991487356099
567.0, 0.055477049400631404
568.0, 0.05773354134571815
569.0, 0.056275709265983326
570.0, 0.06006806603641356
571.0, 0.0630048202095978
572.0, 0.05604624589192566
573.0, 0.0645908656716761
574.0, 0.06531693277238368
575.0, 0.06504859474302249
576.0, 0.07050095319809009
577.0, 0.07306447736243075
578.0, 0.07212047807424918
579.0, 0.07379530220801334
580.0, 0.08053603235452886
581.0, 0.07454074389008306
582.0, 0.07935118772235272
583.0, 0.08502807757228292
584.0, 0.08780302642669531
585.0, 0.09201072346832455
586.0, 0.09407898983934328
587.0, 0.09565261317888629
588.0, 0.0957729005343101
589.0, 0.08943070752832147
590.0, 0.09396211362568947
591.0, 0.09321115339317995
592.0, 0.09024600548679268
593.0, 0.09808219080711497
594.0, 0.09981738795986586
595.0, 0.10245975875845648
596.0, 0.10492948494429785
597.0, 0.10484608838468494
598.0, 0.10215935010754804
599.0, 0.1040637160404465
600.0, 0.10744280162869446
601.0, 0.10924804742638636
602.0, 0.109155269955115
603.0, 0.10351647684407908
604.0, 0.09981291633715951
605.0, 0.1014223475482625
606.0, 0.10066230182213402
607.0, 0.10068634950225816
608.0, 0.10155056110544697
609.0, 0.1029350485168878
610.0, 0.10349338983659333
611.0, 0.09810729588912992
612.0, 0.09352436970369274
613.0, 0.0900526095988367
614.0, 0.08531248272853868
615.0, 0.08455187544472982
616.0, 0.08142062370936264
617.0, 0.07863902537822727
618.0, 0.08060910068342682
619.0, 0.07207022564145076
620.0, 0.06992757167328349
621.0, 0.07010719234281489
622.0, 0.06897365269967459
623.0, 0.06587627308342589
624.0, 0.06253718996546878
625.0, 0.06073059057754877
626.0, 0.05991370386829732
627.0, 0.052505985242160345
628.0, 0.04976081238179125
629.0, 0.05004800431714052
630.0, 0.05190117639867845
631.0, 0.05244494462975961
632.0, 0.04998887459646001
633.0, 0.04562862047123578
634.0, 0.040668802004201636
635.0, 0.036888322817398185
636.0, 0.0428805647190025
637.0, 0.04034906421880379
638.0, 0.03820043066369698
639.0, 0.04350723027958684
640.0, 0.040045003206648846
641.0, 0.04285030331072987
642.0, 0.042746892840591695
643.0, 0.03806372875815337
644.0, 0.04289734042373109
645.0, 0.043876699857427794
646.0, 0.039223532136325984
647.0, 0.03221074003188787
648.0, 0.03204765008694752
649.0, 0.03728013622958294
650.0, 0.036935148472162574
651.0, 0.03205767262360044
652.0, 0.025605823211961098
653.0, 0.0294488947086178
654.0, 0.025956427958333007
655.0, 0.021627269580420945
656.0, 0.021096713408781505
657.0, 0.02365831907688684
658.0, 0.025563239563157945
659.0, 0.02341196618465631
660.0, 0.018753836882533504
661.0, 0.021231774774297208
662.0, 0.013604836598750608
663.0, 0.012953681120954292
664.0, 0.015290670582321014
665.0, 0.00942609601553716
666.0, 0.013482893931018642
667.0, 0.012950088770101618
668.0, 0.011742018477813526
669.0, 0.01330599134191404
670.0, 0.01295540028792542
671.0, 0.01026933489018747
672.0, 0.007575562224630156
673.0, 0.006459455904363824
674.0, 0.009257715374462466
675.0, 0.012680037444189104
676.0, 0.011073513674018346
677.0, 0.007398419709157581
678.0, 0.009033412341539562
679.0, 0.0039708611123669395
680.0, 0.005169808255173261
681.0, 0.005842308850430901
682.0, 0.00033966328220134544
683.0, 0.0020573122612781406
684.0, 0.0028404609413281963
685.0, 0.0020064257079989065
686.0, 0.00045169031484431754
687.0, 0.002854982817190232
688.0, 0.003437161350144083
689.0, 0.0024215151727101907
690.0, 0.0031083944652109605
691.0, 0.010934678213932625
692.0, 0.004685128142361061
693.0, 0.0031526196343821334
694.0, 0.002848372930789804
695.0, 0.00125263164747257
696.0, 0.006414795556246345
697.0, 0.0045138961447359705
698.0, 0.003994982452021649
699.0, 0.0055228602522230715
700.0, 0.0013122231112008523
701.0, 0.004915337840478499
702.0, 0.005027583761430148
703.0, 0.003416743197437812
704.0, 0.004487638933713356
705.0, 0.00799110026486855
706.0, 0.005730666725910181
707.0, 0.002860556646586979
708.0, 0.0024976129667274604
709.0, 0.0033692405926604796
710.0, 0.0041182963454967055
711.0, 0.007755475740596189
712.0, 0.011723735740256177
713.0, 0.008829844014878413
714.0, 0.0056802325560048415
715.0, 0.0044129049093547534
716.0, 0.004890022192251997
717.0, 0.006347567320305935
718.0, 0.0031086755952504123
719.0, 0.01077547711697457
720.0, 0.010652111326207971
721.0, 0.001083839831345428
722.0, 0.0018669312786215027
723.0, 0.005053417992514773
724.0, 0.008926122855787534
725.0, 0.011185021663358607
726.0, 0.009253409641033807
727.0, 0.006000628956374868
728.0, 0.008126589069686625
729.0, 0.010212020261982886
730.0, 0.009450333136242783
731.0, 0.007538431052188491
732.0, 0.011078221789352062
733.0, 0.009682042583723505
734.0, 0.00795402392057648
735.0, 0.017471576704256035
736.0, 0.010134472329268014
737.0, 0.005757524518833566
738.0, 0.007707275112935253
739.0, 0.015516964120828066
740.0, 0.012585259141219076
741.0, 0.008823329612955354
742.0, 0.009734308836687966
743.0, 0.012403041995575272
744.0, 0.0074451935177750565
745.0, 0.013118896657725474
746.0, 0.015222967569456137
747.0, 0.013139536808372914
748.0, 0.008435340665793548
749.0, 0.012904669443314452
750.0, 0.015206804519284316
751.0, 0.01245860937534241
752.0, 0.009249307818511847
753.0, 0.018768133040218793
754.0, 0.013702263032400635
755.0, 0.013673576199702976
756.0, 0.013451443823489402
757.0, 0.007969380283098161
758.0, 0.008212650147075212
759.0, 0.009810152980026573
760.0, 0.009782878551767382
761.0, 0.008515726175410639
762.0, 0.009610642063058622
763.0, 0.011652267241241845
764.0, 0.011340527161636067
765.0, 0.00886774146448771
766.0, 0.0056070020403079235
767.0, 0.01041224864713106
768.0, 0.010648425704231603
769.0, 0.00781370122098333
770.0, 0.005461504091013656
771.0, 0.010943725885383403
772.0, 0.010371628978034545
773.0, 0.005473518792611165
774.0, 0.004298989262749216
775.0, 0.01122527729920892
776.0, 0.0029645286449292273
777.0, 0.007349199738973971
778.0, 0.007523106677697658
779.0, 0.003786847158351098
780.0, 0.008251547363665498
781.0, 0.004930471465481448
782.0, 0.003796067288283402
783.0, 0.004398100449127594
784.0, 0.005589052597923755
785.0, 0.004978353684812503
786.0, 0.007179171220662686
787.0, 0.007907353127500589
788.0, 0.008680345412069267
789.0, 0.01416294352799933
790.0, 0.0042691003472268094
791.0, 0.003974968027561797
792.0, 0.004596078201971468
793.0, 0.00229881798207146
794.0, 0.008121673084174729
795.0, 0.003987877274239481
796.0, 0.002679545162110868
797.0, 0.0050774469519851845
798.0, 0.008546071034123654
799.0, 0.0018191724137653622
800.0, 0.0014572958355514726
801.0, 0.003845110603014955
802.0, 0.00598304122089142
803.0, 0.004189554343609472
804.0, 0.010676227478608353
805.0, 0.007661138706458693
806.0, 0.0018828314345690714
807.0, 0.002297527692559445
808.0, 0.0030262987490540295
809.0, 0.001326393500167426
810.0, 0.0032142658774891105
811.0, 0.006919373586608034
812.0, 0.003912185017293949
813.0, 0.002868587587059682
814.0, 0.003995331314814782
815.0, 0.005055406955438857
816.0, 0.005513926930216623
817.0, 0.011803849408785079
818.0, 0.01071460026890848
819.0, 0.006601020964566693
820.0, 0.002535380084554589
821.0, 0.00162859402014454
822.0, 0.003025693489414675
823.0, 0.001615044416031487
824.0, 0.0004143891979205553
825.0, 0.000937717481276078
826.0, 0.0033512910556699766
827.0, 0.0012147470376356385
828.0, 0.0005451083903449277
829.0, 0.002371713064946499
830.0, 0.00616382990597275
831.0, 0.005168766712565151
832.0, 0.0047450299380292936
833.0, 0.004417201391498015
834.0, 0.0033707985311121074
835.0, 0.0006120386113167738
836.0, 0.006832507780533428
837.0, 0.0036947538741262833
838.0, 0.0012887015631117304
839.0, 0.0032778908254192172
840.0, 0.003611100502970064
841.0, 0.003959445192059194
842.0, 0.004587267686308291
843.0, 0.004560207786373603
844.0, 0.0031066078329171566
845.0, 0.0010999401767082424
846.0, 0.010212036873976812
847.0, 0.01195434927478364
848.0, 0.007840644877247383
849.0, 0.008214378749808742
850.0, 0.003340194583701222
851.0, 0.0026030843306032547
852.0, 0.006258909265716977
853.0, 0.01006706733679901
854.0, 0.001484046653860818
855.0, 0.007620835459549541
856.0, 0.006268011607213229
857.0, 0.0022739729400966914
858.0, 0.0018039061224447272
859.0, 0.007646786196931108
860.0, 0.00820988333460443
861.0, 0.005066153079215681
862.0, 0.002448647328065356
863.0, 0.0049830454718631356
864.0, 0.0015745089380771824
865.0, 0.009645297044635981
866.0, 0.00957543229248103
867.0, 0.002038358801073263
868.0, 0.005215820869611941
869.0, 0.011311744196719242
870.0, 0.005871975628551836
871.0, 0.002840586153038347
872.0, 0.008063327240614636
873.0, 0.008784626720247385
874.0, 0.006966648810830769
875.0, 0.004242343981289701
876.0, 0.003842094576043424
877.0, 0.00710526284833723
878.0, 0.003029576722561691
879.0, 0.0024037757963874507
880.0, 0.004984253501208106
881.0, 0.007034711079766697
882.0, 0.003917208128424963
883.0, 0.007037184033817179
884.0, 0.005621254522115801
885.0, 0.004225763789885923
886.0, 0.00459486746435832
887.0, 0.0065014489130792085
888.0, 0.004886623074551377
889.0, 0.005665847899507323
890.0, 0.00802852609046077
891.0, 0.0102903145684448
892.0, 0.008954394284995624
893.0, 0.0031691308861935873
894.0, 0.004522725526931287
895.0, 0.006965596400868817
896.0, 0.005704882597548151
897.0, 0.007108187421702799
898.0, 0.008405371178434685
899.0, 0.004604124787391129
900.0, 0.0025287871684629578
901.0, 0.009513620661552676
902.0, 0.013677026362145968
903.0, 0.013314668163550335
904.0, 0.018922716950109886
905.0, 0.02243579281495813
906.0, 0.008995984170130375
907.0, 0.01110054724390715
908.0, 0.016680254285124485
909.0, 0.01988338882493075
910.0, 0.019659029445133584
911.0, 0.018666918582323
912.0, 0.012541953101526775
913.0, 0.016494485342983548
914.0, 0.01872509534157572
915.0, 0.016748110421457747
916.0, 0.02126628293569635
917.0, 0.02085772303639606
918.0, 0.01757427953797288
919.0, 0.018228524221756155
920.0, 0.023809605695435457
921.0, 0.02144092463630655
922.0, 0.02601296699936591
923.0, 0.02305519122925941
924.0, 0.022888969640483987
925.0, 0.03126339678825774
926.0, 0.0274109113781741
927.0, 0.0315677128578743
928.0, 0.03024686445226109
929.0, 0.029106843322061052
930.0, 0.034330879240043494
931.0, 0.03401743782897239
932.0, 0.02988975432305796
933.0, 0.03229819146499439
934.0, 0.03817910643213349
935.0, 0.04044593844387446
936.0, 0.03289189937844461
937.0, 0.04074244824996031
938.0, 0.04160400142157415
939.0, 0.03930038144976223
940.0, 0.0466481745420626
941.0, 0.049115909047760684
942.0, 0.04380985139566815
943.0, 0.042833581658803105
944.0, 0.044605644510748325
945.0, 0.04078829165547794
946.0, 0.044642346803681045
947.0, 0.05119347090961106
948.0, 0.05181597907995043
949.0, 0.050302538317277906
950.0, 0.05867532369575399
951.0, 0.05005855371202407
952.0, 0.05220845537345104
953.0, 0.0570249804577526
954.0, 0.060462229609098014
955.0, 0.06167124273843704
956.0, 0.05930312939016961
957.0, 0.06161402633905945
958.0, 0.061495666546528174
959.0, 0.06011688857360114
960.0, 0.06709904375005092
961.0, 0.06477268378293835
962.0, 0.07397151203515054
963.0, 0.07480195828418604
964.0, 0.06858556802451693
965.0, 0.08111317687232791
966.0, 0.07998029326410415
967.0, 0.08664144238628375
968.0, 0.09478337641210564
969.0, 0.09965608994981541
970.0, 0.09867765287893847
971.0, 0.11097736720759181
972.0, 0.12251062657400946
973.0, 0.13300797709288492
974.0, 0.141583897794647
975.0, 0.1461495297298113
976.0, 0.17284620459915745
977.0, 0.19237816712538544
978.0, 0.21077991770687846
979.0, 0.2344408995287128
980.0, 0.2695275100728783
981.0, 0.29957692166950894
982.0, 0.3496900156522313
983.0, 0.40802455519274455
984.0, 0.4714054735474942
985.0, 0.5477054834501752
986.0, 0.623879659456092
987.0, 0.7080560433506519
988.0, 0.8005616850637489
989.0, 0.8907492814629676
990.0, 0.9563953736389705
991.0, 0.9913192780994435
992.0, 0.991694888344613
993.0, 0.9555638860634348
994.0, 0.8920618777611656
995.0, 0.8204273881351783
996.0, 0.7185702811478425
997.0, 0.6384656782015499
998.0, 0.5643706763966141
999.0, 0.49264006598676335
1000.0, 0.42951883490741444
1001.0, 0.3856351824211288
1002.0, 0.3398218964683349
1003.0, 0.29335082031933707
1004.0, 0.2500946375417622
1005.0, 0.21523056122461348
1006.0, 0.18604530761959226
1007.0, 0.1563032880508051
1008.0, 0.1399708342617162
1009.0, 0.13109113231831818
1010.0, 0.11469402424187553
1011.0, 0.09699759687556986
1012.0, 0.08619837973831752
1013.0, 0.07707158165812159
1014.0, 0.06926551337655694
1015.0, 0.06321631218336564
1016.0, 0.051792277087948514
1017.0, 0.04450969602077558
1018.0, 0.04033259391166192
1019.0, 0.0366622977524842
1020.0, 0.03213411899764054
1021.0, 0.034239632122892806
1022.0, 0.032120266139072144
1023.0, 0.03009301326824509
1024.0, 0.03232855876994049
1025.0, 0.037050528119188485
1026.0, 0.023169353132404914
1027.0, 0.019515122458939868
1028.0, 0.022930016903463725
1029.0, 0.02209041520245884
1030.0, 0.015372985882318908
1031.0, 0.024217192777136555
1032.0, 0.018112691918797188
1033.0, 0.018177086986697486
1034.0, 0.019109724622392875
1035.0, 0.017335101759558876
1036.0, 0.013944793901384915
1037.0, 0.014365276250985885
1038.0, 0.019026759126257124
1039.0, 0.015606746462811608
1040.0, 0.01177948954122151
1041.0, 0.03001647094276616
1042.0, 0.015073050017208807
1043.0, 0.01792768108778589
1044.0, 0.020735351654556505
1045.0, 0.01814585580171786
1046.0, 0.013697579244616738
1047.0, 0.029582526128138217
1048.0, 0.030780197861484435
1049.0, 0.028543017826629095
1050.0, 0.027921417818667013
1051.0, 0.030961867297405382
1052.0, 0.03478625701316001
1053.0, 0.03311685915588955
1054.0, 0.03430112183770931
1055.0, 0.03612008469689557
1056.0, 0.038925285677691324
1057.0, 0.05378981803480591
1058.0, 0.041482331597606684
1059.0, 0.04203761878529121
1060.0, 0.04382234999605853
1061.0, 0.03943749949913018
1062.0, 0.0318929548912151
1063.0, 0.03904565518474403
1064.0, 0.032170642217109614
1065.0, 0.027424361349201693
1066.0, 0.026476751417595736
1067.0, 0.021160300830816964
1068.0, 0.013205669586606222
1069.0, 0.017492257273587573
1070.0, 0.02012095882110139
1071.0, 0.016604712706984034
1072.0, 0.009706347643114826
1073.0, 0.01968492417086363
1074.0, 0.016475471127052603
1075.0, 0.013391741425152301
1076.0, 0.013689848363729457
1077.0, 0.015435915905714912
1078.0, 0.00924287199458788
1079.0, 0.013537117517334921
1080.0, 0.0167189463851555
1081.0, 0.015710561708254408
1082.0, 0.014254755609404762
1083.0, 0.02129816969383235
1084.0, 0.013344604532954038
1085.0, 0.013844829181197092
1086.0, 0.017259336508839047
1087.0, 0.018670661860044027
1088.0, 0.015171358113323218
1089.0, 0.013559279416277853
1090.0, 0.01565023361069109
1091.0, 0.013496065590066933
1092.0, 0.018933977040123555
1093.0, 0.03221815527064559
1094.0, 0.01614718358887764
1095.0, 0.02127224903353306
1096.0, 0.029206189114964604
1097.0, 0.02980403655415081
1098.0, 0.02546301237030762
1099.0, 0.029953407052337077
1100.0, 0.027635696759674252
1101.0, 0.028164339085667348
1102.0, 0.025710058849545615
1103.0, 0.021431201202252267
1104.0, 0.020559152825034788
1105.0, 0.032845354475412335
1106.0, 0.036833141661225366
1107.0, 0.028557105414587607
1108.0, 0.02460682618683032
1109.0, 0.029941075135199
1110.0, 0.02125858220347729
1111.0, 0.021247717773328345
1112.0, 0.024604154320466937
1113.0, 0.018942891736370017
1114.0, 0.012418481193170513
1115.0, 0.023531470171562034
1116.0, 0.016614119585897258
1117.0, 0.016297484862397082
1118.0, 0.018046198980919068
1119.0, 0.0157264100965324
1120.0, 0.008607726508265223
1121.0, 0.01270867565156619
1122.0, 0.022441458023361286
1123.0, 0.018040178649228352
1124.0, 0.01629405115574778
1125.0, 0.01713408500735187
1126.0, 0.002365059886412982
1127.0, 0.010671696212950124
1128.0, 0.01059871932834904
1129.0, 0.011159217369260187
1130.0, 0.01081745340744
1131.0, 0.006925817131379285
1132.0, 0.008486685159661294
1133.0, 0.002525777642822877
1134.0, 0.011009656199138563
1135.0, 0.01243275253670667
1136.0, 0.003920046491638763
1137.0, 0.010572461734287199
1138.0, 0.010730275943193342
1139.0, 0.005745118857908736
1140.0, 0.006342435360378
1141.0, 0.009654287564940639
1142.0, 0.010236392993679011
1143.0, 0.01785910345332921
1144.0, 0.011169302418482348
1145.0, 0.015755820456239272
1146.0, 0.01914935370402231
1147.0, 0.016669930445888013
1148.0, 0.0187075634706898
1149.0, 0.012132463593797103
1150.0, 0.019362565242383677
1151.0, 0.026290176335440906
1152.0, 0.02536911624326716
1153.0, 0.017658308121743054
1154.0, 0.02388502029502359
1155.0, 0.02648331514231195
1156.0, 0.024772870388909057
1157.0, 0.027302151350978427
1158.0, 0.030397425766653302
1159.0, 0.019908002152254592
1160.0, 0.043941164229548524
1161.0, 0.036074332237424414
1162.0, 0.03450379560190933
1163.0, 0.040406220658457725
1164.0, 0.044548428986702755
1165.0, 0.0454549680939523
1166.0, 0.05044448838099553
1167.0, 0.05300165663130246
1168.0, 0.05018552164142292
1169.0, 0.04668956395089343
1170.0, 0.04966739903359899
1171.0, 0.03632969561538833
1172.0, 0.03440559638322459
1173.0, 0.03841265716177048
1174.0, 0.03450318659027927
1175.0, 0.022924324723723292
1176.0, 0.03203851375810427
1177.0, 0.02904375158869687
1178.0, 0.016819683020840026
1179.0, 0.016807717207413697
1180.0, 0.022688350896547912
1181.0, 0.017987656214967538
1182.0, 0.00927574689514074
1183.0, 0.017948702751951193
1184.0, 0.012821627573244388
1185.0, 0.007883274417177472
1186.0, 0.011346550326168721
1187.0, 0.01770858211639489
1188.0, 0.008273055900115876
1189.0, 0.010008440448973616
1190.0, 0.005960751560864046
1191.0, 0.0021606147556075027
1192.0, 0.006336434868109005
1193.0, 0.015138093003423416
1194.0, 0.004333755776810107
1195.0, 0.0011296006678756087
1196.0, 0.010628336665834246
1197.0, 0.017046563523096442
1198.0, 0.00485217807680793
1199.0, 0.007274420489257136
1200.0, 0.003821996461828451
1201.0, 0.00605392264256731
1202.0, 0.009444540403266763
1203.0, 0.008650905448873272
1204.0, 0.0018197209995544075
1205.0, 0.007223364413116573
1206.0, 0.0066249658705178315
1207.0, 0.002891209625986663
1208.0, 0.004046749438319175
1209.0, 0.010068395793490198
1210.0, 0.006409440580654374
1211.0, 0.005217813175076497
1212.0, 0.010673572912521686
1213.0, 0.00790118532561348
1214.0, 0.006075901583693378
1215.0, 0.015478502397476477
1216.0, 0.020752526328617654
1217.0, 0.005244018692971075
1218.0, 0.007979064438191262
1219.0, 0.013904678791935252
1220.0, 0.01216740307305235
1221.0, 0.004489813890479179
1222.0, 0.026353258926297522
1223.0, 0.012537514071579763
1224.0, 0.004492849942100407
1225.0, 0.00801860513711846
1226.0, 0.012405354052867313
1227.0, 0.0021555645538184724
1228.0, 0.016290933108093597
1229.0, 0.01008211317501901
1230.0, 0.009672947863814662
1231.0, 0.016862945729834055
1232.0, 0.02061634699730549
1233.0, 0.004111122969448952
1234.0, 0.011585308894006923
1235.0, 0.016045482124631732
1236.0, 0.016928593596510597
1237.0, 0.016020861439601335
1238.0, 0.015224630306103243
1239.0, 0.015062943180946036
1240.0, 0.01283175284120609
1241.0, 0.019557664638344473
1242.0, 0.01767298292083069
1243.0, 0.01037276257907245
1244.0, 0.00813365765342534
1245.0, 0.016616200120207352
1246.0, 0.009159077277977245
1247.0, 0.009937165635530498
1248.0, 0.022208729910060128
1249.0, 0.02380942364164783
1250.0, 0.0030786158401811658
1251.0, 0.016982097122724013
1252.0, 0.014217512616775261
1253.0, 0.005876644598193201
1254.0, 0.013280379734382423
1255.0, 0.021379395102627697
1256.0, 0.007939147107028149
1257.0, 0.009498953882448955
1258.0, 0.015843077719317082
1259.0, 0.014145615093010391
1260.0, 0.016976883284076164
1261.0, 0.017495573400877783
1262.0, 0.0040750505194318675
1263.0, 0.010005219089715245
1264.0, 0.017267441123576085
1265.0, 0.007662545315977862
1266.0, 0.00119520916375886
1267.0, 0.007697452570468111
1268.0, 0.019641912278582686
1269.0, 0.003405246818532822
1270.0, 0.013203094624893875
1271.0, 0.01007266884738614
1272.0, 0.00331001026896931
1273.0, 0.0026047492334819134
1274.0, 0.009128586401991871
1275.0, 0.004924467281338255
1276.0, 0.005305315117727619
1277.0, 0.004712406236188289
1278.0, 0.002938718634555122
1279.0, 0.0009717771019817251
1280, 0.0
1281, 0.0
1282, 0.0
1283, 0.0
1284, 0.0
1285, 0.0
1286, 0.0
1287, 0.0
1288, 0.0
1289, 0.0
1290, 0.0
1291, 0.0
1292, 0.0
1293, 0.0
1294, 0.0
1295, 0.0
1296, 0.0
1297, 0.0
1298, 0.0
1299, 0.0
1300, 0.0
1301, 0.0
1302, 0.0
1303, 0.0
1304, 0.0
1305, 0.0
1306, 0.0
1307, 0.0
1308, 0.0
1309, 0.0
1310, 0.0
1311, 0.0
1312, 0.0
1313, 0.0
1314, 0.0
1315, 0.0
1316, 0.0
1317, 0.0
1318, 0.0
1319, 0.0
1320, 0.0
1321, 0.0
1322, 0.0
1323, 0.0
1324, 0.0
1325, 0.0
1326, 0.0
1327, 0.0
1328, 0.0
1329, 0.0
1330, 0.0
1331, 0.0
1332, 0.0
1333, 0.0
1334, 0.0
1335, 0.0
1336, 0.0
1337, 0.0
1338, 0.0
1339, 0.0
1340, 0.0
1341, 0.0
1342, 0.0
1343, 0.0
1344, 0.0
1345, 0.0
1346, 0.0
1347, 0.0
1348, 0.0
1349, 0.0
1350, 0.0
1351, 0.0
1352, 0.0
1353, 0.0
1354, 0.0
1355, 0.0
1356, 0.0
1357, 0.0
1358, 0.0
1359, 0.0
1360, 0.0
1361, 0.0
1362, 0.0
1363, 0.0
1364, 0.0
1365, 0.0
1366, 0.0
1367, 0.0
1368, 0.0
1369, 0.0
1370, 0.0
1371, 0.0
1372, 0.0
1373, 0.0
1374, 0.0
1375, 0.0
1376, 0.0
1377, 0.0
1378, 0.0
1379, 0.0
1380, 0.0
1381, 0.0
1382, 0.0
1383, 0.0
1384, 0.0
1385, 0.0
1386, 0.0
1387, 0.0
1388, 0.0
1389, 0.0
1390, 0.0
1391, 0.0
1392, 0.0
1393, 0.0
1394, 0.0
1395, 0.0
1396, 0.0
1397, 0.0
1398, 0.0
1399, 0.0
1400, 0.0
1401, 0.0
1402, 0.0
1403, 0.0
1404, 0.0
1405, 0.0
1406, 0.0
1407, 0.0
1408, 0.0
1409, 0.0
1410, 0.0
1411, 0.0
1412, 0.0
1413, 0.0
1414, 0.0
1415, 0.0
1416, 0.0
1417, 0.0
1418, 0.0
1419, 0.0
1420, 0.0
1421, 0.0
1422, 0.0
1423, 0.0
1424, 0.0
1425, 0.0
1426, 0.0
1427, 0.0
1428, 0.0
1429, 0.0
1430, 0.0
1431, 0.0
1432, 0.0
1433, 0.0
1434, 0.0
1435, 0.0
1436, 0.0
1437, 0.0
1438, 0.0
1439, 0.0
1440, 0.0
1441, 0.0
1442, 0.0
1443, 0.0
1444, 0.0
1445, 0.0
1446, 0.0
1447, 0.0
1448, 0.0
1449, 0.0
1450, 0.0
1451, 0.0
1452, 0.0
1453, 0.0
1454, 0.0
1455, 0.0
1456, 0.0
1457, 0.0
1458, 0.0
1459, 0.0
1460, 0.0
1461, 0.0
1462, 0.0
1463, 0.0
1464, 0.0
1465, 0.0
1466, 0.0
1467, 0.0
1468, 0.0
1469, 0.0
1470, 0.0
1471, 0.0
1472, 0.0
1473, 0.0
1474, 0.0
1475, 0.0
1476, 0.0
1477, 0.0
1478, 0.0
1479, 0.0
1480, 0.0
1481, 0.0
1482, 0.0
1483, 0.0
1484, 0.0
1485, 0.0
1486, 0.0
1487, 0.0
1488, 0.0
1489, 0.0
1490, 0.0
1491, 0.0
1492, 0.0
1493, 0.0
1494, 0.0
1495, 0.0
1496, 0.0
1497, 0.0
1498, 0.0
1499, 0.0
1500, 0.0
1501, 0.0
1502, 0.0
1503, 0.0
1504, 0.0
1505, 0.0
1506, 0.0
1507, 0.0
1508, 0.0
1509, 0.0
1510, 0.0
1511, 0.0
1512, 0.0
1513, 0.0
1514, 0.0
1515, 0.0
1516, 0.0
1517, 0.0
1518, 0.0
1519, 0.0
1520, 0.0
1521, 0.0
1522, 0.0
1523, 0.0
1524, 0.0
1525, 0.0
1526, 0.0
1527, 0.0
1528, 0.0
1529, 0.0
1530, 0.0
1531, 0.0
1532, 0.0
1533, 0.0
1534, 0.0
1535, 0.0
1536, 0.0
1537, 0.0
1538, 0.0
1539, 0.0
1540, 0.0
1541, 0.0
1542, 0.0
1543, 0.0
1544, 0.0
1545, 0.0
1546, 0.0
1547, 0.0
1548, 0.0
1549, 0.0
1550, 0.0
1551, 0.0
1552, 0.0
1553, 0.0
1554, 0.0
1555, 0.0
1556, 0.0
1557, 0.0
1558, 0.0
1559, 0.0
1560, 0.0
1561, 0.0
1562, 0.0
1563, 0.0
1564, 0.0
1565, 0.0
1566, 0.0
1567, 0.0
1568, 0.0
1569, 0.0
1570, 0.0
1571, 0.0
1572, 0.0
1573, 0.0
1574, 0.0
1575, 0.0
1576, 0.0
1577, 0.0
1578, 0.0
1579, 0.0
1580, 0.0
1581, 0.0
1582, 0.0
1583, 0.0
1584, 0.0
1585, 0.0
1586, 0.0
1587, 0.0
1588, 0.0
1589, 0.0
1590, 0.0
1591, 0.0
1592, 0.0
1593, 0.0
1594, 0.0
1595, 0.0
1596, 0.0
1597, 0.0
1598, 0.0
1599, 0.0
