30, 0.0
31, 0.0
32, 0.0
33, 0.0
34, 0.0
35, 0.0
36, 0.0
37, 0.0
38, 0.0
39, 0.0
40, 0.0
41, 0.0
42, 0.0
43, 0.0
44, 0.0
45, 0.0
46, 0.0
47, 0.0
48, 0.0
49, 0.0
50, 0.0
51, 0.0
52, 0.0
53, 0.0
54, 0.0
55, 0.0
56, 0.0
57, 0.0
58, 0.0
59, 0.0
60, 0.0
61, 0.0
62, 0.0
63, 0.0
64, 0.0
65, 0.0
66, 0.0
67, 0.0
68, 0.0
69, 0.0
70, 0.0
71, 0.0
72, 0.0
73, 0.0
74, 0.0
75, 0.0
76, 0.0
77, 0.0
78, 0.0
79, 0.0
80, 0.0
81, 0.0
82, 0.0
83, 0.0
84, 0.0
85, 0.0
86, 0.0
87, 0.0
88, 0.0
89, 0.0
90, 0.0
91, 0.0
92, 0.0
93, 0.0
94, 0.0
95, 0.0
96, 0.0
97, 0.0
98, 0.0
99, 0.0
100, 0.0
101, 0.0
102, 0.0
103, 0.0
104, 0.0
105, 0.0
106, 0.0
107, 0.0
108, 0.0
109, 0.0
110, 0.0
111, 0.0
112, 0.0
113, 0.0
114, 0.0
115, 0.0
116, 0.0
117, 0.0
118, 0.0
119, 0.0
120, 0.0
121, 0.0
122, 0.0
123, 0.0
124, 0.0
125, 0.0
126, 0.0
127, 0.0
128, 0.0
129, 0.0
130, 0.0
131, 0.0
132.0, 0.004117358413790708
133.0, 0.008372038168854278
134.0, 0.0004960730278899783
135.0, 0.016247200215039965
136.0, 0.017834134249784684
137.0, 0.0076265867413126045
138.0, 0.002539596730603849
139.0, 0.02124312986529818
140.0, 0.028101355010543082
141.0, 0.019039673582722412
142.0, 0.006724438171700548
143.0, 0.0047599269443297666
144.0, 0.007170468564457516
145.0, 0.014940690570367555
146.0, 0.021884809706839578
147.0, 0.02267964288968807
148.0, 0.01631584311047726
149.0, 0.012870560613353165
150.0, 0.012887835710355922
151.0, 0.01791432305712594
152.0, 0.03625504383047829
153.0, 0.028493894359253206
154.0, 0.01819851994678996
155.0, 0.019196700095873584
156.0, 0.022684836050331385
157.0, 0.027068212581802455
158.0, 0.018784398898255478
159.0, 0.009797930034996096
160.0, 0.015731742766404714
161.0, 0.019643588889568363
162.0, 0.02733681896882241
163.0, 0.025088103485573263
164.0, 0.011565599514109853
165.0, 0.010055660088663577
166.0, 0.01933162916424237
167.0, 0.021442404688385184
168.0, 0.018357911800098204
169.0, 0.027407064174808666
170.0, 0.02287178196418316
171.0, 0.015476504249699678
172.0, 0.014820967386626862
173.0, 0.017630529562555133
174.0, 0.006467314655177232
175.0, 0.015148159548195391
176.0, 0.020210105632038705
177.0, 0.008790615069193696
178.0, 0.003336880795674101
179.0, 0.004637090815949869
180.0, 0.018809737912584546
181.0, 0.03462475884032592
182.0, 0.033024148154376494
183.0, 0.008024833457927968
184.0, 0.003838984558805154
185.0, 0.013467332320478186
186.0, 0.014142803212129674
187.0, 0.0016277444669944826
188.0, 0.005327861431224169
189.0, 0.001971435603560265
190.0, 0.00932258342022102
191.0, 0.018972429086076558
192.0, 0.02597054351720315
193.0, 0.018491881067643934
194.0, 0.007349670470874262
195.0, 0.012309417572263358
196.0, 0.0037358307383034152
197.0, 0.006049258411565096
198.0, 0.012849238078209311
199.0, 0.0037765654293974078
200.0, 0.008294950095769242
201.0, 0.008759794719041642
202.0, 0.006057148697858643
203.0, 0.0025803523504827623
204.0, 0.003902115268286807
205.0, 0.010212416718783514
206.0, 0.014071934428915786
207.0, 0.009203182582241346
208.0, 0.011815919781021863
209.0, 0.019209779578511922
210.0, 0.0332565845690808
211.0, 0.04152785117009624
212.0, 0.04295312862320954
213.0, 0.052244297538229706
214.0, 0.047721457200802474
215.0, 0.04248007537648081
216.0, 0.04528876335422686
217.0, 0.05339963614159658
218.0, 0.055795982196194686
219.0, 0.05430779234434558
220.0, 0.05735424866672998
221.0, 0.06488907802998103
222.0, 0.06766616080753099
223.0, 0.08376725887248301
224.0, 0.08135109526177309
225.0, 0.07463482121274628
226.0, 0.09088929648752284
227.0, 0.07660737586367171
228.0, 0.0760102638832907
229.0, 0.08256918940030598
230.0, 0.07951144641161638
231.0, 0.06669800060589973
232.0, 0.06990961593785587
233.0, 0.07417692964299454
234.0, 0.07388405715950513
235.0, 0.07049930183931072
236.0, 0.049282392429510456
237.0, 0.06088350415266161
238.0, 0.06444245039449183
239.0, 0.041895638144978126
240.0, 0.037007690921961475
241.0, 0.04355768082210974
242.0, 0.044100139129535414
243.0, 0.03943675891547338
244.0, 0.03732226175906758
245.0, 0.02019319469883116
246.0, 0.026556722521305972
247.0, 0.039448795241126024
248.0, 0.03746696961565264
249.0, 0.026776647168283124
250.0, 0.03431448078817904
251.0, 0.03773350897880534
252.0, 0.02981385496218781
253.0, 0.02126841654315289
254.0, 0.016366592059632073
255.0, 0.022530156796530355
256.0, 0.03366061466088366
257.0, 0.0325793649450114
258.0, 0.01155133444929268
259.0, 0.023487354031413256
260.0, 0.018075946089439375
261.0, 0.012716367653482332
262.0, 0.026185277159507386
263.0, 0.036910157878871315
264.0, 0.02077858798876146
265.0, 0.014484015514763235
266.0, 0.020098134881403728
267.0, 0.018755902378825132
268.0, 0.024515264776844077
269.0, 0.03506073542440553
270.0, 0.03428373739230987
271.0, 0.021232329512922934
272.0, 0.027203899899856027
273.0, 0.04948342915423672
274.0, 0.056134583454977065
275.0, 0.04910750421326329
276.0, 0.04560339109420371
277.0, 0.035086429666127
278.0, 0.03902285095004318
279.0, 0.05691184709167294
280.0, 0.07288712403778301
281.0, 0.07077675289913814
282.0, 0.04968727750262732
283.0, 0.06033284368605933
284.0, 0.07454548591017068
285.0, 0.07584381902140387
286.0, 0.08916155656491252
287.0, 0.08815659369598502
288.0, 0.08384323986953073
289.0, 0.08397512877072996
290.0, 0.08628101318806852
291.0, 0.07989481019646552
292.0, 0.0912870251980317
293.0, 0.09584068179541838
294.0, 0.09067255925688078
295.0, 0.09445958689073099
296.0, 0.1036759578478662
297.0, 0.11065856016296953
298.0, 0.11151038344158422
299.0, 0.10803306052881512
300.0, 0.11167262946911477
301.0, 0.10969028531709875
302.0, 0.10949840801053906
303.0, 0.11074724424610395
304.0, 0.11446058907391327
305.0, 0.12186650522939696
306.0, 0.09805060406731832
307.0, 0.08001818579465078
308.0, 0.07435549967738295
309.0, 0.0665245205985789
310.0, 0.0615928033062675
311.0, 0.0636211843505917
312.0, 0.06212587228185418
313.0, 0.057825084880925616
314.0, 0.060823995670506385
315.0, 0.05891290283333803
316.0, 0.06896895535280059
317.0, 0.08128614728319554
318.0, 0.07965012214046392
319.0, 0.06387615281179493
320.0, 0.07399414115705619
321.0, 0.07332804303762251
322.0, 0.06765275044848561
323.0, 0.07170815997104177
324.0, 0.07820094465776732
325.0, 0.07211113317584139
326.0, 0.06254217000551517
327.0, 0.06068873416843225
328.0, 0.06541879799560531
329.0, 0.05640805062992624
330.0, 0.05841177196177945
331.0, 0.0644680752645077
332.0, 0.06987964456740407
333.0, 0.07712283961695729
334.0, 0.08600109879018047
335.0, 0.08470550207528944
336.0, 0.08110445507486247
337.0, 0.07108362502369439
338.0, 0.04894659555983143
339.0, 0.04800556331721576
340.0, 0.04369083392703383
341.0, 0.042601171912721614
342.0, 0.04210899050057501
343.0, 0.03177771462979208
344.0, 0.028594646482951062
345.0, 0.01813590440915226
346.0, 0.0068374960732267755
347.0, 0.002400784112139945
348.0, 0.0036399880273167142
349.0, 0.005317160159395151
350.0, 0.003769690298191082
351.0, 0.005161552660009979
352.0, 0.014187729560670182
353.0, 0.021927413377748395
354.0, 0.006983036390370423
355.0, 0.010365029591989261
356.0, 0.010221076565443285
357.0, 0.0023603357346670124
358.0, 0.005661113256584841
359.0, 0.017896267397391964
360.0, 0.006301085578627366
361.0, 0.004322519660546246
362.0, 0.0017997986201771965
363.0, 0.000725329475993399
364.0, 0.011262512387962963
365.0, 0.009788220306503732
366.0, 0.008607638667519898
367.0, 0.013030562896170581
368.0, 0.008482080578631607
369.0, 0.000761380388690546
370.0, 0.006374495943730795
371.0, 0.009179773040158117
372.0, 0.003355755830330962
373.0, 0.0168812347924671
374.0, 0.025113732724285246
375.0, 0.022705691337080173
376.0, 0.02210875301689435
377.0, 0.025925640726605994
378.0, 0.009084697930651479
379.0, 0.022746983412804882
380.0, 0.028517576487432725
381.0, 0.023725546746957208
382.0, 0.01910513533978124
383.0, 0.020116203012603147
384.0, 0.03556809508332043
385.0, 0.04035870238487672
386.0, 0.05066483349563887
387.0, 0.06330720600280335
388.0, 0.043274464925279706
389.0, 0.056155563815452725
390.0, 0.0836733571474361
391.0, 0.09642350935092552
392.0, 0.09616020136322671
393.0, 0.10568284029635525
394.0, 0.11094932531468457
395.0, 0.13000059238343814
396.0, 0.14159277718767915
397.0, 0.1465003080464184
398.0, 0.1695544926900006
399.0, 0.17014574544095304
400.0, 0.17749700910246868
401.0, 0.1941140904245837
402.0, 0.20313910136815808
403.0, 0.19577942538776805
404.0, 0.20402383592652526
405.0, 0.21868235150142806
406.0, 0.22315887648814164
407.0, 0.21978500035150705
408.0, 0.22359087563125327
409.0, 0.2373940342585896
410.0, 0.240636849378003
411.0, 0.23311783638780276
412.0, 0.2251684037791629
413.0, 0.22107975755078055
414.0, 0.21113968372080705
415.0, 0.18869366106736135
416.0, 0.17931962294595996
417.0, 0.168207527544761
418.0, 0.1388920563489492
419.0, 0.12914782155227353
420.0, 0.1148303845433743
421.0, 0.10712007943578637
422.0, 0.11302335385012288
423.0, 0.11996613630906103
424.0, 0.09854085414593725
425.0, 0.10582745693922158
426.0, 0.10649219900002545
427.0, 0.09079795087366832
428.0, 0.08210022380073359
429.0, 0.09356033614143
430.0, 0.09488120218697482
431.0, 0.09768868067456517
432.0, 0.09748752078721101
433.0, 0.09722049299614367
434.0, 0.10328972855704689
435.0, 0.10000371451595126
436.0, 0.10910480373453216
437.0, 0.11152336959860225
438.0, 0.10068982088002125
439.0, 0.09323069997507101
440.0, 0.10467909047869178
441.0, 0.09524417615800052
442.0, 0.08256095250494998
443.0, 0.07425639073349247
444.0, 0.07111676010456881
445.0, 0.07899942764752199
446.0, 0.08057135677833387
447.0, 0.08227156431773365
448.0, 0.0823746236787444
449.0, 0.07793655547870157
450.0, 0.06933201642153274
451.0, 0.05960256717081155
452.0, 0.04524939023879727
453.0, 0.03823198204522415
454.0, 0.03276139089197411
455.0, 0.024056327913420307
456.0, 0.03649114684210403
457.0, 0.04492044022664598
458.0, 0.034449060131202594
459.0, 0.020633362461038526
460.0, 0.018478891041295343
461.0, 0.02002951803556949
462.0, 0.015511588727716975
463.0, 0.010903199821855664
464.0, 0.009395757943643338
465.0, 0.0053891552736581045
466.0, 0.00508394977063131
467.0, 0.005006658379306583
468.0, 0.006349620853262642
469.0, 0.006621774786745277
470.0, 0.007590172994064184
471.0, 0.007012119343169747
472.0, 0.0040012794045865985
473.0, 0.007675011944938578
474.0, 0.007751743263344362
475.0, 0.0037743899255325017
476.0, 0.001591788541041179
477.0, 0.001421279346134759
478.0, 0.0006145062034463276
479.0, 0.0008124881427509022
480.0, 0.002389168962873835
481.0, 0.003213186349277001
482.0, 0.0021601749738842492
483.0, 0.0012275411310454353
484.0, 0.002472605507170439
485.0, 0.003665795082402123
486.0, 0.0007205429720784778
487.0, 0.0008064821538802858
488.0, 0.001151203602258007
489.0, 0.0003940181557491823
490.0, 0.002640598001216352
491.0, 0.0008525905400950524
492.0, 0.0008718805949234285
493.0, 0.0021162014587339795
494.0, 0.00483882929999826
495.0, 0.007034936217367338
496.0, 0.003512142773958917
497.0, 0.0014932954686089515
498.0, 0.00045075302259640855
499.0, 0.0003616666564137475
500.0, 0.0004919803596599684
501.0, 0.0031663968851702645
502.0, 0.0050463248858996605
503.0, 0.007610131783408033
504.0, 0.011188262013270603
505.0, 0.007633195830249083
506.0, 0.013445460836823126
507.0, 0.014032697410558225
508.0, 0.011289874254829245
509.0, 0.013306860831119422
510.0, 0.017604087790495382
511.0, 0.012978729568319558
512.0, 0.024848614491248148
513.0, 0.01788156912609499
514.0, 0.019477738811289193
515.0, 0.04177214107366347
516.0, 0.05151780067520743
517.0, 0.03849196572706105
518.0, 0.05725489260234997
519.0, 0.07736979544463865
520.0, 0.08494713831349839
521.0, 0.0939966224170939
522.0, 0.11524308227613636
523.0, 0.13809650526502917
524.0, 0.16041700620526075
525.0, 0.18827540371692053
526.0, 0.22130019627612113
527.0, 0.25577912975668493
528.0, 0.2984417051194603
529.0, 0.3483173451968417
530.0, 0.39636055152600835
531.0, 0.4464272008725304
532.0, 0.49569451331796144
533.0, 0.5383853917591969
534.0, 0.6022350426736323
535.0, 0.6434713301604564
536.0, 0.687052556358666
537.0, 0.742829535024276
538.0, 0.7995863433578805
539.0, 0.8405515816504608
540.0, 0.8808356411692023
541.0, 0.9378513505267421
542.0, 0.9680286876336681
543.0, 0.9801084391819562
544.0, 0.9983952146272416
545.0, 0.9913552320453443
546.0, 0.9529182229289526
547.0, 0.897348667609571
548.0, 0.8100196545818262
549.0, 0.7008859235367605
550.0, 0.590965375249179
551.0, 0.46619265568127255
552.0, 0.3574953723758293
553.0, 0.2734668579806033
554.0, 0.2042151530430512
555.0, 0.14067200049721149
556.0, 0.09175720053864113
557.0, 0.08078626460858798
558.0, 0.04672429777235536
559.0, 0.028112889193978953
560.0, 0.024524059974952328
561.0, 0.024633904076982995
562.0, 0.029188882461978215
563.0, 0.024119895226306916
564.0, 0.026295277396639928
565.0, 0.020504538621147466
566.0, 0.009633523093896876
567.0, 0.004428721479060971
568.0, 0.009082944353032038
569.0, 0.009610977275122848
570.0, 0.017931238027579465
571.0, 0.022832441133583
572.0, 0.022246700856211193
573.0, 0.024902694013015873
574.0, 0.03534749906970936
575.0, 0.03787505155283762
576.0, 0.030570127280827537
577.0, 0.03838552718988792
578.0, 0.05117198254830103
579.0, 0.05202421711433421
580.0, 0.041604539370005925
581.0, 0.03879264737093713
582.0, 0.0477491723171326
583.0, 0.040529489774881876
584.0, 0.03529126094804462
585.0, 0.0410103766132857
586.0, 0.028768430563193514
587.0, 0.009262041617624011
588.0, 0.008570730875563254
589.0, 0.02324524934182317
590.0, 0.020760237940225863
591.0, 0.002899413478815119
592.0, 0.0084397097895234
593.0, 0.009715167808720443
594.0, 0.0009601354624409158
595.0, 0.01043016031331412
596.0, 0.0061073105009005965
597.0, 0.0051969669414619404
598.0, 0.008411630398412542
599.0, 0.004763791753147967
600.0, 0.004528258425374497
601.0, 0.0018631873933873688
602.0, 0.00769612161499444
603.0, 0.016215918603174024
604.0, 0.013602424965194348
605.0, 0.016805098937602427
606.0, 0.020778492004980612
607.0, 0.026386717728264078
608.0, 0.029092544589888865
609.0, 0.03185860736074605
610.0, 0.03865210608664369
611.0, 0.039906983007512976
612.0, 0.040277430669073154
613.0, 0.03340225723935718
614.0, 0.04014608135508528
615.0, 0.05295252310935174
616.0, 0.06038153236945491
617.0, 0.07237483346558862
618.0, 0.06739045269948403
619.0, 0.0879602556636746
620.0, 0.10309801270682654
621.0, 0.10710542440486376
622.0, 0.10928078783380095
623.0, 0.1125138037049308
624.0, 0.12287652143416154
625.0, 0.12925262183492459
626.0, 0.14515117099546493
627.0, 0.15532889259730892
628.0, 0.16165187457687483
629.0, 0.17583449363488807
630.0, 0.18345141840676635
631.0, 0.2027599960061551
632.0, 0.23183021926929345
633.0, 0.2496380436365162
634.0, 0.25200627633201833
635.0, 0.2574085428412025
636.0, 0.279440864479346
637.0, 0.27626522374463836
638.0, 0.23818355171530214
639.0, 0.20106839969021995
640.0, 0.16552487258300347
641.0, 0.1286290573128112
642.0, 0.10214762134283197
643.0, 0.0833804759386713
644.0, 0.06813684524326277
645.0, 0.05452403040421609
646.0, 0.04183633429049527
647.0, 0.035416305081547035
648.0, 0.033537554032969756
649.0, 0.02373483421532465
650.0, 0.027313202318467834
651.0, 0.027902236166927222
652.0, 0.028201065513398228
653.0, 0.025025448352808295
654.0, 0.01891262834850057
655.0, 0.01954666244768129
656.0, 0.025434443752419145
657.0, 0.022793269176748048
658.0, 0.0225970379272526
659.0, 0.024069195564455085
660.0, 0.022781099947518906
661.0, 0.02430212360375579
662.0, 0.022180984202886767
663.0, 0.024594851491077766
664.0, 0.02341704935183737
665.0, 0.0131589753825763
666.0, 0.006497548580661011
667.0, 0.0016265872183641198
668.0, 0.006219866992819864
669.0, 0.01410059224416338
670.0, 0.012593982003201127
671.0, 0.01588116687445799
672.0, 0.021959773030045496
673.0, 0.0201637789063938
674.0, 0.012034530539627811
675.0, 0.010816715667488708
676.0, 0.007723967356839876
677.0, 0.007622628077547409
678.0, 0.007359358223702593
679.0, 0.004587476092691618
680.0, 0.0013233012813766757
681.0, 0.0036555347956531304
682.0, 0.011742520403008811
683.0, 0.011264748614347111
684.0, 0.014110188266474664
685.0, 0.0161036465152981
686.0, 0.014979422899472506
687.0, 0.003070150842880851
688.0, 0.009169149547291824
689.0, 0.012952959312343077
690.0, 0.011889201673803897
691.0, 0.013832040133659943
692.0, 0.008297793132150429
693.0, 0.0026742136142909123
694.0, 0.011465970252686624
695.0, 0.02168761162780757
696.0, 0.003226807152210381
697.0, 0.002544499976363354
698.0, 0.010281752838422396
699.0, 0.004985833741164951
700.0, 0.0011253945078341541
701.0, 0.008505310917205864
702.0, 0.001597946817140518
703.0, 0.0010410324576773328
704.0, 0.007602863634332891
705.0, 0.005168968011706511
706.0, 0.000901389546375273
707.0, 0.0021193819757787187
708.0, 0.013974472431222644
709.0, 0.023935636181348002
710.0, 0.015917332472817184
711.0, 0.004025926442471536
712.0, 0.007511023427299061
713.0, 0.007707768666378072
714.0, 0.006524660283729036
715.0, 0.009341910145574794
716.0, 0.0037200673147502177
717.0, 0.013568883929482911
718.0, 0.010269593359765407
719.0, 0.016093541234714875
720.0, 0.011210029329390988
721.0, 0.006534992267594769
722.0, 0.020753987931379735
723.0, 0.02360443642377253
724.0, 0.01732409934443108
725.0, 0.021762179147197993
726.0, 0.029216004216981714
727.0, 0.02358821875840855
728.0, 0.017494553469306746
729.0, 0.020348396872295126
730.0, 0.017616561793961406
731.0, 0.03053657036268959
732.0, 0.034451794002210705
733.0, 0.03653245474785729
734.0, 0.03154935616930335
735.0, 0.023641861816363494
736.0, 0.025613519971531603
737.0, 0.03436753029867546
738.0, 0.03710048933924208
739.0, 0.026879110216463453
740.0, 0.02767792306675056
741.0, 0.02805401550311129
742.0, 0.034113992353512194
743.0, 0.04065334934350304
744.0, 0.02230685883709232
745.0, 0.014396391999361666
746.0, 0.02136469133862906
747.0, 0.01093497628120673
748.0, 0.016681206158312038
749.0, 0.02273860930338614
750.0, 0.016713405088123794
751.0, 0.012612879978121997
752.0, 0.013024519458410327
753.0, 0.029864726306613965
754.0, 0.024235104360955197
755.0, 0.02147035005138097
756.0, 0.01608080526076079
757.0, 0.015436002257500317
758.0, 0.019867131095076956
759.0, 0.014077650542103953
760.0, 0.020950407526706828
761.0, 0.023855374254416625
762.0, 0.022463278106306515
763.0, 0.026930066405525532
764.0, 0.028931558640458533
765.0, 0.02054241656804793
766.0, 0.010634062471041315
767.0, 0.005459742787310043
768.0, 0.0016271298560165631
769.0, 0.0043650906962390155
770.0, 0.004379298397720161
771.0, 0.004602720641061382
772.0, 0.005857047252603543
773.0, 0.005108707114928628
774.0, 0.004015519260218615
775.0, 0.005976042188638605
776.0, 0.012810776324798476
777.0, 0.017693927359787517
778.0, 0.011455692373436821
779.0, 0.008204425314008877
780.0, 0.011373951991871288
781.0, 0.009101757392280451
782.0, 0.00929066267505489
783.0, 0.022745024760718737
784.0, 0.0181965344110696
785.0, 0.011358582120528997
786.0, 0.022054320028448576
787.0, 0.027819744019171058
788.0, 0.016026737402878143
789.0, 0.011884502592872001
790.0, 0.017201467781232542
791.0, 0.02021042723394149
792.0, 0.019597140738913322
793.0, 0.021977380703353543
794.0, 0.0368850312795517
795.0, 0.037344622340934504
796.0, 0.018333830711942268
797.0, 0.021285517179558924
798.0, 0.031216424210993715
799.0, 0.021711859085745522
800.0, 0.016542068288757112
801.0, 0.018586689448880457
802.0, 0.018764387750575054
803.0, 0.016955959458745205
804.0, 0.01515964709253267
805.0, 0.005344555598732103
806.0, 0.002413001767981737
807.0, 0.004537939890869754
808.0, 0.004068070696652667
809.0, 0.012688556859887772
810.0, 0.025485263381431613
811.0, 0.018241451044967695
812.0, 0.02163285400139858
813.0, 0.0209403190586642
814.0, 0.02404277105278775
815.0, 0.02031158190869862
816.0, 0.006271876592605605
817.0, 0.004276402200886471
818.0, 0.003510686334298653
819.0, 0.00663064637692874
820.0, 0.01886346930131917
821.0, 0.022727122685658033
822.0, 0.01604230533929846
823.0, 0.012095832063942935
824.0, 0.022095197861242276
825.0, 0.015295342206895723
826.0, 0.005843188357458533
827.0, 0.005028551837968406
828.0, 0.004207964697805874
829.0, 0.002997158232991947
830.0, 0.004648104537977292
831.0, 0.007967801682975994
832.0, 0.0017844961483812556
833.0, 0.0030572813557187407
834.0, 0.01085171726129175
835.0, 0.019093554297595162
836.0, 0.006967375924145766
837.0, 0.00648918984462791
838.0, 0.009509719289471237
839.0, 0.01901246489707335
840.0, 0.0071549810776715865
841.0, 0.007820064242214247
842.0, 0.010566074133412085
843.0, 0.008829969349842837
844.0, 0.012671650459125144
845.0, 0.015518197165590667
846.0, 0.007089774771268592
847.0, 0.00782177725280073
848.0, 0.004631132068175056
849.0, 0.0010574423798071194
850.0, 0.013985252305377276
851.0, 0.012974516612659002
852.0, 0.0022601372544808975
853.0, 0.006000450513348038
854.0, 0.009961468464516923
855.0, 0.015613479752304139
856.0, 0.003891695398862555
857.0, 0.008127990218560066
858.0, 0.00392024011098363
859.0, 0.004412663127093211
860.0, 0.01735590772415372
861.0, 0.014873273503991046
862.0, 0.005974066482386935
863.0, 0.006550436569201367
864.0, 0.003908744920381308
865.0, 0.001653720404423368
866.0, 0.00824898725229472
867.0, 0.012823781713906225
868.0, 0.016158150553549595
869.0, 0.01938298987756445
870.0, 0.019370793467438086
871.0, 0.027754162759244704
872.0, 0.02292781275078738
873.0, 0.01593858770510987
874.0, 0.020623398361076604
875.0, 0.01775027020661039
876.0, 0.025179928246212
877.0, 0.021937582947804186
878.0, 0.013406901491103223
879.0, 0.022896175244743015
880.0, 0.024058368126560634
881.0, 0.02041754047314259
882.0, 0.027021295811284058
883.0, 0.022690169259799272
884.0, 0.022334125500851572
885.0, 0.026990457406968964
886.0, 0.03294462357161327
887.0, 0.04172164602697336
888.0, 0.03317732051328743
889.0, 0.029527183213943275
890.0, 0.035869079668592624
891.0, 0.0212306979796631
892.0, 0.03203914501150804
893.0, 0.033202061519206925
894.0, 0.026339892733238578
895.0, 0.026398798605011726
896.0, 0.02464921533589277
897.0, 0.015319746101091306
898.0, 0.017235895380499338
899.0, 0.021634769525415078
900.0, 0.017918640921329766
901.0, 0.010474467049532444
902.0, 0.012414859307076797
903.0, 0.016076441373007764
904.0, 0.014828033447846535
905.0, 0.014715904394302159
906.0, 0.014445957802170787
907.0, 0.0036479495448986238
908.0, 0.010166506066854658
909.0, 0.018945963796189312
910.0, 0.0143774469138147
911.0, 0.01789270365569901
912.0, 0.016366889219833005
913.0, 0.007403601522749501
914.0, 0.004934504698421115
915.0, 0.006122194305353209
916.0, 9.627535128537741e-05
917.0, 0.006827069547838987
918.0, 0.0044729788627618314
919.0, 0.001398832740292783
920.0, 0.010875508401682476
921.0, 0.007729256929330686
922.0, 0.012235533984171366
923.0, 0.016698635861480154
924.0, 0.0032465270383483466
925.0, 0.002747709307663973
926.0, 0.008020935977605038
927.0, 0.014453906915367321
928.0, 0.00238038850515865
929.0, 0.005748693142167816
930.0, 0.0011086440003948786
931.0, 0.0013999292669423925
932.0, 0.0025776438715731775
933.0, 0.0033831918275787267
934.0, 0.0016734617625412571
935.0, 0.00938726400154212
936.0, 0.0059666124630952146
937.0, 0.004322245013409183
938.0, 0.002887143125754611
939.0, 0.009765552151095066
940.0, 0.01079230476680726
941.0, 0.006108337687611992
942.0, 0.004427185675677006
943.0, 0.011407971825376027
944.0, 0.010091323368558659
945.0, 0.008812697091425736
946.0, 0.009892584998686983
947.0, 0.0024356299501200117
948.0, 0.008508219373373063
949.0, 0.018677451672510125
950.0, 0.012644115898238169
951.0, 0.019280241756614497
952.0, 0.027562447364717402
953.0, 0.028243529195327643
954.0, 0.03445923008248105
955.0, 0.04466469669186852
956.0, 0.06314137540220695
957.0, 0.07997679500994484
958.0, 0.0906695464137278
959.0, 0.10554376714774168
960.0, 0.1238551029362477
961.0, 0.1367632164043945
962.0, 0.14712057727112562
963.0, 0.1727519113982857
964.0, 0.2005181580066977
965.0, 0.20523055276600552
966.0, 0.2402698409167808
967.0, 0.2787398881940668
968.0, 0.336674088732197
969.0, 0.38877586423671456
970.0, 0.4226440046275396
971.0, 0.3837868344042999
972.0, 0.32687826234159856
973.0, 0.26540048585404014
974.0, 0.20038933474563883
975.0, 0.16453829348296387
976.0, 0.14177793598449684
977.0, 0.1350584391305918
978.0, 0.12422329717316517
979.0, 0.11211334888915057
980.0, 0.10511862373598682
981.0, 0.10552231548371384
982.0, 0.11668240318818245
983.0, 0.11829803431013404
984.0, 0.11402635276417494
985.0, 0.122765372798016
986.0, 0.1287960170203486
987.0, 0.12358083581643224
988.0, 0.12758589126975267
989.0, 0.12499067923833054
990.0, 0.12198869493872733
991.0, 0.11253350211001197
992.0, 0.11638761702786848
993.0, 0.10885495328298131
994.0, 0.0968234385619027
995.0, 0.09137684444594334
996.0, 0.08297617974773609
997.0, 0.08161777656259067
998.0, 0.07723518296610934
999.0, 0.06119406135724862
1000.0, 0.06862300901394765
1001.0, 0.056626020451903354
1002.0, 0.04782791618420826
1003.0, 0.03874599659954557
1004.0, 0.04158098129934061
1005.0, 0.04355023080096298
1006.0, 0.039761080637953666
1007.0, 0.041593377998029646
1008.0, 0.0418674524274681
1009.0, 0.037292026458584815
1010.0, 0.0429394415283295
1011.0, 0.039504677400892425
1012.0, 0.028767639818345167
1013.0, 0.03441442192395784
1014.0, 0.039970123235238096
1015.0, 0.039951376635747805
1016.0, 0.037648784310847026
1017.0, 0.03377411418998915
1018.0, 0.034570396854815624
1019.0, 0.04291817992451814
1020.0, 0.04298466852181865
1021.0, 0.02955374083005656
1022.0, 0.028668272342951502
1023.0, 0.03970934940680632
1024.0, 0.032839820835709105
1025.0, 0.02773823800558756
1026.0, 0.024099209963176084
1027.0, 0.02235025189029562
1028.0, 0.024117937546378945
1029.0, 0.02467661248273683
1030.0, 0.027636370891506633
1031.0, 0.030722278799165965
1032.0, 0.017976412598336353
1033.0, 0.03725166049123157
1034.0, 0.028611045151218917
1035.0, 0.031097081559879076
1036.0, 0.028892656312228534
1037.0, 0.024735758438259835
1038.0, 0.027546955821339078
1039.0, 0.02735874647778382
1040.0, 0.0425508975339688
1041.0, 0.050176824767254775
1042.0, 0.037129544484378475
1043.0, 0.055659586975249815
1044.0, 0.05240292629603129
1045.0, 0.056842362327331704
1046.0, 0.05575450413133623
1047.0, 0.03503481057374953
1048.0, 0.02868234092258248
1049.0, 0.027220453737458353
1050.0, 0.013934059473020958
1051.0, 0.00433496715889794
1052.0, 0.007375630240777565
1053.0, 0.006763656209367393
1054.0, 0.0015323013400914162
1055.0, 0.0030302403080278636
1056.0, 0.0022065164461641065
1057.0, 0.001959954194309088
1058.0, 0.0039712127139295865
1059.0, 0.001545601210477277
1060.0, 0.006097615735252747
1061.0, 0.011185626895607613
1062.0, 0.005648771547372181
1063.0, 0.0008569188500320713
1064.0, 0.0008812320110371352
1065.0, 0.008928939829321253
1066.0, 0.004803367319189934
1067.0, 0.0036773979507834583
1068.0, 0.0057519863942640595
1069.0, 0.006058777727580284
1070.0, 0.003386687940245628
1071.0, 0.011356543734522695
1072.0, 0.011883103158404539
1073.0, 0.028458195364006657
1074.0, 0.022441487136875445
1075.0, 0.02440674113957006
1076.0, 0.03475298302436016
1077.0, 0.037297895722886394
1078.0, 0.04243300582664417
1079.0, 0.05464934078490654
1080.0, 0.05398206077247777
1081.0, 0.047001127396812885
1082.0, 0.05959587331907923
1083.0, 0.0704538202720949
1084.0, 0.08567808625619248
1085.0, 0.09021220489870445
1086.0, 0.09954409138303481
1087.0, 0.10979624276285371
1088.0, 0.1041559598204414
1089.0, 0.10643104053148533
1090.0, 0.11293501229229054
1091.0, 0.12058846762426484
1092.0, 0.12411343150848114
1093.0, 0.12338164911741369
1094.0, 0.12682570280978414
1095.0, 0.1257886282967002
1096.0, 0.11385153794846058
1097.0, 0.11942383309673661
1098.0, 0.1189221999400504
1099.0, 0.12437903819759621
1100.0, 0.1333465271462031
1101.0, 0.12316023947703449
1102.0, 0.11969671819753419
1103.0, 0.12165474578736914
1104.0, 0.11348583494247319
1105.0, 0.10923444979998012
1106.0, 0.11073587245178898
1107.0, 0.10315025244650937
1108.0, 0.09004740513786277
1109.0, 0.08745392136822859
1110.0, 0.09526736018025327
1111.0, 0.08799416962075043
1112.0, 0.09260990064698259
1113.0, 0.08535651110096854
1114.0, 0.07634493791714934
1115.0, 0.07683437090850123
1116.0, 0.06616277179795114
1117.0, 0.054089785902901144
1118.0, 0.05905430043187758
1119.0, 0.048843638637923306
1120.0, 0.04276418167457702
1121.0, 0.02922460342815005
1122.0, 0.015343539690737906
1123.0, 0.025715976514728504
1124.0, 0.01758116639865964
1125.0, 0.010644146366612865
1126.0, 0.00044815140965570583
1127.0, 0.0022866694763583485
1128, 0.0
1129, 0.0
1130, 0.0
1131, 0.0
1132, 0.0
1133, 0.0
1134, 0.0
1135, 0.0
1136, 0.0
1137, 0.0
1138, 0.0
1139, 0.0
1140, 0.0
1141, 0.0
1142, 0.0
1143, 0.0
1144, 0.0
1145, 0.0
1146, 0.0
1147, 0.0
1148, 0.0
1149, 0.0
1150, 0.0
1151, 0.0
1152, 0.0
1153, 0.0
1154, 0.0
1155, 0.0
1156, 0.0
1157, 0.0
1158, 0.0
1159, 0.0
1160, 0.0
1161, 0.0
1162, 0.0
1163, 0.0
1164, 0.0
1165, 0.0
1166, 0.0
1167, 0.0
1168, 0.0
1169, 0.0
1170, 0.0
1171, 0.0
1172, 0.0
1173, 0.0
1174, 0.0
1175, 0.0
1176, 0.0
1177, 0.0
1178, 0.0
1179, 0.0
1180, 0.0
1181, 0.0
1182, 0.0
1183, 0.0
1184, 0.0
1185, 0.0
1186, 0.0
1187, 0.0
1188, 0.0
1189, 0.0
1190, 0.0
1191, 0.0
1192, 0.0
1193, 0.0
1194, 0.0
1195, 0.0
1196, 0.0
1197, 0.0
1198, 0.0
1199, 0.0
1200, 0.0
1201, 0.0
1202, 0.0
1203, 0.0
1204, 0.0
1205, 0.0
1206, 0.0
1207, 0.0
1208, 0.0
1209, 0.0
1210, 0.0
1211, 0.0
1212, 0.0
1213, 0.0
1214, 0.0
1215, 0.0
1216, 0.0
1217, 0.0
1218, 0.0
1219, 0.0
1220, 0.0
1221, 0.0
1222, 0.0
1223, 0.0
1224, 0.0
1225, 0.0
1226, 0.0
1227, 0.0
1228, 0.0
1229, 0.0
1230, 0.0
1231, 0.0
1232, 0.0
1233, 0.0
1234, 0.0
1235, 0.0
1236, 0.0
1237, 0.0
1238, 0.0
1239, 0.0
1240, 0.0
1241, 0.0
1242, 0.0
1243, 0.0
1244, 0.0
1245, 0.0
1246, 0.0
1247, 0.0
1248, 0.0
1249, 0.0
1250, 0.0
1251, 0.0
1252, 0.0
1253, 0.0
1254, 0.0
1255, 0.0
1256, 0.0
1257, 0.0
1258, 0.0
1259, 0.0
1260, 0.0
1261, 0.0
1262, 0.0
1263, 0.0
1264, 0.0
1265, 0.0
1266, 0.0
1267, 0.0
1268, 0.0
1269, 0.0
1270, 0.0
1271, 0.0
1272, 0.0
1273, 0.0
1274, 0.0
1275, 0.0
1276, 0.0
1277, 0.0
1278, 0.0
1279, 0.0
1280, 0.0
1281, 0.0
1282, 0.0
1283, 0.0
1284, 0.0
1285, 0.0
1286, 0.0
1287, 0.0
1288, 0.0
1289, 0.0
1290, 0.0
1291, 0.0
1292, 0.0
1293, 0.0
1294, 0.0
1295, 0.0
1296, 0.0
1297, 0.0
1298, 0.0
1299, 0.0
1300, 0.0
1301, 0.0
1302, 0.0
1303, 0.0
1304, 0.0
1305, 0.0
1306, 0.0
1307, 0.0
1308, 0.0
1309, 0.0
1310, 0.0
1311, 0.0
1312, 0.0
1313, 0.0
1314, 0.0
1315, 0.0
1316, 0.0
1317, 0.0
1318, 0.0
1319, 0.0
1320, 0.0
1321, 0.0
1322, 0.0
1323, 0.0
1324, 0.0
1325, 0.0
1326, 0.0
1327, 0.0
1328, 0.0
1329, 0.0
1330, 0.0
1331, 0.0
1332, 0.0
1333, 0.0
1334, 0.0
1335, 0.0
1336, 0.0
1337, 0.0
1338, 0.0
1339, 0.0
1340, 0.0
1341, 0.0
1342, 0.0
1343, 0.0
1344, 0.0
1345, 0.0
1346, 0.0
1347, 0.0
1348, 0.0
1349, 0.0
1350, 0.0
1351, 0.0
1352, 0.0
1353, 0.0
1354, 0.0
1355, 0.0
1356, 0.0
1357, 0.0
1358, 0.0
1359, 0.0
1360, 0.0
1361, 0.0
1362, 0.0
1363, 0.0
1364, 0.0
1365, 0.0
1366, 0.0
1367, 0.0
1368, 0.0
1369, 0.0
1370, 0.0
1371, 0.0
1372, 0.0
1373, 0.0
1374, 0.0
1375, 0.0
1376, 0.0
1377, 0.0
1378, 0.0
1379, 0.0
1380, 0.0
1381, 0.0
1382, 0.0
1383, 0.0
1384, 0.0
1385, 0.0
1386, 0.0
1387, 0.0
1388, 0.0
1389, 0.0
1390, 0.0
1391, 0.0
1392, 0.0
1393, 0.0
1394, 0.0
1395, 0.0
1396, 0.0
1397, 0.0
1398, 0.0
1399, 0.0
1400, 0.0
1401, 0.0
1402, 0.0
1403, 0.0
1404, 0.0
1405, 0.0
1406, 0.0
1407, 0.0
1408, 0.0
1409, 0.0
1410, 0.0
1411, 0.0
1412, 0.0
1413, 0.0
1414, 0.0
1415, 0.0
1416, 0.0
1417, 0.0
1418, 0.0
1419, 0.0
1420, 0.0
1421, 0.0
1422, 0.0
1423, 0.0
1424, 0.0
1425, 0.0
1426, 0.0
1427, 0.0
1428, 0.0
1429, 0.0
1430, 0.0
1431, 0.0
1432, 0.0
1433, 0.0
1434, 0.0
1435, 0.0
1436, 0.0
1437, 0.0
1438, 0.0
1439, 0.0
1440, 0.0
1441, 0.0
1442, 0.0
1443, 0.0
1444, 0.0
1445, 0.0
1446, 0.0
1447, 0.0
1448, 0.0
1449, 0.0
1450, 0.0
1451, 0.0
1452, 0.0
1453, 0.0
1454, 0.0
1455, 0.0
1456, 0.0
1457, 0.0
1458, 0.0
1459, 0.0
1460, 0.0
1461, 0.0
1462, 0.0
1463, 0.0
1464, 0.0
1465, 0.0
1466, 0.0
1467, 0.0
1468, 0.0
1469, 0.0
1470, 0.0
1471, 0.0
1472, 0.0
1473, 0.0
1474, 0.0
1475, 0.0
1476, 0.0
1477, 0.0
1478, 0.0
1479, 0.0
1480, 0.0
1481, 0.0
1482, 0.0
1483, 0.0
1484, 0.0
1485, 0.0
1486, 0.0
1487, 0.0
1488, 0.0
1489, 0.0
1490, 0.0
1491, 0.0
1492, 0.0
1493, 0.0
1494, 0.0
1495, 0.0
1496, 0.0
1497, 0.0
1498, 0.0
1499, 0.0
1500, 0.0
1501, 0.0
1502, 0.0
1503, 0.0
1504, 0.0
1505, 0.0
1506, 0.0
1507, 0.0
1508, 0.0
1509, 0.0
1510, 0.0
1511, 0.0
1512, 0.0
1513, 0.0
1514, 0.0
1515, 0.0
1516, 0.0
1517, 0.0
1518, 0.0
1519, 0.0
1520, 0.0
1521, 0.0
1522, 0.0
1523, 0.0
1524, 0.0
1525, 0.0
1526, 0.0
1527, 0.0
1528, 0.0
1529, 0.0
1530, 0.0
1531, 0.0
1532, 0.0
1533, 0.0
1534, 0.0
1535, 0.0
1536, 0.0
1537, 0.0
1538, 0.0
1539, 0.0
1540, 0.0
1541, 0.0
1542, 0.0
1543, 0.0
1544, 0.0
1545, 0.0
1546, 0.0
1547, 0.0
1548, 0.0
1549, 0.0
1550, 0.0
1551, 0.0
1552, 0.0
1553, 0.0
1554, 0.0
1555, 0.0
1556, 0.0
1557, 0.0
1558, 0.0
1559, 0.0
1560, 0.0
1561, 0.0
1562, 0.0
1563, 0.0
1564, 0.0
1565, 0.0
1566, 0.0
1567, 0.0
1568, 0.0
1569, 0.0
1570, 0.0
1571, 0.0
1572, 0.0
1573, 0.0
1574, 0.0
1575, 0.0
1576, 0.0
1577, 0.0
1578, 0.0
1579, 0.0
1580, 0.0
1581, 0.0
1582, 0.0
1583, 0.0
1584, 0.0
1585, 0.0
1586, 0.0
1587, 0.0
1588, 0.0
1589, 0.0
1590, 0.0
1591, 0.0
1592, 0.0
1593, 0.0
1594, 0.0
1595, 0.0
1596, 0.0
1597, 0.0
1598, 0.0
1599, 0.0
