30, 0.0
31, 0.0
32, 0.0
33, 0.0
34, 0.0
35, 0.0
36, 0.0
37, 0.0
38, 0.0
39, 0.0
40, 0.0
41, 0.0
42, 0.0
43, 0.0
44, 0.0
45, 0.0
46, 0.0
47, 0.0
48, 0.0
49, 0.0
50, 0.0
51, 0.0
52, 0.0
53, 0.0
54, 0.0
55, 0.0
56, 0.0
57, 0.0
58, 0.0
59, 0.0
60, 0.0
61, 0.0
62, 0.0
63, 0.0
64, 0.0
65, 0.0
66, 0.0
67, 0.0
68, 0.0
69, 0.0
70, 0.0
71, 0.0
72, 0.0
73, 0.0
74, 0.0
75, 0.0
76, 0.0
77, 0.0
78, 0.0
79, 0.0
80, 0.0
81, 0.0
82, 0.0
83, 0.0
84, 0.0
85, 0.0
86, 0.0
87, 0.0
88, 0.0
89, 0.0
90, 0.0
91, 0.0
92, 0.0
93, 0.0
94, 0.0
95, 0.0
96, 0.0
97, 0.0
98, 0.0
99, 0.0
100, 0.0
101, 0.0
102, 0.0
103, 0.0
104, 0.0
105, 0.0
106, 0.0
107, 0.0
108, 0.0
109.0, 0.0007186073614993541
110.0, 0.0032257434136908096
111.0, 0.002634177371272737
112.0, 0.0009283761404317186
113.0, 0.00029114612940515434
114.0, 0.007674128000178434
115.0, 0.014153417422744253
116.0, 0.020438912779628345
117.0, 0.030299015333653354
118.0, 0.042715325523975646
119.0, 0.04821963572771756
120.0, 0.05646194969302816
121.0, 0.07285989391126164
122.0, 0.08597510071275495
123.0, 0.09983078262512483
124.0, 0.11084330987130475
125.0, 0.12138611034064575
126.0, 0.1407991333816574
127.0, 0.16558664248464194
128.0, 0.20078419723273178
129.0, 0.24323495967347628
130.0, 0.2838305737488959
131.0, 0.32611429050505586
132.0, 0.3473886550822315
133.0, 0.3388735931519496
134.0, 0.3002278752154553
135.0, 0.24931745609488673
136.0, 0.20963897487826186
137.0, 0.1757053688319275
138.0, 0.14236320430889743
139.0, 0.11768463748823438
140.0, 0.09768110742158147
141.0, 0.0771629636147301
142.0, 0.06032756657614055
143.0, 0.0589964668799817
144.0, 0.05650156592496595
145.0, 0.05882987408199731
146.0, 0.06118737127000148
147.0, 0.0552303281781856
148.0, 0.048019264106578155
149.0, 0.04295551088483402
150.0, 0.04012212348440394
151.0, 0.03901425319938026
152.0, 0.03922628798800287
153.0, 0.05435383960793056
154.0, 0.07271599294206073
155.0, 0.08589241267307966
156.0, 0.09204663173467637
157.0, 0.10383721608030344
158.0, 0.11797158487589579
159.0, 0.1312155135184291
160.0, 0.14205465581960194
161.0, 0.15800113549911643
162.0, 0.1751974812136002
163.0, 0.1900193164495396
164.0, 0.2041369008829322
165.0, 0.22757314101340753
166.0, 0.2558073090343375
167.0, 0.28691796882292786
168.0, 0.318467868422999
169.0, 0.345090753873663
170.0, 0.3762554883650892
171.0, 0.40406237594236477
172.0, 0.4160131277532172
173.0, 0.40330191636381896
174.0, 0.37574636032862413
175.0, 0.3361099523733648
176.0, 0.29150060036418607
177.0, 0.24573693915956088
178.0, 0.19758070946570103
179.0, 0.16773922618609416
180.0, 0.14035754332545558
181.0, 0.11497365716675086
182.0, 0.10521925592873276
183.0, 0.10304026317123277
184.0, 0.10252370341582102
185.0, 0.10351298814483262
186.0, 0.10716386671772042
187.0, 0.11314432744240312
188.0, 0.10747807881675085
189.0, 0.09281914615153122
190.0, 0.07172937956208439
191.0, 0.04246127067557189
192.0, 0.024268296561273335
193.0, 0.007873479714417618
194.0, 0.0060321737809917045
195.0, 0.01082184617728357
196.0, 0.012965575206222525
197.0, 0.018104439463434846
198.0, 0.017686488782098525
199.0, 0.008400881215168104
200.0, 0.0028129218692715314
201.0, 0.009569145949138142
202.0, 0.01664574103235119
203.0, 0.015650889644374312
204.0, 0.013616146040497214
205.0, 0.015064852107880427
206.0, 0.014070575766741438
207.0, 0.01268990693528794
208.0, 0.013859639335335086
209.0, 0.015012189609603599
210.0, 0.0205879102282702
211.0, 0.028545504205541937
212.0, 0.03772342761826963
213.0, 0.048757173794860824
214.0, 0.062351310940474004
215.0, 0.07770532606009477
216.0, 0.09585032009685092
217.0, 0.11801278961833711
218.0, 0.14311614860353966
219.0, 0.167957994434458
220.0, 0.1913682268151014
221.0, 0.21760550762352351
222.0, 0.2538584362267366
223.0, 0.29168176959822845
224.0, 0.3232368575231977
225.0, 0.3561375580272078
226.0, 0.39777151894802276
227.0, 0.4329568626856138
228.0, 0.4490359677134455
229.0, 0.4599102211091476
230.0, 0.4638652687148638
231.0, 0.44270647671479835
232.0, 0.4296888236438199
233.0, 0.4113607920253774
234.0, 0.3889646461512918
235.0, 0.37451176139511577
236.0, 0.38324908070069696
237.0, 0.38217594282455947
238.0, 0.38927029730758644
239.0, 0.4065179582746281
240.0, 0.41734644507765645
241.0, 0.42678069803859486
242.0, 0.4168894972217886
243.0, 0.3944326009417893
244.0, 0.3694720531000423
245.0, 0.33340904587516373
246.0, 0.29715911993044003
247.0, 0.2606663375394168
248.0, 0.23027181546980918
249.0, 0.21635429571879464
250.0, 0.20956146358424835
251.0, 0.20924244206679407
252.0, 0.21159773447567184
253.0, 0.2142610515337035
254.0, 0.21833416861149468
255.0, 0.22206993068894784
256.0, 0.21344221442475228
257.0, 0.1932688740893958
258.0, 0.17095158606925606
259.0, 0.1498132381161823
260.0, 0.12407788846598233
261.0, 0.099468093065525
262.0, 0.08009430021970129
263.0, 0.06407788785749553
264.0, 0.053319445223255386
265.0, 0.047819007181344256
266.0, 0.046426051260024956
267.0, 0.04780495506519622
268.0, 0.05111900815392405
269.0, 0.06118388209552849
270.0, 0.07541534487103516
271.0, 0.09082041527043389
272.0, 0.10572051418401589
273.0, 0.11720470606889885
274.0, 0.1319925916585137
275.0, 0.13972697808727783
276.0, 0.13163527209943113
277.0, 0.11234361007585977
278.0, 0.08789115679651006
279.0, 0.06847117422917855
280.0, 0.05339100116672187
281.0, 0.0387198089948527
282.0, 0.03121077381430997
283.0, 0.021493536764409144
284.0, 0.018393747719000143
285.0, 0.02462270681715341
286.0, 0.031892007213945334
287.0, 0.04102264391004601
288.0, 0.05522781472098515
289.0, 0.07070457643303417
290.0, 0.08421205477951484
291.0, 0.0977570394938556
292.0, 0.10578736021542194
293.0, 0.10742423158320356
294.0, 0.10098954014113179
295.0, 0.08538712524026427
296.0, 0.06469755609948513
297.0, 0.0512930035723086
298.0, 0.035994033432548464
299.0, 0.018434721006899635
300.0, 0.008500670731346598
301.0, 0.00465664983668211
302.0, 0.011216336932534036
303.0, 0.012897903431350069
304.0, 0.013104751268829042
305.0, 0.01148610826871555
306.0, 0.009956820895441202
307.0, 0.006158199133269883
308.0, 0.0013496806597638963
309.0, 0.004187504945407028
310.0, 0.00868094169318347
311.0, 0.01794082942129985
312.0, 0.023729998853759204
313.0, 0.028550722518064207
314.0, 0.040425779085058414
315.0, 0.04877612224044957
316.0, 0.05788846993610857
317.0, 0.0665912898286239
318.0, 0.07588591369248426
319.0, 0.09068259165227169
320.0, 0.104303452327253
321.0, 0.11847093222752583
322.0, 0.13227245515338057
323.0, 0.1451908090901333
324.0, 0.15870445603071118
325.0, 0.1607738295078473
326.0, 0.16251972855519828
327.0, 0.16422706504068157
328.0, 0.16201122774432106
329.0, 0.16133282496395548
330.0, 0.1550171692511699
331.0, 0.16089800642335886
332.0, 0.1731242247762861
333.0, 0.17307374342363543
334.0, 0.1860696879751762
335.0, 0.1888389113112204
336.0, 0.19472142175367396
337.0, 0.21155568130368413
338.0, 0.2293069769626905
339.0, 0.24826593085715432
340.0, 0.26025727250963915
341.0, 0.27906893762553814
342.0, 0.3126586392578848
343.0, 0.3496531638087497
344.0, 0.3859775140917978
345.0, 0.41775041554868364
346.0, 0.4497545868073204
347.0, 0.4837231813952441
348.0, 0.507808782766811
349.0, 0.5131925265350782
350.0, 0.503444085116019
351.0, 0.4740246747833565
352.0, 0.42741636261949795
353.0, 0.3858994704865325
354.0, 0.3249940348818874
355.0, 0.2678674007899723
356.0, 0.22323613842551032
357.0, 0.18428613043525474
358.0, 0.14963773619983656
359.0, 0.11917819404841393
360.0, 0.09139153130754818
361.0, 0.06826290301581785
362.0, 0.05144449979562141
363.0, 0.03401664491520722
364.0, 0.021121729145831783
365.0, 0.009630627578729898
366.0, 0.0020195963209068525
367.0, 0.0062159052195932575
368.0, 0.005671711279937748
369.0, 0.010000935855715624
370.0, 0.013019941181937372
371.0, 0.012977730090643902
372.0, 0.01596498007002752
373.0, 0.017094338129823018
374.0, 0.014562309648699482
375.0, 0.009296707761116166
376.0, 0.003420917573868731
377.0, 0.0012118229867128251
378.0, 0.008838923932557257
379.0, 0.017371259398576512
380.0, 0.028629675910025493
381.0, 0.04291453025740107
382.0, 0.05639313010289672
383.0, 0.0699350782436209
384.0, 0.09512916325386009
385.0, 0.1156998546150842
386.0, 0.12452202976762736
387.0, 0.14098283301544115
388.0, 0.15155163909123498
389.0, 0.15727587892270795
390.0, 0.15982002338957593
391.0, 0.15602566514733215
392.0, 0.14101044025705306
393.0, 0.12848944750028238
394.0, 0.10730012485278222
395.0, 0.087699303001346
396.0, 0.07627766643532431
397.0, 0.06236958846147445
398.0, 0.04422831351573545
399.0, 0.037132259623812815
400.0, 0.03266458279885362
401.0, 0.02507656013423251
402.0, 0.025810425088821042
403.0, 0.027376685057547784
404.0, 0.03516494331821611
405.0, 0.04221392306029438
406.0, 0.04663596920419189
407.0, 0.061653727864129745
408.0, 0.07920694522523397
409.0, 0.0945440749178277
410.0, 0.10724116948142136
411.0, 0.12244524348233492
412.0, 0.14821937282893224
413.0, 0.16511429827133772
414.0, 0.18847161461162273
415.0, 0.21566975403435
416.0, 0.24370619200168736
417.0, 0.2784578699189112
418.0, 0.3122928706194796
419.0, 0.3530201673743556
420.0, 0.39572144816768634
421.0, 0.439335104816614
422.0, 0.4892515716904915
423.0, 0.5208048529721299
424.0, 0.5563565309361318
425.0, 0.5867669762779436
426.0, 0.6052249043267479
427.0, 0.6157397920422142
428.0, 0.6387454349106478
429.0, 0.6684421011055569
430.0, 0.7151280334754672
431.0, 0.7695301698191064
432.0, 0.8056255216194755
433.0, 0.8558701706499856
434.0, 0.8826940762015757
435.0, 0.8803210629360435
436.0, 0.8539357181973212
437.0, 0.8098747087892164
438.0, 0.7701614359664113
439.0, 0.7225643656166755
440.0, 0.6801410739522598
441.0, 0.6487234221727928
442.0, 0.6263101361431646
443.0, 0.6165914984776217
444.0, 0.6150028836759466
445.0, 0.6204723802946399
446.0, 0.6374502484555764
447.0, 0.6641416182774723
448.0, 0.6815203274468946
449.0, 0.6865216816212465
450.0, 0.6889348835751833
451.0, 0.6723087457795653
452.0, 0.6274666384948918
453.0, 0.5840923384751182
454.0, 0.5377192947090365
455.0, 0.489625622580635
456.0, 0.4462746624288379
457.0, 0.4054040543176193
458.0, 0.35501755786657424
459.0, 0.31128584360922074
460.0, 0.2698662270227733
461.0, 0.230049148680506
462.0, 0.19374601044597825
463.0, 0.1625112612688257
464.0, 0.13850995576597533
465.0, 0.11708985087810807
466.0, 0.10006673712186791
467.0, 0.08634023276873791
468.0, 0.07258040801065964
469.0, 0.06346138952482865
470.0, 0.0522207687877524
471.0, 0.039459176603759645
472.0, 0.028325937820924185
473.0, 0.021135440780624817
474.0, 0.018007728730434713
475.0, 0.009878367017344746
476.0, 0.007363839431198566
477.0, 0.007890913677564665
478.0, 0.00775526949471019
479.0, 0.014515707731993023
480.0, 0.02088311788861328
481.0, 0.028902338562553025
482.0, 0.03927905388151664
483.0, 0.050384046097605446
484.0, 0.06083325531511138
485.0, 0.08128372956146944
486.0, 0.09725413515005414
487.0, 0.11544082111685788
488.0, 0.13772620441312428
489.0, 0.1598882898086257
490.0, 0.18414992592830787
491.0, 0.21514464506559
492.0, 0.24376997644383597
493.0, 0.27551466373352673
494.0, 0.3139435478661222
495.0, 0.34394241405175197
496.0, 0.37890121247771863
497.0, 0.4101171893964872
498.0, 0.4314943711759527
499.0, 0.44494543187896013
500.0, 0.45563809169749286
501.0, 0.4620885954259029
502.0, 0.45986347601347544
503.0, 0.4584536697091937
504.0, 0.4578194581885294
505.0, 0.4529813494193833
506.0, 0.44962083880180065
507.0, 0.4415682817097218
508.0, 0.42795803845463865
509.0, 0.40629579426394474
510.0, 0.37536792402573166
511.0, 0.3375916650711852
512.0, 0.2923536475166548
513.0, 0.2501872408576047
514.0, 0.2114333229730453
515.0, 0.174159518807008
516.0, 0.14237209443619558
517.0, 0.12708555631973992
518.0, 0.10747194417886934
519.0, 0.08985320975165026
520.0, 0.07657426482435771
521.0, 0.06477069576162454
522.0, 0.05163400173218053
523.0, 0.0393124410678354
524.0, 0.031602798135989756
525.0, 0.020632145743939755
526.0, 0.007616408615641568
527.0, 0.0031147746229272777
528.0, 0.0033047504514608973
529.0, 0.012036512360490763
530.0, 0.014016282944778188
531.0, 0.012667796888115259
532.0, 0.014580817410693487
533.0, 0.01635908095194965
534.0, 0.019119756335354475
535.0, 0.01603411899215756
536.0, 0.011891260916920832
537.0, 0.010287189563302877
538.0, 0.008379117502706665
539.0, 0.002757862817162559
540.0, 0.001038736254374698
541.0, 0.006723755134044749
542.0, 0.010233402110681205
543.0, 0.011614143646176809
544.0, 0.02593403874632359
545.0, 0.034064676862403005
546.0, 0.04946053216479488
547.0, 0.06869170662190871
548.0, 0.08637670672043359
549.0, 0.1039251528739918
550.0, 0.1306947176431018
551.0, 0.15384545088212917
552.0, 0.17706202152949274
553.0, 0.20519088621577014
554.0, 0.2373004206008872
555.0, 0.26775422010591055
556.0, 0.3060906084088351
557.0, 0.3546403181949356
558.0, 0.40560546173908263
559.0, 0.4554973409845591
560.0, 0.5089964488202975
561.0, 0.5794039328048879
562.0, 0.6324138168531008
563.0, 0.6757400735526912
564.0, 0.6974672319831345
565.0, 0.6837923406157997
566.0, 0.636762518236422
567.0, 0.5701297906899931
568.0, 0.48911293702666225
569.0, 0.41933903782479187
570.0, 0.36353555758841555
571.0, 0.31327800573821424
572.0, 0.28265006431222417
573.0, 0.2674693675171966
574.0, 0.26135256212947233
575.0, 0.26577955967790023
576.0, 0.2796800785501795
577.0, 0.29825369985560085
578.0, 0.31950381208031964
579.0, 0.34916763859397293
580.0, 0.38441995058314615
581.0, 0.41969564037785695
582.0, 0.45636687422376576
583.0, 0.502297889476194
584.0, 0.5547858696174949
585.0, 0.5924419921832156
586.0, 0.6357005751294009
587.0, 0.6735232959168331
588.0, 0.6920647218894392
589.0, 0.7279393206747912
590.0, 0.761843022767031
591.0, 0.7922973412062757
592.0, 0.8298669511880092
593.0, 0.8763757894130906
594.0, 0.9184308942955739
595.0, 0.9487932326162931
596.0, 0.9835731383265602
597.0, 0.9993808271704333
598.0, 0.998484751911419
599.0, 0.9833066779972132
600.0, 0.9447762184402295
601.0, 0.8919136232396544
602.0, 0.8429052777422886
603.0, 0.7935305876761303
604.0, 0.739986644971447
605.0, 0.6898010743611702
606.0, 0.6595109464262147
607.0, 0.6289277779860504
608.0, 0.5991342421900376
609.0, 0.5755433975782472
610.0, 0.55788620547402
611.0, 0.5390233263680051
612.0, 0.5106640275485905
613.0, 0.48071853324026265
614.0, 0.44622082031037713
615.0, 0.4132444761565937
616.0, 0.37655636965142053
617.0, 0.33025408265812783
618.0, 0.2887636737404759
619.0, 0.2505870459086739
620.0, 0.22085745704917376
621.0, 0.1924996538937127
622.0, 0.16107067426727403
623.0, 0.1333280470611585
624.0, 0.12025079297683632
625.0, 0.10441971735225265
626.0, 0.09134051568396295
627.0, 0.08052694711076189
628.0, 0.06966118156636775
629.0, 0.058948362448935955
630.0, 0.052036361703088535
631.0, 0.047879587039960224
632.0, 0.0437001752078037
633.0, 0.03880735713090022
634.0, 0.033590983439139084
635.0, 0.029622644947870175
636.0, 0.0307836337441314
637.0, 0.021373999223135123
638.0, 0.015527731347518454
639.0, 0.01226720496444262
640.0, 0.010767684624439049
641.0, 0.014735175489412684
642.0, 0.013911703204906365
643.0, 0.011700687695563938
644.0, 0.006959787832278108
645.0, 0.003687124139712757
646.0, 0.0034706902615268707
647.0, 0.003268942702880703
648.0, 0.002694450466279884
649.0, 0.0030057904577338954
650.0, 0.0018709102612659084
651.0, 0.004197469912393569
652.0, 0.0049184304443959685
653.0, 0.007127321225151182
654.0, 0.0025993790947910333
655.0, 0.0018332791143484506
656.0, 0.001319994519040735
657.0, 0.002284871569962611
658.0, 0.0035405687304010175
659.0, 0.0018446960853120596
660.0, 0.002873524844609525
661.0, 0.002385428276769656
662.0, 0.0009636527508376918
663.0, 0.0016242088707871325
664.0, 0.001981505290241984
665.0, 0.001133367409231023
666.0, 0.001271622485054713
667.0, 0.0023880336207205105
668.0, 0.0017757981801427634
669.0, 0.004930432327792121
670.0, 0.008518554741411527
671.0, 0.007585041941322208
672.0, 0.011022245808545226
673.0, 0.010830489500641076
674.0, 0.008823253240027714
675.0, 0.009356434915569478
676.0, 0.010678816386560704
677.0, 0.01138380750205011
678.0, 0.016297130423774203
679.0, 0.014290444738668908
680.0, 0.012168172774102799
681.0, 0.014991937033275704
682.0, 0.017548106751315313
683.0, 0.01656485228876241
684.0, 0.01841969981332103
685.0, 0.016466642600748725
686.0, 0.01597687725860395
687.0, 0.015308743740985741
688.0, 0.013382263996713798
689.0, 0.012408875732413864
690.0, 0.015110326230470372
691.0, 0.01720876754279105
692.0, 0.011766109716931731
693.0, 0.011635247609266569
694.0, 0.01142194457892921
695.0, 0.00952226572672616
696.0, 0.011893975789739008
697.0, 0.0035380310978203456
698.0, 0.009469139929734931
699.0, 0.010439444470139576
700.0, 0.00871326293705064
701.0, 0.009266729495633202
702.0, 0.010584827360058518
703.0, 0.011890484804068202
704.0, 0.009924599498495959
705.0, 0.005506519937480745
706.0, 0.0040504134874214965
707.0, 0.0058789409416124426
708.0, 0.007934141867951824
709.0, 0.00790400431501965
710.0, 0.0070927703458199595
711.0, 0.0049289951754011825
712.0, 0.004445061270164936
713.0, 0.00409875555692626
714.0, 0.003552161476714283
715.0, 0.0043891089592852225
716.0, 0.004312002468436327
717.0, 0.0015912698479308256
718.0, 0.0035232053360413915
719.0, 0.003226751665421605
720.0, 0.001610772260388108
721.0, 0.0037168324074694174
722.0, 0.0034204291713980416
723.0, 0.004080106796873783
724.0, 0.004581119422404746
725.0, 0.005763626433045103
726.0, 0.005601166496168492
727.0, 0.0034543254106911363
728.0, 0.003775380392505785
729.0, 0.0063815090444472875
730.0, 0.003776121785511107
731.0, 0.005638660839438734
732.0, 0.007151333311092226
733.0, 0.0059483890809670205
734.0, 0.006094359849455876
735.0, 0.006893439304966588
736.0, 0.008125187113149461
737.0, 0.00859222584121503
738.0, 0.009500420835059815
739.0, 0.009138073782705616
740.0, 0.008390419464763014
741.0, 0.011903733229624078
742.0, 0.010853560363842175
743.0, 0.009766434051533164
744.0, 0.010528127304147135
745.0, 0.011960881687052758
746.0, 0.012451532057878854
747.0, 0.012604039178479295
748.0, 0.013564661936711901
749.0, 0.014106441836269062
750.0, 0.013512065333541757
751.0, 0.013805569103922711
752.0, 0.014284748020624646
753.0, 0.014237521822415942
754.0, 0.014461309260258057
755.0, 0.014902293195004475
756.0, 0.01249592213477062
757.0, 0.012411825065457191
758.0, 0.012911529359898186
759.0, 0.011945501531149528
760.0, 0.011549995932958457
761.0, 0.014426793115099501
762.0, 0.014513007256531296
763.0, 0.014914044026465451
764.0, 0.01438203823356379
765.0, 0.014880631197203188
766.0, 0.014475474478795143
767.0, 0.010644153666562704
768.0, 0.011265056668896187
769.0, 0.008659941266421925
770.0, 0.00773967857188108
771.0, 0.006670114956565569
772.0, 0.007023932237803072
773.0, 0.008299169577321625
774.0, 0.007084772363118648
775.0, 0.008721545227428401
776.0, 0.006507402155446688
777.0, 0.005422852291203094
778.0, 0.004465726251772382
779.0, 0.003374861808032911
780.0, 0.002157197044836661
781.0, 0.000655202809733765
782.0, 0.0035227161162109705
783.0, 0.0032396835265282556
784.0, 0.002608853395547718
785.0, 0.0021698275848638315
786.0, 0.0029215305669970672
787.0, 0.004214568352397928
788.0, 0.0020676921845462475
789.0, 0.0013555600615779086
790.0, 0.00118434627549115
791.0, 0.0007054734369001683
792.0, 0.0006959673313257071
793.0, 0.002511408885697753
794.0, 0.0042818900042596005
795.0, 0.0014589084837842812
796.0, 0.0019752393941580293
797.0, 0.0018656038596041842
798.0, 0.0029945956258658536
799.0, 0.00409259700002465
800.0, 0.003945060179881108
801.0, 0.0045487531096958175
802.0, 0.00796395403474239
803.0, 0.004821166645466532
804.0, 0.0016600863528468636
805.0, 0.00377853762355542
806.0, 0.004615264957579811
807.0, 0.003647091145057088
808.0, 0.005707878120799258
809.0, 0.005338264988255543
810.0, 0.0037397272175076135
811.0, 0.0009521798344164508
812.0, 0.0018892086438385546
813.0, 0.0016653886348661506
814.0, 0.0011833399362844719
815.0, 0.0036452963814709517
816.0, 0.007976747307800252
817.0, 0.009728214270909023
818.0, 0.011370788176335671
819.0, 0.014185282000477454
820.0, 0.015747512168272308
821.0, 0.01895255424329966
822.0, 0.026529712184649303
823.0, 0.02907813665755592
824.0, 0.028292211517590395
825.0, 0.032160259932830684
826.0, 0.038450920739276334
827.0, 0.03813626499099078
828.0, 0.036888387925613234
829.0, 0.041739689982900674
830.0, 0.04183853355580129
831.0, 0.03727137554601531
832.0, 0.03421037646753396
833.0, 0.03618930059320002
834.0, 0.035237553834723725
835.0, 0.030632751151668924
836.0, 0.028380968975786038
837.0, 0.028910043205572694
838.0, 0.029269078850737134
839.0, 0.02863104810027689
840.0, 0.02447396168536873
841.0, 0.02230082335938856
842.0, 0.024455260282845847
843.0, 0.028512159305191003
844.0, 0.032458403483424006
845.0, 0.036157292548661325
846.0, 0.03724727862196473
847.0, 0.04255979205593374
848.0, 0.04660356627719683
849.0, 0.051080820562224856
850.0, 0.05772003199476062
851.0, 0.06238431853593229
852.0, 0.06771467070288163
853.0, 0.07480858470540121
854.0, 0.0880573614053977
855.0, 0.09944360099291791
856.0, 0.10678522135901901
857.0, 0.11326918128239052
858.0, 0.12317971914894169
859.0, 0.1381521496263488
860.0, 0.14477239243465553
861.0, 0.15864370171717468
862.0, 0.16528392156361305
863.0, 0.1725247741936749
864.0, 0.17915360209405462
865.0, 0.17906775562190622
866.0, 0.17997990700658853
867.0, 0.18564157578064694
868.0, 0.19191695821039334
869.0, 0.19579967843358898
870.0, 0.20522828748155497
871.0, 0.2181236444871565
872.0, 0.22931042338149418
873.0, 0.24219098809491482
874.0, 0.2652497015116857
875.0, 0.2738662832183831
876.0, 0.29777603254719365
877.0, 0.31516571258179493
878.0, 0.3339838514403695
879.0, 0.354274502246723
880.0, 0.370833924816471
881.0, 0.39097869895483917
882.0, 0.40433580716904427
883.0, 0.41066377150411504
884.0, 0.42006765993886336
885.0, 0.421188252053905
886.0, 0.4174550771764815
887.0, 0.4098826881551544
888.0, 0.3928203594541762
889.0, 0.3740423803436033
890.0, 0.3646055724631475
891.0, 0.3517098628682644
892.0, 0.3391832220421391
893.0, 0.32978745666620346
894.0, 0.32698848484431103
895.0, 0.33084808339862587
896.0, 0.3364896200080467
897.0, 0.34226457281723716
898.0, 0.3561739851159508
899.0, 0.37456620541109836
900.0, 0.40008005606908276
901.0, 0.4324742751095354
902.0, 0.4714974994039655
903.0, 0.5103582281099269
904.0, 0.5419217841579353
905.0, 0.5937555185101194
906.0, 0.6393972002624565
907.0, 0.694449177620011
908.0, 0.7472469487796097
909.0, 0.7977652127862769
910.0, 0.8474644642307658
911.0, 0.8923234712713595
912.0, 0.9343548411058601
913.0, 0.9748280881361221
914.0, 0.989282254659159
915.0, 0.9808335865481744
916.0, 0.9648136935230082
917.0, 0.9291164920697738
918.0, 0.872832591457361
919.0, 0.8083797526725409
920.0, 0.7283610406542997
921.0, 0.6590981273310212
922.0, 0.5762819523180057
923.0, 0.5095976339394729
924.0, 0.4429699283600977
925.0, 0.38058012156764326
926.0, 0.3263749407030734
927.0, 0.27471978835827743
928.0, 0.2412227092063186
929.0, 0.2081071985431638
930.0, 0.17446314809441477
931.0, 0.14705173796383958
932.0, 0.12356023161929829
933.0, 0.1045444030668853
934.0, 0.08721978059888753
935.0, 0.06786019914557308
936.0, 0.05460370277017862
937.0, 0.048466724549590244
938.0, 0.038017143171257366
939.0, 0.03206713133826697
940.0, 0.026142003988373512
941.0, 0.021298571808982467
942.0, 0.016919767373391095
943.0, 0.010003359623939083
944.0, 0.006933532019432464
945.0, 0.002645042196306539
946.0, 0.001460001408826408
947.0, 0.0009942957619067977
948.0, 0.00013059285935149175
949.0, 0.002100953443013625
950.0, 0.004688720891683843
951.0, 0.004556280743018069
952.0, 0.0056588249303451185
953.0, 0.003467903003560522
954.0, 0.0074292797147614284
955.0, 0.00952408635288108
956.0, 0.011428048819256265
957.0, 0.011488413106392061
958.0, 0.009184033147495923
959.0, 0.008071340552630481
960.0, 0.009376123273830564
961.0, 0.010018070674643303
962.0, 0.009699826146482514
963.0, 0.006036558682460252
964.0, 0.006194629705661635
965.0, 0.006688244833121728
966.0, 0.005189425235436288
967.0, 0.005712975469313428
968.0, 0.010725540711933502
969.0, 0.013783356546776293
970.0, 0.01643340812262084
971.0, 0.01871539137074898
972.0, 0.02417600094450767
973.0, 0.03145345841295567
974.0, 0.035900587218599955
975.0, 0.041340080926213996
976.0, 0.05006071463260524
977.0, 0.053540932844383604
978.0, 0.05687192822602638
979.0, 0.055037858298410264
980.0, 0.05217100202522919
981.0, 0.048947079066556785
982.0, 0.04406623240911235
983.0, 0.03853542922233261
984.0, 0.03168135729362388
985.0, 0.020743148087017663
986.0, 0.010501899862241443
987.0, 0.010311051040330501
988.0, 0.008727641438588854
989.0, 0.0020175744806958757
990.0, 0.0025406564276022263
991.0, 0.006253913708107315
992.0, 0.008329873104267938
993.0, 0.006107796365947117
994.0, 0.005197279278868348
995.0, 0.008654226387914302
996.0, 0.00906743327124063
997.0, 0.011947558588455297
998.0, 0.01004628653660151
999.0, 0.006365608218413439
1000.0, 0.005524151373099639
1001.0, 0.004356226011572765
1002.0, 0.0009595372612418154
1003.0, 0.000960251962544806
1004.0, 0.00012381533451949494
1005.0, 0.0012354441635708182
1006.0, 0.003925159021657901
1007.0, 0.008623531906516836
1008.0, 0.010938637573491486
1009.0, 0.01459626832840207
1010.0, 0.020761393542775123
1011.0, 0.02343676151110013
1012.0, 0.027598849748943166
1013.0, 0.037166054251891824
1014.0, 0.04563731397215176
1015.0, 0.05043529993761624
1016.0, 0.05286619414813909
1017.0, 0.05687225100299107
1018.0, 0.057914324783181995
1019.0, 0.05583421040897275
1020.0, 0.056967136739649586
1021.0, 0.05438155005566562
1022.0, 0.049305655351552694
1023.0, 0.04758341873958123
1024.0, 0.04307155222641556
1025.0, 0.04370375996162002
1026.0, 0.04024443437979133
1027.0, 0.035846104200342226
1028.0, 0.03758404471658836
1029.0, 0.0385489696251661
1030.0, 0.03792394192022034
1031.0, 0.04348422325592691
1032.0, 0.045690800128344845
1033.0, 0.05150726183634174
1034.0, 0.04826134249349877
1035.0, 0.04803730912734189
1036.0, 0.05459935060852753
1037.0, 0.05979918525230669
1038.0, 0.061041161064579984
1039.0, 0.06144629283979625
1040.0, 0.05941645678964656
1041.0, 0.057063236373020486
1042.0, 0.05616576064389383
1043.0, 0.05487005122273072
1044.0, 0.05429874280526081
1045.0, 0.05356728335631031
1046.0, 0.05215253633043562
1047.0, 0.05092861120506821
1048.0, 0.04923784536823582
1049.0, 0.04660896494626728
1050.0, 0.041108042284915075
1051.0, 0.03850555556258207
1052.0, 0.03995452350170116
1053.0, 0.03830333999805264
1054.0, 0.038472346410613166
1055.0, 0.037710298027806635
1056.0, 0.033688301650280514
1057.0, 0.03370200208892942
1058.0, 0.035487068728720844
1059.0, 0.0348989259356019
1060.0, 0.034761279408906345
1061.0, 0.03074320582295346
1062.0, 0.030654122978549213
1063.0, 0.030913718773536557
1064.0, 0.03274458129678368
1065.0, 0.033837150644639026
1066.0, 0.031291147292344175
1067.0, 0.03414680785057294
1068.0, 0.04102389839776812
1069.0, 0.04505878167163714
1070.0, 0.05070511498987263
1071.0, 0.052935281465275055
1072.0, 0.060927912334896174
1073.0, 0.07173748255433535
1074.0, 0.08132234338229036
1075.0, 0.09273035772713663
1076.0, 0.10849223767494626
1077.0, 0.12365338709943223
1078.0, 0.13868068988550816
1079.0, 0.15369547503334946
1080.0, 0.17397674483911021
1081.0, 0.19300417212448734
1082.0, 0.20869672815704265
1083.0, 0.22634793977097978
1084.0, 0.2393398375752562
1085.0, 0.2447788250234889
1086.0, 0.24590513041059436
1087.0, 0.22759378597857033
1088.0, 0.20503890208505557
1089.0, 0.18378233764021965
1090.0, 0.15602770117052603
1091.0, 0.1364169133536502
1092.0, 0.10906449958636484
1093.0, 0.08806563737798503
1094.0, 0.07686402218118825
1095.0, 0.06398083623685044
1096.0, 0.053213058120394154
1097.0, 0.04515604664585253
1098.0, 0.0375748459851309
1099.0, 0.0370854403935015
1100.0, 0.033073628004058504
1101.0, 0.025916676551073065
1102.0, 0.023076775719539956
1103.0, 0.02000336773842131
1104.0, 0.01676527141261263
1105.0, 0.017016273235840308
1106.0, 0.015475252544957815
1107.0, 0.008997486316132026
1108.0, 0.008457475819277338
1109.0, 0.008432008156212138
1110.0, 0.00783874109182639
1111.0, 0.005661969049637451
1112.0, 0.006049067426347014
1113.0, 0.002167112305710323
1114.0, 0.0033165222506787223
1115.0, 0.006922029222207337
1116.0, 0.0027136031186523095
1117.0, 0.0027999906749148285
1118.0, 0.0025381777267841237
1119.0, 0.0005180991239051104
1120.0, 0.003368512025189819
1121.0, 0.002783519689380997
1122.0, 0.003607214738290422
1123.0, 0.005620067122925229
1124.0, 0.003709414770838285
1125.0, 0.0007155182796441358
1126.0, 0.001016433688997365
1127.0, 0.0024025900381141256
1128.0, 0.0014375021741020134
1129.0, 0.0009428447882944597
1130.0, 0.0032650003470517833
1131.0, 0.0006747785746364952
1132.0, 0.00041550448751415093
1133.0, 0.002236276916685692
1134.0, 0.001046509927121471
1135.0, 0.0007659487793405882
1136.0, 0.002142540326071979
1137.0, 0.0011684139758090036
1138.0, 0.00040858895831507095
1139.0, 0.003947106378823248
1140.0, 0.0024845901256589755
1141.0, 0.0004952678612349514
1142.0, 0.0011942529251225686
1143.0, 0.0004730737786643167
1144.0, 0.0038597289428076564
1145.0, 0.0018526644348150515
1146.0, 0.0025976090637697203
1147.0, 0.0027067528327608175
1148.0, 0.0018939589567115362
1149.0, 0.0015102472995267551
1150.0, 0.001722059513994151
1151.0, 0.0004926825326691624
1152.0, 0.0015662104865327249
1153.0, 0.0008255735409962448
1154.0, 0.0011093174980601641
1155.0, 0.002235519555447949
1156.0, 0.0008128685759151779
1157.0, 0.002932571589451562
1158.0, 0.0033025591101370497
1159.0, 0.005267809721514395
1160.0, 0.0048685095003987945
1161.0, 0.0036077091503856082
1162.0, 0.0028364319302971552
1163.0, 0.006645481482010791
1164.0, 0.004430012654290541
1165.0, 0.0035725898204399965
1166.0, 0.0024021590358368713
1167.0, 0.003236965333534911
1168.0, 0.004946916177897767
1169.0, 0.004340587427299601
1170.0, 0.003569619135127909
1171.0, 0.00556406504177461
1172.0, 0.00562238346418023
1173.0, 0.004292476758870499
1174.0, 0.004098112010704877
1175.0, 0.002982668689738745
1176.0, 0.005365712902044401
1177.0, 0.006594028101751686
1178.0, 0.00623606516707261
1179.0, 0.006644531283097663
1180.0, 0.005962878791286411
1181.0, 0.005398451197125242
1182.0, 0.006344702893763281
1183.0, 0.006586775846243271
1184.0, 0.009484607870518278
1185.0, 0.008269944819859532
1186.0, 0.007617565021714252
1187.0, 0.005099535108465312
1188.0, 0.004959313643684608
1189.0, 0.004753835288356877
1190.0, 0.00466090390163139
1191.0, 0.005416356121330232
1192.0, 0.005057277963647236
1193.0, 0.0061108641169153235
1194.0, 0.008060936511851611
1195.0, 0.0064554642217283
1196.0, 0.008415215105968892
1197.0, 0.004115367868664717
1198.0, 0.005163224450871601
1199.0, 0.008829881471663716
1200.0, 0.008596875628612432
1201.0, 0.007349008047635942
1202.0, 0.005264262974931931
1203.0, 0.00569800701363172
1204.0, 0.005483949551007869
1205.0, 0.005858060469592081
1206.0, 0.007945879026068208
1207.0, 0.00639905555887816
1208.0, 0.005729481492620496
1209.0, 0.0031259727613370167
1210.0, 0.004224549286046518
1211.0, 0.004842725668557823
1212.0, 0.0017078131116301963
1213.0, 0.000769612902555246
1214.0, 0.003397368228183368
1215.0, 0.004150508832883986
1216.0, 0.004666341084321529
1217.0, 0.005898590945022782
1218.0, 0.005007274983323322
1219.0, 0.002669003840221326
1220.0, 0.0025407701308796026
1221.0, 0.0066549594403968884
1222.0, 0.003302585841540526
1223.0, 0.005250837591108914
1224.0, 0.00394399080569051
1225.0, 0.005042914591397004
1226.0, 0.007218420738540463
1227.0, 0.0026058675934718324
1228.0, 0.0012378443200906043
1229.0, 0.0034714911007962938
1230.0, 0.0030212432875622586
1231.0, 0.0024983250174830537
1232.0, 0.0032473259063141623
1233.0, 0.0018016638714928594
1234.0, 3.599498135830687e-05
1235.0, 0.004178223583075666
1236.0, 0.001142102438865324
1237.0, 0.0008281321162996117
1238.0, 0.0004989134031571644
1239.0, 0.0023901359523426963
1240.0, 0.001781987602429422
1241.0, 0.0010442461821408493
1242.0, 0.0009057780789310755
1243.0, 0.0012601571036250257
1244.0, 0.0006236701769122691
1245.0, 0.0016496120470741817
1246.0, 0.0019298104950799411
1247.0, 0.001004186369823734
1248.0, 0.0025900989848368634
1249.0, 0.005284594399260373
1250.0, 0.0007335495781330252
1251.0, 0.000356296343198176
1252.0, 0.0002874208478529719
1253.0, 0.0009830050561342358
1254.0, 0.003461620432575722
1255.0, 0.004548918302012499
1256.0, 0.0028939030309256025
1257.0, 0.003399665578825881
1258.0, 0.004333128557405918
1259.0, 0.0003490740345477945
1260.0, 0.0003369902792311551
1261.0, 0.0023836925619666557
1262.0, 0.0011774254923464253
1263.0, 0.0006679728030459478
1264.0, 0.0017212380962877802
1265.0, 0.0012876952135391963
1266.0, 0.0018373443103560068
1267.0, 0.0044988603682808844
1268.0, 0.004614818971483444
1269.0, 0.0028994410531044067
1270.0, 0.003075339667440677
1271.0, 0.005162942159262579
1272.0, 0.005364708719897111
1273.0, 0.003866684147793684
1274.0, 0.0042317342707918785
1275.0, 0.0032354940697984953
1276.0, 0.0025764706382443857
1277.0, 0.0038605842336051684
1278.0, 0.0016808841184907232
1279.0, 0.0004461759388801149
1280.0, 0.002670505991043857
1281.0, 0.0032371503232155575
1282.0, 0.005418636164553468
1283.0, 0.0066224714372195865
1284.0, 0.005318755725534213
1285.0, 0.0045023884190468835
1286.0, 0.003292500009771288
1287.0, 0.0027600929568153357
1288.0, 0.004872437152839453
1289.0, 0.0023395505132090574
1290.0, 0.004083321566031848
1291.0, 0.005353421895902692
1292.0, 0.0028121734336121864
1293.0, 0.0018857107448935278
1294.0, 0.002204310009459457
1295.0, 0.003927018402224531
1296.0, 0.0011274952721507074
1297.0, 0.0018532028112059026
1298.0, 0.002670775511299336
1299.0, 0.0020501338142197827
1300.0, 0.0029431222395320342
1301.0, 0.0037948422503421854
1302.0, 0.0044607666442902545
1303.0, 0.0027842266731259785
1304.0, 0.0001456280077162959
1305, 0.0
1306, 0.0
1307, 0.0
1308, 0.0
1309, 0.0
1310, 0.0
1311, 0.0
1312, 0.0
1313, 0.0
1314, 0.0
1315, 0.0
1316, 0.0
1317, 0.0
1318, 0.0
1319, 0.0
1320, 0.0
1321, 0.0
1322, 0.0
1323, 0.0
1324, 0.0
1325, 0.0
1326, 0.0
1327, 0.0
1328, 0.0
1329, 0.0
1330, 0.0
1331, 0.0
1332, 0.0
1333, 0.0
1334, 0.0
1335, 0.0
1336, 0.0
1337, 0.0
1338, 0.0
1339, 0.0
1340, 0.0
1341, 0.0
1342, 0.0
1343, 0.0
1344, 0.0
1345, 0.0
1346, 0.0
1347, 0.0
1348, 0.0
1349, 0.0
1350, 0.0
1351, 0.0
1352, 0.0
1353, 0.0
1354, 0.0
1355, 0.0
1356, 0.0
1357, 0.0
1358, 0.0
1359, 0.0
1360, 0.0
1361, 0.0
1362, 0.0
1363, 0.0
1364, 0.0
1365, 0.0
1366, 0.0
1367, 0.0
1368, 0.0
1369, 0.0
1370, 0.0
1371, 0.0
1372, 0.0
1373, 0.0
1374, 0.0
1375, 0.0
1376, 0.0
1377, 0.0
1378, 0.0
1379, 0.0
1380, 0.0
1381, 0.0
1382, 0.0
1383, 0.0
1384, 0.0
1385, 0.0
1386, 0.0
1387, 0.0
1388, 0.0
1389, 0.0
1390, 0.0
1391, 0.0
1392, 0.0
1393, 0.0
1394, 0.0
1395, 0.0
1396, 0.0
1397, 0.0
1398, 0.0
1399, 0.0
1400, 0.0
1401, 0.0
1402, 0.0
1403, 0.0
1404, 0.0
1405, 0.0
1406, 0.0
1407, 0.0
1408, 0.0
1409, 0.0
1410, 0.0
1411, 0.0
1412, 0.0
1413, 0.0
1414, 0.0
1415, 0.0
1416, 0.0
1417, 0.0
1418, 0.0
1419, 0.0
1420, 0.0
1421, 0.0
1422, 0.0
1423, 0.0
1424, 0.0
1425, 0.0
1426, 0.0
1427, 0.0
1428, 0.0
1429, 0.0
1430, 0.0
1431, 0.0
1432, 0.0
1433, 0.0
1434, 0.0
1435, 0.0
1436, 0.0
1437, 0.0
1438, 0.0
1439, 0.0
1440, 0.0
1441, 0.0
1442, 0.0
1443, 0.0
1444, 0.0
1445, 0.0
1446, 0.0
1447, 0.0
1448, 0.0
1449, 0.0
1450, 0.0
1451, 0.0
1452, 0.0
1453, 0.0
1454, 0.0
1455, 0.0
1456, 0.0
1457, 0.0
1458, 0.0
1459, 0.0
1460, 0.0
1461, 0.0
1462, 0.0
1463, 0.0
1464, 0.0
1465, 0.0
1466, 0.0
1467, 0.0
1468, 0.0
1469, 0.0
1470, 0.0
1471, 0.0
1472, 0.0
1473, 0.0
1474, 0.0
1475, 0.0
1476, 0.0
1477, 0.0
1478, 0.0
1479, 0.0
1480, 0.0
1481, 0.0
1482, 0.0
1483, 0.0
1484, 0.0
1485, 0.0
1486, 0.0
1487, 0.0
1488, 0.0
1489, 0.0
1490, 0.0
1491, 0.0
1492, 0.0
1493, 0.0
1494, 0.0
1495, 0.0
1496, 0.0
1497, 0.0
1498, 0.0
1499, 0.0
1500, 0.0
1501, 0.0
1502, 0.0
1503, 0.0
1504, 0.0
1505, 0.0
1506, 0.0
1507, 0.0
1508, 0.0
1509, 0.0
1510, 0.0
1511, 0.0
1512, 0.0
1513, 0.0
1514, 0.0
1515, 0.0
1516, 0.0
1517, 0.0
1518, 0.0
1519, 0.0
1520, 0.0
1521, 0.0
1522, 0.0
1523, 0.0
1524, 0.0
1525, 0.0
1526, 0.0
1527, 0.0
1528, 0.0
1529, 0.0
1530, 0.0
1531, 0.0
1532, 0.0
1533, 0.0
1534, 0.0
1535, 0.0
1536, 0.0
1537, 0.0
1538, 0.0
1539, 0.0
1540, 0.0
1541, 0.0
1542, 0.0
1543, 0.0
1544, 0.0
1545, 0.0
1546, 0.0
1547, 0.0
1548, 0.0
1549, 0.0
1550, 0.0
1551, 0.0
1552, 0.0
1553, 0.0
1554, 0.0
1555, 0.0
1556, 0.0
1557, 0.0
1558, 0.0
1559, 0.0
1560, 0.0
1561, 0.0
1562, 0.0
1563, 0.0
1564, 0.0
1565, 0.0
1566, 0.0
1567, 0.0
1568, 0.0
1569, 0.0
1570, 0.0
1571, 0.0
1572, 0.0
1573, 0.0
1574, 0.0
1575, 0.0
1576, 0.0
1577, 0.0
1578, 0.0
1579, 0.0
1580, 0.0
1581, 0.0
1582, 0.0
1583, 0.0
1584, 0.0
1585, 0.0
1586, 0.0
1587, 0.0
1588, 0.0
1589, 0.0
1590, 0.0
1591, 0.0
1592, 0.0
1593, 0.0
1594, 0.0
1595, 0.0
1596, 0.0
1597, 0.0
1598, 0.0
1599, 0.0
