30, 0.0
31, 0.0
32, 0.0
33, 0.0
34, 0.0
35, 0.0
36, 0.0
37, 0.0
38, 0.0
39, 0.0
40, 0.0
41, 0.0
42, 0.0
43, 0.0
44, 0.0
45, 0.0
46, 0.0
47, 0.0
48, 0.0
49, 0.0
50, 0.0
51, 0.0
52, 0.0
53, 0.0
54, 0.0
55, 0.0
56, 0.0
57, 0.0
58, 0.0
59, 0.0
60, 0.0
61, 0.0
62, 0.0
63, 0.0
64, 0.0
65, 0.0
66, 0.0
67, 0.0
68, 0.0
69, 0.0
70, 0.0
71, 0.0
72, 0.0
73, 0.0
74, 0.0
75, 0.0
76, 0.0
77, 0.0
78, 0.0
79, 0.0
80, 0.0
81, 0.0
82, 0.0
83, 0.0
84, 0.0
85, 0.0
86, 0.0
87, 0.0
88, 0.0
89, 0.0
90, 0.0
91, 0.0
92, 0.0
93, 0.0
94, 0.0
95, 0.0
96, 0.0
97, 0.0
98, 0.0
99, 0.0
100, 0.0
101, 0.0
102, 0.0
103, 0.0
104, 0.0
105, 0.0
106, 0.0
107, 0.0
108, 0.0
109, 0.0
110, 0.0
111, 0.0
112, 0.0
113, 0.0
114, 0.0
115, 0.0
116, 0.0
117, 0.0
118, 0.0
119, 0.0
120, 0.0
121, 0.0
122, 0.0
123, 0.0
124, 0.0
125, 0.0
126, 0.0
127, 0.0
128.0, 0.0002132885060054266
129.0, 0.0006333821455080384
130.0, 0.001299300675425976
131.0, 0.003398664089101407
132.0, 0.007780798139345954
133.0, 0.014719886809910536
134.0, 0.025498528564261738
135.0, 0.037052430928194026
136.0, 0.05049644981969861
137.0, 0.06620508710586115
138.0, 0.07938344211705231
139.0, 0.08864993928923928
140.0, 0.09377164643107572
141.0, 0.09337059784662247
142.0, 0.08859312262626645
143.0, 0.08628378828580496
144.0, 0.0850849708427051
145.0, 0.07243291772215162
146.0, 0.07169159645521671
147.0, 0.07555792077896116
148.0, 0.08057651592855901
149.0, 0.08767759748985733
150.0, 0.09758814965934176
151.0, 0.10830688808327121
152.0, 0.11583996894886839
153.0, 0.11971558341999777
154.0, 0.11377812243160218
155.0, 0.09849519635508905
156.0, 0.09125916161249768
157.0, 0.08466173175553998
158.0, 0.0803873132566275
159.0, 0.08016658708311078
160.0, 0.08930079863314491
161.0, 0.09902080072935358
162.0, 0.11326452382978666
163.0, 0.14461034667508263
164.0, 0.1725784713068206
165.0, 0.20875371823142033
166.0, 0.25530305093136185
167.0, 0.2943860539079177
168.0, 0.3306604174525395
169.0, 0.36466699478004083
170.0, 0.39645566476978394
171.0, 0.3998724809117297
172.0, 0.3924212911899091
173.0, 0.3747762724950515
174.0, 0.34345037385777455
175.0, 0.3161532966081241
176.0, 0.2850260020819663
177.0, 0.2482418122453208
178.0, 0.21922230243080185
179.0, 0.1942802611788405
180.0, 0.17051695380122378
181.0, 0.14520380311603498
182.0, 0.1319186629460597
183.0, 0.1146269437592994
184.0, 0.09592446102711905
185.0, 0.08770006198671683
186.0, 0.07736407543923833
187.0, 0.06750421840686409
188.0, 0.05930577213961975
189.0, 0.057326447710453074
190.0, 0.04938578501374009
191.0, 0.04092897253473932
192.0, 0.03715221928799861
193.0, 0.03303254372311801
194.0, 0.028448175168044217
195.0, 0.023807289427326114
196.0, 0.020301216808653915
197.0, 0.017342567372383075
198.0, 0.015355996924362174
199.0, 0.014192890375007218
200.0, 0.010493999464783261
201.0, 0.009782214081320127
202.0, 0.009430372981506119
203.0, 0.0073356495253718975
204.0, 0.007758679612756282
205.0, 0.008753792714321898
206.0, 0.00905174282304854
207.0, 0.005737505409139332
208.0, 0.00807266242455861
209.0, 0.007929864331251382
210.0, 0.0043776370796497046
211.0, 0.0038827154296484467
212.0, 0.0017552447919200664
213.0, 0.0007160746047903473
214.0, 0.0025536521935834514
215.0, 0.0018344282450221733
216.0, 0.004394050492468097
217.0, 0.008287980896445333
218.0, 0.010396388258024877
219.0, 0.011463846279798282
220.0, 0.009602298171442206
221.0, 0.0060917814625182495
222.0, 0.007930055640430604
223.0, 0.008174891831744547
224.0, 0.006957072008973247
225.0, 0.004382677814830243
226.0, 0.0038336436128139782
227.0, 0.0041004232691120865
228.0, 0.004787712400582938
229.0, 0.005541276482416163
230.0, 0.009902095022469387
231.0, 0.016807132489747675
232.0, 0.024490798975055003
233.0, 0.0284794525770928
234.0, 0.0392407045662267
235.0, 0.049121554473719846
236.0, 0.05778289333036514
237.0, 0.0771255202665879
238.0, 0.09200666397935701
239.0, 0.10784610968335769
240.0, 0.12805401858274332
241.0, 0.15711420364902268
242.0, 0.18333091122422185
243.0, 0.21246787924420843
244.0, 0.25365938467388865
245.0, 0.28937085004133734
246.0, 0.3316490793788352
247.0, 0.37959266080372994
248.0, 0.42586931436551145
249.0, 0.4683652293527002
250.0, 0.5063776272613154
251.0, 0.5372700835900653
252.0, 0.5388170112248184
253.0, 0.5314951373778447
254.0, 0.5093834645340402
255.0, 0.46663900922177937
256.0, 0.4169651884582944
257.0, 0.37047949394615465
258.0, 0.32454480093819654
259.0, 0.27469940395563125
260.0, 0.24253473333421122
261.0, 0.2109974931586975
262.0, 0.18071798082895157
263.0, 0.16207445297577833
264.0, 0.14417773519196458
265.0, 0.12880705180007992
266.0, 0.1170557167612541
267.0, 0.11297088906193285
268.0, 0.10378822146174106
269.0, 0.09710490901034752
270.0, 0.0982516023888891
271.0, 0.09384630736481261
272.0, 0.09283101000499658
273.0, 0.09355462329175852
274.0, 0.09379649501764818
275.0, 0.09496857215587132
276.0, 0.09746541649897907
277.0, 0.09938051046559705
278.0, 0.09474974080120382
279.0, 0.09791173424058106
280.0, 0.09656256290832783
281.0, 0.08993183175581032
282.0, 0.09464950905569788
283.0, 0.09078880897285059
284.0, 0.08573008920485245
285.0, 0.08338911514460495
286.0, 0.0883119247563197
287.0, 0.08843308788809519
288.0, 0.08913294258521558
289.0, 0.09608965573620533
290.0, 0.10032376088876081
291.0, 0.10551592932453459
292.0, 0.11294050958523746
293.0, 0.12513448801485327
294.0, 0.13717874408989242
295.0, 0.15326330930619367
296.0, 0.17183421669840188
297.0, 0.18429143056663308
298.0, 0.201518576844992
299.0, 0.21631387685158637
300.0, 0.22591873936815438
301.0, 0.2274010362270084
302.0, 0.2213925107952201
303.0, 0.20752772783867
304.0, 0.185286592721563
305.0, 0.16721149231683868
306.0, 0.14411510996446203
307.0, 0.12222568173807342
308.0, 0.10862768205335142
309.0, 0.09774804992949475
310.0, 0.08431781257208054
311.0, 0.0711534961735745
312.0, 0.06446868711953554
313.0, 0.05453282174393868
314.0, 0.04731533202807443
315.0, 0.04254064993706965
316.0, 0.036249152485917736
317.0, 0.03547638802551299
318.0, 0.03638035485982724
319.0, 0.037458747285319775
320.0, 0.03563534120677804
321.0, 0.038448064665088856
322.0, 0.04150309799620329
323.0, 0.04293587241840995
324.0, 0.04824163585694971
325.0, 0.051842765252664076
326.0, 0.055048362115135356
327.0, 0.05892249050957707
328.0, 0.06461191743037889
329.0, 0.06966692236416311
330.0, 0.07507570245554411
331.0, 0.08231420335922539
332.0, 0.08878019588534798
333.0, 0.09713721381516281
334.0, 0.10714099197154442
335.0, 0.11793293487847206
336.0, 0.12817200398531076
337.0, 0.14270188092134928
338.0, 0.15986621018657418
339.0, 0.17040016493161345
340.0, 0.19047758382286395
341.0, 0.2081663238470413
342.0, 0.2214359780983173
343.0, 0.23994169820027667
344.0, 0.26565238682979403
345.0, 0.2961733886719407
346.0, 0.3307948935899281
347.0, 0.3714911421227977
348.0, 0.42105719265113284
349.0, 0.47737037782048936
350.0, 0.5394090248382307
351.0, 0.610517841124496
352.0, 0.6619169087701892
353.0, 0.7047353008076115
354.0, 0.7504721552811349
355.0, 0.7295810292775017
356.0, 0.6978630820793125
357.0, 0.6547181827522407
358.0, 0.5948283515026658
359.0, 0.5226932927004673
360.0, 0.4564781611658696
361.0, 0.3940932688900513
362.0, 0.3267694359492685
363.0, 0.2798697043989001
364.0, 0.2385749691778713
365.0, 0.20139097403373013
366.0, 0.17194608516498006
367.0, 0.14589965686240955
368.0, 0.12362850886494195
369.0, 0.10556684404967612
370.0, 0.09331028117623136
371.0, 0.07897220338312377
372.0, 0.06588301765165236
373.0, 0.05508669038140417
374.0, 0.04466048694280737
375.0, 0.03723375168933598
376.0, 0.031250369096428435
377.0, 0.025650045715534142
378.0, 0.01571992470669094
379.0, 0.011812944798947806
380.0, 0.008168149796960608
381.0, 0.0009885171620048442
382.0, 0.000534015559311748
383.0, 0.0022276807237161986
384.0, 0.005213509368467961
385.0, 0.008744040028628556
386.0, 0.0070461234887336174
387.0, 0.008867871673460844
388.0, 0.010588397147196494
389.0, 0.007450968704850491
390.0, 0.005266818986797129
391.0, 0.004756263252448413
392.0, 0.004273997259112413
393.0, 0.0010469198712189682
394.0, 0.002638482200335109
395.0, 0.003019004520922551
396.0, 0.002446642448647162
397.0, 0.0025217993419539095
398.0, 0.0011763610161768562
399.0, 0.001981490882506646
400.0, 0.003470101625799885
401.0, 0.00048363090713049103
402.0, 0.0019644696825528046
403.0, 0.0024840591882203896
404.0, 0.001737145144215267
405.0, 0.001930035143489159
406.0, 0.002213722846886951
407.0, 0.0018649206380134506
408.0, 0.0009782654867158142
409.0, 0.0006685791409774932
410.0, 0.0033810140277922935
411.0, 0.004489863868697006
412.0, 0.003047118312013752
413.0, 0.0012478489689858535
414.0, 0.0009252174359548616
415.0, 0.0031749107564096554
416.0, 0.007607113955671871
417.0, 0.008726127472176852
418.0, 0.015027145540832764
419.0, 0.02197747510372305
420.0, 0.028327892486298765
421.0, 0.03934081938725748
422.0, 0.0506647076829207
423.0, 0.06200192441857093
424.0, 0.07416399709403751
425.0, 0.09734637996391535
426.0, 0.11580588433464577
427.0, 0.13425996693110606
428.0, 0.15520142621750407
429.0, 0.17654440454720188
430.0, 0.18755949108292203
431.0, 0.19905156302985677
432.0, 0.21659388877612182
433.0, 0.21646542058774768
434.0, 0.22678193428437066
435.0, 0.2382228231801109
436.0, 0.24462625610205554
437.0, 0.25441700722963917
438.0, 0.2739110337039733
439.0, 0.291691326276262
440.0, 0.2997306261077221
441.0, 0.3264863182258386
442.0, 0.3478037684927546
443.0, 0.37014223141251823
444.0, 0.3988323902849139
445.0, 0.43013960765327813
446.0, 0.46526059077471277
447.0, 0.5116391083406666
448.0, 0.5757672704611448
449.0, 0.6313104745184243
450.0, 0.7179522600320913
451.0, 0.8129921294152355
452.0, 0.8953795120835027
453.0, 0.9403712599522506
454.0, 0.977732460459984
455.0, 0.9867327859439263
456.0, 0.9475271392534519
457.0, 0.9198915020256615
458.0, 0.8793352832628822
459.0, 0.8252317375518305
460.0, 0.7570886411795295
461.0, 0.7385292959851694
462.0, 0.702940113038016
463.0, 0.6636345553672353
464.0, 0.6336622157507072
465.0, 0.5960101014665681
466.0, 0.5665679668529846
467.0, 0.5377476436272915
468.0, 0.5021892817648936
469.0, 0.465158547606805
470.0, 0.43857962567539593
471.0, 0.4118845883852869
472.0, 0.37514075089613275
473.0, 0.34825152969860274
474.0, 0.32362204736192635
475.0, 0.2977018625059062
476.0, 0.2675109497692597
477.0, 0.2532809416429749
478.0, 0.23564919266589762
479.0, 0.22023737850139916
480.0, 0.21174451394307145
481.0, 0.19978969039995556
482.0, 0.19343300447731432
483.0, 0.19077702256467216
484.0, 0.18997529107450162
485.0, 0.18030277902624356
486.0, 0.18299202189879918
487.0, 0.18535388017543067
488.0, 0.17846795101849286
489.0, 0.17835142996517062
490.0, 0.18223980444243096
491.0, 0.18241323227059084
492.0, 0.17491247966399617
493.0, 0.18353173278510493
494.0, 0.18250557834926118
495.0, 0.1792206886418038
496.0, 0.17827399429614368
497.0, 0.1802322357865374
498.0, 0.18018932558041095
499.0, 0.18355682267425008
500.0, 0.19228855457117083
501.0, 0.19549692194805993
502.0, 0.20358474794880882
503.0, 0.21350987388088147
504.0, 0.2236470340844182
505.0, 0.23247563877503988
506.0, 0.24937052914309388
507.0, 0.26236070065863326
508.0, 0.2693044857294457
509.0, 0.2881246442386463
510.0, 0.30016571875461967
511.0, 0.30938396117527805
512.0, 0.31783217862924845
513.0, 0.32895820009500726
514.0, 0.32595378706087713
515.0, 0.3209139654575143
516.0, 0.3128525511645263
517.0, 0.283750219536545
518.0, 0.2641154662425339
519.0, 0.24379638767581277
520.0, 0.21987799824930376
521.0, 0.1905444662820239
522.0, 0.17406330549450041
523.0, 0.16271402178008992
524.0, 0.15567258651464808
525.0, 0.15450456126968815
526.0, 0.15520179376878232
527.0, 0.15481199413498234
528.0, 0.15348639395493266
529.0, 0.1523173605729181
530.0, 0.14016358283404612
531.0, 0.12621641117413243
532.0, 0.11093273275673315
533.0, 0.09368668210286653
534.0, 0.07942856238765734
535.0, 0.06834508690833101
536.0, 0.05853080744284935
537.0, 0.047586320590262535
538.0, 0.04190661872823604
539.0, 0.0352197201771711
540.0, 0.028865017398803837
541.0, 0.024283844575182487
542.0, 0.023673119779814178
543.0, 0.01889374343575031
544.0, 0.01551824934850696
545.0, 0.017088546046455287
546.0, 0.01291788078207763
547.0, 0.012388725878220378
548.0, 0.013077147629266142
549.0, 0.013404202007871315
550.0, 0.011543748701692239
551.0, 0.015211083236220491
552.0, 0.018129913223366736
553.0, 0.01887647141105934
554.0, 0.02405929392408932
555.0, 0.028564835207494532
556.0, 0.03261585644496523
557.0, 0.03750910819159534
558.0, 0.04782035930296049
559.0, 0.05566494410964805
560.0, 0.06633426064549691
561.0, 0.08109330209452463
562.0, 0.10047927437384757
563.0, 0.12084397592718965
564.0, 0.1502427693642181
565.0, 0.18769552769191467
566.0, 0.22963166579984923
567.0, 0.29772714144321105
568.0, 0.36595394840965917
569.0, 0.4298728788235072
570.0, 0.4860198158341823
571.0, 0.5135209516532256
572.0, 0.4949502091230525
573.0, 0.44460321447641904
574.0, 0.37666058503480054
575.0, 0.30218149913856585
576.0, 0.2372846642938436
577.0, 0.18607936575085304
578.0, 0.1497278334483363
579.0, 0.11533263208633397
580.0, 0.09879572832551285
581.0, 0.0877483559386481
582.0, 0.07769585121534398
583.0, 0.07168755280876175
584.0, 0.07168037298716151
585.0, 0.07105427272026539
586.0, 0.07033701595722777
587.0, 0.07660325129942154
588.0, 0.07678594427708114
589.0, 0.08067567408594406
590.0, 0.08839246215694939
591.0, 0.09716141469481913
592.0, 0.10428079287440345
593.0, 0.1146531373430891
594.0, 0.12488851914287133
595.0, 0.13026550652722116
596.0, 0.1463397882857103
597.0, 0.16216136904292291
598.0, 0.1794613057175731
599.0, 0.1998787346622456
600.0, 0.2260206870598176
601.0, 0.24550640531391
602.0, 0.2652887904819719
603.0, 0.289692399515472
604.0, 0.322828140480632
605.0, 0.3152996012282941
606.0, 0.30678849641327294
607.0, 0.30283179524814996
608.0, 0.2774711190906501
609.0, 0.25702503007404165
610.0, 0.2392167137675484
611.0, 0.22041420786419452
612.0, 0.19385407585877407
613.0, 0.17760144334612002
614.0, 0.15805242896066926
615.0, 0.14023102629874576
616.0, 0.13167170801946074
617.0, 0.11898222536990069
618.0, 0.10865912902354852
619.0, 0.10014010152210705
620.0, 0.09240965765901456
621.0, 0.07904925716306925
622.0, 0.07191304147698481
623.0, 0.06514176737226088
624.0, 0.05605421461264198
625.0, 0.044867814456122875
626.0, 0.04370531979300392
627.0, 0.038109043963802824
628.0, 0.029384639698166386
629.0, 0.03120087999900139
630.0, 0.025673976880594775
631.0, 0.02150856589910589
632.0, 0.02037587910098607
633.0, 0.023145219814141853
634.0, 0.01635854079067526
635.0, 0.015107889601328533
636.0, 0.015348025093220521
637.0, 0.013083751260921603
638.0, 0.00910512351126608
639.0, 0.009990129539214476
640.0, 0.00984114529246181
641.0, 0.007079125225626509
642.0, 0.009738765266276697
643.0, 0.009468477056648076
644.0, 0.008221429854841696
645.0, 0.007105574098967924
646.0, 0.00771639693236136
647.0, 0.004865759274910544
648.0, 0.004021342975791839
649.0, 0.004780517223637744
650.0, 0.005581382757887859
651.0, 0.005062688162986059
652.0, 0.0066571646927223544
653.0, 0.008511527513816852
654.0, 0.00925226630152003
655.0, 0.01144996280649757
656.0, 0.010615464814141181
657.0, 0.011130884325803718
658.0, 0.014532572460876532
659.0, 0.019151242581176973
660.0, 0.015764389205769804
661.0, 0.016835391122773102
662.0, 0.020409264175152153
663.0, 0.016691720996651414
664.0, 0.01813332445345277
665.0, 0.017707943576883496
666.0, 0.01574942840916238
667.0, 0.01345658065295908
668.0, 0.018347057753570987
669.0, 0.017228773193322753
670.0, 0.016297137634253177
671.0, 0.018117124812981448
672.0, 0.015563756655411598
673.0, 0.012748003102964207
674.0, 0.013358514807302657
675.0, 0.01583639746406417
676.0, 0.013087365312098809
677.0, 0.015053460279937623
678.0, 0.018771715926688342
679.0, 0.020784309074463193
680.0, 0.017124539473020613
681.0, 0.02169132360044451
682.0, 0.022493124421795196
683.0, 0.024210070651241117
684.0, 0.029402673097630956
685.0, 0.032613717125705176
686.0, 0.03323368447722612
687.0, 0.037141704022957446
688.0, 0.04323611448853739
689.0, 0.04247075655496807
690.0, 0.04718001766814725
691.0, 0.05060019919917543
692.0, 0.05103720455963039
693.0, 0.04747280935208186
694.0, 0.04963584486682767
695.0, 0.04599233554107996
696.0, 0.04200028477786039
697.0, 0.0413113718733547
698.0, 0.04206989748209205
699.0, 0.03724341520859554
700.0, 0.03658659534541977
701.0, 0.03915834679047091
702.0, 0.03357598345068361
703.0, 0.03211903324669694
704.0, 0.032021721432604386
705.0, 0.030977598905641113
706.0, 0.026637129222429296
707.0, 0.027846848632592514
708.0, 0.024355500338138165
709.0, 0.019971251044381296
710.0, 0.017197010636102152
711.0, 0.016658909553559663
712.0, 0.01232885747716761
713.0, 0.011519617488058265
714.0, 0.012660802481907197
715.0, 0.007729566236368708
716.0, 0.008395200898906562
717.0, 0.006378677642662064
718.0, 0.0030821950009762905
719.0, 0.0009045023071293451
720.0, 0.00482874395373291
721.0, 0.003065671149220365
722.0, 0.002090205635739407
723.0, 0.003719168237388632
724.0, 0.0027436908213384777
725.0, 0.0011958452535690209
726.0, 0.001528117251077359
727.0, 0.00251430529492372
728.0, 0.0014189777035035931
729.0, 0.0016441510693562017
730.0, 0.001211398630144178
731.0, 0.0010036005339609546
732.0, 0.0014725964301447738
733.0, 0.0007887423559293303
734.0, 0.0013158514473460567
735.0, 0.0015657996945152156
736.0, 0.0012411836723599699
737.0, 0.0007613108134087892
738.0, 0.0022284224176945737
739.0, 0.0018352814827412936
740.0, 0.001443512485961411
741.0, 0.003055009510176907
742.0, 0.0008319929150108138
743.0, 0.0006197760288196376
744.0, 0.002532042199661941
745.0, 0.004797194842506804
746.0, 0.0005954934244538556
747.0, 0.0017455497467234885
748.0, 0.0018752697938247092
749.0, 0.001535151577786127
750.0, 0.0029263061599235146
751.0, 0.0037036112936763336
752.0, 0.003110804608755018
753.0, 0.002658534897425998
754.0, 0.002974100908458659
755.0, 0.002271397237798691
756.0, 0.0013160567812226785
757.0, 0.001975706595339803
758.0, 0.0033027756252374226
759.0, 0.002736197235976378
760.0, 0.001984447339446701
761.0, 0.0022550084991062405
762.0, 0.002066164981899257
763.0, 0.0008033230869764632
764.0, 0.002665059485484239
765.0, 0.001785847908333217
766.0, 0.000989241687691872
767.0, 0.0012184757176600708
768.0, 0.002705632616271469
769.0, 0.0015232399546984802
770.0, 0.0019628860843621206
771.0, 0.0020498069757591704
772.0, 0.0002744631677060402
773.0, 0.0014280381332754926
774.0, 0.0022422131914895693
775.0, 0.0017252389181060708
776.0, 0.0009272994476383772
777.0, 0.003405416252266716
778.0, 0.003454061673551374
779.0, 0.0023209132417811424
780.0, 0.00152932628618147
781.0, 0.002168202819053056
782.0, 0.0006802552755232914
783.0, 0.0028655776479884713
784.0, 0.003219316314851275
785.0, 0.0011921782643458546
786.0, 0.0008947225094345409
787.0, 0.002621382089203779
788.0, 0.00270671064916425
789.0, 0.0023964054823209257
790.0, 0.003043239713465073
791.0, 0.0016120023935998224
792.0, 0.002806066308800009
793.0, 0.0026177181229453256
794.0, 0.0015341737230798438
795.0, 0.004927717949730829
796.0, 0.0023707524271054706
797.0, 0.001277125866313313
798.0, 0.0019976958855615007
799.0, 0.0037162529507664653
800.0, 0.0011741951370200818
801.0, 0.003523044939626715
802.0, 0.0037923929060039567
803.0, 0.001656546718611678
804.0, 0.0024582476557166366
805.0, 0.005693619736166998
806.0, 0.0038941215738455843
807.0, 0.0024216281985502746
808.0, 0.005593749648024376
809.0, 0.004876382322704226
810.0, 0.004576054045042859
811.0, 0.006345508866988081
812.0, 0.0077671052163991675
813.0, 0.0026068615681725934
814.0, 0.0057989138610691215
815.0, 0.007092949992451674
816.0, 0.006506259893170588
817.0, 0.005525862214205342
818.0, 0.011138684685162548
819.0, 0.007315559311524489
820.0, 0.0071105843775551205
821.0, 0.01011238181714652
822.0, 0.00989958932520144
823.0, 0.009044028603870212
824.0, 0.009655053902195487
825.0, 0.009971219163803577
826.0, 0.00988498364539051
827.0, 0.014199728770850593
828.0, 0.014232798448435292
829.0, 0.014453100462699332
830.0, 0.016319206134843035
831.0, 0.02045549290001268
832.0, 0.021032605032180907
833.0, 0.02280954319806869
834.0, 0.02367895232485693
835.0, 0.023004582770313482
836.0, 0.02198079114486402
837.0, 0.02836375232189348
838.0, 0.027843395976445865
839.0, 0.025672230909436027
840.0, 0.028328078758565325
841.0, 0.03058487157545178
842.0, 0.028737616548160382
843.0, 0.030753809650538724
844.0, 0.03587826408329808
845.0, 0.03685696918858976
846.0, 0.03890222991510945
847.0, 0.04153545212461185
848.0, 0.04200397265452467
849.0, 0.040955729087334324
850.0, 0.0520552525798205
851.0, 0.05311994389214063
852.0, 0.052536666715200034
853.0, 0.05493139997023489
854.0, 0.0637803355132657
855.0, 0.06254551131411573
856.0, 0.06946054001322528
857.0, 0.07491827355111996
858.0, 0.0764151935800931
859.0, 0.08015657668349586
860.0, 0.0887149267738504
861.0, 0.09314423945967922
862.0, 0.09776003469214975
863.0, 0.10670132140047234
864.0, 0.11564212117961052
865.0, 0.12225574194341753
866.0, 0.1316063699371561
867.0, 0.14238397445706658
868.0, 0.15002896513417913
869.0, 0.1611318157931283
870.0, 0.17445506814713563
871.0, 0.18829923663987239
872.0, 0.2033712438345026
873.0, 0.22567208741610703
874.0, 0.2401778185278158
875.0, 0.25855135379791483
876.0, 0.27891716106141784
877.0, 0.2981545299309418
878.0, 0.31857454084008374
879.0, 0.33930511834196614
880.0, 0.36438045699924615
881.0, 0.38412818276470745
882.0, 0.37970629741196227
883.0, 0.3825308994605053
884.0, 0.3768078345310018
885.0, 0.36162379522264526
886.0, 0.3390740727309345
887.0, 0.3170915570020429
888.0, 0.2944511852308833
889.0, 0.27897777782070937
890.0, 0.26224211390354263
891.0, 0.23740801552847604
892.0, 0.22268470670166768
893.0, 0.21611665526584442
894.0, 0.20491992414794588
895.0, 0.19222485455989488
896.0, 0.1882503174334678
897.0, 0.16882201314235556
898.0, 0.15991543398741304
899.0, 0.15370857354419515
900.0, 0.14629904547664957
901.0, 0.1380903403593095
902.0, 0.13422635215679157
903.0, 0.13043148030279592
904.0, 0.12746555021628306
905.0, 0.1265755986654455
906.0, 0.13006788241136433
907.0, 0.12646502832176054
908.0, 0.12881212142457563
909.0, 0.13576745907294585
910.0, 0.1418414643720316
911.0, 0.14381193700954656
912.0, 0.15711151009219207
913.0, 0.16449216436782008
914.0, 0.16632661727446968
915.0, 0.17661047543204206
916.0, 0.17548618591925677
917.0, 0.17606833318436949
918.0, 0.17641164723061423
919.0, 0.1734177849520352
920.0, 0.16090709070374856
921.0, 0.15529150322530164
922.0, 0.1473157734101262
923.0, 0.13622608469435027
924.0, 0.12353538731856475
925.0, 0.11693934240502013
926.0, 0.1034184125673066
927.0, 0.09183392068112939
928.0, 0.08441864552533632
929.0, 0.080670051039617
930.0, 0.06888721008561198
931.0, 0.06363078583854642
932.0, 0.05769178719673668
933.0, 0.05067565044594952
934.0, 0.047028669950001926
935.0, 0.04329234940882199
936.0, 0.038748027809620965
937.0, 0.03599793731734575
938.0, 0.03587140497330823
939.0, 0.03652064102913861
940.0, 0.026566592961505785
941.0, 0.024369276892381508
942.0, 0.02581380393571005
943.0, 0.025659510902123234
944.0, 0.020529179656814996
945.0, 0.023967215151962835
946.0, 0.021498292667688677
947.0, 0.017229410295047556
948.0, 0.01761655920658481
949.0, 0.017396075473439257
950.0, 0.015360850063354517
951.0, 0.01878591973880067
952.0, 0.02147463608036222
953.0, 0.012892906816973023
954.0, 0.018377126060108894
955.0, 0.01702086843065786
956.0, 0.014079287211995773
957.0, 0.013711710964068022
958.0, 0.01986389680101681
959.0, 0.013560898445728586
960.0, 0.01414249507949711
961.0, 0.016703838701455063
962.0, 0.01733432125413882
963.0, 0.012964684636726839
964.0, 0.020085349510743613
965.0, 0.019731960184930234
966.0, 0.017311161014133283
967.0, 0.01809301703349481
968.0, 0.024691774097083185
969.0, 0.01949574094225517
970.0, 0.02102180015818524
971.0, 0.025026801328040284
972.0, 0.026068027738527504
973.0, 0.02521949295035674
974.0, 0.030890896128045228
975.0, 0.035208465430075477
976.0, 0.039261904923408135
977.0, 0.045350424067144846
978.0, 0.050650285856897855
979.0, 0.05668307469409907
980.0, 0.06718953930548734
981.0, 0.07800557033150406
982.0, 0.08354203181376516
983.0, 0.09895541958740292
984.0, 0.10744863527515457
985.0, 0.11115302830496175
986.0, 0.11439868380721813
987.0, 0.12208694551016815
988.0, 0.11025156122838847
989.0, 0.10353597894787404
990.0, 0.09771956482662518
991.0, 0.08766592638265142
992.0, 0.06736093221206653
993.0, 0.061235477143078566
994.0, 0.052323385818044604
995.0, 0.04312671079499641
996.0, 0.03631693816725429
997.0, 0.035030429193958275
998.0, 0.02855035836008321
999.0, 0.02502650920182043
1000.0, 0.023411248795537094
1001.0, 0.021539129605580843
1002.0, 0.015630110626543365
1003.0, 0.01437965526530771
1004.0, 0.013059145094658005
1005.0, 0.010700676237503481
1006.0, 0.008650224421387505
1007.0, 0.012427513441921435
1008.0, 0.009768330032269078
1009.0, 0.008086742409746824
1010.0, 0.006947043311250176
1011.0, 0.005460780795427497
1012.0, 0.002854648029784688
1013.0, 0.010879500133689667
1014.0, 0.00805679328518885
1015.0, 0.004469721929056334
1016.0, 0.008003427735683414
1017.0, 0.013555257399065226
1018.0, 0.005793890270035322
1019.0, 0.008184585153456731
1020.0, 0.01394954775960119
1021.0, 0.014982448145765055
1022.0, 0.009513642841925699
1023.0, 0.01801889155735109
1024.0, 0.01766728900630468
1025.0, 0.016579198307469872
1026.0, 0.022196278426283394
1027.0, 0.0256065261564724
1028.0, 0.020443069770886106
1029.0, 0.023020761660202494
1030.0, 0.02651255499436154
1031.0, 0.024656214668159773
1032.0, 0.025807077029369983
1033.0, 0.030516126249963353
1034.0, 0.027689032191001987
1035.0, 0.02731707918911807
1036.0, 0.03541503259195757
1037.0, 0.03082721463135719
1038.0, 0.03413138646934475
1039.0, 0.039944947178913455
1040.0, 0.04185020825746633
1041.0, 0.03819204968047803
1042.0, 0.04531741453654299
1043.0, 0.05462406879021567
1044.0, 0.05178010871072591
1045.0, 0.05104357751607931
1046.0, 0.06099660616518674
1047.0, 0.05401258819886932
1048.0, 0.05375790154228995
1049.0, 0.058576852928497826
1050.0, 0.05811311789988861
1051.0, 0.04931544834945675
1052.0, 0.056903701127027494
1053.0, 0.052260309429162224
1054.0, 0.045532065676979455
1055.0, 0.044530350279055414
1056.0, 0.04956423123951402
1057.0, 0.04032968230082298
1058.0, 0.03839830133880659
1059.0, 0.03906394466107378
1060.0, 0.03685381045094692
1061.0, 0.031853855576953985
1062.0, 0.03834828817365098
1063.0, 0.03352112839837986
1064.0, 0.03207564237808479
1065.0, 0.0356978409775046
1066.0, 0.03933059067544366
1067.0, 0.02611058029597093
1068.0, 0.035511206453633
1069.0, 0.03677419245504795
1070.0, 0.032560604763882124
1071.0, 0.02976189097638139
1072.0, 0.038715161133505434
1073.0, 0.03376623880767804
1074.0, 0.03133268145297719
1075.0, 0.03555243014882209
1076.0, 0.041877187734948945
1077.0, 0.03486219006749975
1078.0, 0.04161899082848405
1079.0, 0.04759869624971139
1080.0, 0.04980097162646373
1081.0, 0.05229957085589376
1082.0, 0.06578026072506649
1083.0, 0.06275535984498128
1084.0, 0.07112306336517764
1085.0, 0.08182050152591833
1086.0, 0.0899767909679225
1087.0, 0.0946572189281337
1088.0, 0.10920458057098364
1089.0, 0.1158025030013562
1090.0, 0.1212813534381696
1091.0, 0.1307086624492806
1092.0, 0.1457649738747182
1093.0, 0.13985400032651965
1094.0, 0.14292872378685784
1095.0, 0.13885346819201266
1096.0, 0.12470479093184145
1097.0, 0.10545950938320692
1098.0, 0.10243972782686812
1099.0, 0.08033948562666036
1100.0, 0.06494992859503193
1101.0, 0.057040919239135214
1102.0, 0.05044566117885937
1103.0, 0.03807850425060866
1104.0, 0.03778852914013819
1105.0, 0.03533983800557607
1106.0, 0.029606706025170928
1107.0, 0.023535192506860404
1108.0, 0.025197650144832492
1109.0, 0.024570546405349798
1110.0, 0.02255041995544112
1111.0, 0.0224096869882601
1112.0, 0.022655456113713345
1113.0, 0.013615019292666074
1114.0, 0.02003474909157969
1115.0, 0.019283067137754004
1116.0, 0.014491638097329552
1117.0, 0.010677973455763325
1118.0, 0.013380401080091055
1119.0, 0.00857726074406645
1120.0, 0.00952483869034696
1121.0, 0.010750323440223294
1122.0, 0.00962761603629788
1123.0, 0.006409308061904669
1124.0, 0.012877722944962883
1125.0, 0.008330248388750332
1126.0, 0.005476547957182164
1127.0, 0.007736436351008332
1128.0, 0.012413065450586968
1129.0, 0.002690741736137128
1130.0, 0.007523769694239148
1131.0, 0.008291890011484266
1132.0, 0.004541249696342951
1133.0, 0.0013854787946551363
1134.0, 0.009409670130024262
1135.0, 0.006070383996244765
1136.0, 0.0033321213156533437
1137.0, 0.004045633739607382
1138.0, 0.006166545670062059
1139.0, 0.0018010512360012504
1140.0, 0.005633502623567393
1141.0, 0.00430037521091766
1142.0, 0.002372633191336614
1143.0, 0.0031890685935843203
1144.0, 0.00786262635701805
1145.0, 0.0032666521937462826
1146.0, 0.004149194671743919
1147.0, 0.006663917799266911
1148.0, 0.007097804259888862
1149.0, 0.0037313764046687623
1150.0, 0.00549891241033753
1151.0, 0.007778866371526019
1152.0, 0.005750332162435337
1153.0, 0.004298441308482775
1154.0, 0.006005213652603562
1155.0, 0.002532014355547542
1156.0, 0.0013781221872377711
1157.0, 0.005115652202772365
1158.0, 0.005726717904126231
1159.0, 0.002949755591393078
1160.0, 0.00667912903818975
1161.0, 0.0045455447774424935
1162.0, 0.0033810810959408787
1163.0, 0.006890993353882515
1164.0, 0.009004446348543298
1165.0, 0.0010769300604141926
1166.0, 0.002300653274133254
1167.0, 0.004337499553411362
1168.0, 0.002581193648234372
1169.0, 0.0021793773936037214
1170.0, 0.006316118566203337
1171.0, 0.0032028036177327666
1172.0, 0.00235144025622238
1173.0, 0.004947310076998662
1174.0, 0.005020410363089624
1175.0, 0.0019178537931156545
1176.0, 0.0032381346533066524
1177.0, 0.009196827339819845
1178.0, 0.0041416303084244755
1179.0, 0.004505576543452734
1180.0, 0.007981362032317292
1181.0, 0.0028398117648905765
1182.0, 0.0004891526445438431
1183.0, 0.009062697757192897
1184.0, 0.007122701668786457
1185.0, 0.0023463145006472194
1186.0, 0.004929447348650397
1187.0, 0.009788232017755047
1188.0, 0.003413314196883333
1189.0, 0.005909604138831745
1190.0, 0.007015270848305374
1191.0, 0.0033403581110817834
1192.0, 0.0025027451861200064
1193.0, 0.008676068223602562
1194.0, 0.00391032096466525
1195.0, 0.003183773836581886
1196.0, 0.007429993400073135
1197.0, 0.010505014217100312
1198.0, 0.007037991815527363
1199.0, 0.008904562998188058
1200.0, 0.007332045561380895
1201.0, 0.004033692397292489
1202.0, 0.003421321625589085
1203.0, 0.01113476401381952
1204.0, 0.004328652574891287
1205.0, 0.003343264383595493
1206.0, 0.006244903378244926
1207.0, 0.007157723281132976
1208.0, 0.0008043865069792102
1209.0, 0.009008092290689452
1210.0, 0.008971672324798022
1211.0, 0.004667703038084544
1212.0, 0.0039956584262458225
1213.0, 0.00885658153495965
1214.0, 0.0021844271729574835
1215.0, 0.006007173598150057
1216.0, 0.009566552234805596
1217.0, 0.007166313276310422
1218.0, 0.004617818918827553
1219.0, 0.015574373001591927
1220.0, 0.010698829795571269
1221.0, 0.005449222607049272
1222.0, 0.011980761326458755
1223.0, 0.014962160907916019
1224.0, 0.0024793183572264337
1225.0, 0.006177935489500569
1226.0, 0.014515109435694177
1227.0, 0.00903241725429128
1228.0, 0.007963596553580062
1229.0, 0.01391048391550238
1230.0, 0.009452247833993828
1231.0, 0.004404115188670728
1232.0, 0.012571129217446258
1233.0, 0.011442905506846542
1234.0, 0.005414176887163388
1235.0, 0.006898234526115923
1236.0, 0.018733165682250624
1237.0, 0.006244177703586175
1238.0, 0.010139635481621993
1239.0, 0.013587159617344588
1240.0, 0.008629182724853367
1241.0, 0.0041714043188519215
1242.0, 0.013742034852035935
1243.0, 0.007858733660431048
1244.0, 0.005208438566038195
1245.0, 0.009467429299138977
1246.0, 0.014584225843711357
1247.0, 0.0024421248981869636
1248.0, 0.01180951989382292
1249.0, 0.013383313955133213
1250.0, 0.008075549600598366
1251.0, 0.0049732776440034165
1252.0, 0.01475098670389617
1253.0, 0.005086528769513959
1254.0, 0.004580663599995825
1255.0, 0.010729102075911675
1256.0, 0.011807614325343642
1257.0, 0.0034738229403506547
1258.0, 0.006036041277536604
1259.0, 0.01210029743537274
1260.0, 0.005924089803653436
1261.0, 0.00731718557813629
1262.0, 0.012547643900784144
1263.0, 0.0036718644122339045
1264.0, 0.0004809596773349921
1265.0, 0.010538862766272757
1266.0, 0.009763497772168754
1267.0, 0.0077221524240233905
1268.0, 0.011948433720957618
1269.0, 0.013990347967968962
1270.0, 0.0031026184719919886
1271.0, 0.011440027891867302
1272.0, 0.012992984757201103
1273.0, 0.006927617015628357
1274.0, 0.0054204042648664024
1275.0, 0.01682693970040844
1276.0, 0.007527282951344463
1277.0, 0.007982663016801601
1278.0, 0.01337271357363895
1279.0, 0.013652436120619824
1280.0, 0.0012558242367967203
1281.0, 0.0093312537823402
1282.0, 0.013328802572520091
1283.0, 0.007349025998734438
1284.0, 0.005352384103605643
1285.0, 0.013902380921316744
1286.0, 0.010083697686920558
1287.0, 0.010055786037936698
1288.0, 0.014809040398655729
1289.0, 0.011558510416596769
1290.0, 0.006991265459735482
1291.0, 0.013449664644506153
1292.0, 0.01007891101110783
1293.0, 0.006086393622086345
1294.0, 0.008848342535464123
1295.0, 0.010257092942947318
1296.0, 0.007344267815761134
1297.0, 0.0061623030785556854
1298.0, 0.018943106662430778
1299.0, 0.007813740934501451
1300.0, 0.004252532537524356
1301.0, 0.010514893299982586
1302.0, 0.015718525651027253
1303.0, 0.0019892438725998135
1304.0, 0.013763946269658385
1305.0, 0.007165666420462019
1306.0, 0.002309028071950089
1307.0, 0.004664073022641359
1308.0, 0.008714521970789455
1309.0, 0.002791365408616034
1310.0, 0.0006632749277895957
1311.0, 0.004754692722071227
1312.0, 0.0061221876256518214
1313.0, 0.005886752772278498
1314.0, 0.012136068603747538
1315.0, 0.005995747699648254
1316.0, 0.002235609382671293
1317.0, 0.008417631711268726
1318.0, 0.011788988013778937
1319.0, 0.007273252445049391
1320.0, 0.006917109434171517
1321.0, 0.015092113237780508
1322.0, 0.007497042757539803
1323.0, 0.007651466732321008
1324.0, 0.01279549356251801
1325.0, 0.012302111190826285
1326.0, 0.00042181028153370423
1327.0, 0.016307062532134844
1328.0, 0.012805301541585849
1329.0, 0.006141592129069551
1330.0, 0.00902423632606495
1331.0, 0.020344795297485528
1332.0, 0.0029770278606015624
1333.0, 0.007837768953413251
1334.0, 0.013345141034582305
1335.0, 0.009568586349515993
1336.0, 0.006826566374420296
1337.0, 0.020582175518543966
1338.0, 0.010984228865277307
1339.0, 0.00365470743923326
1340.0, 0.01616051668562045
1341.0, 0.018474307911631696
1342.0, 0.006625031870401457
1343.0, 0.009163027312254577
1344.0, 0.02303436418940283
1345.0, 0.007735708965933854
1346.0, 0.00838233286367185
1347.0, 0.0152596435238591
1348.0, 0.013705967718976211
1349.0, 0.002614487938360917
1350.0, 0.014292108742902971
1351.0, 0.013109165809139171
1352.0, 0.010311457474378748
1353.0, 0.013883236093257999
1354.0, 0.019678425272733488
1355.0, 0.006038026888703713
1356.0, 0.012677693631610806
1357.0, 0.01986724359102226
1358.0, 0.015083713785690489
1359.0, 0.013249276546256666
1360.0, 0.023778380710636086
1361.0, 0.019411714206737585
1362.0, 0.010484241679208287
1363.0, 0.020704313748643934
1364.0, 0.01917829719477085
1365.0, 0.012480084822702934
1366.0, 0.01727595427960773
1367.0, 0.024139323423608312
1368.0, 0.013566495215389641
1369.0, 0.016860446988087342
1370.0, 0.023112048300332
1371.0, 0.01890459634308522
1372.0, 0.005254905257033407
1373.0, 0.027993557670572947
1374.0, 0.0216343518705565
1375.0, 0.011251986295584602
1376.0, 0.014999940436069135
1377.0, 0.01977190818060815
1378.0, 0.007019583425079887
1379.0, 0.010441706978334853
1380.0, 0.017354212508903344
1381.0, 0.0074613903999269145
1382.0, 0.008510136868193978
1383.0, 0.019357191199803052
1384.0, 0.019903102309404494
1385.0, 0.00605538766219265
1386.0, 0.020010482835932236
1387.0, 0.01845923147651625
1388.0, 0.010763023191878928
1389.0, 0.011884056693934587
1390.0, 0.02553666453211712
1391.0, 0.009746860482376761
1392.0, 0.014221334788457666
1393.0, 0.02118185180026767
1394.0, 0.01626073836873509
1395.0, 0.008758081200598004
1396.0, 0.016087224390133444
1397.0, 0.02038702845037111
1398.0, 0.008515226438406558
1399.0, 0.01631645162305999
1400.0, 0.019222918983991567
1401.0, 0.013510458849485908
1402.0, 0.012970665934048841
1403.0, 0.025425290357634786
1404.0, 0.012107891891692766
1405.0, 0.014005405546155964
1406.0, 0.02096992483037856
1407.0, 0.019107721420934993
1408.0, 0.0068991809634731255
1409.0, 0.022367908784943304
1410.0, 0.02102236542465459
1411.0, 0.012624379236211082
1412.0, 0.016660243652472023
1413.0, 0.021587064698528936
1414.0, 0.010994556429497706
1415.0, 0.011892857500172152
1416.0, 0.024023068532620047
1417.0, 0.013888514514083128
1418.0, 0.012982188286649375
1419.0, 0.0205610973749181
1420.0, 0.020086071782725076
1421.0, 0.005367724602592095
1422.0, 0.021454882274029707
1423.0, 0.02003586508035474
1424.0, 0.009855095046804844
1425.0, 0.008824498829412912
1426.0, 0.020445283101158097
1427.0, 0.01327243956093872
1428.0, 0.00753085188741278
1429.0, 0.019504541098883853
1430.0, 0.015329006784209499
1431.0, 0.0095993966693579
1432.0, 0.016950907360459153
1433.0, 0.020378635046830275
1434.0, 0.0032530625548149996
1435.0, 0.012617138781893425
1436.0, 0.016017705984876462
1437.0, 0.010015289677694456
1438.0, 0.007142377672556641
1439.0, 0.0228845850969234
1440.0, 0.012655333449733748
1441.0, 0.008727324481135305
1442.0, 0.019940593937001615
1443.0, 0.0181237322114966
1444.0, 0.006190846205024248
1445.0, 0.017169810536532732
1446.0, 0.021522374686695173
1447.0, 0.006178177540482284
1448.0, 0.012236749096401689
1449.0, 0.019265885466911745
1450.0, 0.014723414232755597
1451.0, 0.006029212388104253
1452.0, 0.024506033118495234
1453.0, 0.015123075909602239
1454.0, 0.008294957562251414
1455.0, 0.01639340706821976
1456.0, 0.01933823449864014
1457.0, 0.0038490532286662923
1458.0, 0.01655064363220254
1459.0, 0.019503089099135642
1460.0, 0.008017248244044768
1461.0, 0.01431524366884832
1462.0, 0.023328675506330485
1463.0, 0.01641083691288596
1464.0, 0.0047752864703632155
1465.0, 0.026737843159893165
1466.0, 0.015881829059883248
1467.0, 0.007777954250983489
1468.0, 0.014632261987824254
1469.0, 0.023223437932739392
1470.0, 0.008977701833956388
1471.0, 0.013547193430395975
1472.0, 0.025105639948500173
1473.0, 0.013362005191947229
1474.0, 0.013943327691795094
1475.0, 0.02523686860486363
1476.0, 0.019393605159319725
1477.0, 0.004904892804669287
1478.0, 0.02307843526232526
1479.0, 0.02165329542635826
1480.0, 0.013434763655197749
1481.0, 0.015579417947062212
1482.0, 0.026134445274025926
1483.0, 0.009240353833318499
1484.0, 0.012920216423625378
1485.0, 0.026016468847267035
1486.0, 0.01413032096943322
1487.0, 0.009494477659204794
1488.0, 0.02396928927724272
1489.0, 0.023681987096514596
1490.0, 0.0035845119615164327
1491.0, 0.021006472988440356
1492.0, 0.022244408338586864
1493.0, 0.012757811550353867
1494.0, 0.013131051129094188
1495.0, 0.029339292178141442
1496.0, 0.009172153106335477
1497.0, 0.013948554685757475
1498.0, 0.02386659296049152
1499.0, 0.017346720714726614
1500.0, 0.011236720885400068
1501.0, 0.019537727158429954
1502.0, 0.022367389327028097
1503.0, 0.007119162136285908
1504.0, 0.017866608248207166
1505.0, 0.021594721913584494
1506.0, 0.012366496702854817
1507.0, 0.008170529843795144
1508.0, 0.026655709859860405
1509.0, 0.012235155531481358
1510.0, 0.007204503391756265
1511.0, 0.022885447085632303
1512.0, 0.018173408922533517
1513.0, 0.00874751405579802
1514.0, 0.02035387115745428
1515.0, 0.029969274740637254
1516.0, 0.008895559325340538
1517.0, 0.014660141675582918
1518.0, 0.022111327903963907
1519.0, 0.014946684084247895
1520.0, 0.008109674689166575
1521.0, 0.02884588866661561
1522.0, 0.015594284082127027
1523.0, 0.004690891121723639
1524.0, 0.017319846319618543
1525.0, 0.016780907096404347
1526.0, 0.004876733515680942
1527, 0.0
1528, 0.0
1529, 0.0
1530, 0.0
1531, 0.0
1532, 0.0
1533, 0.0
1534, 0.0
1535, 0.0
1536, 0.0
1537, 0.0
1538, 0.0
1539, 0.0
1540, 0.0
1541, 0.0
1542, 0.0
1543, 0.0
1544, 0.0
1545, 0.0
1546, 0.0
1547, 0.0
1548, 0.0
1549, 0.0
1550, 0.0
1551, 0.0
1552, 0.0
1553, 0.0
1554, 0.0
1555, 0.0
1556, 0.0
1557, 0.0
1558, 0.0
1559, 0.0
1560, 0.0
1561, 0.0
1562, 0.0
1563, 0.0
1564, 0.0
1565, 0.0
1566, 0.0
1567, 0.0
1568, 0.0
1569, 0.0
1570, 0.0
1571, 0.0
1572, 0.0
1573, 0.0
1574, 0.0
1575, 0.0
1576, 0.0
1577, 0.0
1578, 0.0
1579, 0.0
1580, 0.0
1581, 0.0
1582, 0.0
1583, 0.0
1584, 0.0
1585, 0.0
1586, 0.0
1587, 0.0
1588, 0.0
1589, 0.0
1590, 0.0
1591, 0.0
1592, 0.0
1593, 0.0
1594, 0.0
1595, 0.0
1596, 0.0
1597, 0.0
1598, 0.0
1599, 0.0
