30, 0.0
31, 0.0
32, 0.0
33, 0.0
34, 0.0
35, 0.0
36, 0.0
37, 0.0
38, 0.0
39, 0.0
40, 0.0
41, 0.0
42, 0.0
43, 0.0
44, 0.0
45, 0.0
46, 0.0
47, 0.0
48, 0.0
49, 0.0
50, 0.0
51, 0.0
52, 0.0
53, 0.0
54, 0.0
55, 0.0
56, 0.0
57, 0.0
58, 0.0
59, 0.0
60, 0.0
61, 0.0
62, 0.0
63, 0.0
64, 0.0
65, 0.0
66, 0.0
67, 0.0
68, 0.0
69, 0.0
70, 0.0
71, 0.0
72, 0.0
73, 0.0
74, 0.0
75, 0.0
76, 0.0
77, 0.0
78, 0.0
79, 0.0
80, 0.0
81, 0.0
82, 0.0
83, 0.0
84, 0.0
85, 0.0
86, 0.0
87, 0.0
88, 0.0
89, 0.0
90, 0.0
91, 0.0
92, 0.0
93, 0.0
94, 0.0
95, 0.0
96, 0.0
97, 0.0
98, 0.0
99, 0.0
100, 0.0
101, 0.0
102, 0.0
103, 0.0
104, 0.0
105, 0.0
106, 0.0
107, 0.0
108, 0.0
109, 0.0
110.0, 0.0013279592952143817
111.0, 0.002468111527455543
112.0, 0.0011989979344312978
113.0, 0.002769599902031669
114.0, 0.009699285812248047
115.0, 0.02206712185175403
116.0, 0.037569098654183536
117.0, 0.053898064908949946
118.0, 0.06986845001903587
119.0, 0.08543099222325735
120.0, 0.10051120107105677
121.0, 0.11531077228560818
122.0, 0.1303301768794807
123.0, 0.1521731718069096
124.0, 0.17513132643132817
125.0, 0.19508821526178047
126.0, 0.21402340281714236
127.0, 0.2487074219670036
128.0, 0.29306001905937207
129.0, 0.3411327339022405
130.0, 0.3902730685148845
131.0, 0.44035178347389364
132.0, 0.499795378781516
133.0, 0.5484794153603585
134.0, 0.5673973815647325
135.0, 0.5656027490333007
136.0, 0.5347442907876636
137.0, 0.4798357969690094
138.0, 0.4132550075275563
139.0, 0.34909509112077247
140.0, 0.2906752088246411
141.0, 0.24099140259808768
142.0, 0.20032561636164262
143.0, 0.16860325796827974
144.0, 0.15344697719682243
145.0, 0.14575324460583064
146.0, 0.1430718671449103
147.0, 0.1445226299890966
148.0, 0.14528712245408168
149.0, 0.14417639280305813
150.0, 0.1396115447824664
151.0, 0.13105710567644682
152.0, 0.1207663393579963
153.0, 0.1219958134554421
154.0, 0.13190922566706179
155.0, 0.14410935387466653
156.0, 0.1575119542800105
157.0, 0.1734762763841909
158.0, 0.18796213519482596
159.0, 0.2029824471373367
160.0, 0.22105569633928243
161.0, 0.24394395169245525
162.0, 0.2691265211300659
163.0, 0.2934633143190885
164.0, 0.3164752753148166
165.0, 0.33902865768979973
166.0, 0.35013945425534015
167.0, 0.35668087367405915
168.0, 0.3528333504826584
169.0, 0.33255549812269725
170.0, 0.3140974428941296
171.0, 0.29565671857491155
172.0, 0.2786742935413589
173.0, 0.26201188814540616
174.0, 0.2349675767344048
175.0, 0.21219642395021096
176.0, 0.19072227195900998
177.0, 0.16631753263037147
178.0, 0.1388321924558347
179.0, 0.11541207897275362
180.0, 0.09799457576999875
181.0, 0.08423651151602748
182.0, 0.07169234548151593
183.0, 0.06299703456069086
184.0, 0.05990539414205194
185.0, 0.060308487827928824
186.0, 0.06204491145474471
187.0, 0.06437654993969133
188.0, 0.06479982932835356
189.0, 0.06592044433088647
190.0, 0.06467731062424567
191.0, 0.053321579441039796
192.0, 0.034849879747181324
193.0, 0.01603945730552971
194.0, 0.002124812737828674
195.0, 0.007775399736112986
196.0, 0.014134727154070457
197.0, 0.022055644969649155
198.0, 0.024987790738564993
199.0, 0.021168055430116423
200.0, 0.018537633696197695
201.0, 0.016102107208462283
202.0, 0.012633877632067874
203.0, 0.00878683436568483
204.0, 0.00560191636449504
205.0, 0.0012960719034168866
206.0, 0.004473667095424162
207.0, 0.01014141892435341
208.0, 0.015605288957481376
209.0, 0.019978176006801424
210.0, 0.026765125015312575
211.0, 0.036294336681334825
212.0, 0.04765568920769707
213.0, 0.059969760999207616
214.0, 0.07296554515405615
215.0, 0.08852723606643308
216.0, 0.1043948728617323
217.0, 0.11885023635668071
218.0, 0.13501257213019066
219.0, 0.15417115480399843
220.0, 0.17364264999621865
221.0, 0.19276129350113586
222.0, 0.21276490558218275
223.0, 0.23031956236153708
224.0, 0.2530920443343061
225.0, 0.2810888462840504
226.0, 0.3100837480357694
227.0, 0.330755530609574
228.0, 0.3554869265904215
229.0, 0.3797460383676133
230.0, 0.40055698203789436
231.0, 0.4175403486482093
232.0, 0.42143480027566366
233.0, 0.42682830248444775
234.0, 0.42945129935388604
235.0, 0.42389215087944765
236.0, 0.42241889728581355
237.0, 0.42675657005017587
238.0, 0.4383462066116769
239.0, 0.45636768379813286
240.0, 0.478301973842794
241.0, 0.5037810822427219
242.0, 0.5368563071942487
243.0, 0.5717357472689288
244.0, 0.602660541592423
245.0, 0.6329399281383651
246.0, 0.6512639681729325
247.0, 0.6551084335746782
248.0, 0.6439916926220774
249.0, 0.6173517294603139
250.0, 0.5769444310652314
251.0, 0.5264718835105835
252.0, 0.47294435368313403
253.0, 0.42226419485730315
254.0, 0.37877359978811254
255.0, 0.3441800815262157
256.0, 0.3138122643829256
257.0, 0.28652699252574687
258.0, 0.2629145736846479
259.0, 0.24208337178322978
260.0, 0.21828006149298157
261.0, 0.19629594747752452
262.0, 0.1788087224005745
263.0, 0.16134899282439466
264.0, 0.14261090485363992
265.0, 0.13007624057596892
266.0, 0.12344431163975356
267.0, 0.1189402226509834
268.0, 0.11722270517919803
269.0, 0.11402920356795958
270.0, 0.11349169885226822
271.0, 0.11559559666647846
272.0, 0.11349276058096869
273.0, 0.11232746518789097
274.0, 0.11587033349546767
275.0, 0.11955535547904705
276.0, 0.11750653334617356
277.0, 0.11026189993728569
278.0, 0.10195399428264054
279.0, 0.09627704303891936
280.0, 0.09061432493781386
281.0, 0.08091909303499288
282.0, 0.07887476501944439
283.0, 0.07797431316979915
284.0, 0.07848377856197686
285.0, 0.08147760095098644
286.0, 0.08541569675688795
287.0, 0.08984250255420541
288.0, 0.09492235772221105
289.0, 0.10345651476604904
290.0, 0.11599745093438299
291.0, 0.12552357168430356
292.0, 0.13299294224394148
293.0, 0.14130558980759683
294.0, 0.15145951224270568
295.0, 0.16102376772518398
296.0, 0.1618036534201039
297.0, 0.15465063745126728
298.0, 0.14045917478970965
299.0, 0.11833084911637563
300.0, 0.08716268094405473
301.0, 0.05747095859453953
302.0, 0.030569892906513973
303.0, 0.009910781214317111
304.0, 0.0029420793252608233
305.0, 0.009988537812379097
306.0, 0.015269392124041072
307.0, 0.01641182623053702
308.0, 0.012954836544990118
309.0, 0.006095172636627026
310.0, 0.00280890743081756
311.0, 0.01355937440939467
312.0, 0.02497319401627193
313.0, 0.037189014667549224
314.0, 0.05118232501436086
315.0, 0.0635097693262806
316.0, 0.0754586483224711
317.0, 0.08970464259406388
318.0, 0.10483748670650364
319.0, 0.11429445697170254
320.0, 0.12599018562090436
321.0, 0.13987328593668624
322.0, 0.1523789411055925
323.0, 0.16153617265085893
324.0, 0.17435350417784773
325.0, 0.19109764277006103
326.0, 0.20848177878289914
327.0, 0.22545339144273524
328.0, 0.24181695046297966
329.0, 0.25448801158988954
330.0, 0.2645653970252377
331.0, 0.27545308666927276
332.0, 0.2890212917320437
333.0, 0.30499969651483866
334.0, 0.32077859211922016
335.0, 0.33310424003716094
336.0, 0.3428396489731787
337.0, 0.3510944543278582
338.0, 0.35701335465584166
339.0, 0.36423560454641696
340.0, 0.37108799505897694
341.0, 0.37739823067934675
342.0, 0.3867784725217062
343.0, 0.40563589944254036
344.0, 0.43029262631049553
345.0, 0.46120044577923514
346.0, 0.4984662828429138
347.0, 0.5387952844072037
348.0, 0.5661658055640977
349.0, 0.5866033812213113
350.0, 0.5967200103219283
351.0, 0.5905087921411375
352.0, 0.5632029207568511
353.0, 0.5159675786770691
354.0, 0.45949795081706585
355.0, 0.394051071405797
356.0, 0.32454384943342796
357.0, 0.2637447042277229
358.0, 0.21535528117684782
359.0, 0.17591754381015134
360.0, 0.14275536586447943
361.0, 0.11579155321803941
362.0, 0.0968200931862172
363.0, 0.08143758993969158
364.0, 0.06879971962208285
365.0, 0.05984924212472671
366.0, 0.05346905633444691
367.0, 0.0438352893206722
368.0, 0.03583161877394521
369.0, 0.031233172264869068
370.0, 0.026165538605011078
371.0, 0.018018601296336156
372.0, 0.01184927884601097
373.0, 0.0037410668435451117
374.0, 0.0035154224007164087
375.0, 0.008056232337172118
376.0, 0.009688579455600742
377.0, 0.010894519356330498
378.0, 0.013265045258546434
379.0, 0.012628176192348151
380.0, 0.008223755063583558
381.0, 0.003325779652764715
382.0, 0.00100627940736926
383.0, 0.008491063119059838
384.0, 0.017381536077634673
385.0, 0.02632217269881619
386.0, 0.038172781102609854
387.0, 0.04700408325057597
388.0, 0.059066447757034034
389.0, 0.06931372828143752
390.0, 0.0754811130174767
391.0, 0.07959912476602841
392.0, 0.0830938315098646
393.0, 0.07972841812132239
394.0, 0.07158057545537673
395.0, 0.06029748803343809
396.0, 0.046098967916984736
397.0, 0.03190409151957404
398.0, 0.018214485767863723
399.0, 0.007330190954362447
400.0, 0.0007698012980009661
401.0, 0.006362660628231305
402.0, 0.012178296944147916
403.0, 0.014601920345242107
404.0, 0.014554598771257076
405.0, 0.012130645650606276
406.0, 0.006919577180373698
407.0, 0.0022810187239962363
408.0, 0.0068319635635661485
409.0, 0.019178287842381406
410.0, 0.03327915042280436
411.0, 0.04986071093300108
412.0, 0.06944806929524863
413.0, 0.08979817524250883
414.0, 0.11179655232746633
415.0, 0.13513381925790457
416.0, 0.15861947209517485
417.0, 0.18437773220895753
418.0, 0.21197282350883534
419.0, 0.24490814591314886
420.0, 0.2820354045906744
421.0, 0.3196593589174217
422.0, 0.35892783172736153
423.0, 0.4027251637589707
424.0, 0.44717728705187815
425.0, 0.4887011783785198
426.0, 0.523941606230986
427.0, 0.5482159199568754
428.0, 0.5674750793621884
429.0, 0.5782206373685335
430.0, 0.5845373108201458
431.0, 0.5939562727636761
432.0, 0.60968718550242
433.0, 0.6270805579093489
434.0, 0.6457540227188888
435.0, 0.6666893474368077
436.0, 0.6886595005927959
437.0, 0.7071850639495786
438.0, 0.7199388907781873
439.0, 0.730313425297456
440.0, 0.7413249934845918
441.0, 0.753549324992001
442.0, 0.7642651383694852
443.0, 0.7779818991578321
444.0, 0.8004981040407976
445.0, 0.8297070832562442
446.0, 0.8636956997618018
447.0, 0.9044005541501496
448.0, 0.9400567396867032
449.0, 0.9757669649419087
450.0, 0.9979690121520159
451.0, 0.9910694578528536
452.0, 0.9499494430924144
453.0, 0.8911505247266183
454.0, 0.8224873873629633
455.0, 0.7527006153848115
456.0, 0.6862468533372321
457.0, 0.6244279156507402
458.0, 0.5734707415025093
459.0, 0.528120841842441
460.0, 0.4834089167268266
461.0, 0.4409422447144038
462.0, 0.4033643634587911
463.0, 0.3646023417570182
464.0, 0.32961224008780127
465.0, 0.2979559402593336
466.0, 0.26525577361359964
467.0, 0.23113216144894988
468.0, 0.20680966771069642
469.0, 0.1830853939255858
470.0, 0.1613851618086715
471.0, 0.1411992405621123
472.0, 0.12278392824987497
473.0, 0.11039321923975455
474.0, 0.09989593304997058
475.0, 0.0902212050248672
476.0, 0.07970900769671056
477.0, 0.07093172833708869
478.0, 0.06873852295489385
479.0, 0.06750326626852894
480.0, 0.0688886919122544
481.0, 0.07263384975488955
482.0, 0.07754756703062503
483.0, 0.08334771371733261
484.0, 0.09245540345897996
485.0, 0.10210633221163491
486.0, 0.11144414877890166
487.0, 0.12222374553310394
488.0, 0.134785797794984
489.0, 0.14352495766337434
490.0, 0.16021663289857635
491.0, 0.18023996147974522
492.0, 0.19461146655354655
493.0, 0.20567568731464939
494.0, 0.2273078564022798
495.0, 0.2459117926353455
496.0, 0.2652016313945474
497.0, 0.2867523883660842
498.0, 0.3095035683581621
499.0, 0.3320150982412733
500.0, 0.3557929737256919
501.0, 0.37972092514428163
502.0, 0.4021092780408857
503.0, 0.42193799683813515
504.0, 0.439540246390124
505.0, 0.45654037746765397
506.0, 0.47342575420397054
507.0, 0.481398375147349
508.0, 0.48085305295994113
509.0, 0.4767525616870364
510.0, 0.4720290767716725
511.0, 0.4534534797376826
512.0, 0.4317665197405795
513.0, 0.40151326605060217
514.0, 0.3612795251545326
515.0, 0.3176395010647857
516.0, 0.2726310247254348
517.0, 0.23124442731376244
518.0, 0.19477736200175727
519.0, 0.16348605456321785
520.0, 0.13775105668311693
521.0, 0.11849729802329707
522.0, 0.10501294075702174
523.0, 0.09234537339296245
524.0, 0.07989610448534204
525.0, 0.06836247533033744
526.0, 0.05816803788762412
527.0, 0.05013452710676964
528.0, 0.03797195168116244
529.0, 0.02480348759184006
530.0, 0.01256755829119996
531.0, 0.0019251798496501024
532.0, 0.007638656355057328
533.0, 0.013118700212122896
534.0, 0.015413868497104495
535.0, 0.017176256454492805
536.0, 0.019066422756930105
537.0, 0.019012174363017626
538.0, 0.01681915761475924
539.0, 0.013505559848791728
540.0, 0.009977747587890063
541.0, 0.006610671285108471
542.0, 0.0034894435039011695
543.0, 0.001140827430685031
544.0, 0.007145892365787036
545.0, 0.016606526201839028
546.0, 0.02606318001245836
547.0, 0.03692351097014626
548.0, 0.052594429543387645
549.0, 0.07307838765913764
550.0, 0.09046620516277433
551.0, 0.11785423968602154
552.0, 0.15101424816074613
553.0, 0.18249556647065968
554.0, 0.22070261733267388
555.0, 0.2555895106002536
556.0, 0.28891702788887397
557.0, 0.32356428784700764
558.0, 0.3605867644301225
559.0, 0.4005647694377828
560.0, 0.4467164846002355
561.0, 0.4975529964346461
562.0, 0.5556790277185023
563.0, 0.6163015563068827
564.0, 0.6759682410757452
565.0, 0.7392692208491952
566.0, 0.7934258620223691
567.0, 0.828061101177003
568.0, 0.8316353645879928
569.0, 0.7941446122306374
570.0, 0.7137383195192465
571.0, 0.6060424395901556
572.0, 0.4965415609918349
573.0, 0.4026501151349664
574.0, 0.3333982879246755
575.0, 0.2866692676673001
576.0, 0.2550693949005095
577.0, 0.2392617395336319
578.0, 0.23592488473235518
579.0, 0.2365599404436526
580.0, 0.24282790948982208
581.0, 0.2573497274448963
582.0, 0.27363867966101296
583.0, 0.2946291466547606
584.0, 0.3208962012898946
585.0, 0.34998438502771406
586.0, 0.3813503933290552
587.0, 0.41508269774859285
588.0, 0.44761642728604706
589.0, 0.4878986881117326
590.0, 0.525621236427747
591.0, 0.5545599600779797
592.0, 0.5817318196249006
593.0, 0.6195909013853138
594.0, 0.651372603268482
595.0, 0.6831742967314751
596.0, 0.7188234218301053
597.0, 0.7534368407248624
598.0, 0.7838433952401734
599.0, 0.8112284562652354
600.0, 0.8238108544485586
601.0, 0.828242919492079
602.0, 0.8225341346513646
603.0, 0.7995004952070933
604.0, 0.7572393133160067
605.0, 0.7086965946648166
606.0, 0.6583203210638369
607.0, 0.6095705682643964
608.0, 0.5625961416919983
609.0, 0.5178707939184392
610.0, 0.4770835647757745
611.0, 0.4418380204738665
612.0, 0.4137083053917409
613.0, 0.38882925966669996
614.0, 0.3635087502293259
615.0, 0.3355057277803649
616.0, 0.3041102083204931
617.0, 0.27288206106282903
618.0, 0.24047325485627494
619.0, 0.21202717976454932
620.0, 0.1834095202378113
621.0, 0.1544312754879895
622.0, 0.131855543059091
623.0, 0.11231868123531792
624.0, 0.0938600547165516
625.0, 0.07971458268460702
626.0, 0.06770943518199639
627.0, 0.05711168250495709
628.0, 0.05044091732944924
629.0, 0.04043979978354902
630.0, 0.03368677580275378
631.0, 0.02752376752576195
632.0, 0.022726649297372035
633.0, 0.01951864454042849
634.0, 0.014888786907478817
635.0, 0.012522230493322472
636.0, 0.009433382765825454
637.0, 0.005128310767367513
638.0, 0.0026752122898875373
639.0, 0.0022371283709170346
640.0, 0.0005305622894273349
641.0, 0.0008288934511126814
642.0, 0.002500452119324366
643.0, 0.002924067649677944
644.0, 0.0032413040823583384
645.0, 0.004708765852811594
646.0, 0.004831124624202293
647.0, 0.004511866006861548
648.0, 0.004444777853205687
649.0, 0.004024018011380696
650.0, 0.0027169736782767817
651.0, 0.0013572733113957193
652.0, 0.001527406525313304
653.0, 0.001536181043439889
654.0, 0.0011644022683796095
655.0, 0.00030322544993768353
656.0, 0.0021558173315620174
657.0, 0.00422079215660195
658.0, 0.005941174125492719
659.0, 0.0051744974514787824
660.0, 0.0071119597801089715
661.0, 0.009489524075329029
662.0, 0.01014991666595259
663.0, 0.010266181054398513
664.0, 0.012252703674274267
665.0, 0.012986712361326964
666.0, 0.015185310771366726
667.0, 0.015272197651080241
668.0, 0.015593580754694912
669.0, 0.0176391078921191
670.0, 0.018625042261763036
671.0, 0.02064254784418222
672.0, 0.02186003861593482
673.0, 0.024578447203376125
674.0, 0.026385530720264776
675.0, 0.02665669130496267
676.0, 0.028456471753300936
677.0, 0.030934479403155274
678.0, 0.03308173448966748
679.0, 0.03443829031888847
680.0, 0.03740137910959959
681.0, 0.04066163551214553
682.0, 0.041390653620651544
683.0, 0.04364019506980903
684.0, 0.046535597426120304
685.0, 0.04792195781205975
686.0, 0.04848653996587128
687.0, 0.048570948477686185
688.0, 0.04755065631294872
689.0, 0.0457130266592659
690.0, 0.047122516668357005
691.0, 0.046807566040503186
692.0, 0.04614488042185803
693.0, 0.04474319055723134
694.0, 0.04178214764700688
695.0, 0.03980194264038612
696.0, 0.038087380090584086
697.0, 0.0366326666014881
698.0, 0.03728520855450668
699.0, 0.036625929758786445
700.0, 0.03360911536964086
701.0, 0.032548153598271255
702.0, 0.03061767500873447
703.0, 0.029521852292105695
704.0, 0.02682720159370472
705.0, 0.023851255699108648
706.0, 0.02215802068742755
707.0, 0.02044601750978868
708.0, 0.016054324433506833
709.0, 0.016076355384526606
710.0, 0.013455767514307984
711.0, 0.01100549153350282
712.0, 0.009851251589507852
713.0, 0.008622270265130055
714.0, 0.008484626052941948
715.0, 0.00665889197969257
716.0, 0.006494411054268559
717.0, 0.005329096256750107
718.0, 0.003763500330643944
719.0, 0.0034424331847488967
720.0, 0.003698522764146775
721.0, 0.003738360981516165
722.0, 0.0022846555427741924
723.0, 0.001998626463636486
724.0, 0.0016995142517845312
725.0, 0.001342099986198934
726.0, 0.0018996616833497721
727.0, 0.0008571602414034423
728.0, 0.0007559808633051951
729.0, 0.0002118352621777928
730.0, 0.0008543724687816454
731.0, 0.0016994153809636043
732.0, 0.001817506036388098
733.0, 0.002486589518120318
734.0, 0.0019103060061137114
735.0, 0.003940549199477809
736.0, 0.0046333369041651785
737.0, 0.00517190640926796
738.0, 0.006366589033664262
739.0, 0.0067708583004445575
740.0, 0.00812194496939029
741.0, 0.009133345046775694
742.0, 0.009848840616768299
743.0, 0.012205828105683814
744.0, 0.01395220945665971
745.0, 0.013244755575932922
746.0, 0.01366282977007103
747.0, 0.016008210427400592
748.0, 0.016975106200992705
749.0, 0.018154448602759804
750.0, 0.019492845520835862
751.0, 0.02066477238893313
752.0, 0.02233056366506836
753.0, 0.02421815758835865
754.0, 0.026589274777837346
755.0, 0.0280506636354459
756.0, 0.029810912210386554
757.0, 0.031978474247179464
758.0, 0.03431253194298465
759.0, 0.037335808178295286
760.0, 0.040691076832691346
761.0, 0.04168170954164512
762.0, 0.044341426892611085
763.0, 0.04800365897192697
764.0, 0.0510035741531592
765.0, 0.05368424304867413
766.0, 0.0572687164924173
767.0, 0.05942787007708908
768.0, 0.060876608111182916
769.0, 0.05954849871243604
770.0, 0.0589987442638135
771.0, 0.05900571366247298
772.0, 0.05598489950930597
773.0, 0.052261999608557624
774.0, 0.047606365903055926
775.0, 0.043201072516726606
776.0, 0.038917035517772654
777.0, 0.033499004340310334
778.0, 0.027992096857462723
779.0, 0.024567101305713834
780.0, 0.020670205112685257
781.0, 0.017464871958790512
782.0, 0.0145781712261845
783.0, 0.010788863775908228
784.0, 0.007552252524042722
785.0, 0.005752517615957201
786.0, 0.003944257672028993
787.0, 0.0027508207375149044
788.0, 0.0022349929535291453
789.0, 0.0007127540162410191
790.0, 0.00019099548197487628
791.0, 0.00033925550728062094
792.0, 0.002057308350504892
793.0, 0.002813000249140081
794.0, 0.003002197952409061
795.0, 0.004446793868485352
796.0, 0.003956776649701865
797.0, 0.0040429230130285265
798.0, 0.004960539209970249
799.0, 0.004468669757226311
800.0, 0.0035743290375400876
801.0, 0.004594024111021187
802.0, 0.0037648016681596907
803.0, 0.004562732277677036
804.0, 0.005453506511950166
805.0, 0.004657415240031525
806.0, 0.003631741050505545
807.0, 0.004934620291998831
808.0, 0.0027065969280176765
809.0, 0.0008164630593733
810.0, 0.00010194528230601116
811.0, 0.000800544450542008
812.0, 0.0020462695858383686
813.0, 0.002315990999434607
814.0, 0.0015839848643296503
815.0, 0.0040392308733282235
816.0, 0.005214788087270338
817.0, 0.007655539110841666
818.0, 0.009152233944328588
819.0, 0.009773513395765149
820.0, 0.01165102670750171
821.0, 0.013709062343050197
822.0, 0.01541151606781403
823.0, 0.018260864608145567
824.0, 0.019580982883626988
825.0, 0.022333661136742646
826.0, 0.025264708831558905
827.0, 0.02675114097412132
828.0, 0.030276331132573265
829.0, 0.030565613432659924
830.0, 0.029795644250023342
831.0, 0.030418370440463645
832.0, 0.031354180509026074
833.0, 0.031663595648362686
834.0, 0.03164868795855119
835.0, 0.03141202478166534
836.0, 0.029446417691740084
837.0, 0.029047618477815302
838.0, 0.028555996957677285
839.0, 0.02770434037874212
840.0, 0.028515558140677633
841.0, 0.03023913468015422
842.0, 0.030570593545727075
843.0, 0.03274748065878039
844.0, 0.03713317817199274
845.0, 0.04017642366571639
846.0, 0.04237352418684834
847.0, 0.045353136380163146
848.0, 0.049617687084197
849.0, 0.05525687124399633
850.0, 0.06301803289058791
851.0, 0.0686594577862543
852.0, 0.0781545555834014
853.0, 0.08777932034770809
854.0, 0.09676728152846059
855.0, 0.10856272022585872
856.0, 0.12327590744188303
857.0, 0.1371572799142515
858.0, 0.15292449419063314
859.0, 0.16761808760157879
860.0, 0.18457786071428553
861.0, 0.20380083197157492
862.0, 0.22190615438167186
863.0, 0.23993906535472098
864.0, 0.26203804406750764
865.0, 0.2796606431961457
866.0, 0.29816560582327967
867.0, 0.3172360654273646
868.0, 0.3324746986258446
869.0, 0.34396448290532217
870.0, 0.355276546471256
871.0, 0.367368859814539
872.0, 0.3773116893522759
873.0, 0.39231381453395775
874.0, 0.40882920549129875
875.0, 0.42837708464227164
876.0, 0.4528599220584975
877.0, 0.48080578043368677
878.0, 0.5097672123663819
879.0, 0.5399297877237347
880.0, 0.5721932925192437
881.0, 0.6014060132384221
882.0, 0.6273620184113066
883.0, 0.6489279953140603
884.0, 0.6685099327305312
885.0, 0.688318857950902
886.0, 0.7055990898232276
887.0, 0.7145249876658559
888.0, 0.7244640884763407
889.0, 0.730917899498987
890.0, 0.7247445188286767
891.0, 0.7086917476322043
892.0, 0.6860758167246152
893.0, 0.6546064933827698
894.0, 0.6134804951134859
895.0, 0.5702198707793199
896.0, 0.5253303914993852
897.0, 0.4831483990194044
898.0, 0.4483282115091492
899.0, 0.42139123351898455
900.0, 0.4006519346508005
901.0, 0.3879407367337114
902.0, 0.38647477274791336
903.0, 0.3871257483805753
904.0, 0.3932416293698745
905.0, 0.4029973803496425
906.0, 0.41744568161954265
907.0, 0.4342607883358859
908.0, 0.4528138077067487
909.0, 0.473352362473951
910.0, 0.4922164087254836
911.0, 0.5095879110114937
912.0, 0.523062150933933
913.0, 0.5378111830779619
914.0, 0.5461902599590729
915.0, 0.5475113922941636
916.0, 0.5431005108228684
917.0, 0.5318898039835657
918.0, 0.5156211876608513
919.0, 0.4935531363551045
920.0, 0.46169649333070495
921.0, 0.429358887381756
922.0, 0.3905296082334338
923.0, 0.3485182902867918
924.0, 0.31008640798401815
925.0, 0.27525361824132466
926.0, 0.243534176967331
927.0, 0.21120418792898638
928.0, 0.18336929118161654
929.0, 0.15806309416646042
930.0, 0.13449224087951764
931.0, 0.11426767600771716
932.0, 0.09650135790196973
933.0, 0.07913648155555147
934.0, 0.06387327279012765
935.0, 0.04965576914400792
936.0, 0.039544290445493575
937.0, 0.029309504558013073
938.0, 0.021933090232398478
939.0, 0.015386936408111784
940.0, 0.008136273079605473
941.0, 0.003326129547011594
942.0, 0.00092953726516386
943.0, 0.001234361318727288
944.0, 0.0031640045689601106
945.0, 0.004191826134692167
946.0, 0.004853333658480017
947.0, 0.003453529087849471
948.0, 0.0010787977128894088
949.0, 0.00018343463730048922
950.0, 0.001171165988255402
951.0, 0.003667579549695296
952.0, 0.005144172980770046
953.0, 0.007747407869003259
954.0, 0.009666972977056154
955.0, 0.011184548311140886
956.0, 0.012274525082703833
957.0, 0.01308270273604561
958.0, 0.014473847186868376
959.0, 0.013423672241046555
960.0, 0.013837476666791939
961.0, 0.013151135703097925
962.0, 0.010771740067868255
963.0, 0.00955104924742294
964.0, 0.009621032522043297
965.0, 0.0087685352129889
966.0, 0.007443895915317766
967.0, 0.009770066963484304
968.0, 0.011396113083714356
969.0, 0.015181913849645585
970.0, 0.018993181212337857
971.0, 0.025231149744260103
972.0, 0.03248531298864218
973.0, 0.03806511212263549
974.0, 0.043773597773179275
975.0, 0.05245576428530791
976.0, 0.06043963104757385
977.0, 0.06901440854161857
978.0, 0.07622632122883974
979.0, 0.08555957906342956
980.0, 0.09380119214982564
981.0, 0.09790604014104458
982.0, 0.09875900890637807
983.0, 0.09756170037903028
984.0, 0.09237488390458673
985.0, 0.08428623584551426
986.0, 0.07302180416318647
987.0, 0.060554859374285855
988.0, 0.048785429959200335
989.0, 0.039008304346880934
990.0, 0.030152042346783096
991.0, 0.02235388490724353
992.0, 0.017376348747964773
993.0, 0.009695114679691436
994.0, 0.0061809641781679775
995.0, 0.0027597270715878034
996.0, 0.0006172864894396881
997.0, 0.0019327889328308373
998.0, 0.0034014017915480563
999.0, 0.005781049639286328
1000.0, 0.006636310704966976
1001.0, 0.007424663741103977
1002.0, 0.00868241818630216
1003.0, 0.007582159088888314
1004.0, 0.007503144838643944
1005.0, 0.007290024466606708
1006.0, 0.005784230581578481
1007.0, 0.002508528074290187
1008.0, 0.0009749877593896038
1009.0, 0.0030652002178559834
1010.0, 0.0070903089674970695
1011.0, 0.01406684219674536
1012.0, 0.019961427502051668
1013.0, 0.025042609389053637
1014.0, 0.03337513470250057
1015.0, 0.041114849990021664
1016.0, 0.0472432771792153
1017.0, 0.05463828815341469
1018.0, 0.06387205826992602
1019.0, 0.07371225532843287
1020.0, 0.07996666608104948
1021.0, 0.08916998501741102
1022.0, 0.09460928132837294
1023.0, 0.09638854484525115
1024.0, 0.09588375589040585
1025.0, 0.09304846770248294
1026.0, 0.08778965359080232
1027.0, 0.08087141046592512
1028.0, 0.07306598234721524
1029.0, 0.06719657367956527
1030.0, 0.06200666354272723
1031.0, 0.05858769114727977
1032.0, 0.055624789311271905
1033.0, 0.054472142392988976
1034.0, 0.05602275293694522
1035.0, 0.058616079322172776
1036.0, 0.06009030451643719
1037.0, 0.06040558788228753
1038.0, 0.062231602281532336
1039.0, 0.0652787227822218
1040.0, 0.06762549227238288
1041.0, 0.06807733025112053
1042.0, 0.06900939109943938
1043.0, 0.07096905559686997
1044.0, 0.07189714698425514
1045.0, 0.07083995353486588
1046.0, 0.06930998343451533
1047.0, 0.06854072404118439
1048.0, 0.06764769543066845
1049.0, 0.06491928578854697
1050.0, 0.06230630465531973
1051.0, 0.060387838231033636
1052.0, 0.05830388845393045
1053.0, 0.055629704608981645
1054.0, 0.05351604140291615
1055.0, 0.052391756298881716
1056.0, 0.05020530202290103
1057.0, 0.050347486802077776
1058.0, 0.047992488064874286
1059.0, 0.04641401549820479
1060.0, 0.04483145797448555
1061.0, 0.0436356053115842
1062.0, 0.04370492294426106
1063.0, 0.043626436167986136
1064.0, 0.04093975183154236
1065.0, 0.037187486819677734
1066.0, 0.0380369183223246
1067.0, 0.03845286407185102
1068.0, 0.03999757250285106
1069.0, 0.040535771092706833
1070.0, 0.04295833244809735
1071.0, 0.046243000070305525
1072.0, 0.051691614653042846
1073.0, 0.059844967091775406
1074.0, 0.06811355531599346
1075.0, 0.07832864485764299
1076.0, 0.0919760853325578
1077.0, 0.10122007571845622
1078.0, 0.11747885573808478
1079.0, 0.13233759403325232
1080.0, 0.14911857901055786
1081.0, 0.1642264164496237
1082.0, 0.1779093331955936
1083.0, 0.19381470222167313
1084.0, 0.2089115824224983
1085.0, 0.2232050982130831
1086.0, 0.23771219886715508
1087.0, 0.24763670398474824
1088.0, 0.2517679628581896
1089.0, 0.252385738705874
1090.0, 0.24528565015139542
1091.0, 0.22976684917399404
1092.0, 0.20969316178323433
1093.0, 0.18598291819233412
1094.0, 0.15818463048866496
1095.0, 0.13078820648963083
1096.0, 0.10351012764177508
1097.0, 0.08364429330467017
1098.0, 0.06793474595270017
1099.0, 0.055406744273870434
1100.0, 0.04494680936572624
1101.0, 0.03549266143227355
1102.0, 0.029112940639962434
1103.0, 0.0257245547651777
1104.0, 0.02275550435793721
1105.0, 0.020508538358124346
1106.0, 0.016816527021827805
1107.0, 0.014577434625130043
1108.0, 0.011543392363053453
1109.0, 0.01174024316724237
1110.0, 0.01093852359418241
1111.0, 0.009184696702595408
1112.0, 0.007630202084629653
1113.0, 0.006395137709578475
1114.0, 0.005532531975893863
1115.0, 0.0045701742514818655
1116.0, 0.004393072241114547
1117.0, 0.002933657714094169
1118.0, 0.003586407611747251
1119.0, 0.0036558031320751416
1120.0, 0.0037043465497145446
1121.0, 0.0022211111575030024
1122.0, 0.00149137584210273
1123.0, 0.0017613150925634862
1124.0, 0.00217362365457014
1125.0, 0.0031240732445947865
1126.0, 0.00206522471636262
1127.0, 0.0005586539862637921
1128.0, 0.00023928012371883045
1129.0, 0.000248717650892724
1130.0, 0.00018236810500610093
1131.0, 0.0006300817442037871
1132.0, 0.00020462001613312048
1133.0, 0.00036574051128367163
1134.0, 0.0004535655046381176
1135.0, 0.00022140965811080844
1136.0, 0.0003488930422858221
1137.0, 0.0008828771007665764
1138.0, 0.00017502591383547898
1139.0, 0.0007208499739793173
1140.0, 0.00024282183541992947
1141.0, 0.0001091985927949541
1142.0, 0.0007463319497045503
1143.0, 7.876784846299755e-05
1144.0, 0.00047217812756313314
1145.0, 0.00013842307787922107
1146.0, 3.700680855573781e-05
1147.0, 8.136341408206925e-05
1148.0, 0.000680333350032412
1149.0, 0.0012960365714146534
1150.0, 0.0010517486795163574
1151.0, 0.00017047029353355745
1152.0, 8.70969536983116e-05
1153.0, 0.0006091090727571127
1154.0, 0.0006590410677941931
1155.0, 6.6757997475751e-05
1156.0, 0.000229401639187398
1157.0, 0.00013922329246351646
1158.0, 0.0002497474210254509
1159.0, 0.000672015906680832
1160.0, 0.00015124554800185453
1161.0, 0.0008052089364329341
1162.0, 0.0005375375696148883
1163.0, 0.0007639654668013674
1164.0, 0.0006309539589244187
1165.0, 0.000679981767391
1166.0, 0.0005450517283058962
1167.0, 0.0008571803457171527
1168.0, 0.0011428579583060833
1169.0, 0.0023768749980748946
1170.0, 0.0024048811832644546
1171.0, 0.0009878638460373804
1172.0, 0.002301529354403803
1173.0, 0.0027722379261647676
1174.0, 0.003243627198289182
1175.0, 0.002734666185925985
1176.0, 0.0012860975202105692
1177.0, 0.001879390475348265
1178.0, 0.0030210606955294243
1179.0, 0.0033337843308306435
1180.0, 0.003737692444883686
1181.0, 0.004376888168575878
1182.0, 0.00545873369560743
1183.0, 0.003711443361652716
1184.0, 0.004009111849464022
1185.0, 0.005248029979854975
1186.0, 0.00470791086635577
1187.0, 0.00357919728207381
1188.0, 0.0037696952082492447
1189.0, 0.00434840410496661
1190.0, 0.005036388905510976
1191.0, 0.005138312793349602
1192.0, 0.00438062246226741
1193.0, 0.004106287253273009
1194.0, 0.004169862931484063
1195.0, 0.004467049268963936
1196.0, 0.004475416770040208
1197.0, 0.005541225494500595
1198.0, 0.004192762390005807
1199.0, 0.003252791753328102
1200.0, 0.003777625499767996
1201.0, 0.0035363466369272923
1202.0, 0.0034658474612507414
1203.0, 0.0047067557476263575
1204.0, 0.0049413242007752215
1205.0, 0.004003406311880727
1206.0, 0.004588551372504123
1207.0, 0.0049162180538059475
1208.0, 0.004485362220870259
1209.0, 0.004149611818098442
1210.0, 0.00416892877074124
1211.0, 0.0030705850807520836
1212.0, 0.0029878542249913904
1213.0, 0.003272523831122671
1214.0, 0.0036051531453662154
1215.0, 0.0032444216947586407
1216.0, 0.0030079917184990873
1217.0, 0.0030021707499709393
1218.0, 0.002298418067960618
1219.0, 0.002104248179724817
1220.0, 0.0024300352193925134
1221.0, 0.0038778426164077294
1222.0, 0.0031832023432300446
1223.0, 0.003676262602588119
1224.0, 0.003492524305850014
1225.0, 0.0030973483753010704
1226.0, 0.0027852861564642995
1227.0, 0.002332696832457695
1228.0, 0.0024873194181922642
1229.0, 0.001577166180661739
1230.0, 0.00246619060681913
1231.0, 0.0024255465555539733
1232.0, 0.0022765976467730756
1233.0, 0.0025387529838992442
1234.0, 0.0015918284720480252
1235.0, 0.0013720849527123773
1236.0, 0.00211980852248516
1237.0, 0.0021527543251414188
1238.0, 0.002329437726190973
1239.0, 0.00045170806133807567
1240.0, 0.0005112664923350274
1241.0, 0.00148003022069132
1242.0, 0.0008298566065793319
1243.0, 0.0010722829085814982
1244.0, 0.0010995853372400186
1245.0, 0.0022902763305831827
1246.0, 0.0022517528335768157
1247.0, 0.0010122873054459968
1248.0, 0.0003577662670240464
1249.0, 0.00018555471017494288
1250.0, 0.0002713897262660385
1251.0, 0.0010729118947745509
1252.0, 0.0005153421190520498
1253.0, 0.00041556396803645593
1254.0, 0.0017227930491247373
1255.0, 0.001489131188041396
1256.0, 0.0007139001619383382
1257.0, 0.0029361684535229296
1258.0, 0.003931679993969409
1259.0, 0.0017900085336728202
1260.0, 0.00025504700861135154
1261.0, 0.00022042281075278217
1262.0, 0.001093964279432951
1263.0, 0.0013443506141252372
1264.0, 0.0006336050061621903
1265.0, 0.001577246360628234
1266.0, 0.001318064645634748
1267.0, 0.0010333858811735989
1268.0, 0.001515540619419714
1269.0, 0.00206417019236681
1270.0, 0.0023140381436090856
1271.0, 0.0017276888243261978
1272.0, 0.0009521149227616582
1273.0, 0.0015765062865147315
1274.0, 0.002404456857422714
1275.0, 0.0015594888718951012
1276.0, 0.0013307446496594684
1277.0, 0.0023442975058728917
1278.0, 0.0016129773225228442
1279.0, 0.0016927433404133481
1280.0, 0.001560252792374053
1281.0, 0.0013954104263569885
1282.0, 0.002119101462034505
1283.0, 0.0023574561699874555
1284.0, 0.0024683614456708475
1285.0, 0.00234032520816807
1286.0, 0.0004765965935259349
1287.0, 0.0001761476941421051
1288.0, 0.001344171809561721
1289.0, 0.0014425887751079742
1290.0, 0.0012245068485190382
1291.0, 0.0013063231902706476
1292.0, 0.0012732953813226057
1293.0, 0.002572640519599721
1294.0, 0.0006494286079398457
1295.0, 0.0014654234595154042
1296.0, 0.0013837899431566303
1297.0, 0.001085571386102502
1298.0, 0.0011640579541638137
1299.0, 0.0011794728930232007
1300.0, 0.0011152402705264526
1301.0, 0.00015242616554750688
1302.0, 0.00014742591763171876
1303.0, 0.001160220441459734
1304.0, 0.0009518399490246685
1305.0, 0.002091914578248796
1306, 0.0
1307, 0.0
1308, 0.0
1309, 0.0
1310, 0.0
1311, 0.0
1312, 0.0
1313, 0.0
1314, 0.0
1315, 0.0
1316, 0.0
1317, 0.0
1318, 0.0
1319, 0.0
1320, 0.0
1321, 0.0
1322, 0.0
1323, 0.0
1324, 0.0
1325, 0.0
1326, 0.0
1327, 0.0
1328, 0.0
1329, 0.0
1330, 0.0
1331, 0.0
1332, 0.0
1333, 0.0
1334, 0.0
1335, 0.0
1336, 0.0
1337, 0.0
1338, 0.0
1339, 0.0
1340, 0.0
1341, 0.0
1342, 0.0
1343, 0.0
1344, 0.0
1345, 0.0
1346, 0.0
1347, 0.0
1348, 0.0
1349, 0.0
1350, 0.0
1351, 0.0
1352, 0.0
1353, 0.0
1354, 0.0
1355, 0.0
1356, 0.0
1357, 0.0
1358, 0.0
1359, 0.0
1360, 0.0
1361, 0.0
1362, 0.0
1363, 0.0
1364, 0.0
1365, 0.0
1366, 0.0
1367, 0.0
1368, 0.0
1369, 0.0
1370, 0.0
1371, 0.0
1372, 0.0
1373, 0.0
1374, 0.0
1375, 0.0
1376, 0.0
1377, 0.0
1378, 0.0
1379, 0.0
1380, 0.0
1381, 0.0
1382, 0.0
1383, 0.0
1384, 0.0
1385, 0.0
1386, 0.0
1387, 0.0
1388, 0.0
1389, 0.0
1390, 0.0
1391, 0.0
1392, 0.0
1393, 0.0
1394, 0.0
1395, 0.0
1396, 0.0
1397, 0.0
1398, 0.0
1399, 0.0
1400, 0.0
1401, 0.0
1402, 0.0
1403, 0.0
1404, 0.0
1405, 0.0
1406, 0.0
1407, 0.0
1408, 0.0
1409, 0.0
1410, 0.0
1411, 0.0
1412, 0.0
1413, 0.0
1414, 0.0
1415, 0.0
1416, 0.0
1417, 0.0
1418, 0.0
1419, 0.0
1420, 0.0
1421, 0.0
1422, 0.0
1423, 0.0
1424, 0.0
1425, 0.0
1426, 0.0
1427, 0.0
1428, 0.0
1429, 0.0
1430, 0.0
1431, 0.0
1432, 0.0
1433, 0.0
1434, 0.0
1435, 0.0
1436, 0.0
1437, 0.0
1438, 0.0
1439, 0.0
1440, 0.0
1441, 0.0
1442, 0.0
1443, 0.0
1444, 0.0
1445, 0.0
1446, 0.0
1447, 0.0
1448, 0.0
1449, 0.0
1450, 0.0
1451, 0.0
1452, 0.0
1453, 0.0
1454, 0.0
1455, 0.0
1456, 0.0
1457, 0.0
1458, 0.0
1459, 0.0
1460, 0.0
1461, 0.0
1462, 0.0
1463, 0.0
1464, 0.0
1465, 0.0
1466, 0.0
1467, 0.0
1468, 0.0
1469, 0.0
1470, 0.0
1471, 0.0
1472, 0.0
1473, 0.0
1474, 0.0
1475, 0.0
1476, 0.0
1477, 0.0
1478, 0.0
1479, 0.0
1480, 0.0
1481, 0.0
1482, 0.0
1483, 0.0
1484, 0.0
1485, 0.0
1486, 0.0
1487, 0.0
1488, 0.0
1489, 0.0
1490, 0.0
1491, 0.0
1492, 0.0
1493, 0.0
1494, 0.0
1495, 0.0
1496, 0.0
1497, 0.0
1498, 0.0
1499, 0.0
1500, 0.0
1501, 0.0
1502, 0.0
1503, 0.0
1504, 0.0
1505, 0.0
1506, 0.0
1507, 0.0
1508, 0.0
1509, 0.0
1510, 0.0
1511, 0.0
1512, 0.0
1513, 0.0
1514, 0.0
1515, 0.0
1516, 0.0
1517, 0.0
1518, 0.0
1519, 0.0
1520, 0.0
1521, 0.0
1522, 0.0
1523, 0.0
1524, 0.0
1525, 0.0
1526, 0.0
1527, 0.0
1528, 0.0
1529, 0.0
1530, 0.0
1531, 0.0
1532, 0.0
1533, 0.0
1534, 0.0
1535, 0.0
1536, 0.0
1537, 0.0
1538, 0.0
1539, 0.0
1540, 0.0
1541, 0.0
1542, 0.0
1543, 0.0
1544, 0.0
1545, 0.0
1546, 0.0
1547, 0.0
1548, 0.0
1549, 0.0
1550, 0.0
1551, 0.0
1552, 0.0
1553, 0.0
1554, 0.0
1555, 0.0
1556, 0.0
1557, 0.0
1558, 0.0
1559, 0.0
1560, 0.0
1561, 0.0
1562, 0.0
1563, 0.0
1564, 0.0
1565, 0.0
1566, 0.0
1567, 0.0
1568, 0.0
1569, 0.0
1570, 0.0
1571, 0.0
1572, 0.0
1573, 0.0
1574, 0.0
1575, 0.0
1576, 0.0
1577, 0.0
1578, 0.0
1579, 0.0
1580, 0.0
1581, 0.0
1582, 0.0
1583, 0.0
1584, 0.0
1585, 0.0
1586, 0.0
1587, 0.0
1588, 0.0
1589, 0.0
1590, 0.0
1591, 0.0
1592, 0.0
1593, 0.0
1594, 0.0
1595, 0.0
1596, 0.0
1597, 0.0
1598, 0.0
1599, 0.0
