30, 0.0
31, 0.0
32, 0.0
33, 0.0
34, 0.0
35, 0.0
36, 0.0
37, 0.0
38, 0.0
39, 0.0
40, 0.0
41, 0.0
42, 0.0
43, 0.0
44, 0.0
45, 0.0
46, 0.0
47, 0.0
48, 0.0
49, 0.0
50, 0.0
51, 0.0
52, 0.0
53, 0.0
54, 0.0
55, 0.0
56, 0.0
57, 0.0
58, 0.0
59, 0.0
60, 0.0
61, 0.0
62, 0.0
63, 0.0
64, 0.0
65, 0.0
66, 0.0
67, 0.0
68, 0.0
69, 0.0
70, 0.0
71, 0.0
72, 0.0
73, 0.0
74, 0.0
75, 0.0
76, 0.0
77, 0.0
78, 0.0
79, 0.0
80, 0.0
81, 0.0
82, 0.0
83, 0.0
84, 0.0
85, 0.0
86, 0.0
87, 0.0
88, 0.0
89, 0.0
90, 0.0
91, 0.0
92, 0.0
93, 0.0
94, 0.0
95, 0.0
96, 0.0
97, 0.0
98, 0.0
99, 0.0
100, 0.0
101, 0.0
102, 0.0
103, 0.0
104, 0.0
105, 0.0
106, 0.0
107, 0.0
108, 0.0
109, 0.0
110, 0.0
111, 0.0
112, 0.0
113, 0.0
114, 0.0
115, 0.0
116, 0.0
117, 0.0
118, 0.0
119, 0.0
120, 0.0
121, 0.0
122, 0.0
123, 0.0
124, 0.0
125, 0.0
126, 0.0
127, 0.0
128, 0.0
129, 0.0
130, 0.0
131, 0.0
132, 0.0
133, 0.0
134, 0.0
135, 0.0
136, 0.0
137, 0.0
138, 0.0
139, 0.0
140, 0.0
141, 0.0
142, 0.0
143, 0.0
144, 0.0
145, 0.0
146, 0.0
147, 0.0
148, 0.0
149, 0.0
150, 0.0
151, 0.0
152, 0.0
153, 0.0
154, 0.0
155, 0.0
156, 0.0
157, 0.0
158, 0.0
159, 0.0
160, 0.0
161, 0.0
162, 0.0
163, 0.0
164, 0.0
165, 0.0
166, 0.0
167, 0.0
168, 0.0
169, 0.0
170.0, 0.0008979431943256398
171.0, 0.010369946484780457
172.0, 0.023170444074810594
173.0, 0.034286123767516344
174.0, 0.039026735838046264
175.0, 0.03642072730197588
176.0, 0.035550398808778014
177.0, 0.022151161826540353
178.0, 0.018026248768793142
179.0, 0.018689252486293374
180.0, 0.010693594588600468
181.0, 0.006506330286042198
182.0, 0.01932803564622556
183.0, 0.027649936975399855
184.0, 0.01984554698689137
185.0, 0.010653132478861162
186.0, 0.011097884951387077
187.0, 0.013961164855924229
188.0, 0.01192586137384151
189.0, 0.0036060220818073525
190.0, 0.000424200174109877
191.0, 0.0007349048742452235
192.0, 0.0029043195872503424
193.0, 0.006524785663497957
194.0, 0.01054783975005511
195.0, 0.008793019557730835
196.0, 0.0021494348183276456
197.0, 0.0063058088871105426
198.0, 0.017648042199127065
199.0, 0.023258374731739175
200.0, 0.0318053853907259
201.0, 0.04608969902533648
202.0, 0.06084602379173003
203.0, 0.08018895979044875
204.0, 0.09432764239164591
205.0, 0.11012422258345274
206.0, 0.1336618971598699
207.0, 0.14667586275441513
208.0, 0.16501007716931737
209.0, 0.17412197152809902
210.0, 0.16882287609813076
211.0, 0.16758665889738728
212.0, 0.17121693391706225
213.0, 0.177700941119677
214.0, 0.1840818466062417
215.0, 0.18785775347508718
216.0, 0.20003360902563533
217.0, 0.20875674996524823
218.0, 0.2163252981175819
219.0, 0.22874651617458536
220.0, 0.245901785276759
221.0, 0.2624433281747732
222.0, 0.28837202328354455
223.0, 0.31732822760181173
224.0, 0.33534298373773397
225.0, 0.36013057983834473
226.0, 0.3868213979236113
227.0, 0.4161594019911434
228.0, 0.4475214538338838
229.0, 0.4656404691264021
230.0, 0.48824795153459966
231.0, 0.5033352895634997
232.0, 0.5087876567014515
233.0, 0.5133373079919363
234.0, 0.502272707108275
235.0, 0.48446657704995255
236.0, 0.4710588002128458
237.0, 0.46286223869560245
238.0, 0.4483963531284275
239.0, 0.4366385254798509
240.0, 0.43585998595701064
241.0, 0.44033501169631845
242.0, 0.44246575053973347
243.0, 0.4529826046766959
244.0, 0.4707795752774065
245.0, 0.4892942277835142
246.0, 0.5028279151193165
247.0, 0.5082804895588936
248.0, 0.5119643462952613
249.0, 0.515766317769018
250.0, 0.5167982529202474
251.0, 0.5115908141127438
252.0, 0.5008739303130967
253.0, 0.4974980504828463
254.0, 0.4932199028054473
255.0, 0.48004438620271433
256.0, 0.46193588586518897
257.0, 0.4435672103464176
258.0, 0.4211518777254383
259.0, 0.39130843804311133
260.0, 0.3539028342517901
261.0, 0.31357126036420785
262.0, 0.2745740396097053
263.0, 0.23697530849578544
264.0, 0.20336079540730792
265.0, 0.17689097285023428
266.0, 0.14352380262794806
267.0, 0.12127118068489182
268.0, 0.11048537802049964
269.0, 0.10488420047940712
270.0, 0.10092108721015601
271.0, 0.09369963759460538
272.0, 0.09689290937988365
273.0, 0.10499886544244186
274.0, 0.10415419193961856
275.0, 0.10352794248781669
276.0, 0.09605167418238283
277.0, 0.08547515469882334
278.0, 0.07009380975152876
279.0, 0.042217744460932606
280.0, 0.027458589827295612
281.0, 0.01448732342060235
282.0, 0.004584203067217655
283.0, 0.0017299486949441164
284.0, 0.0006141924171583847
285.0, 0.000697506203090695
286.0, 0.0007716804061657554
287.0, 0.001754030968960857
288.0, 0.00929669494779863
289.0, 0.013425957796410343
290.0, 0.018145801215648637
291.0, 0.017251832010947273
292.0, 0.010494336882666287
293.0, 0.007031174426152061
294.0, 0.004814972019419248
295.0, 0.0013840148578968998
296.0, 0.0003345273460841284
297.0, 0.005976324476738611
298.0, 0.018391846575108384
299.0, 0.02800617858265563
300.0, 0.04226128310472392
301.0, 0.059700076646549034
302.0, 0.07464212232172639
303.0, 0.09298170859672818
304.0, 0.10758986408420747
305.0, 0.11569654039594736
306.0, 0.12249602289283357
307.0, 0.13471095695625532
308.0, 0.1489209034285734
309.0, 0.1547675201943331
310.0, 0.15758616415257398
311.0, 0.1639978591283112
312.0, 0.17468061819882647
313.0, 0.18016411328630508
314.0, 0.17915835488422768
315.0, 0.182363233014604
316.0, 0.19217487409305592
317.0, 0.1939308164342862
318.0, 0.1948440620538532
319.0, 0.19605473363833423
320.0, 0.19614634088589555
321.0, 0.19489511593471073
322.0, 0.19746230312206683
323.0, 0.1978844769747426
324.0, 0.20488814573367464
325.0, 0.2191747710863989
326.0, 0.23380776689419117
327.0, 0.25023038543404824
328.0, 0.27282701811080556
329.0, 0.2950808687683287
330.0, 0.31921877762534334
331.0, 0.35086356701480026
332.0, 0.3696340653935979
333.0, 0.3846910207817573
334.0, 0.4016801656992624
335.0, 0.4196302551326743
336.0, 0.43393476986276613
337.0, 0.43325841416883853
338.0, 0.435947783390118
339.0, 0.4419517658147096
340.0, 0.44529330154358165
341.0, 0.4461598770115105
342.0, 0.45767058180693215
343.0, 0.47350115183349595
344.0, 0.48672966066791634
345.0, 0.4995755320823036
346.0, 0.5227963109552579
347.0, 0.5360350635343075
348.0, 0.5480454264055817
349.0, 0.5549216553190339
350.0, 0.548800772567461
351.0, 0.5327688762270275
352.0, 0.502002200918751
353.0, 0.4592073388551823
354.0, 0.4133543792712392
355.0, 0.37048617232836784
356.0, 0.3244514197282546
357.0, 0.28664060681986875
358.0, 0.25138940067238325
359.0, 0.2181622582835882
360.0, 0.19094975264689665
361.0, 0.1691559995287451
362.0, 0.15536694793130734
363.0, 0.14274699096758503
364.0, 0.13022622995097272
365.0, 0.12049434754896104
366.0, 0.1101705004560691
367.0, 0.10524561993638316
368.0, 0.09831457684194388
369.0, 0.08849571409937101
370.0, 0.08134271975532477
371.0, 0.07411039032483227
372.0, 0.0675113078916841
373.0, 0.05954433153286405
374.0, 0.05204715269487573
375.0, 0.04743346019236972
376.0, 0.04288726801423997
377.0, 0.036377091174928725
378.0, 0.027394334811057196
379.0, 0.018529167453127018
380.0, 0.012886765424122405
381.0, 0.011664000726164005
382.0, 0.004830180894425662
383.0, 0.000642065344384082
384.0, 0.0007533119076372041
385.0, 0.002065323980105134
386.0, 0.0039012549988466446
387.0, 0.00936306155915536
388.0, 0.012859247009860294
389.0, 0.015442816951185873
390.0, 0.01770139866273447
391.0, 0.014500228374550974
392.0, 0.018000705986918084
393.0, 0.018361183475503962
394.0, 0.011881022964953775
395.0, 0.003506692180307394
396.0, 0.0019704496044708696
397.0, 0.010045920690570235
398.0, 0.01790299239244529
399.0, 0.022068813738289193
400.0, 0.02221173978273767
401.0, 0.02114289952080333
402.0, 0.01799853595692355
403.0, 0.011976065713207428
404.0, 0.0034303631599885377
405.0, 0.00743261510278604
406.0, 0.017159734356475675
407.0, 0.03527647706575161
408.0, 0.04862103587503954
409.0, 0.058482996499718824
410.0, 0.0729189179842212
411.0, 0.09342262867389865
412.0, 0.11113413101637781
413.0, 0.13227586112543882
414.0, 0.15915871555859032
415.0, 0.18690054863463695
416.0, 0.21133038942534535
417.0, 0.24082416274092586
418.0, 0.27861806512227194
419.0, 0.31368021489521847
420.0, 0.34564720889612943
421.0, 0.3817825172452579
422.0, 0.4249151872215885
423.0, 0.46153969545206075
424.0, 0.49155167072258604
425.0, 0.5174744335550587
426.0, 0.5375932998077836
427.0, 0.5412805839048549
428.0, 0.5415738801341454
429.0, 0.5429922377533823
430.0, 0.5456431479453003
431.0, 0.5484545887179917
432.0, 0.5556298096065144
433.0, 0.5673622616097361
434.0, 0.572385666583673
435.0, 0.5797867980041282
436.0, 0.5930441750149882
437.0, 0.5998530041687503
438.0, 0.6103975458890553
439.0, 0.6122711042038963
440.0, 0.6167427388546621
441.0, 0.6241270909579423
442.0, 0.6236837617460695
443.0, 0.6259955741668459
444.0, 0.6307933634305947
445.0, 0.6313844735563207
446.0, 0.6332917767387614
447.0, 0.6462800054152409
448.0, 0.662228045857112
449.0, 0.6784297487785419
450.0, 0.6943587807406143
451.0, 0.7074205331890439
452.0, 0.7164890535591163
453.0, 0.7248687286874629
454.0, 0.7358717445202801
455.0, 0.7414315751168378
456.0, 0.7414925495561657
457.0, 0.743516825751327
458.0, 0.7503822964424283
459.0, 0.7502269366957003
460.0, 0.7452871875389518
461.0, 0.7465561301267511
462.0, 0.7477411431078989
463.0, 0.7453275987422585
464.0, 0.7508129299681603
465.0, 0.7367403651748555
466.0, 0.727307515139053
467.0, 0.714416603704003
468.0, 0.6871225382403807
469.0, 0.6524036991789699
470.0, 0.6181065616303136
471.0, 0.5583204847082458
472.0, 0.4963905721414971
473.0, 0.4390668259643277
474.0, 0.3801413801040544
475.0, 0.32283020352697606
476.0, 0.26668119594841594
477.0, 0.2143704123608744
478.0, 0.16832966294080928
479.0, 0.12987846241428275
480.0, 0.09893702411049395
481.0, 0.07671708304456157
482.0, 0.05653476080451024
483.0, 0.03975474617798507
484.0, 0.029102060785115912
485.0, 0.02448087858796842
486.0, 0.019299404433943533
487.0, 0.007262170463375358
488.0, 0.008638255113868003
489.0, 0.012160330632299229
490.0, 0.008145606165840657
491.0, 0.009444966290499979
492.0, 0.01180728140474178
493.0, 0.01836209856640226
494.0, 0.021374500372544267
495.0, 0.021413555142370796
496.0, 0.02452502511997612
497.0, 0.02861697623286237
498.0, 0.03818292927099524
499.0, 0.049721568290822485
500.0, 0.05611447554578797
501.0, 0.057990727499740095
502.0, 0.06667905106324186
503.0, 0.0722509377835833
504.0, 0.0780183142126219
505.0, 0.08441456874812168
506.0, 0.08867605644086249
507.0, 0.08876431564561754
508.0, 0.08633906295493553
509.0, 0.0884409185849229
510.0, 0.07944085412312187
511.0, 0.07108356359497152
512.0, 0.06726160399077553
513.0, 0.05495563767843812
514.0, 0.03971604105270881
515.0, 0.02648871794547453
516.0, 0.014260955955871
517.0, 0.0029774311928131344
518.0, 0.004560853707735719
519.0, 0.007991433463220541
520.0, 0.014865094016369288
521.0, 0.0191410936705516
522.0, 0.01870946754976521
523.0, 0.016017972340043422
524.0, 0.014371138633334791
525.0, 0.015401724326533141
526.0, 0.015735142735696855
527.0, 0.014443679965370585
528.0, 0.009812297638017458
529.0, 0.002712653952472803
530.0, 0.002573887434185184
531.0, 0.004600931484890827
532.0, 0.008885971555241122
533.0, 0.016987297765420423
534.0, 0.027061973261627376
535.0, 0.03648498878219036
536.0, 0.04401132163230754
537.0, 0.049977438623733855
538.0, 0.0573578125001246
539.0, 0.06433203372961017
540.0, 0.06700634455766351
541.0, 0.06852362377207635
542.0, 0.07771675838962361
543.0, 0.07888651000591378
544.0, 0.07595551834825266
545.0, 0.08354594591440413
546.0, 0.0944579271743113
547.0, 0.09685334575523218
548.0, 0.1020310203329149
549.0, 0.10679717929291503
550.0, 0.12047724850303193
551.0, 0.1313619424040628
552.0, 0.13571914557580433
553.0, 0.1392715702076075
554.0, 0.14345322435692387
555.0, 0.14484207563273865
556.0, 0.14201999160180212
557.0, 0.14390369225814975
558.0, 0.15196735942294748
559.0, 0.16063429897460044
560.0, 0.17162612014560144
561.0, 0.18400753316566112
562.0, 0.20129347131682213
563.0, 0.22276106337824475
564.0, 0.247350168041819
565.0, 0.27434959618283183
566.0, 0.2983357150470814
567.0, 0.3060689483206867
568.0, 0.29220586237183294
569.0, 0.25578480064165265
570.0, 0.20426777186199813
571.0, 0.14985893440918946
572.0, 0.10603517541276543
573.0, 0.07506126990811429
574.0, 0.05600400176657918
575.0, 0.04822995479914764
576.0, 0.05140649140745686
577.0, 0.06384462067609935
578.0, 0.07873193783235859
579.0, 0.10207145313846536
580.0, 0.12756919090010319
581.0, 0.16052807142902667
582.0, 0.20078270004346874
583.0, 0.24161432056296303
584.0, 0.2835132934638986
585.0, 0.3246896575898884
586.0, 0.3708289266347852
587.0, 0.42583556346500706
588.0, 0.47794295741285747
589.0, 0.5181819009992392
590.0, 0.5650051595063981
591.0, 0.6091702847499794
592.0, 0.6570804031725895
593.0, 0.703846324342169
594.0, 0.7488914314867364
595.0, 0.7949986488226981
596.0, 0.8379927284767806
597.0, 0.881284379159005
598.0, 0.9185731460430854
599.0, 0.9510788604833564
600.0, 0.9791989352164221
601.0, 0.9969606444141644
602.0, 0.9998304834020716
603.0, 0.9961419285513632
604.0, 0.9838862670296996
605.0, 0.9552417516997704
606.0, 0.9238328294705325
607.0, 0.8976184963612361
608.0, 0.8631660828346986
609.0, 0.8292317689459163
610.0, 0.7959812285866801
611.0, 0.7605741522949743
612.0, 0.730059923736537
613.0, 0.704369064831082
614.0, 0.6713762404204284
615.0, 0.6401053956124206
616.0, 0.6007289945275405
617.0, 0.566247795936381
618.0, 0.5333067087800843
619.0, 0.49865710906916344
620.0, 0.46792862360420756
621.0, 0.4393662070548232
622.0, 0.4062670806510639
623.0, 0.37934317707548354
624.0, 0.35439882560502284
625.0, 0.3277067472892162
626.0, 0.30552759381863326
627.0, 0.28913371693562323
628.0, 0.2643690146096022
629.0, 0.23831122726008017
630.0, 0.22041731212091942
631.0, 0.20511062522779858
632.0, 0.18784573915472202
633.0, 0.17482136934335796
634.0, 0.15748568921854908
635.0, 0.1399483891853937
636.0, 0.1276476347400316
637.0, 0.11827331201099535
638.0, 0.10507923531464317
639.0, 0.08958250947013677
640.0, 0.08487390361707595
641.0, 0.07870564270726706
642.0, 0.07329444062845562
643.0, 0.061503661812223595
644.0, 0.051740150426848416
645.0, 0.05315556727795059
646.0, 0.047655212489675775
647.0, 0.04564817209133245
648.0, 0.03608298343361975
649.0, 0.024772859343450134
650.0, 0.01867907924648678
651.0, 0.019283268693778652
652.0, 0.024973793170351904
653.0, 0.0313949535414124
654.0, 0.025370218879329182
655.0, 0.017094504845307723
656.0, 0.010859746257983815
657.0, 0.008686715388257356
658.0, 0.010649525156513689
659.0, 0.006572655303662418
660.0, 0.0029968996389721078
661.0, 0.0036246014208443644
662.0, 0.017639655124079442
663.0, 0.02845828688820272
664.0, 0.021655595821474954
665.0, 0.011329218610038454
666.0, 0.012451535309647089
667.0, 0.006279352480904634
668.0, 0.01150046909625203
669.0, 0.019750127732474167
670.0, 0.01682443910893241
671.0, 0.006070267029152289
672.0, 0.01009955152330172
673.0, 0.021329607101251747
674.0, 0.03501134431789211
675.0, 0.03359359066462721
676.0, 0.026296153766329888
677.0, 0.023026451033178946
678.0, 0.02606164890157505
679.0, 0.0377454395858982
680.0, 0.028141313018236216
681.0, 0.02734752243480918
682.0, 0.02757212083521195
683.0, 0.02694196694076899
684.0, 0.0303103974766995
685.0, 0.04057297781392179
686.0, 0.05465032485274571
687.0, 0.054134441886859244
688.0, 0.043022887421090616
689.0, 0.04661089506143845
690.0, 0.049591262671236924
691.0, 0.043331894971874854
692.0, 0.04189811487520682
693.0, 0.03715525235968696
694.0, 0.047027330774005
695.0, 0.03620028922288102
696.0, 0.027011252368027944
697.0, 0.024291093351449286
698.0, 0.018506327352310604
699.0, 0.014629835398027586
700.0, 0.004739588228507452
701.0, 0.0010370504186440175
702.0, 0.003749243871018356
703.0, 0.00457690687200004
704.0, 0.0045729207125747885
705.0, 0.004432439705062329
706.0, 0.004620201758415017
707.0, 0.007711165601426433
708.0, 0.0061063202918742844
709.0, 0.004846655743430201
710.0, 0.004839309628698201
711.0, 0.00386609663617556
712.0, 0.003456050046109164
713.0, 0.007034162365526124
714.0, 0.007200521916895118
715.0, 0.008009318318421693
716.0, 0.005412796406826138
717.0, 0.003501904239077834
718.0, 0.0041087784712874695
719.0, 0.003712642698442853
720.0, 0.0027791720746647903
721.0, 0.0035207252923573594
722.0, 0.001255604747523785
723.0, 0.00338837474864023
724.0, 0.003903798510935351
725.0, 0.003465385378345772
726.0, 0.005991106315204826
727.0, 0.004621347373574215
728.0, 0.005579441210055
729.0, 0.008618686804759839
730.0, 0.006368730318154335
731.0, 0.0036399077871636897
732.0, 0.007546950410499361
733.0, 0.012387031744137546
734.0, 0.009367759440014492
735.0, 0.01199218494544188
736.0, 0.01314201064066728
737.0, 0.01710364160491187
738.0, 0.018163267745147118
739.0, 0.017727902699616577
740.0, 0.02040340307110016
741.0, 0.02392482959453369
742.0, 0.02284711954276788
743.0, 0.025693192926475854
744.0, 0.026374130999585903
745.0, 0.02615296700318704
746.0, 0.030480834606445885
747.0, 0.03311297293083784
748.0, 0.029909653833142362
749.0, 0.03381448076753402
750.0, 0.033499625074403995
751.0, 0.03855585515870726
752.0, 0.042590175541866705
753.0, 0.04542757814484485
754.0, 0.04803864132196403
755.0, 0.049909434714820386
756.0, 0.05178011855793436
757.0, 0.0523658022245278
758.0, 0.05815724738908862
759.0, 0.060321977291037186
760.0, 0.06412578658181507
761.0, 0.06604060018299951
762.0, 0.06382329515983728
763.0, 0.06546943218611126
764.0, 0.06777529171076575
765.0, 0.0681848926488909
766.0, 0.0673973212904726
767.0, 0.06722033064802034
768.0, 0.06675270360262163
769.0, 0.06590969210636326
770.0, 0.0641098072830819
771.0, 0.0595111874547203
772.0, 0.05720002094902264
773.0, 0.0517502719878699
774.0, 0.0464769414399011
775.0, 0.041566087945311296
776.0, 0.037871172199413015
777.0, 0.034001992408250435
778.0, 0.028730087512708925
779.0, 0.025880713718101186
780.0, 0.015761582230718624
781.0, 0.016592228523835167
782.0, 0.01667640757759284
783.0, 0.012349798752566862
784.0, 0.008885156779150194
785.0, 0.00885709358298073
786.0, 0.009609465059683627
787.0, 0.007354070493095956
788.0, 0.004873871484859428
789.0, 0.0069255423778178
790.0, 0.0036050236907978236
791.0, 0.00033703368577148537
792.0, 0.0013201183159544942
793.0, 0.0019502257195347724
794.0, 0.0002977103303277397
795.0, 0.0019468229496941523
796.0, 0.001808851805870881
797.0, 0.002339448694538229
798.0, 0.0033718601824184635
799.0, 0.0031697705212730245
800.0, 0.0012321546263672105
801.0, 0.00039369793601283764
802.0, 0.0027181518467553757
803.0, 0.0011338833376535644
804.0, 0.0005093502510880633
805.0, 0.002306308523093864
806.0, 0.00046432176876266417
807.0, 0.0019218672691957382
808.0, 0.0008145819429069479
809.0, 0.0006148427149047862
810.0, 0.0048046253911247115
811.0, 0.005002883931836177
812.0, 0.004179669790398179
813.0, 0.005724747930844883
814.0, 0.00599297333023252
815.0, 0.00610052956886672
816.0, 0.005432575655310037
817.0, 0.004289519758927978
818.0, 0.007568693342072721
819.0, 0.00519945196152988
820.0, 0.00591615565496162
821.0, 0.008904610934972905
822.0, 0.010647263452109005
823.0, 0.010240595018299938
824.0, 0.00879451524884195
825.0, 0.00879532096530179
826.0, 0.011671798438727338
827.0, 0.010709288762827214
828.0, 0.009470455249424855
829.0, 0.010225577776959866
830.0, 0.012513547750199227
831.0, 0.012558945070060779
832.0, 0.01080350011728804
833.0, 0.009524165478623482
834.0, 0.007021225378711203
835.0, 0.005203897519328152
836.0, 0.004583475120142569
837.0, 0.007001842525688504
838.0, 0.004195489280658214
839.0, 0.0012607689674236282
840.0, 0.0005436151720858442
841.0, 0.0029835364039527074
842.0, 0.004559110191034603
843.0, 0.0020255954827400518
844.0, 0.0037946764776340316
845.0, 0.0005215022919014668
846.0, 0.0016708839561955287
847.0, 0.0026517049313146846
848.0, 0.0053251291217874894
849.0, 0.0038047110938750138
850.0, 0.006437258896481535
851.0, 0.004297971475387017
852.0, 0.008472377830649337
853.0, 0.011848628323834166
854.0, 0.01340409986465811
855.0, 0.014762374315642533
856.0, 0.016151465850857187
857.0, 0.01787378046975719
858.0, 0.020525962758642484
859.0, 0.023615587241697787
860.0, 0.02600487589991018
861.0, 0.029987070771278608
862.0, 0.03663320128309801
863.0, 0.04077228001970123
864.0, 0.044401994672127236
865.0, 0.04752536384752387
866.0, 0.05184285364436396
867.0, 0.05830892948686402
868.0, 0.06327535656531663
869.0, 0.06901597823159646
870.0, 0.07386573918869604
871.0, 0.0794684073934821
872.0, 0.08504276742126467
873.0, 0.09447411164951794
874.0, 0.10162156063838436
875.0, 0.10533824180841142
876.0, 0.11320910302762578
877.0, 0.11999909554161485
878.0, 0.1302490294829598
879.0, 0.1359928308546752
880.0, 0.1446573262643306
881.0, 0.14835942974285732
882.0, 0.15080112598913836
883.0, 0.15685396044699007
884.0, 0.16329426885105525
885.0, 0.16563584612664475
886.0, 0.16419273516407742
887.0, 0.17065486359642523
888.0, 0.17725710612971687
889.0, 0.1849515327929227
890.0, 0.19436514607822528
891.0, 0.20098506798611865
892.0, 0.21014637997836344
893.0, 0.22473184259869694
894.0, 0.23823263808183376
895.0, 0.25092687038433675
896.0, 0.2685350900792674
897.0, 0.2867052894266045
898.0, 0.3077613157839926
899.0, 0.3411023026254926
900.0, 0.363568543130185
901.0, 0.38823487285136343
902.0, 0.42624237721351843
903.0, 0.4611883412941711
904.0, 0.5071568941769976
905.0, 0.5406175462892306
906.0, 0.5683553263586304
907.0, 0.5984090910062845
908.0, 0.6229582952484148
909.0, 0.6510366767540617
910.0, 0.6805707170154339
911.0, 0.7039903675120097
912.0, 0.7204920900546924
913.0, 0.7308463618932759
914.0, 0.7327176982991861
915.0, 0.7273811839922222
916.0, 0.7194239309360794
917.0, 0.699446127843689
918.0, 0.6724025059841453
919.0, 0.6351508609686295
920.0, 0.5895948473647882
921.0, 0.5429724222835894
922.0, 0.49401269974245865
923.0, 0.4446000651733294
924.0, 0.3943069034154655
925.0, 0.34863399425871694
926.0, 0.3108613392955128
927.0, 0.2751708031496622
928.0, 0.24199589427490795
929.0, 0.20637375718271025
930.0, 0.17561088603533132
931.0, 0.15149744551156102
932.0, 0.12461182601482858
933.0, 0.1081223645405581
934.0, 0.08815007491882104
935.0, 0.07248201359257918
936.0, 0.06110377069888734
937.0, 0.04842152816393989
938.0, 0.034932504441809197
939.0, 0.027220587546474773
940.0, 0.024707057222700352
941.0, 0.021063376716657912
942.0, 0.015222981047343355
943.0, 0.0059295403974570305
944.0, 0.00999999257523769
945.0, 0.01008497346101952
946.0, 0.008533436369507243
947.0, 0.014105265839119528
948.0, 0.013770302363696824
949.0, 0.013975497829001525
950.0, 0.01782829789307988
951.0, 0.017814951894713917
952.0, 0.019026144755095238
953.0, 0.02272208020104152
954.0, 0.025077015402767164
955.0, 0.025924957460205903
956.0, 0.027911390209957414
957.0, 0.030452285020032912
958.0, 0.030128437585738344
959.0, 0.02795449031123121
960.0, 0.027817052952983173
961.0, 0.028509837438307536
962.0, 0.02727483102687549
963.0, 0.028393276283711154
964.0, 0.029255224726626432
965.0, 0.030214712172445257
966.0, 0.03240231274421087
967.0, 0.03796760014050058
968.0, 0.03750121613852134
969.0, 0.043612482791859954
970.0, 0.051019888028878566
971.0, 0.05375621292886322
972.0, 0.060805807744248486
973.0, 0.06770758142760376
974.0, 0.07420454402139183
975.0, 0.0812711838980235
976.0, 0.08723059781423942
977.0, 0.094181557181968
978.0, 0.09865850534062719
979.0, 0.10223286242863915
980.0, 0.10560775544351923
981.0, 0.10735417567598093
982.0, 0.10607683437247119
983.0, 0.0999142783892416
984.0, 0.09012262185811845
985.0, 0.0793944544729745
986.0, 0.06535129856095925
987.0, 0.053202149560107964
988.0, 0.04241867938359376
989.0, 0.03492169100010532
990.0, 0.02667208082932149
991.0, 0.01975078443135211
992.0, 0.013530060433862873
993.0, 0.006295239534618502
994.0, 0.005303921545465273
995.0, 0.004618863513461349
996.0, 0.002157669118636163
997.0, 0.0009727414794315308
998.0, 0.0003329103639106153
999.0, 0.0024351022702218806
1000.0, 0.005291211509748823
1001.0, 0.005197645414462455
1002.0, 0.0052481437287455746
1003.0, 0.007176795256752829
1004.0, 0.007522747991898897
1005.0, 0.006125047628537116
1006.0, 0.005998767219389722
1007.0, 0.003012786040917985
1008.0, 0.005348234699599659
1009.0, 0.004993174343881862
1010.0, 0.0023189979179573266
1011.0, 0.0009902354273247087
1012.0, 0.000711134606885341
1013.0, 0.00155962414325176
1014.0, 0.0028309057318943428
1015.0, 0.006966867318812755
1016.0, 0.008663136045772403
1017.0, 0.008851975104875478
1018.0, 0.008411732502957623
1019.0, 0.00955336905625925
1020.0, 0.012083521964592833
1021.0, 0.014929132373973523
1022.0, 0.01796809578525426
1023.0, 0.016307688771787072
1024.0, 0.017816608538235742
1025.0, 0.020695883834808422
1026.0, 0.020815043401572562
1027.0, 0.02093414037914851
1028.0, 0.02157619338607182
1029.0, 0.025879726624172435
1030.0, 0.026959433062292815
1031.0, 0.029330318934738735
1032.0, 0.028688818784782213
1033.0, 0.03293253153352052
1034.0, 0.03247096579651037
1035.0, 0.035913476281731846
1036.0, 0.03991238070293159
1037.0, 0.042510604408098895
1038.0, 0.04465526383174873
1039.0, 0.04687534215009552
1040.0, 0.05080709465620411
1041.0, 0.04921047559457788
1042.0, 0.05238018974666438
1043.0, 0.055311459418704245
1044.0, 0.05303448502419552
1045.0, 0.0573051813020108
1046.0, 0.053098882216327095
1047.0, 0.052710500874984856
1048.0, 0.05440419271136768
1049.0, 0.05314475605170129
1050.0, 0.050966117226352775
1051.0, 0.05165486859312745
1052.0, 0.05350526268371562
1053.0, 0.050475709052269814
1054.0, 0.04742934828275257
1055.0, 0.043461729000850075
1056.0, 0.043818368904737476
1057.0, 0.04295715693936972
1058.0, 0.04322149336929897
1059.0, 0.040623710200927095
1060.0, 0.040318712416857715
1061.0, 0.040352564064267384
1062.0, 0.037647564322621056
1063.0, 0.0358516678300869
1064.0, 0.03548736870357966
1065.0, 0.0332691515207258
1066.0, 0.0305913260489568
1067.0, 0.03160409448634396
1068.0, 0.034511243834414854
1069.0, 0.037413938626787935
1070.0, 0.04153840473599091
1071.0, 0.049291294615805184
1072.0, 0.05141870627488411
1073.0, 0.05721225420186317
1074.0, 0.06735554864259874
1075.0, 0.07590581586325487
1076.0, 0.08527197753212494
1077.0, 0.09903583853216219
1078.0, 0.10957980168173892
1079.0, 0.11283177613069822
1080.0, 0.12085251961828243
1081.0, 0.12872652452436087
1082.0, 0.1349815742891355
1083.0, 0.14446043733847416
1084.0, 0.15223626332863976
1085.0, 0.15687689013174722
1086.0, 0.16196233411056674
1087.0, 0.16409940014263744
1088.0, 0.1611070229368259
1089.0, 0.15635502043022068
1090.0, 0.14802134846393944
1091.0, 0.13182634979980576
1092.0, 0.11221875101474109
1093.0, 0.09642624966522877
1094.0, 0.08340222033487017
1095.0, 0.06443062957174828
1096.0, 0.05498038822761261
1097.0, 0.04161260102371617
1098.0, 0.03488214480847603
1099.0, 0.029527331641354106
1100.0, 0.022688901540993067
1101.0, 0.0186639943853561
1102.0, 0.016734790772233925
1103.0, 0.015745350325044153
1104.0, 0.013858902611019307
1105.0, 0.010499365085800155
1106.0, 0.009317519909084573
1107.0, 0.010552679187867503
1108.0, 0.007337626219532913
1109.0, 0.005701909608509076
1110.0, 0.00786492660678516
1111.0, 0.0037835523937754766
1112.0, 0.0036215730930331236
1113.0, 0.005944792841382784
1114.0, 0.008814210824232732
1115.0, 0.007148749891370179
1116.0, 0.004494267708784811
1117.0, 0.0028779945015482093
1118.0, 0.002859965266884731
1119.0, 0.002090394254878477
1120.0, 0.0009555360845049773
1121.0, 0.000779180321588132
1122.0, 0.0006828282969233538
1123.0, 0.003761682009899616
1124.0, 0.0052016406254073045
1125.0, 0.0029451435012562374
1126.0, 0.0010636386890162971
1127.0, 0.0008114667319798567
1128.0, 0.003428189137241027
1129.0, 0.0020735986826542936
1130.0, 0.0009385360706749838
1131.0, 0.0009415120039248217
1132.0, 0.0032954728153238664
1133.0, 0.0027098144951553924
1134.0, 0.00217482211657641
1135.0, 0.0012846424450093999
1136.0, 0.0007216575128364289
1137.0, 0.0020240714448072437
1138.0, 0.0017287305417426628
1139.0, 0.0006923999611085615
1140.0, 0.003793157366724552
1141.0, 0.004191640309780467
1142.0, 0.0008035076526995233
1143.0, 4.959134736177951e-05
1144.0, 0.0005855671419393662
1145.0, 0.003565097316423068
1146.0, 0.0020465612055364808
1147.0, 6.218793938727742e-05
1148.0, 0.000319994126152138
1149.0, 0.0003748120335973461
1150.0, 0.0005734092772481924
1151.0, 0.0014935744284542893
1152.0, 0.0009626845157162873
1153.0, 0.0021516636865951014
1154.0, 0.0006842602895506481
1155.0, 0.00016199897583999215
1156.0, 0.0020084886748961443
1157.0, 0.0015119587377539659
1158.0, 0.000377238807366576
1159.0, 0.0019061886632947196
1160.0, 0.0016911461299380802
1161.0, 0.0015992762224146726
1162.0, 0.0017165671811807453
1163.0, 0.0001893707717595385
1164.0, 0.007064641029382519
1165.0, 0.0074558681702493025
1166.0, 0.0036928067954786884
1167.0, 0.002569380054099807
1168.0, 0.0014544353548962673
1169.0, 0.0017294430434041024
1170.0, 0.0034733561402520924
1171.0, 0.0046842321954253495
1172.0, 0.002065623665946935
1173.0, 0.0031979013426287634
1174.0, 0.003115946533040902
1175.0, 0.00435676036009088
1176.0, 0.00588687053254214
1177.0, 0.004628794420744194
1178.0, 0.0035986175886585686
1179.0, 0.003451872357090953
1180.0, 0.004924509556143646
1181.0, 0.0035506923104066867
1182.0, 0.005242340732427008
1183.0, 0.006717579279558493
1184.0, 0.004543488687073794
1185.0, 0.004379799603235368
1186.0, 0.006909307653640121
1187.0, 0.006721086365686919
1188.0, 0.004582460200049676
1189.0, 0.005245562290431145
1190.0, 0.0067608079774819025
1191.0, 0.005538991416898392
1192.0, 0.005685193334702306
1193.0, 0.004589729807698907
1194.0, 0.0061437704453343464
1195.0, 0.006322469859218846
1196.0, 0.0036413981159684095
1197.0, 0.0056562509941831905
1198.0, 0.006269532218313617
1199.0, 0.006006482148052666
1200.0, 0.003999237375878198
1201.0, 0.003961224570222135
1202.0, 0.005238805981556349
1203.0, 0.006725618312095746
1204.0, 0.007595659089100156
1205.0, 0.007665873585836393
1206.0, 0.007268816243907866
1207.0, 0.005297650861175147
1208.0, 0.0047776359562064
1209.0, 0.006695883886840445
1210.0, 0.007036858619585004
1211.0, 0.0043344250787782194
1212.0, 0.004802952295862459
1213.0, 0.006625517023859563
1214.0, 0.005781372558028652
1215.0, 0.0054943560003360105
1216.0, 0.0072569253774659535
1217.0, 0.005907806513670221
1218.0, 0.00440785366094501
1219.0, 0.0005806208343895212
1220.0, 0.0028795264142076832
1221.0, 0.0016062122325066176
1222.0, 0.000671375537583833
1223.0, 0.003874816215601927
1224.0, 0.002827666472282599
1225.0, 0.0024270305173955268
1226.0, 0.00196236049553032
1227.0, 0.0014740766877722432
1228.0, 0.0029806659478929737
1229.0, 0.0016096475284505232
1230.0, 0.0027993634588068654
1231.0, 0.0011582177886920667
1232.0, 0.0024138334098683174
1233.0, 0.0019129561881708933
1234.0, 0.0041308173712107975
1235.0, 0.003350877163269625
1236.0, 0.004064163382602862
1237.0, 0.0023220432612431645
1238.0, 0.007193831665396337
1239.0, 0.005864557249588887
1240.0, 0.003680870102206384
1241.0, 0.0035130677679812324
1242.0, 0.0007943349228674291
1243.0, 0.001209890081617029
1244.0, 0.004904497232240624
1245.0, 0.004860478937968888
1246.0, 0.00227792908525785
1247.0, 0.002982817395882951
1248.0, 0.0035994321795567836
1249.0, 0.0036729197092725107
1250.0, 0.005003088350417544
1251.0, 0.004988938450853329
1252.0, 0.0015216841744831856
1253.0, 0.0015807520583187424
1254.0, 0.005049716052999732
1255.0, 0.004085778307165775
1256.0, 0.004012267463356778
1257.0, 0.0052648032320830275
1258.0, 0.004870901133136228
1259.0, 0.0050977431154943555
1260.0, 0.0005660553417723367
1261.0, 0.0013381699770328678
1262.0, 0.0037897812485703087
1263.0, 0.004964184165990435
1264.0, 0.005323842129692079
1265.0, 0.0026243218518662128
1266.0, 0.0037808800819660775
1267.0, 0.004554548421981706
1268.0, 0.004494132467905582
1269.0, 0.002385382830171054
1270.0, 0.00391382694339931
1271.0, 0.001942180048948914
1272.0, 0.0016485976461830811
1273.0, 0.0018729342500665342
1274.0, 0.0010357038420649532
1275.0, 0.0011186756000316491
1276.0, 0.0016919399035067303
1277.0, 0.0010721044349487508
1278.0, 0.00216773278724055
1279.0, 0.00154611604658834
1280.0, 0.0008557649119888507
1281.0, 0.0029445124419400525
1282.0, 0.004773053527325106
1283.0, 0.004500542115316952
1284.0, 0.0019555621453380624
1285.0, 5.1425111141067286e-05
1286.0, 0.00012085993772804345
1287, 0.0
1288, 0.0
1289, 0.0
1290, 0.0
1291, 0.0
1292, 0.0
1293, 0.0
1294, 0.0
1295, 0.0
1296, 0.0
1297, 0.0
1298, 0.0
1299, 0.0
1300, 0.0
1301, 0.0
1302, 0.0
1303, 0.0
1304, 0.0
1305, 0.0
1306, 0.0
1307, 0.0
1308, 0.0
1309, 0.0
1310, 0.0
1311, 0.0
1312, 0.0
1313, 0.0
1314, 0.0
1315, 0.0
1316, 0.0
1317, 0.0
1318, 0.0
1319, 0.0
1320, 0.0
1321, 0.0
1322, 0.0
1323, 0.0
1324, 0.0
1325, 0.0
1326, 0.0
1327, 0.0
1328, 0.0
1329, 0.0
1330, 0.0
1331, 0.0
1332, 0.0
1333, 0.0
1334, 0.0
1335, 0.0
1336, 0.0
1337, 0.0
1338, 0.0
1339, 0.0
1340, 0.0
1341, 0.0
1342, 0.0
1343, 0.0
1344, 0.0
1345, 0.0
1346, 0.0
1347, 0.0
1348, 0.0
1349, 0.0
1350, 0.0
1351, 0.0
1352, 0.0
1353, 0.0
1354, 0.0
1355, 0.0
1356, 0.0
1357, 0.0
1358, 0.0
1359, 0.0
1360, 0.0
1361, 0.0
1362, 0.0
1363, 0.0
1364, 0.0
1365, 0.0
1366, 0.0
1367, 0.0
1368, 0.0
1369, 0.0
1370, 0.0
1371, 0.0
1372, 0.0
1373, 0.0
1374, 0.0
1375, 0.0
1376, 0.0
1377, 0.0
1378, 0.0
1379, 0.0
1380, 0.0
1381, 0.0
1382, 0.0
1383, 0.0
1384, 0.0
1385, 0.0
1386, 0.0
1387, 0.0
1388, 0.0
1389, 0.0
1390, 0.0
1391, 0.0
1392, 0.0
1393, 0.0
1394, 0.0
1395, 0.0
1396, 0.0
1397, 0.0
1398, 0.0
1399, 0.0
1400, 0.0
1401, 0.0
1402, 0.0
1403, 0.0
1404, 0.0
1405, 0.0
1406, 0.0
1407, 0.0
1408, 0.0
1409, 0.0
1410, 0.0
1411, 0.0
1412, 0.0
1413, 0.0
1414, 0.0
1415, 0.0
1416, 0.0
1417, 0.0
1418, 0.0
1419, 0.0
1420, 0.0
1421, 0.0
1422, 0.0
1423, 0.0
1424, 0.0
1425, 0.0
1426, 0.0
1427, 0.0
1428, 0.0
1429, 0.0
1430, 0.0
1431, 0.0
1432, 0.0
1433, 0.0
1434, 0.0
1435, 0.0
1436, 0.0
1437, 0.0
1438, 0.0
1439, 0.0
1440, 0.0
1441, 0.0
1442, 0.0
1443, 0.0
1444, 0.0
1445, 0.0
1446, 0.0
1447, 0.0
1448, 0.0
1449, 0.0
1450, 0.0
1451, 0.0
1452, 0.0
1453, 0.0
1454, 0.0
1455, 0.0
1456, 0.0
1457, 0.0
1458, 0.0
1459, 0.0
1460, 0.0
1461, 0.0
1462, 0.0
1463, 0.0
1464, 0.0
1465, 0.0
1466, 0.0
1467, 0.0
1468, 0.0
1469, 0.0
1470, 0.0
1471, 0.0
1472, 0.0
1473, 0.0
1474, 0.0
1475, 0.0
1476, 0.0
1477, 0.0
1478, 0.0
1479, 0.0
1480, 0.0
1481, 0.0
1482, 0.0
1483, 0.0
1484, 0.0
1485, 0.0
1486, 0.0
1487, 0.0
1488, 0.0
1489, 0.0
1490, 0.0
1491, 0.0
1492, 0.0
1493, 0.0
1494, 0.0
1495, 0.0
1496, 0.0
1497, 0.0
1498, 0.0
1499, 0.0
1500, 0.0
1501, 0.0
1502, 0.0
1503, 0.0
1504, 0.0
1505, 0.0
1506, 0.0
1507, 0.0
1508, 0.0
1509, 0.0
1510, 0.0
1511, 0.0
1512, 0.0
1513, 0.0
1514, 0.0
1515, 0.0
1516, 0.0
1517, 0.0
1518, 0.0
1519, 0.0
1520, 0.0
1521, 0.0
1522, 0.0
1523, 0.0
1524, 0.0
1525, 0.0
1526, 0.0
1527, 0.0
1528, 0.0
1529, 0.0
1530, 0.0
1531, 0.0
1532, 0.0
1533, 0.0
1534, 0.0
1535, 0.0
1536, 0.0
1537, 0.0
1538, 0.0
1539, 0.0
1540, 0.0
1541, 0.0
1542, 0.0
1543, 0.0
1544, 0.0
1545, 0.0
1546, 0.0
1547, 0.0
1548, 0.0
1549, 0.0
1550, 0.0
1551, 0.0
1552, 0.0
1553, 0.0
1554, 0.0
1555, 0.0
1556, 0.0
1557, 0.0
1558, 0.0
1559, 0.0
1560, 0.0
1561, 0.0
1562, 0.0
1563, 0.0
1564, 0.0
1565, 0.0
1566, 0.0
1567, 0.0
1568, 0.0
1569, 0.0
1570, 0.0
1571, 0.0
1572, 0.0
1573, 0.0
1574, 0.0
1575, 0.0
1576, 0.0
1577, 0.0
1578, 0.0
1579, 0.0
1580, 0.0
1581, 0.0
1582, 0.0
1583, 0.0
1584, 0.0
1585, 0.0
1586, 0.0
1587, 0.0
1588, 0.0
1589, 0.0
1590, 0.0
1591, 0.0
1592, 0.0
1593, 0.0
1594, 0.0
1595, 0.0
1596, 0.0
1597, 0.0
1598, 0.0
1599, 0.0
