30, 0.0
31, 0.0
32, 0.0
33, 0.0
34, 0.0
35, 0.0
36, 0.0
37, 0.0
38, 0.0
39, 0.0
40, 0.0
41, 0.0
42, 0.0
43, 0.0
44, 0.0
45, 0.0
46, 0.0
47, 0.0
48, 0.0
49, 0.0
50, 0.0
51, 0.0
52.0, 0.0015216898389152358
53.0, 0.0055359435636306254
54.0, 0.017076947651302094
55.0, 0.027651516016801832
56.0, 0.033972598369116196
57.0, 0.03251054985850039
58.0, 0.036048543181106445
59.0, 0.03611834113794283
60.0, 0.03283165767981456
61.0, 0.029209483831454316
62.0, 0.021072418038835132
63.0, 0.011666864740664692
64.0, 0.0029132647353276742
65.0, 0.0015713297459191255
66.0, 0.0019085516770928927
67.0, 0.002833912648637864
68.0, 0.0011550452439471398
69.0, 0.0003750642455493735
70.0, 0.00145899222868751
71.0, 0.005451839780140103
72.0, 0.008650328688965998
73.0, 0.014921669854048553
74.0, 0.023246027639192837
75.0, 0.02921003891675393
76.0, 0.0370470213082874
77.0, 0.04656891921330861
78.0, 0.05799875615689923
79.0, 0.07894474951888035
80.0, 0.10944662077510336
81.0, 0.14852814757840627
82.0, 0.19544666355563173
83.0, 0.2452902365968632
84.0, 0.29220017377554386
85.0, 0.33314657872563763
86.0, 0.3740152700054813
87.0, 0.4098178365823232
88.0, 0.44043147148016587
89.0, 0.4641107014428678
90.0, 0.4788841035896059
91.0, 0.48544666469882797
92.0, 0.4831084484624223
93.0, 0.46745536581223557
94.0, 0.44017737440511584
95.0, 0.40565803984051996
96.0, 0.37025683635460116
97.0, 0.3318760560733669
98.0, 0.294926311730623
99.0, 0.2603425986878075
100.0, 0.22358338812643833
101.0, 0.18794019536228995
102.0, 0.15475101351537418
103.0, 0.12669427877927417
104.0, 0.10746354140027813
105.0, 0.09757853032885187
106.0, 0.09476199181170734
107.0, 0.0765172523076846
108.0, 0.06288881968607722
109.0, 0.0508738404571931
110.0, 0.03804271231169103
111.0, 0.032031405149696004
112.0, 0.02923374985137684
113.0, 0.02921408251740378
114.0, 0.031992162196310125
115.0, 0.03666434613825389
116.0, 0.042116498720437
117.0, 0.04781297177995136
118.0, 0.03925466009036307
119.0, 0.03420254783974599
120.0, 0.03235257754767767
121.0, 0.03159762279124057
122.0, 0.03207912259144498
123.0, 0.03496126536886601
124.0, 0.04086331866821713
125.0, 0.046434094835460925
126.0, 0.05398124983656429
127.0, 0.06211942034615547
128.0, 0.06848868424738865
129.0, 0.07991234094729929
130.0, 0.0875490984767491
131.0, 0.0895955402765929
132.0, 0.088561201183186
133.0, 0.08307991845041822
134.0, 0.0766121078091425
135.0, 0.07243845847417972
136.0, 0.06418644651053061
137.0, 0.05724760759843386
138.0, 0.05106557169251294
139.0, 0.04047830324200883
140.0, 0.0325634695271511
141.0, 0.025342975499131493
142.0, 0.01784405134640156
143.0, 0.011999314912685938
144.0, 0.008419472772554977
145.0, 0.006597060316780887
146.0, 0.005732366609139233
147.0, 0.004321657956763787
148.0, 0.002785201011436241
149.0, 0.0012702332402890445
150.0, 0.00035596453060052934
151.0, 0.0007019780351629994
152.0, 0.0021432106376981564
153.0, 0.004772398787468129
154.0, 0.009624801703003515
155.0, 0.014819228938711834
156.0, 0.020653616316042598
157.0, 0.029903328974911107
158.0, 0.039097846367790276
159.0, 0.04930772537104389
160.0, 0.06127729113961864
161.0, 0.07932897335557974
162.0, 0.0965013305235148
163.0, 0.11419078264248789
164.0, 0.13592020568854302
165.0, 0.15954661503137477
166.0, 0.18236750141090466
167.0, 0.20349338696539046
168.0, 0.2208683002350267
169.0, 0.2353179612899607
170.0, 0.2471148529394427
171.0, 0.25591918378237
172.0, 0.2545450819254447
173.0, 0.2475284451332901
174.0, 0.23589394014530532
175.0, 0.22128799662217727
176.0, 0.1996722621220585
177.0, 0.17965238722738733
178.0, 0.1647210418918696
179.0, 0.14896608145956
180.0, 0.1360101332607197
181.0, 0.12647336847856466
182.0, 0.12213906152185601
183.0, 0.11776850737699543
184.0, 0.11282759301855734
185.0, 0.1077589622554745
186.0, 0.10556765315329988
187.0, 0.09761905717884854
188.0, 0.08895253407313344
189.0, 0.08234869453716429
190.0, 0.07032475162732414
191.0, 0.06609985889657415
192.0, 0.06457011637456654
193.0, 0.05569587833703061
194.0, 0.040236950186269174
195.0, 0.028625609101224532
196.0, 0.022868180384841837
197.0, 0.021472244187728237
198.0, 0.02199045838451649
199.0, 0.02424023290142538
200.0, 0.02837388136876783
201.0, 0.03110216669913589
202.0, 0.02896014791705222
203.0, 0.025243473665604452
204.0, 0.027667493157798928
205.0, 0.026561433370139984
206.0, 0.024920093230935338
207.0, 0.023935307178474224
208.0, 0.028053595494638317
209.0, 0.03124034263571135
210.0, 0.02951208123605091
211.0, 0.018963706157503313
212.0, 0.02219973108345974
213.0, 0.02636251449559778
214.0, 0.03193787390056536
215.0, 0.04156383422336863
216.0, 0.052765901108789245
217.0, 0.06290703635398079
218.0, 0.07217371273469182
219.0, 0.08803812369223116
220.0, 0.10493171017197334
221.0, 0.12381968596531757
222.0, 0.14571713222969385
223.0, 0.16575858332375798
224.0, 0.1873297765241059
225.0, 0.20757808098397484
226.0, 0.21973184351940764
227.0, 0.23073952431264663
228.0, 0.24044253488422482
229.0, 0.24811585556586851
230.0, 0.24893792681881843
231.0, 0.24946376267191486
232.0, 0.24830170319351927
233.0, 0.24439892215986012
234.0, 0.23958840857074923
235.0, 0.23953482145802188
236.0, 0.2410510623501385
237.0, 0.23867272477173254
238.0, 0.24356177202244553
239.0, 0.24515977383628937
240.0, 0.24335428288726274
241.0, 0.2458588035026155
242.0, 0.23994515275957762
243.0, 0.23142748271930125
244.0, 0.22269848333325112
245.0, 0.21080301865833165
246.0, 0.19587340816206675
247.0, 0.18180830634036485
248.0, 0.17365775924566793
249.0, 0.162390870353681
250.0, 0.15459173811793642
251.0, 0.14940284395046638
252.0, 0.14234637835054112
253.0, 0.13612396948123967
254.0, 0.13264277841125421
255.0, 0.13152331761392108
256.0, 0.12113197000480867
257.0, 0.11271962698664627
258.0, 0.10373416248987062
259.0, 0.09211011128756572
260.0, 0.08400046210069569
261.0, 0.07498641028131253
262.0, 0.06689580507713513
263.0, 0.06369019777697855
264.0, 0.058804709556126274
265.0, 0.0566132452070121
266.0, 0.0578225656683101
267.0, 0.062410639464695015
268.0, 0.06836571722084281
269.0, 0.07778849216900047
270.0, 0.09117342577115363
271.0, 0.09456154382903231
272.0, 0.1012469859332839
273.0, 0.1062693688272933
274.0, 0.1042200798915872
275.0, 0.10481520135674825
276.0, 0.09798687269606304
277.0, 0.08546996941952062
278.0, 0.07189278627071623
279.0, 0.0617105608820263
280.0, 0.050056696058794606
281.0, 0.03718578722030265
282.0, 0.03068782870681389
283.0, 0.0222133298884678
284.0, 0.01654608624615871
285.0, 0.016170365294972486
286.0, 0.019497644199951616
287.0, 0.02137343880908604
288.0, 0.0226425281482146
289.0, 0.024130965977199922
290.0, 0.03080623312658325
291.0, 0.03340101497306825
292.0, 0.03385222859104479
293.0, 0.03770231653730517
294.0, 0.037223347178088485
295.0, 0.03701354780012535
296.0, 0.036721964277712106
297.0, 0.029731063714955534
298.0, 0.0272635580279733
299.0, 0.026397378112838047
300.0, 0.025873436013042452
301.0, 0.02417859871899611
302.0, 0.023444744335818442
303.0, 0.024387765248456334
304.0, 0.027844145372776682
305.0, 0.028958662457325465
306.0, 0.031212131475746793
307.0, 0.03418743350480875
308.0, 0.03702002837769509
309.0, 0.0393583560107372
310.0, 0.042318488921489046
311.0, 0.04526742982916548
312.0, 0.04529635145828464
313.0, 0.04723874935624626
314.0, 0.04774627178426974
315.0, 0.04610986022004738
316.0, 0.04539022698582648
317.0, 0.04338293981404606
318.0, 0.041991449376073006
319.0, 0.04241774167624913
320.0, 0.04583184926759474
321.0, 0.0462842920218214
322.0, 0.04610508724758993
323.0, 0.0478830459504513
324.0, 0.0482456540052976
325.0, 0.04833287268648959
326.0, 0.04838363434608685
327.0, 0.04876291375373557
328.0, 0.04901261281530725
329.0, 0.04964219287034763
330.0, 0.05067492562737879
331.0, 0.05190338869322634
332.0, 0.05147786616237905
333.0, 0.053316669900833155
334.0, 0.05792206394444048
335.0, 0.05863249300262634
336.0, 0.06483097577633545
337.0, 0.07247864071097863
338.0, 0.07969786914108512
339.0, 0.09512050428596208
340.0, 0.11403498170761758
341.0, 0.13583422940658466
342.0, 0.16020398680272915
343.0, 0.18721533198783957
344.0, 0.21594882377488342
345.0, 0.24356475394802501
346.0, 0.26511366575980566
347.0, 0.28537655040284776
348.0, 0.2974212271527992
349.0, 0.3020730432031444
350.0, 0.3032151588574705
351.0, 0.29288201028402344
352.0, 0.2721468512777355
353.0, 0.2436471463478606
354.0, 0.21957560692744088
355.0, 0.19072999129031318
356.0, 0.1603572929326528
357.0, 0.13043594600590652
358.0, 0.10895167405830125
359.0, 0.08730257716629435
360.0, 0.0681323433767128
361.0, 0.05310208861919323
362.0, 0.03908901109129173
363.0, 0.02909326212259649
364.0, 0.022204045113919525
365.0, 0.017788369166385546
366.0, 0.00692218416697777
367.0, 0.002660279462479554
368.0, 0.004377538635579084
369.0, 0.01122099891709224
370.0, 0.014569657191730033
371.0, 0.019573197216487103
372.0, 0.024901088463354842
373.0, 0.026515160524764044
374.0, 0.025228335916119837
375.0, 0.025748093931343856
376.0, 0.026844399526667072
377.0, 0.021561438702296168
378.0, 0.018383442488414246
379.0, 0.014684247163392056
380.0, 0.010234104956481277
381.0, 0.007523967523958643
382.0, 0.013528036120414732
383.0, 0.023452896705064872
384.0, 0.0355521384013845
385.0, 0.04965294104678804
386.0, 0.06374796943840406
387.0, 0.07469045207838265
388.0, 0.08088194141451592
389.0, 0.08855129678595401
390.0, 0.09097162494427555
391.0, 0.09077838401589469
392.0, 0.08983097938173029
393.0, 0.08015147913205864
394.0, 0.07201410961518907
395.0, 0.06462907021763793
396.0, 0.057160165128171896
397.0, 0.04390248273476879
398.0, 0.035252236641146316
399.0, 0.028396742493568595
400.0, 0.018702296360812512
401.0, 0.014861483652789416
402.0, 0.01396818137890034
403.0, 0.013973471103574931
404.0, 0.011261865124088262
405.0, 0.012950364253344511
406.0, 0.015419435263311602
407.0, 0.018914873240720005
408.0, 0.025404538628692745
409.0, 0.033481929723845096
410.0, 0.03845534632911808
411.0, 0.040822727016485365
412.0, 0.04530575761394703
413.0, 0.05834433534274391
414.0, 0.0706148465495564
415.0, 0.08067863909898187
416.0, 0.09263817495346109
417.0, 0.10749731928755264
418.0, 0.12559747404559213
419.0, 0.1465527111970985
420.0, 0.16687626040930745
421.0, 0.18522568392737307
422.0, 0.20876727951498747
423.0, 0.23884288192860204
424.0, 0.26098462136675815
425.0, 0.2796531168636902
426.0, 0.30170591481764303
427.0, 0.3296187485761112
428.0, 0.3508566791636399
429.0, 0.37685660839621715
430.0, 0.40601938915582336
431.0, 0.43762813996194716
432.0, 0.47361364940339096
433.0, 0.49232671939949274
434.0, 0.5059279296569007
435.0, 0.5220011235227466
436.0, 0.5141825477219414
437.0, 0.5096520796501394
438.0, 0.501085276178587
439.0, 0.48231012933319395
440.0, 0.45814441673358647
441.0, 0.4410602022582272
442.0, 0.4315357367179891
443.0, 0.4302187076977692
444.0, 0.42577684244866015
445.0, 0.42918389724996253
446.0, 0.4375925119392321
447.0, 0.4479500552641441
448.0, 0.4578144289783158
449.0, 0.46474558093504736
450.0, 0.4654156959956551
451.0, 0.455585611853746
452.0, 0.4460692200665308
453.0, 0.42874174721861746
454.0, 0.41044996913372844
455.0, 0.40064904733888085
456.0, 0.37463369116669004
457.0, 0.3520590015368713
458.0, 0.329475050210642
459.0, 0.300653409256256
460.0, 0.27972906534725156
461.0, 0.2570287548531834
462.0, 0.25373501552139527
463.0, 0.30412369262243316
464.0, 0.2826573860264915
465.0, 0.24665438038750814
466.0, 0.20031256610170747
467.0, 0.14405461060915975
468.0, 0.128242532817198
469.0, 0.11768199250096076
470.0, 0.10756641609460832
471.0, 0.0940218206916796
472.0, 0.08497193229432645
473.0, 0.0733349352846137
474.0, 0.06103845894972768
475.0, 0.05215001843537297
476.0, 0.045362469944221336
477.0, 0.03943217709974827
478.0, 0.03485517957910361
479.0, 0.03267797384026272
480.0, 0.03244947396534803
481.0, 0.03301526948340397
482.0, 0.03376667387324432
483.0, 0.03384661776114235
484.0, 0.035659506580712715
485.0, 0.03938489974081575
486.0, 0.04394234724081317
487.0, 0.047611560708468344
488.0, 0.055248852878310134
489.0, 0.06273700051076621
490.0, 0.07099423936891833
491.0, 0.08186597891129471
492.0, 0.09459394772343745
493.0, 0.11025777830933338
494.0, 0.12761571850609066
495.0, 0.14482791372834383
496.0, 0.16071709275366322
497.0, 0.17916216041494046
498.0, 0.19951934917767222
499.0, 0.22071982596530926
500.0, 0.2327106765081742
501.0, 0.24561126027288543
502.0, 0.25661585207314674
503.0, 0.2618399325739385
504.0, 0.27174492531060856
505.0, 0.27727976101925067
506.0, 0.27838479907845515
507.0, 0.27520338003911254
508.0, 0.2654377909785948
509.0, 0.25293567342638096
510.0, 0.23944879116253798
511.0, 0.22660385462638732
512.0, 0.20420399534711722
513.0, 0.18359787102272648
514.0, 0.16326054704558374
515.0, 0.14203575784905695
516.0, 0.12640846122038693
517.0, 0.11212403681139135
518.0, 0.09725860976973275
519.0, 0.08114868298940711
520.0, 0.07954720675040791
521.0, 0.07278282741661665
522.0, 0.06458460946369958
523.0, 0.057197861351038624
524.0, 0.048766381809721766
525.0, 0.04143408941277301
526.0, 0.03578898064722197
527.0, 0.03167023079638212
528.0, 0.02448948447190713
529.0, 0.022073265420233933
530.0, 0.018420705779798124
531.0, 0.012077325379903367
532.0, 0.011470928608567004
533.0, 0.009810325972132182
534.0, 0.007840665303114409
535.0, 0.006106268373475108
536.0, 0.006004666094630494
537.0, 0.007502458433811038
538.0, 0.007617669978627617
539.0, 0.006676175688211366
540.0, 0.009244404191526168
541.0, 0.01164106870599411
542.0, 0.013125461065629741
543.0, 0.014556971681562303
544.0, 0.01896143187069988
545.0, 0.02228147167835688
546.0, 0.02602238452190783
547.0, 0.030532824373414497
548.0, 0.036071887622511796
549.0, 0.04217797450784312
550.0, 0.048395340237589915
551.0, 0.055768154037409076
552.0, 0.0661895278761554
553.0, 0.07746836843874175
554.0, 0.09253801397095873
555.0, 0.1117637841901785
556.0, 0.13536344553066565
557.0, 0.16360226624073176
558.0, 0.1979949856528958
559.0, 0.23593868319114045
560.0, 0.27495108972591137
561.0, 0.3218074170730554
562.0, 0.3573473852559991
563.0, 0.38383450777283484
564.0, 0.4023033593082097
565.0, 0.40346191134807413
566.0, 0.3807249075231666
567.0, 0.3488336952891599
568.0, 0.315316968444273
569.0, 0.27823717005300574
570.0, 0.24432535949506518
571.0, 0.2133326201156162
572.0, 0.18731059159613733
573.0, 0.1762725872141623
574.0, 0.16735798736194807
575.0, 0.16458919837165575
576.0, 0.1670576262252911
577.0, 0.16867571996613176
578.0, 0.18171919605775697
579.0, 0.195812447025905
580.0, 0.20988709372905295
581.0, 0.22526354787729158
582.0, 0.25173899758866264
583.0, 0.27165829641407924
584.0, 0.2882740438948386
585.0, 0.3084868061987807
586.0, 0.34473028935320943
587.0, 0.36938530949583975
588.0, 0.39253315820936857
589.0, 0.42439034817644417
590.0, 0.44651429285739463
591.0, 0.4778749969625228
592.0, 0.512848977231545
593.0, 0.548135483229487
594.0, 0.589011265715297
595.0, 0.623472646648277
596.0, 0.6457798736888303
597.0, 0.6548951330737518
598.0, 0.6588523619546931
599.0, 0.655732203041003
600.0, 0.6388441646168259
601.0, 0.6106968663051854
602.0, 0.5848343461141094
603.0, 0.5566830701908485
604.0, 0.5301489669289535
605.0, 0.5040118541177321
606.0, 0.47473772114219676
607.0, 0.4585253107680899
608.0, 0.44308331114665916
609.0, 0.4275496791208295
610.0, 0.4119020106134233
611.0, 0.40379465259720576
612.0, 0.3901401215371781
613.0, 0.3751849373613289
614.0, 0.361309443103134
615.0, 0.3355467416983403
616.0, 0.316997506704871
617.0, 0.2955758574403161
618.0, 0.26780018474193545
619.0, 0.241344480024025
620.0, 0.21587194010420974
621.0, 0.19428924650495527
622.0, 0.17561995348204054
623.0, 0.15446332357927758
624.0, 0.14133522344849905
625.0, 0.12548106495098016
626.0, 0.11131963585025353
627.0, 0.10912534859755785
628.0, 0.09637013395971168
629.0, 0.09077063527556103
630.0, 0.08727271111511113
631.0, 0.0798720860301462
632.0, 0.07260795823981905
633.0, 0.07030263215608573
634.0, 0.06717477413241878
635.0, 0.06093384674681576
636.0, 0.06158021036490303
637.0, 0.05593873886625887
638.0, 0.05192809632524553
639.0, 0.0509204383262799
640.0, 0.04797326782658123
641.0, 0.045936992010641164
642.0, 0.04354152511567026
643.0, 0.04123808241685652
644.0, 0.040316689065483774
645.0, 0.04066006469446464
646.0, 0.03844481077122465
647.0, 0.03557767541510584
648.0, 0.03425958174182933
649.0, 0.030705269183697828
650.0, 0.029646721493181594
651.0, 0.029411949769919454
652.0, 0.028866432066211686
653.0, 0.027365036510835192
654.0, 0.0282908896031977
655.0, 0.02808406099455662
656.0, 0.0256283635431927
657.0, 0.021037589892150557
658.0, 0.022600096782728778
659.0, 0.022752220748146198
660.0, 0.02154745776174439
661.0, 0.020911664105424867
662.0, 0.02134023549686044
663.0, 0.021152277855567926
664.0, 0.0208114607185606
665.0, 0.02067516772748032
666.0, 0.019177366188334332
667.0, 0.01951830981948753
668.0, 0.021126878559297766
669.0, 0.023154008846626346
670.0, 0.022922278786018737
671.0, 0.021872466057331192
672.0, 0.023341121228859014
673.0, 0.0257271378510867
674.0, 0.0239091966032527
675.0, 0.025074691903667012
676.0, 0.024945164575363773
677.0, 0.024249748412609188
678.0, 0.024195329916389067
679.0, 0.025904836646288672
680.0, 0.024843008212668657
681.0, 0.024442231449689825
682.0, 0.026016546463009948
683.0, 0.0256125102169512
684.0, 0.024518122708958943
685.0, 0.024105425159711303
686.0, 0.02363589874890586
687.0, 0.02034722852117203
688.0, 0.023104457823179395
689.0, 0.023222924396793306
690.0, 0.02192040517398773
691.0, 0.021551602498530723
692.0, 0.0169048108329017
693.0, 0.019041079748061948
694.0, 0.020393017146229778
695.0, 0.017493823147842227
696.0, 0.017313774512004013
697.0, 0.015356233634252578
698.0, 0.013410757181391321
699.0, 0.011843842170707943
700.0, 0.01035961991224043
701.0, 0.009017506255019807
702.0, 0.007393549432988386
703.0, 0.006163472201757157
704.0, 0.00613984257562043
705.0, 0.007910224013067806
706.0, 0.007036838487363838
707.0, 0.005200244747378357
708.0, 0.0035970926307201776
709.0, 0.0035068633753335145
710.0, 0.0016503463281840145
711.0, 0.0012184712041557696
712.0, 0.0016403080116547209
713.0, 0.0002392197004074556
714.0, 0.0006470823227561281
715.0, 0.002234142605612054
716.0, 0.004148520258217471
717.0, 0.005521516134553716
718.0, 0.0053275522063842414
719.0, 0.003991170279560038
720.0, 0.003708859196098473
721.0, 0.004564715450165077
722.0, 0.0034642227290618043
723.0, 0.0033807391781831954
724.0, 0.004472995862618981
725.0, 0.005853923743559118
726.0, 0.006161158197500713
727.0, 0.006898916401539605
728.0, 0.005972978066442804
729.0, 0.00591169497659463
730.0, 0.00778657445486163
731.0, 0.0071263561542467034
732.0, 0.005945040584585297
733.0, 0.005726973442191997
734.0, 0.005469657154259771
735.0, 0.0019326229984739517
736.0, 0.003912936245507825
737.0, 0.004237495341498878
738.0, 0.0033508508153784885
739.0, 0.0024721188648370745
740.0, 0.005058306484293902
741.0, 0.0046867112257055095
742.0, 0.0037939634855189796
743.0, 0.0035736528694923345
744.0, 0.004564462412745859
745.0, 0.004076772978953532
746.0, 0.004244685275595924
747.0, 0.004383277377402403
748.0, 0.003268547127331436
749.0, 0.003309265929903779
750.0, 0.0026276093281052213
751.0, 0.0026106359864178637
752.0, 0.0033555569728291887
753.0, 0.0015732435894747951
754.0, 0.0012381959511107124
755.0, 0.0018257554688866477
756.0, 0.002246074215234531
757.0, 0.0008722395024351944
758.0, 0.001567743287011633
759.0, 0.0012861402853114137
760.0, 0.0006342777226415172
761.0, 0.00020815247531256705
762.0, 0.0007404249708839808
763.0, 0.0022083042023351234
764.0, 0.002774318964259215
765.0, 0.0029485796388047892
766.0, 0.004713819698722061
767.0, 0.00414475558310269
768.0, 0.0033213510941704095
769.0, 0.002673869988567678
770.0, 0.002491487135850228
771.0, 0.002845591280745603
772.0, 0.0029664422108088215
773.0, 0.0036564576559786105
774.0, 0.004617836238984823
775.0, 0.004630385247444078
776.0, 0.005146572607705548
777.0, 0.005996650480985089
778.0, 0.00608291503711134
779.0, 0.004920095056032347
780.0, 0.006566293740401301
781.0, 0.006441131249471667
782.0, 0.0068384407907023164
783.0, 0.007659013264584931
784.0, 0.00694122973885381
785.0, 0.0075462252862749995
786.0, 0.008180655017789522
787.0, 0.00854877465455774
788.0, 0.008676373364412016
789.0, 0.010461662173070048
790.0, 0.011601020448656215
791.0, 0.01171304113808192
792.0, 0.011638436323290917
793.0, 0.013551655755485786
794.0, 0.013809587094768174
795.0, 0.014413826223009593
796.0, 0.01629085159265605
797.0, 0.019127358983087407
798.0, 0.015307161573847605
799.0, 0.01603473389251608
800.0, 0.018136755308549826
801.0, 0.01992056608121361
802.0, 0.01981453613049175
803.0, 0.02112795352655237
804.0, 0.022733598195232404
805.0, 0.023455899450732128
806.0, 0.02322314122342372
807.0, 0.02685144202296246
808.0, 0.027923496961624262
809.0, 0.030354521121874756
810.0, 0.033387020872172005
811.0, 0.034068514307876864
812.0, 0.03603232914973381
813.0, 0.037925633547535004
814.0, 0.03962207118249731
815.0, 0.041712569208358016
816.0, 0.04729536380043468
817.0, 0.04900256986816405
818.0, 0.05268512728417353
819.0, 0.057736856670117076
820.0, 0.061812943577119896
821.0, 0.06614128397959249
822.0, 0.07223640656398465
823.0, 0.0758419574881807
824.0, 0.07695925774118975
825.0, 0.08258120002047943
826.0, 0.08917537879907309
827.0, 0.09242263611321838
828.0, 0.09487292671016129
829.0, 0.09950124673310677
830.0, 0.10261205956221976
831.0, 0.10218031873818442
832.0, 0.10142652168595825
833.0, 0.10204981104290874
834.0, 0.105269122536446
835.0, 0.10417961592055397
836.0, 0.10408627554787594
837.0, 0.10481101896663654
838.0, 0.10543882480540645
839.0, 0.10267650261860962
840.0, 0.1037471997665624
841.0, 0.10487757621796527
842.0, 0.1055755994974439
843.0, 0.10639581785190859
844.0, 0.10886652365742625
845.0, 0.10813328489994756
846.0, 0.10901249915911132
847.0, 0.1129381718002685
848.0, 0.11638941776035773
849.0, 0.11953481591992038
850.0, 0.12436062205783883
851.0, 0.1288184516634877
852.0, 0.13138201746519987
853.0, 0.139066921805491
854.0, 0.14525945464810297
855.0, 0.1537472640730257
856.0, 0.16297735317634232
857.0, 0.1678307822591335
858.0, 0.1713280659280516
859.0, 0.18181033670706867
860.0, 0.19334208488089874
861.0, 0.20148469908197753
862.0, 0.20401396318221618
863.0, 0.21275519095812637
864.0, 0.21911408029593935
865.0, 0.2238989588283369
866.0, 0.2291597647384874
867.0, 0.2310804894408871
868.0, 0.23335416436456716
869.0, 0.2326240831926279
870.0, 0.23286367007827458
871.0, 0.24428968198741227
872.0, 0.25374174130803995
873.0, 0.26613844963047883
874.0, 0.28568619394522854
875.0, 0.31055519414328003
876.0, 0.3235128453269857
877.0, 0.34171865588705697
878.0, 0.35564023109551623
879.0, 0.3710587838455919
880.0, 0.39444627196305165
881.0, 0.41325642931000056
882.0, 0.43264529488041953
883.0, 0.4504710323595995
884.0, 0.4652343717298062
885.0, 0.47561588591185305
886.0, 0.47572852158029943
887.0, 0.4793914047092331
888.0, 0.4749919568983094
889.0, 0.4598701545312634
890.0, 0.4469782805081407
891.0, 0.43445077916384445
892.0, 0.42172395259208617
893.0, 0.4127177524804442
894.0, 0.4097259943006104
895.0, 0.40439876134316466
896.0, 0.4051796299781724
897.0, 0.41345965205825586
898.0, 0.42611290445710776
899.0, 0.4380185103907263
900.0, 0.4515399551641693
901.0, 0.476353027003419
902.0, 0.503886767620326
903.0, 0.5314878931846148
904.0, 0.561574272064518
905.0, 0.6044682037001495
906.0, 0.6489016059495276
907.0, 0.6976953191346787
908.0, 0.7501793855356416
909.0, 0.7954457313512049
910.0, 0.8508924418973398
911.0, 0.9042615375889729
912.0, 0.9495418160627885
913.0, 0.9820346668069962
914.0, 0.9961893649251414
915.0, 0.9995014750071958
916.0, 0.988049073449779
917.0, 0.9638873826133212
918.0, 0.9313896748358735
919.0, 0.8696285787099485
920.0, 0.7995602275955456
921.0, 0.7317824326367118
922.0, 0.6683523275983619
923.0, 0.6041951136070146
924.0, 0.5438998241153453
925.0, 0.4890870932665768
926.0, 0.4393856874465096
927.0, 0.3941789106545772
928.0, 0.3527896954662224
929.0, 0.3229315350463965
930.0, 0.295297456001981
931.0, 0.2679497588005918
932.0, 0.24101219279345718
933.0, 0.2203942429056248
934.0, 0.20613047665447054
935.0, 0.18883130978953902
936.0, 0.17287520282586322
937.0, 0.1636911209678362
938.0, 0.14693810845452632
939.0, 0.13674604013323022
940.0, 0.13135500975265038
941.0, 0.1267391900579097
942.0, 0.11767509943462974
943.0, 0.10911149715295906
944.0, 0.10425025972134425
945.0, 0.10136657839128232
946.0, 0.09923476550474505
947.0, 0.09679675254959272
948.0, 0.09366632071037138
949.0, 0.09150509278866317
950.0, 0.09164456507012037
951.0, 0.0924168329759481
952.0, 0.08730484398234614
953.0, 0.08944872617506248
954.0, 0.09284471295694267
955.0, 0.09487278758752384
956.0, 0.09425138486053473
957.0, 0.09206602207397521
958.0, 0.08859854786330507
959.0, 0.08638282993990558
960.0, 0.08358165207269301
961.0, 0.07881977664617452
962.0, 0.07456680203572794
963.0, 0.07359888682351291
964.0, 0.06908637256215565
965.0, 0.06479353779819237
966.0, 0.06498567711413394
967.0, 0.06205073689766407
968.0, 0.06155397424087957
969.0, 0.060082266302179596
970.0, 0.0596759859898335
971.0, 0.06343624901468548
972.0, 0.06641619311837452
973.0, 0.06948936167151289
974.0, 0.07627662703854304
975.0, 0.08320349723789565
976.0, 0.08387550405978861
977.0, 0.08909068923286223
978.0, 0.09521822100755907
979.0, 0.09685767153797638
980.0, 0.09337056118024642
981.0, 0.08756203231263018
982.0, 0.09080280670796582
983.0, 0.07969476273452294
984.0, 0.06940644526807502
985.0, 0.06464921608867427
986.0, 0.06144650199579644
987.0, 0.05012692170721557
988.0, 0.0464368475371363
989.0, 0.043312044597437815
990.0, 0.038782575290550465
991.0, 0.03651405005859544
992.0, 0.03575064383579743
993.0, 0.03355285855513403
994.0, 0.030825409332960196
995.0, 0.02811492417840442
996.0, 0.025412686749052935
997.0, 0.02618640350650957
998.0, 0.023545279760230915
999.0, 0.022323870814748972
1000.0, 0.023086190084529872
1001.0, 0.018898349435259316
1002.0, 0.022530854242613398
1003.0, 0.02121635177808275
1004.0, 0.019925452193015853
1005.0, 0.02104701500407017
1006.0, 0.020883016061167135
1007.0, 0.020184641026594317
1008.0, 0.022478412264859565
1009.0, 0.02507704123522235
1010.0, 0.0268449216960038
1011.0, 0.03043158458704354
1012.0, 0.033156793874866475
1013.0, 0.03647229443942612
1014.0, 0.040932607342851327
1015.0, 0.047222008161214225
1016.0, 0.056677291609931735
1017.0, 0.05938253480370076
1018.0, 0.06253393517136793
1019.0, 0.06405395469383837
1020.0, 0.06379689381300688
1021.0, 0.06695335053945935
1022.0, 0.06111962402464194
1023.0, 0.05760843195410388
1024.0, 0.05401143942339118
1025.0, 0.049418359387094025
1026.0, 0.04795017533127763
1027.0, 0.04790191967721948
1028.0, 0.04994584810058116
1029.0, 0.049760023278683174
1030.0, 0.04639166609831814
1031.0, 0.04570454750001161
1032.0, 0.051425480022926295
1033.0, 0.054387172248592595
1034.0, 0.0558264563213065
1035.0, 0.05794127043134853
1036.0, 0.06364068280751131
1037.0, 0.06531675273671328
1038.0, 0.06650055570454637
1039.0, 0.07014007338072122
1040.0, 0.07413263164684208
1041.0, 0.06881468142043298
1042.0, 0.0727822443906238
1043.0, 0.07254823882941146
1044.0, 0.06827626417843297
1045.0, 0.06287096779243787
1046.0, 0.06210729174085684
1047.0, 0.05848749864871335
1048.0, 0.05655911089571977
1049.0, 0.054736255036586426
1050.0, 0.0522275665860481
1051.0, 0.0491703118193934
1052.0, 0.0476170739852824
1053.0, 0.04501629604959153
1054.0, 0.04225477665428819
1055.0, 0.04043352458131549
1056.0, 0.04074082155834436
1057.0, 0.04234399719421753
1058.0, 0.04184130854541056
1059.0, 0.04143153627282674
1060.0, 0.04152513096940538
1061.0, 0.04136837557884346
1062.0, 0.03960221737676872
1063.0, 0.0378563817224119
1064.0, 0.03607736897020386
1065.0, 0.03429971988530148
1066.0, 0.03277363749937008
1067.0, 0.03338353700037572
1068.0, 0.0330886183915109
1069.0, 0.033483731860416255
1070.0, 0.03609512188760948
1071.0, 0.04135120416619733
1072.0, 0.043992677902559806
1073.0, 0.04831739619683
1074.0, 0.0563396595751277
1075.0, 0.0643698407960605
1076.0, 0.07013184282666539
1077.0, 0.08151101065526192
1078.0, 0.09632708307499806
1079.0, 0.11080644233967657
1080.0, 0.12858249233695893
1081.0, 0.15118324622185766
1082.0, 0.17297864912948596
1083.0, 0.19513875483162127
1084.0, 0.2180982214315829
1085.0, 0.23849881189822372
1086.0, 0.25210238210954744
1087.0, 0.2536580660356432
1088.0, 0.24314786134769148
1089.0, 0.2243649340917411
1090.0, 0.19850082127801966
1091.0, 0.16891807951844406
1092.0, 0.14097314256640867
1093.0, 0.12124656973702916
1094.0, 0.10107940213751086
1095.0, 0.0822649106515772
1096.0, 0.06752791362549916
1097.0, 0.05897990970309588
1098.0, 0.04805465730732196
1099.0, 0.04186934013494438
1100.0, 0.036453022793178316
1101.0, 0.031399618374568984
1102.0, 0.027408919217541402
1103.0, 0.024869999689177448
1104.0, 0.023801127554655105
1105.0, 0.020071614307857862
1106.0, 0.01674647895927392
1107.0, 0.016123828329484672
1108.0, 0.014928435164157887
1109.0, 0.011737552146012247
1110.0, 0.012102310882337942
1111.0, 0.012436001632395489
1112.0, 0.011622617202356925
1113.0, 0.013189084569387555
1114.0, 0.011701616274974572
1115.0, 0.008083539261270787
1116.0, 0.0062209559470719185
1117.0, 0.006510586293122178
1118.0, 0.006494268675859232
1119.0, 0.004309048753604379
1120.0, 0.006944230041025962
1121.0, 0.013338327764745122
1122.0, 0.02062139659396161
1123.0, 0.025028091971776738
1124.0, 0.02215445685120815
1125.0, 0.015812241544207774
1126.0, 0.011277435174919265
1127.0, 0.006803903367083852
1128.0, 0.001885845280074688
1129.0, 0.002707793922857341
1130.0, 0.003235070847194886
1131.0, 0.00231607659011214
1132.0, 0.0012688174190704088
1133.0, 0.000888111096520505
1134.0, 0.001062814306181861
1135.0, 0.0022852907987710135
1136.0, 0.002360642525388254
1137.0, 0.001626738990583615
1138.0, 0.001296543514465225
1139.0, 0.0024015022615282095
1140.0, 0.0004292705043337223
1141.0, 0.001939895153925066
1142.0, 0.0016857775424317474
1143.0, 0.0014938677214887319
1144.0, 0.003083584930241525
1145.0, 0.0018394022039614323
1146.0, 0.0013389792997333056
1147.0, 0.001296065912259929
1148.0, 0.0022639261638515316
1149.0, 0.0039245692358359785
1150.0, 0.004722192244871444
1151.0, 0.0017627759128676845
1152.0, 0.001417748991641264
1153.0, 0.003203763603778322
1154.0, 0.004462879777650723
1155.0, 0.002405096568833447
1156.0, 0.0030410856705101307
1157.0, 0.003215555176408356
1158.0, 0.0034518529452268226
1159.0, 0.003614462454533667
1160.0, 0.0035069069635720452
1161.0, 0.0032014096707673276
1162.0, 0.002644590959732415
1163.0, 0.0027439035918127574
1164.0, 0.002185069992007514
1165.0, 0.0013301408154695162
1166.0, 0.00230930685354347
1167.0, 0.0008576360465346218
1168.0, 0.000973286202756132
1169.0, 0.0012253757590839865
1170.0, 0.0012198627200082797
1171.0, 0.0010049753531733848
1172.0, 0.00035689128704757253
1173.0, 0.0015974444325440533
1174.0, 0.002956513402171117
1175.0, 0.002666319481314346
1176.0, 0.0007865122439304533
1177.0, 0.0004335820198353884
1178.0, 0.0030169020444290526
1179.0, 0.003194020696423621
1180.0, 0.0023462170224933174
1181.0, 0.002038705578027697
1182.0, 0.0033997323104652576
1183.0, 0.004444639730495932
1184.0, 0.0033415579958273735
1185.0, 0.0035364597496228517
1186.0, 0.004090304394124844
1187.0, 0.004258308252336141
1188.0, 0.0062531506008380216
1189.0, 0.0056316742873638624
1190.0, 0.005414115622614418
1191.0, 0.0051920681651272775
1192.0, 0.005010952309577453
1193.0, 0.005361413219271669
1194.0, 0.006003654435588228
1195.0, 0.004564509388886571
1196.0, 0.003827895681908824
1197.0, 0.004844574684051799
1198.0, 0.006834606304375565
1199.0, 0.005610009033744926
1200.0, 0.004049666223594859
1201.0, 0.005092660816008045
1202.0, 0.004488588941687062
1203.0, 0.0031611239459288206
1204.0, 0.00611556244126627
1205.0, 0.0052078338957406226
1206.0, 0.006444420316368156
1207.0, 0.005738619630486313
1208.0, 0.00533676408629441
1209.0, 0.0068350542058881695
1210.0, 0.004910582569788323
1211.0, 0.0055688022034341535
1212.0, 0.005806822095244699
1213.0, 0.005690560625308475
1214.0, 0.00607176218867621
1215.0, 0.007660276824997393
1216.0, 0.004703711953477492
1217.0, 0.005424295241146845
1218.0, 0.005147380589405776
1219.0, 0.004023022317159156
1220.0, 0.0034309113971938946
1221.0, 0.0044801949462787765
1222.0, 0.005008868193275674
1223.0, 0.005073873400191215
1224.0, 0.005152158431639679
1225.0, 0.0052898546928535056
1226.0, 0.005203617487121732
1227.0, 0.004635037116629284
1228.0, 0.005016368460367549
1229.0, 0.004764876235627495
1230.0, 0.004533343840741756
1231.0, 0.004611517340292278
1232.0, 0.003959237395689594
1233.0, 0.004016876946188188
1234.0, 0.0036552769761379086
1235.0, 0.003241990553782698
1236.0, 0.003141529875895189
1237.0, 0.0034383443082188414
1238.0, 0.003164589843586227
1239.0, 0.0030719887548736947
1240.0, 0.0030500539585798596
1241.0, 0.002877780078509462
1242.0, 0.0026264729120887734
1243.0, 0.0026360668435648836
1244.0, 0.0022635204198310295
1245.0, 0.0018516091432930907
1246.0, 0.0015202102850456207
1247.0, 0.0012725962983910735
1248.0, 0.0009702075981121655
1249.0, 0.0002459579655119876
1250.0, 0.001994013056898858
1251.0, 0.0020969541880855344
1252.0, 0.002041530057994104
1253.0, 0.00218749421471816
1254.0, 0.0021994676860793423
1255.0, 0.0030057131125447107
1256.0, 0.0009858067445158542
1257.0, 0.001937770300633941
1258.0, 0.002679356802940766
1259.0, 0.001618521411431985
1260.0, 0.0009729350603399597
1261.0, 0.003178723410698784
1262.0, 0.0015639812547104544
1263.0, 0.002496316258928523
1264.0, 0.00403816448386568
1265.0, 0.0037875127238680187
1266.0, 0.004907185614304107
1267.0, 0.0020133988242117115
1268.0, 0.0030437509477078697
1269.0, 0.0033621896696884664
1270.0, 0.0029391173229868827
1271.0, 0.0036771477002469177
1272.0, 0.0017258145989303066
1273.0, 0.0017803891423508625
1274.0, 0.0016574168990486108
1275.0, 0.0016818909025068311
1276.0, 0.0017204520178298098
1277.0, 0.0011621517843210952
1278.0, 0.002265805215864585
1279.0, 0.002729056788670136
1280.0, 0.0026484152063446145
1281.0, 0.0035049785748670643
1282.0, 0.004813997568170159
1283.0, 0.002704394969833948
1284.0, 0.0040111822807921945
1285.0, 0.0025076106983752742
1286.0, 0.0027866098777425672
1287.0, 0.003337537060095013
1288.0, 0.0020704050495291304
1289.0, 0.0022513730001232054
1290.0, 0.0027856159968392144
1291.0, 0.00137501146470343
1292.0, 0.0019602781535412346
1293.0, 0.003317110379122632
1294.0, 0.002260016448915111
1295.0, 0.002190730742501659
1296.0, 0.0010815300836808173
1297.0, 0.001931044223412485
1298.0, 0.0026343783843269506
1299.0, 0.002279825014677767
1300.0, 0.0016015830372983855
1301.0, 0.0010872409418827844
1302.0, 0.0021897351890749913
1303.0, 0.0031072816317275114
1304.0, 0.0025377869894678733
1305.0, 0.0008298958022353127
1306.0, 0.0001527514494613114
1307.0, 0.0018337251944097457
1308.0, 0.001047473592125999
1309.0, 0.0014586869392976783
1310.0, 0.0014847988943862207
1311.0, 0.0005340357593006779
1312.0, 0.0017083808699233428
1313.0, 0.0012994671777653488
1314.0, 0.000727866067234452
1315.0, 0.0005896258596963226
1316.0, 0.000598039151523901
1317.0, 0.0004776107750424115
1318.0, 0.000670091598337114
1319.0, 0.00041199554738242293
1320.0, 0.0006953991259584463
1321.0, 0.0005175040265943255
1322.0, 0.0005032615609227036
1323.0, 0.0014408869845150627
1324.0, 0.0025020014838363605
1325.0, 0.0018783654944238752
1326.0, 0.0016315387091382803
1327.0, 0.001546541668876461
1328.0, 0.0017429767430301073
1329.0, 0.0026787805269646637
1330.0, 0.0051857140006263125
1331.0, 0.0013583077097903482
1332.0, 0.0013338431527950521
1333.0, 0.001573097166735886
1334.0, 0.0010036505925060557
1335.0, 0.0007913469928986316
1336.0, 0.002197600185557144
1337.0, 0.0015810135494672302
1338.0, 0.0017820649481696412
1339.0, 0.0017526603590801398
1340.0, 0.0019464770470731846
1341.0, 0.0029632899269584215
1342.0, 0.0006774342556962981
1343.0, 0.002732453728637066
1344.0, 0.001969358897114084
1345.0, 0.0012898230337200802
1346.0, 0.0019797927869111384
1347.0, 0.0032314179715068293
1348.0, 0.004007241040721652
1349.0, 0.0019862124356394444
1350.0, 0.0037811085422327986
1351.0, 0.0048663855876052466
1352.0, 0.004167689726913442
1353.0, 0.004210738581370607
1354.0, 0.007171462739182621
1355.0, 0.003541257698618912
1356.0, 0.005038826980102319
1357.0, 0.005245199400643948
1358.0, 0.003871955393812808
1359.0, 0.005236066429737802
1360.0, 0.006619832561621606
1361.0, 0.0066874453209975525
1362.0, 0.004361012131963506
1363.0, 0.0039451825040267416
1364.0, 0.004569155811380364
1365.0, 0.003205733941508958
1366.0, 0.00515799036425674
1367.0, 0.007785057549292838
1368.0, 0.00824414289441563
1369.0, 0.0075974402883076594
1370.0, 0.0075783414471182154
1371.0, 0.008515755711955496
1372.0, 0.005379014107739255
1373.0, 0.006835325925888171
1374.0, 0.006646333573269662
1375.0, 0.005845502254159976
1376.0, 0.00589843759981102
1377.0, 0.00686297086183033
1378.0, 0.004932760504120496
1379.0, 0.007007553799267359
1380.0, 0.006855840627484067
1381.0, 0.0069521462218479916
1382.0, 0.007605510517826773
1383.0, 0.008226095377564484
1384.0, 0.009328522894479347
1385.0, 0.009809384606717098
1386.0, 0.008267305466721504
1387.0, 0.008937914049977437
1388.0, 0.00966035147205997
1389.0, 0.007968733663385037
1390.0, 0.0064316629983291775
1391.0, 0.008314113043154485
1392.0, 0.0077049605878621325
1393.0, 0.007958942672734864
1394.0, 0.007414977765105411
1395.0, 0.005822191207106862
1396.0, 0.007112370867972305
1397.0, 0.007317781288735347
1398.0, 0.006627279985817843
1399.0, 0.0070283851292449965
1400.0, 0.007624340814483734
1401.0, 0.007993696449524988
1402.0, 0.009027226153213459
1403.0, 0.010501430707768851
1404.0, 0.009052221220330796
1405.0, 0.009630068552602863
1406.0, 0.010777556419621201
1407.0, 0.010630642504114197
1408.0, 0.009113462076807712
1409.0, 0.011131338776769173
1410.0, 0.008096263552923456
1411.0, 0.009094364550906507
1412.0, 0.008616203255884506
1413.0, 0.007558297068625203
1414.0, 0.009273150230988285
1415.0, 0.0090144191663084
1416.0, 0.009420732844240996
1417.0, 0.01304238274291178
1418.0, 0.013788111585165424
1419.0, 0.012415936728326263
1420.0, 0.010969292148196592
1421.0, 0.007559217508411274
1422.0, 0.006764552102994889
1423.0, 0.007986748472601394
1424.0, 0.007987039179805993
1425.0, 0.007417228392432395
1426.0, 0.007693142369991596
1427.0, 0.008988666093081644
1428.0, 0.006585835935045917
1429.0, 0.007526124397472096
1430.0, 0.007152716485685727
1431.0, 0.0071774835141771446
1432.0, 0.007627848939277586
1433.0, 0.007002159917722976
1434.0, 0.0071593778936147
1435.0, 0.008749688730183457
1436.0, 0.008025098274492602
1437.0, 0.007250979477109124
1438.0, 0.00804218213820973
1439.0, 0.009434371697545104
1440.0, 0.006754989527015666
1441.0, 0.008247241819901692
1442.0, 0.00935043793555971
1443.0, 0.008612696299258383
1444.0, 0.008668574608137415
1445.0, 0.009609908019737315
1446.0, 0.00788047731326006
1447.0, 0.011936209408497251
1448.0, 0.009270298199359036
1449.0, 0.008380189937671997
1450.0, 0.01024411619387129
1451.0, 0.011386920960165609
1452.0, 0.008902739443191537
1453.0, 0.010360940692544205
1454.0, 0.009660243922532922
1455.0, 0.008927391776627486
1456.0, 0.009151873802947904
1457.0, 0.01007407562359218
1458.0, 0.01063277744531054
1459.0, 0.009719527387869322
1460.0, 0.009687465736766094
1461.0, 0.008802642823590525
1462.0, 0.007845662436041085
1463.0, 0.0072778419040200335
1464.0, 0.006934645918198376
1465.0, 0.006344533652208717
1466.0, 0.006105583592484839
1467.0, 0.0052621063851371885
1468.0, 0.005579658860411844
1469.0, 0.005685336064729774
1470.0, 0.006698163157314519
1471.0, 0.008477565784409436
1472.0, 0.006047741629321408
1473.0, 0.007498084107429267
1474.0, 0.008212065857046223
1475.0, 0.007180256612662463
1476.0, 0.006412507357460887
1477.0, 0.006597686933907382
1478.0, 0.006155767138035652
1479.0, 0.0036900011294336826
1480.0, 0.00598147422998839
1481.0, 0.009809061684927303
1482.0, 0.011507177989326373
1483.0, 0.010358005278461405
1484.0, 0.00741097931942984
1485.0, 0.003838231727942767
1486.0, 0.00497545790332623
1487.0, 0.009161112336859695
1488.0, 0.006895146123093754
1489.0, 0.005005053836030235
1490.0, 0.005566684771071354
1491.0, 0.0038476522096785445
1492.0, 0.0027345295606454197
1493.0, 0.0057328495153678325
1494.0, 0.006782017910898671
1495.0, 0.005039121784233981
1496.0, 0.0035593962410082874
1497.0, 0.004855863861305901
1498.0, 0.007234664168574268
1499.0, 0.004739584073634031
1500.0, 0.003220359158136935
1501.0, 0.0033798126188302074
1502.0, 0.0035456329343643658
1503.0, 0.0039098204122293735
1504.0, 0.005250804978203341
1505.0, 0.004982073358549287
1506.0, 0.004113834749121607
1507.0, 0.004474440958651027
1508.0, 0.00294551662867791
1509.0, 0.0033187610651245827
1510.0, 0.005786450480325169
1511.0, 0.004631957802915803
1512.0, 0.0007027348685528382
1513.0, 0.002710582336843275
1514.0, 0.002927759233215859
1515.0, 0.002249822171058619
1516.0, 0.0018837179614146164
1517.0, 0.0021531764067347606
1518.0, 0.002233847709335317
1519.0, 0.0012233709825825907
1520.0, 0.0010791927203486523
1521.0, 0.0004214103224964505
1522, 0.0
1523, 0.0
1524, 0.0
1525, 0.0
1526, 0.0
1527, 0.0
1528, 0.0
1529, 0.0
1530, 0.0
1531, 0.0
1532, 0.0
1533, 0.0
1534, 0.0
1535, 0.0
1536, 0.0
1537, 0.0
1538, 0.0
1539, 0.0
1540, 0.0
1541, 0.0
1542, 0.0
1543, 0.0
1544, 0.0
1545, 0.0
1546, 0.0
1547, 0.0
1548, 0.0
1549, 0.0
1550, 0.0
1551, 0.0
1552, 0.0
1553, 0.0
1554, 0.0
1555, 0.0
1556, 0.0
1557, 0.0
1558, 0.0
1559, 0.0
1560, 0.0
1561, 0.0
1562, 0.0
1563, 0.0
1564, 0.0
1565, 0.0
1566, 0.0
1567, 0.0
1568, 0.0
1569, 0.0
1570, 0.0
1571, 0.0
1572, 0.0
1573, 0.0
1574, 0.0
1575, 0.0
1576, 0.0
1577, 0.0
1578, 0.0
1579, 0.0
1580, 0.0
1581, 0.0
1582, 0.0
1583, 0.0
1584, 0.0
1585, 0.0
1586, 0.0
1587, 0.0
1588, 0.0
1589, 0.0
1590, 0.0
1591, 0.0
1592, 0.0
1593, 0.0
1594, 0.0
1595, 0.0
1596, 0.0
1597, 0.0
1598, 0.0
1599, 0.0
