30, 0.0
31, 0.0
32, 0.0
33, 0.0
34, 0.0
35, 0.0
36, 0.0
37, 0.0
38, 0.0
39, 0.0
40, 0.0
41, 0.0
42, 0.0
43, 0.0
44, 0.0
45, 0.0
46, 0.0
47, 0.0
48, 0.0
49, 0.0
50, 0.0
51, 0.0
52, 0.0
53, 0.0
54, 0.0
55, 0.0
56, 0.0
57, 0.0
58, 0.0
59, 0.0
60, 0.0
61, 0.0
62, 0.0
63, 0.0
64, 0.0
65, 0.0
66, 0.0
67, 0.0
68, 0.0
69, 0.0
70, 0.0
71, 0.0
72, 0.0
73, 0.0
74, 0.0
75, 0.0
76, 0.0
77, 0.0
78, 0.0
79, 0.0
80, 0.0
81, 0.0
82, 0.0
83, 0.0
84, 0.0
85, 0.0
86, 0.0
87, 0.0
88, 0.0
89, 0.0
90, 0.0
91, 0.0
92, 0.0
93, 0.0
94, 0.0
95, 0.0
96, 0.0
97, 0.0
98, 0.0
99, 0.0
100, 0.0
101, 0.0
102, 0.0
103, 0.0
104, 0.0
105, 0.0
106, 0.0
107, 0.0
108, 0.0
109, 0.0
110, 0.0
111, 0.0
112, 0.0
113, 0.0
114, 0.0
115, 0.0
116, 0.0
117, 0.0
118, 0.0
119, 0.0
120, 0.0
121, 0.0
122, 0.0
123.0, 1.0451552241693772e-05
124.0, 0.003703228163858465
125.0, 0.011812673332177509
126.0, 0.017481255229053975
127.0, 0.01856290065636146
128.0, 0.025846590278084166
129.0, 0.032577924282196885
130.0, 0.032987117087212255
131.0, 0.02803578354124022
132.0, 0.02982996607808262
133.0, 0.021899396455795028
134.0, 0.010232097292673074
135.0, 0.007627101636157258
136.0, 0.004588094626730302
137.0, 0.002747251714541954
138.0, 0.0014271124180202505
139.0, 0.0016906802950799557
140.0, 0.0031380817315252
141.0, 0.0017330641983535288
142.0, 0.004776456854783104
143.0, 0.006149192041535611
144.0, 0.010042458449432235
145.0, 0.014495295855795062
146.0, 0.02057996953648257
147.0, 0.026872756883362093
148.0, 0.02767294835539457
149.0, 0.02152156239676192
150.0, 0.021076089134640937
151.0, 0.027356952020261744
152.0, 0.031060565470822494
153.0, 0.03175463557774958
154.0, 0.03608777882542644
155.0, 0.04398396330340553
156.0, 0.0512677314487472
157.0, 0.058063679393565715
158.0, 0.07108070829731909
159.0, 0.09111236649322306
160.0, 0.11225822101359133
161.0, 0.13164523695749175
162.0, 0.15981987863962233
163.0, 0.18988801596729904
164.0, 0.2199995091426421
165.0, 0.2542236558874552
166.0, 0.29463493651925426
167.0, 0.3351484321364221
168.0, 0.376033076265323
169.0, 0.42129613673336946
170.0, 0.47744181329114
171.0, 0.5445643730704829
172.0, 0.6011360549573648
173.0, 0.6279862990203018
174.0, 0.629024179726743
175.0, 0.593617467053235
176.0, 0.5256900506290163
177.0, 0.4414642414871671
178.0, 0.3616398374936151
179.0, 0.29561320869441626
180.0, 0.24045723773115854
181.0, 0.19446410260279717
182.0, 0.15682114401668895
183.0, 0.12343538527659913
184.0, 0.10168902183170853
185.0, 0.08543320772928215
186.0, 0.06998212695446294
187.0, 0.0558822150468439
188.0, 0.04614725500876587
189.0, 0.03684288914381886
190.0, 0.026504222175860973
191.0, 0.016412261534374403
192.0, 0.010050024372484975
193.0, 0.002969646787031613
194.0, 0.0028798426797447623
195.0, 0.004156723432121789
196.0, 0.0028487719367408493
197.0, 0.0010480681714242735
198.0, 0.00383934919024045
199.0, 0.011403880465097068
200.0, 0.01757841059293131
201.0, 0.02730718225607379
202.0, 0.03295512459892826
203.0, 0.036687633837714284
204.0, 0.04114489847527573
205.0, 0.03536139944819193
206.0, 0.02914162283284221
207.0, 0.021737242740312284
208.0, 0.012467576433792562
209.0, 0.005012403577073495
210.0, 0.0012663646739960368
211.0, 0.002549119265771787
212.0, 0.0026682178387345554
213.0, 0.0031587874478124674
214.0, 0.0013559633673537784
215.0, 0.004704681928491141
216.0, 0.011214960809768929
217.0, 0.02043784115256097
218.0, 0.02675964826061205
219.0, 0.036690260783213746
220.0, 0.05392659307418678
221.0, 0.07231707731861958
222.0, 0.08815613362495511
223.0, 0.11915761257311726
224.0, 0.15415714625526372
225.0, 0.18927119087449654
226.0, 0.22908309339322103
227.0, 0.2894650842982304
228.0, 0.34855885668149267
229.0, 0.40461848590156985
230.0, 0.45273367170598017
231.0, 0.4844366832444091
232.0, 0.48725623855559835
233.0, 0.47206596470744944
234.0, 0.45095753688127904
235.0, 0.4315424483794295
236.0, 0.41488900519989225
237.0, 0.4060255287632706
238.0, 0.4089974905851566
239.0, 0.4284561444427469
240.0, 0.4594932744728547
241.0, 0.4643853468091137
242.0, 0.4912031959598075
243.0, 0.5038110839446748
244.0, 0.473604883448444
245.0, 0.40816002388332495
246.0, 0.35060201674336505
247.0, 0.2917034883424815
248.0, 0.23168593146559885
249.0, 0.17402258162982162
250.0, 0.11089450957768092
251.0, 0.07630448411588207
252.0, 0.062074806137167995
253.0, 0.05302246720660514
254.0, 0.044319032549736494
255.0, 0.04325757127459385
256.0, 0.022401028718159237
257.0, 0.0019579124661748206
258.0, 0.0012626985592645705
259.0, 0.009230691708060753
260.0, 0.005813600133272342
261.0, 0.015162055028168099
262.0, 0.014168438696866488
263.0, 0.015209438632520802
264.0, 0.012746152142066557
265.0, 0.007852283966832596
266.0, 0.0008497878364477228
267.0, 0.010061157465580688
268.0, 0.026323117505225424
269.0, 0.0449303583775099
270.0, 0.06542760501188431
271.0, 0.09308600527474852
272.0, 0.1335272388174416
273.0, 0.17627486110325802
274.0, 0.21579805339161376
275.0, 0.2489885162625074
276.0, 0.2630112601699784
277.0, 0.244601193985763
278.0, 0.2062025878127433
279.0, 0.16446749476673686
280.0, 0.12574637675870473
281.0, 0.09402864445688687
282.0, 0.07515255392983818
283.0, 0.06657047481488937
284.0, 0.06056411073666208
285.0, 0.05424636663494345
286.0, 0.048594214993678976
287.0, 0.0464873448012357
288.0, 0.04594428361558787
289.0, 0.04923710806537071
290.0, 0.053069146951513914
291.0, 0.05316851597353615
292.0, 0.05384645951373261
293.0, 0.06417443748265708
294.0, 0.0770838530760537
295.0, 0.08589921100913718
296.0, 0.08800448259064293
297.0, 0.08273720702547652
298.0, 0.08118335929852202
299.0, 0.08375550340240263
300.0, 0.08523305933401357
301.0, 0.07920354589396987
302.0, 0.07249646233530296
303.0, 0.06666591479626491
304.0, 0.0647725930640005
305.0, 0.06934347654468051
306.0, 0.0784944165104854
307.0, 0.08926014500771695
308.0, 0.09863735969839077
309.0, 0.10339367203633482
310.0, 0.1018570411079729
311.0, 0.09826086266522478
312.0, 0.10887261408276375
313.0, 0.11555483190382848
314.0, 0.11262999366977866
315.0, 0.11060805384206872
316.0, 0.1101786565012501
317.0, 0.10219248673199624
318.0, 0.09078026754595815
319.0, 0.0829934154708546
320.0, 0.08472208055189209
321.0, 0.08512955531909103
322.0, 0.09183248030081587
323.0, 0.10469393061783477
324.0, 0.1196430416413383
325.0, 0.13652223612747855
326.0, 0.1541846259140884
327.0, 0.17345535466953033
328.0, 0.18906217534802408
329.0, 0.19687711646805894
330.0, 0.20727205529785547
331.0, 0.21822995077906351
332.0, 0.2256872614193998
333.0, 0.22745303570566183
334.0, 0.2245016513273933
335.0, 0.21926461420241772
336.0, 0.2103867331084271
337.0, 0.2057412736541794
338.0, 0.20561171163582767
339.0, 0.20876906481275484
340.0, 0.22420445882986365
341.0, 0.25325310753117913
342.0, 0.29744563386434264
343.0, 0.3544583745787968
344.0, 0.42097048962071487
345.0, 0.5010884616071626
346.0, 0.5920604844026804
347.0, 0.6770219559377463
348.0, 0.748267302190825
349.0, 0.8118790552847078
350.0, 0.8248877204681385
351.0, 0.795184825487144
352.0, 0.7382814247740186
353.0, 0.6611824408159711
354.0, 0.561123077733961
355.0, 0.47411944067157563
356.0, 0.392307783739282
357.0, 0.32242111939537754
358.0, 0.2715676891313963
359.0, 0.23318650081834594
360.0, 0.20844431955644643
361.0, 0.1871305883338251
362.0, 0.17135094385872326
363.0, 0.16396357254257224
364.0, 0.16139788787536904
365.0, 0.15669798623397097
366.0, 0.15145166521628906
367.0, 0.1491025072824092
368.0, 0.14859982094335397
369.0, 0.14428429597130393
370.0, 0.1279127588455204
371.0, 0.11054937195647131
372.0, 0.0869325576838476
373.0, 0.06031259328833761
374.0, 0.04821692924075054
375.0, 0.036313988708165115
376.0, 0.02290941292864144
377.0, 0.011325294196541878
378.0, 0.003768156701338443
379.0, 0.0006887192919459628
380.0, 0.005104195241541351
381.0, 0.0027031500476454337
382.0, 0.002407534768834268
383.0, 0.007204693950183006
384.0, 0.015700172467571192
385.0, 0.0259518636500769
386.0, 0.038386380245026316
387.0, 0.05181886811953405
388.0, 0.06522356153524758
389.0, 0.07779282616876122
390.0, 0.08461978913726215
391.0, 0.08565967421967709
392.0, 0.07839564476473034
393.0, 0.06417401857889049
394.0, 0.049619354677285024
395.0, 0.03746962996538316
396.0, 0.024197969204552243
397.0, 0.0106042432687107
398.0, 0.0014835909122915146
399.0, 0.0034870058561428845
400.0, 0.004124388377389994
401.0, 0.012436997811090178
402.0, 0.016286760806493796
403.0, 0.015825946789904604
404.0, 0.01766471733074195
405.0, 0.014945963364971872
406.0, 0.011355181288603163
407.0, 0.007994159583147814
408.0, 0.0050946050015891605
409.0, 0.0022917161325690877
410.0, 0.0017465627862532879
411.0, 0.009890822373393058
412.0, 0.018818202669002814
413.0, 0.029496353935782538
414.0, 0.042111053796874263
415.0, 0.052236704264599025
416.0, 0.06919749484994638
417.0, 0.08302059056192143
418.0, 0.09802233018843065
419.0, 0.11978543579604137
420.0, 0.14759791267079045
421.0, 0.18393458813249028
422.0, 0.21320547009094873
423.0, 0.24768703445528673
424.0, 0.2889974928116867
425.0, 0.3192338680299861
426.0, 0.34187291726306207
427.0, 0.3584635964400116
428.0, 0.3846494176408135
429.0, 0.42094880884464486
430.0, 0.46162139362490323
431.0, 0.5275040604699459
432.0, 0.6023935787841657
433.0, 0.689546655062546
434.0, 0.7794834497059971
435.0, 0.8544182867251532
436.0, 0.9020230654462654
437.0, 0.9152545374676065
438.0, 0.8899716344134195
439.0, 0.8348365099642574
440.0, 0.7660521011942656
441.0, 0.6996198881791902
442.0, 0.6488450997165596
443.0, 0.6132870885525845
444.0, 0.5924197064190448
445.0, 0.593159322750415
446.0, 0.6154486854868515
447.0, 0.6521142405217837
448.0, 0.6998763775208098
449.0, 0.7477911762276386
450.0, 0.7869562346951505
451.0, 0.8166239267401026
452.0, 0.8427408560947235
453.0, 0.8558148921669152
454.0, 0.8704500890639383
455.0, 0.8810225404654934
456.0, 0.8763809408587953
457.0, 0.8530935664651109
458.0, 0.8128225346412137
459.0, 0.7533211565607902
460.0, 0.6758151515743481
461.0, 0.5925542308050811
462.0, 0.5102283761094938
463.0, 0.4272867345819511
464.0, 0.3564511704662448
465.0, 0.2964149710834377
466.0, 0.24683833855849882
467.0, 0.20693037352617918
468.0, 0.1728528053355891
469.0, 0.1444601098420657
470.0, 0.12386568384763552
471.0, 0.10764843245124865
472.0, 0.09288060638858851
473.0, 0.07918114631152545
474.0, 0.06624480150312835
475.0, 0.06105854169559988
476.0, 0.055208597381303896
477.0, 0.04858662333079185
478.0, 0.045886450206997366
479.0, 0.044751647179118975
480.0, 0.04393606469532853
481.0, 0.04900701058875542
482.0, 0.05126032630041322
483.0, 0.04960175720751419
484.0, 0.053613729535126255
485.0, 0.06067344586211594
486.0, 0.06132183466169498
487.0, 0.061039222812167414
488.0, 0.06339382459367397
489.0, 0.06840133758122437
490.0, 0.07537576115315262
491.0, 0.08607663304341383
492.0, 0.09439368007584131
493.0, 0.10371781969930675
494.0, 0.1163424827275061
495.0, 0.13077794514080252
496.0, 0.15220112382180476
497.0, 0.1728492967141352
498.0, 0.1954789104337591
499.0, 0.2172331298863162
500.0, 0.23561886476186947
501.0, 0.25494796395810904
502.0, 0.2670847679182668
503.0, 0.27050845420779235
504.0, 0.2700649050936733
505.0, 0.27298355242419253
506.0, 0.2814182872159891
507.0, 0.2875780940164721
508.0, 0.2888713798177255
509.0, 0.2930132385017028
510.0, 0.2889620684542832
511.0, 0.2683797835423446
512.0, 0.237230388083046
513.0, 0.20311313739364226
514.0, 0.16724470799618663
515.0, 0.1371436673292153
516.0, 0.11248818764875232
517.0, 0.0899051482252593
518.0, 0.07185013825602346
519.0, 0.06173368308305263
520.0, 0.05359517918501513
521.0, 0.044605345619548244
522.0, 0.03906119012462811
523.0, 0.03727958546299774
524.0, 0.028382547936114604
525.0, 0.02376532388928642
526.0, 0.017748502816690596
527.0, 0.011205647134944192
528.0, 0.006320392177691694
529.0, 0.002224872306857043
530.0, 0.003266016851628696
531.0, 0.005496912436788482
532.0, 0.007959183987218474
533.0, 0.00931902609010966
534.0, 0.007375544667570117
535.0, 0.004982532571332017
536.0, 0.008202165476998168
537.0, 0.009104839519769441
538.0, 0.008486940322616068
539.0, 0.0053552950265579715
540.0, 0.0020965821347910434
541.0, 0.005342812185388725
542.0, 0.0014157718240875937
543.0, 0.0028705809166512317
544.0, 0.00636507638669045
545.0, 0.008752457357102568
546.0, 0.010928509587536373
547.0, 0.021231439871446624
548.0, 0.021385911339504925
549.0, 0.03109220406087676
550.0, 0.03754963016347364
551.0, 0.03998829238944113
552.0, 0.049806463539079485
553.0, 0.05613631593940039
554.0, 0.06736637318714477
555.0, 0.0805370625722627
556.0, 0.09609545660705496
557.0, 0.1159557424412061
558.0, 0.14105786638415127
559.0, 0.17192086020741681
560.0, 0.2068393106213688
561.0, 0.2610717873398575
562.0, 0.32906175586599096
563.0, 0.41065104309940587
564.0, 0.506568342641732
565.0, 0.5776334310499419
566.0, 0.607106536436426
567.0, 0.5752355039564261
568.0, 0.4983365746425275
569.0, 0.40277135340218406
570.0, 0.31259455892171734
571.0, 0.2519062873383233
572.0, 0.20647901771581856
573.0, 0.1831042944192519
574.0, 0.16833558520080605
575.0, 0.15499253000691254
576.0, 0.151139147061558
577.0, 0.1595033647114531
578.0, 0.16459625537175798
579.0, 0.17773316861890187
580.0, 0.1933600518394221
581.0, 0.20944330892345783
582.0, 0.23254182238025806
583.0, 0.25801812597416657
584.0, 0.2898834303501807
585.0, 0.3210952780912272
586.0, 0.34755926298451206
587.0, 0.3733492160611456
588.0, 0.40117727947940957
589.0, 0.41815608263701126
590.0, 0.4299883704137392
591.0, 0.4414341684740911
592.0, 0.4563957806464311
593.0, 0.4810061713154901
594.0, 0.5178501219893866
595.0, 0.5593094489798709
596.0, 0.6015211143441964
597.0, 0.6441385642469597
598.0, 0.6709784152435211
599.0, 0.6785752362927816
600.0, 0.6726981462384665
601.0, 0.6488561090776783
602.0, 0.6156697103463112
603.0, 0.5726889581065255
604.0, 0.5292660196509856
605.0, 0.49226074934266756
606.0, 0.46389612014579507
607.0, 0.44524096233550553
608.0, 0.4379371833629111
609.0, 0.42648749467637886
610.0, 0.4266647382472792
611.0, 0.4324223740558558
612.0, 0.42868699924463183
613.0, 0.4130875608000889
614.0, 0.3922780605065572
615.0, 0.3601553456569594
616.0, 0.32212831819837584
617.0, 0.2839198161379188
618.0, 0.24451510199407359
619.0, 0.20340175745336092
620.0, 0.17214793838491263
621.0, 0.1505245579142407
622.0, 0.12524229113761698
623.0, 0.10429789892919257
624.0, 0.08953620099330335
625.0, 0.07515335168801235
626.0, 0.06186940516281742
627.0, 0.053919084119437084
628.0, 0.039885548168696085
629.0, 0.034775346136294856
630.0, 0.03302050634910598
631.0, 0.026211921770233237
632.0, 0.024439046637134546
633.0, 0.021526396616902827
634.0, 0.017868606939274435
635.0, 0.01602066342611845
636.0, 0.014023132219497757
637.0, 0.012254779024802154
638.0, 0.012091544320521827
639.0, 0.008237712558132632
640.0, 0.0070974630452942285
641.0, 0.0067905311591106516
642.0, 0.004523948986185159
643.0, 0.002411664732518367
644.0, 0.002855298124425125
645.0, 0.003208597929449237
646.0, 0.001507715391900379
647.0, 0.00010359831547493631
648.0, 0.0007716395174619502
649.0, 0.0008974007030670844
650.0, 0.0005708328337964837
651.0, 0.0014732912907518003
652.0, 0.0025473028797506035
653.0, 0.0017070835573556615
654.0, 0.0018643154017980227
655.0, 0.0027538872544550235
656.0, 0.002105223898936703
657.0, 0.0008170571578343139
658.0, 2.2217169973436538e-05
659.0, 0.001179721065254009
660.0, 0.0003014605294961483
661.0, 0.000929716872282417
662.0, 0.001878917541729067
663.0, 0.0015627012013121517
664.0, 0.0012614125342768447
665.0, 0.0006853583780643249
666.0, 0.001045374947629621
667.0, 0.0005303346376976364
668.0, 0.0006378447859755828
669.0, 0.0006671565104775627
670.0, 0.0036796363938229443
671.0, 0.00507662204962402
672.0, 0.0006698702015037509
673.0, 0.0074194439032436235
674.0, 0.010230574434124064
675.0, 0.008818354507181683
676.0, 0.009932992398603601
677.0, 0.015187255266443335
678.0, 0.017104007391397537
679.0, 0.020686561754580213
680.0, 0.0225131420680856
681.0, 0.024093073352313133
682.0, 0.029905201035208093
683.0, 0.03627888938988874
684.0, 0.037664318537870535
685.0, 0.04144822224863942
686.0, 0.04476229834826958
687.0, 0.04829491214377401
688.0, 0.04972874364662151
689.0, 0.04999446120028479
690.0, 0.050340963499202376
691.0, 0.048799821023891854
692.0, 0.04364314517291262
693.0, 0.04001355058781379
694.0, 0.03501303836055164
695.0, 0.03311983058062806
696.0, 0.031171592795709357
697.0, 0.026503103321291677
698.0, 0.024349531233369488
699.0, 0.026643377466141007
700.0, 0.023821797244704113
701.0, 0.019553776991074072
702.0, 0.018830620268174548
703.0, 0.018516502273387594
704.0, 0.01633967179164151
705.0, 0.015693905985404575
706.0, 0.01677804772099248
707.0, 0.014451758056976322
708.0, 0.014046520478343217
709.0, 0.01388337661533093
710.0, 0.011195053789526559
711.0, 0.008935363608313188
712.0, 0.00908646229617998
713.0, 0.0060915886733260045
714.0, 0.0075100380512452105
715.0, 0.008746000977643088
716.0, 0.005253131425074864
717.0, 0.0027213623834008824
718.0, 0.006623127008471994
719.0, 0.009618035139309037
720.0, 0.008778033001299179
721.0, 0.00593862859605043
722.0, 0.0031235370824188665
723.0, 0.0030838177648260115
724.0, 0.00528496511730839
725.0, 0.006316519523664464
726.0, 0.0032074709001165443
727.0, 0.004197784510692713
728.0, 0.0010477503125464784
729.0, 0.003572110754569779
730.0, 0.004161291076036523
731.0, 0.004041346881767733
732.0, 0.005888673116526064
733.0, 0.004495462076531592
734.0, 0.007666674621596252
735.0, 0.0064767226722061404
736.0, 0.007791298390475275
737.0, 0.011063030189171291
738.0, 0.011132772652976231
739.0, 0.008730348140425582
740.0, 0.008577549825252414
741.0, 0.006641588054447489
742.0, 0.007510124863153932
743.0, 0.009832257048573446
744.0, 0.011162773160223887
745.0, 0.011136180407317498
746.0, 0.010205992066427748
747.0, 0.009786012091130602
748.0, 0.011923484038082365
749.0, 0.011196363451407754
750.0, 0.008245631273187386
751.0, 0.00752748265891448
752.0, 0.010869182529623636
753.0, 0.013914577775266118
754.0, 0.013037401427468507
755.0, 0.01088413013360126
756.0, 0.01198750698038641
757.0, 0.013834562407133133
758.0, 0.012581098890625341
759.0, 0.010668236446655856
760.0, 0.011731865613861185
761.0, 0.013374827314096553
762.0, 0.011230477094311232
763.0, 0.01037063098572505
764.0, 0.009115167878871068
765.0, 0.012484354728790515
766.0, 0.012531919041980413
767.0, 0.008865727184666668
768.0, 0.00691841439439641
769.0, 0.008842449814387874
770.0, 0.009835301571165408
771.0, 0.008328106859513672
772.0, 0.011380601613742602
773.0, 0.009591124976170004
774.0, 0.008403374113355394
775.0, 0.008493724297466178
776.0, 0.007599577437419681
777.0, 0.006738940815372258
778.0, 0.006470305708435483
779.0, 0.006178091656926629
780.0, 0.0010005546260362405
781.0, 0.005061154437984833
782.0, 0.0056421555508073505
783.0, 0.00354507101931972
784.0, 0.003132101235923222
785.0, 0.000864421311296892
786.0, 0.0022149964330783066
787.0, 0.0018240784446857605
788.0, 0.0003719361749044255
789.0, 0.001942347180585224
790.0, 0.000935363338866956
791.0, 0.0007726772825201189
792.0, 0.0008984643860965162
793.0, 0.004116940717600431
794.0, 0.0010078024700955171
795.0, 0.0010848913951890492
796.0, 0.002555575357800267
797.0, 0.0026547306470522643
798.0, 0.0010077022614672466
799.0, 0.00279055695611619
800.0, 0.004915320034543063
801.0, 0.004286887549977523
802.0, 0.002631608951320874
803.0, 0.004105951060421749
804.0, 0.0028167200041248753
805.0, 0.0013335044084441688
806.0, 0.000497864009478797
807.0, 0.0010217312284917445
808.0, 0.0010872604381620646
809.0, 0.0005693459971857998
810.0, 0.001595490702311641
811.0, 0.0024075289040838633
812.0, 0.0034373752255305273
813.0, 0.005830355815376763
814.0, 0.004931165476163443
815.0, 0.0016239292413435206
816.0, 0.0002680647424588083
817.0, 0.001431612776914792
818.0, 0.0034781625936011955
819.0, 0.004050424646112488
820.0, 0.005821430159175646
821.0, 0.0069877916452073556
822.0, 0.008018458197642263
823.0, 0.008842278818346498
824.0, 0.009779148295255271
825.0, 0.01404073503660305
826.0, 0.01570825472149438
827.0, 0.01870787497057353
828.0, 0.016750657088187692
829.0, 0.019622695816564464
830.0, 0.02522661018618899
831.0, 0.025175498583277903
832.0, 0.02185064713890036
833.0, 0.021873744345089898
834.0, 0.02442703863836241
835.0, 0.023615943355611024
836.0, 0.021560203225444604
837.0, 0.019110533816355572
838.0, 0.019107330025034584
839.0, 0.020028539564742563
840.0, 0.021302835400793852
841.0, 0.024292291649181424
842.0, 0.023529128142589714
843.0, 0.02415280723099884
844.0, 0.024878466047153977
845.0, 0.032226985895643726
846.0, 0.03621063904242738
847.0, 0.03959262410754329
848.0, 0.04524800733840442
849.0, 0.04999135384278334
850.0, 0.05753712430892072
851.0, 0.06361452902876191
852.0, 0.06898903212066637
853.0, 0.08025730063271949
854.0, 0.09037048653955308
855.0, 0.10193772708207512
856.0, 0.11668625498914871
857.0, 0.13111877371067782
858.0, 0.14851780786916538
859.0, 0.1723587016458343
860.0, 0.1894730931077859
861.0, 0.21628502552880205
862.0, 0.23736582243513552
863.0, 0.2663844904461091
864.0, 0.28809572638467335
865.0, 0.29958443861475265
866.0, 0.3101352737983825
867.0, 0.3062458511641292
868.0, 0.30067782165515344
869.0, 0.2933011501199891
870.0, 0.2872347037300519
871.0, 0.2855537941147058
872.0, 0.2907007185940237
873.0, 0.302230340047822
874.0, 0.3208706374142754
875.0, 0.34793872024728834
876.0, 0.37953355862272115
877.0, 0.4096416672228876
878.0, 0.45403905957954604
879.0, 0.4986286681385718
880.0, 0.5497612006996271
881.0, 0.60238826441625
882.0, 0.655092285022275
883.0, 0.7124373209707613
884.0, 0.7713785766313762
885.0, 0.8285756959769374
886.0, 0.8781887388661578
887.0, 0.9202147320677123
888.0, 0.9419213520202255
889.0, 0.9253522929404846
890.0, 0.87869354636243
891.0, 0.8191431486442271
892.0, 0.7493004559847837
893.0, 0.6721623038705452
894.0, 0.6068822952368239
895.0, 0.5417348232856966
896.0, 0.49481927321697483
897.0, 0.45525354285095243
898.0, 0.42874855271872797
899.0, 0.41498091485249045
900.0, 0.40864351480452726
901.0, 0.4092049047273631
902.0, 0.4171805631923979
903.0, 0.43050669513067574
904.0, 0.4502747901249251
905.0, 0.47516486231027205
906.0, 0.517240560578123
907.0, 0.555311959067392
908.0, 0.5978514519511644
909.0, 0.6445053638927556
910.0, 0.695566694549359
911.0, 0.753446632607027
912.0, 0.8094304538366646
913.0, 0.864711489960789
914.0, 0.9116018405033716
915.0, 0.9606504588055936
916.0, 0.9893976022087932
917.0, 0.9997492517439078
918.0, 0.9827454175897814
919.0, 0.9340530138031116
920.0, 0.8645486498988952
921.0, 0.7838254950307831
922.0, 0.6930323918445311
923.0, 0.6113594792326646
924.0, 0.5317962509817965
925.0, 0.4627777318220281
926.0, 0.39973212183639384
927.0, 0.3422841245176973
928.0, 0.29335404439820806
929.0, 0.25336273488877326
930.0, 0.2183322210134617
931.0, 0.18485000487700676
932.0, 0.15580394622215085
933.0, 0.13381971471543788
934.0, 0.11452826511311351
935.0, 0.09257104289109105
936.0, 0.07806898084026796
937.0, 0.06684925902492546
938.0, 0.053386578084333766
939.0, 0.043114261341171016
940.0, 0.03665396452862525
941.0, 0.02809313629428764
942.0, 0.02515336610866629
943.0, 0.017461171982127748
944.0, 0.020187324397298916
945.0, 0.015429779668472476
946.0, 0.010749280055922765
947.0, 0.008474903558948591
948.0, 0.005619828657545813
949.0, 0.004959121225833304
950.0, 0.005635741657039633
951.0, 0.0012979589811362461
952.0, 0.002667870104615576
953.0, 0.003891986297373723
954.0, 0.0029411033804754324
955.0, 0.0039259599650642435
956.0, 0.0058956023183767406
957.0, 0.007648883674129596
958.0, 0.006168566913018102
959.0, 0.0019016911797864583
960.0, 0.0014774742069233351
961.0, 0.004356913944111714
962.0, 0.0009920679278091196
963.0, 0.002751475148833055
964.0, 0.0019799457176205635
965.0, 0.0008332164614575678
966.0, 0.004729941474840956
967.0, 0.0066960761757497095
968.0, 0.009528057125915675
969.0, 0.013559722869422985
970.0, 0.014196298405768824
971.0, 0.018764080883345437
972.0, 0.0264364086202185
973.0, 0.033505606466444814
974.0, 0.04073661829538421
975.0, 0.048050138670410344
976.0, 0.06049031584523626
977.0, 0.07529393419357992
978.0, 0.08569929233530467
979.0, 0.09545650618604402
980.0, 0.10339305153845008
981.0, 0.10360901282085802
982.0, 0.10021993823254284
983.0, 0.09089919624493144
984.0, 0.07709322574359592
985.0, 0.06329173379299041
986.0, 0.049511496880448036
987.0, 0.039066184498729645
988.0, 0.028792882165874376
989.0, 0.022868978523365044
990.0, 0.01708209979119259
991.0, 0.010707862413163929
992.0, 0.009601246134832977
993.0, 0.001063078534743403
994.0, 0.00033694320515179294
995.0, 0.0005532012094391085
996.0, 0.002372429199679772
997.0, 0.002727703599892719
998.0, 0.003658406636732556
999.0, 0.005642188596363502
1000.0, 0.004860807705778042
1001.0, 0.0034975256506389507
1002.0, 0.003177919998501461
1003.0, 0.0021762447315691828
1004.0, 0.0011642089622605635
1005.0, 0.003016148438248475
1006.0, 0.0013342128043340867
1007.0, 0.0047930414498340455
1008.0, 0.011536553800910562
1009.0, 0.01664373442642997
1010.0, 0.02305486196877372
1011.0, 0.026292451179431756
1012.0, 0.03179812119159075
1013.0, 0.042457744010299
1014.0, 0.05159898732328205
1015.0, 0.06250006138000644
1016.0, 0.07552724985828406
1017.0, 0.08951537498853071
1018.0, 0.11247965472482248
1019.0, 0.12091650109595221
1020.0, 0.12409638820791041
1021.0, 0.12713269808297173
1022.0, 0.12037550128906642
1023.0, 0.10958602552641289
1024.0, 0.09656980236325202
1025.0, 0.08088854370227753
1026.0, 0.06993911793925342
1027.0, 0.05632887732568017
1028.0, 0.04720985168822528
1029.0, 0.04259405890488116
1030.0, 0.03990160474196121
1031.0, 0.034534143027070786
1032.0, 0.03049822975209873
1033.0, 0.031013709469608082
1034.0, 0.032408905041180304
1035.0, 0.0329221726193373
1036.0, 0.03122196152253024
1037.0, 0.02857452616327217
1038.0, 0.029548043749171433
1039.0, 0.0326804322854281
1040.0, 0.031222745637892086
1041.0, 0.03523684543581202
1042.0, 0.03799261396025702
1043.0, 0.032807028220014176
1044.0, 0.033829816244997174
1045.0, 0.03434405544373049
1046.0, 0.03337147127984671
1047.0, 0.03250957841552049
1048.0, 0.031847059339067195
1049.0, 0.03188512377621845
1050.0, 0.029008338110525462
1051.0, 0.024671878258927516
1052.0, 0.02808206920056551
1053.0, 0.02506105926928417
1054.0, 0.023599738643409664
1055.0, 0.021746169023318662
1056.0, 0.018712676501776594
1057.0, 0.01816578497129645
1058.0, 0.020399377324495635
1059.0, 0.018308554996513845
1060.0, 0.016292775693425184
1061.0, 0.015767248724695287
1062.0, 0.013000838776143992
1063.0, 0.013311499197361756
1064.0, 0.016251352163498715
1065.0, 0.01391886453473068
1066.0, 0.014684179523648533
1067.0, 0.00936225330726371
1068.0, 0.009961803707506574
1069.0, 0.013076775549009372
1070.0, 0.016400326776135028
1071.0, 0.01630317704694993
1072.0, 0.01732897806953772
1073.0, 0.020492553780308672
1074.0, 0.02661834366557264
1075.0, 0.03283919632702884
1076.0, 0.037671226674752284
1077.0, 0.04673080330900082
1078.0, 0.05200620687474191
1079.0, 0.06811578941531422
1080.0, 0.07614825361003542
1081.0, 0.08587223876599849
1082.0, 0.0971684800558815
1083.0, 0.1166776566605715
1084.0, 0.13444519988994283
1085.0, 0.14548189579147022
1086.0, 0.15505783525823627
1087.0, 0.16071946235710327
1088.0, 0.15393267994124604
1089.0, 0.13996730089035564
1090.0, 0.1245481821033752
1091.0, 0.10159255950543813
1092.0, 0.08525087699700203
1093.0, 0.06235254719181989
1094.0, 0.04487333296690781
1095.0, 0.03887318398661545
1096.0, 0.03550783176875601
1097.0, 0.031170816480564724
1098.0, 0.024242425357899063
1099.0, 0.016918919014076328
1100.0, 0.013013698405468517
1101.0, 0.01398958502352388
1102.0, 0.013602942023548744
1103.0, 0.010867346110632543
1104.0, 0.010987474586119941
1105.0, 0.008599926744274603
1106.0, 0.005428895615336087
1107.0, 0.0065529086969733415
1108.0, 0.004460916181473251
1109.0, 0.0022866111925276505
1110.0, 0.0037721954495518748
1111.0, 0.005137274599830299
1112.0, 0.004213737979047228
1113.0, 0.0023516004904776404
1114.0, 0.0018749332984261662
1115.0, 0.001296287642934818
1116.0, 0.0024440774863661624
1117.0, 0.0036472025561236146
1118.0, 0.0022070978726278475
1119.0, 3.299563540416347e-05
1120.0, 0.0020904731898507985
1121.0, 0.0018031101860237614
1122.0, 0.0013355624562362196
1123.0, 0.000418310154581767
1124.0, 0.0016125281165676067
1125.0, 0.0006084123451832943
1126.0, 0.0022812540524902477
1127.0, 0.0008771514805337914
1128.0, 0.0034941095614854493
1129.0, 0.0030500822434375006
1130.0, 0.0008634939709646532
1131.0, 0.0026626000653247025
1132.0, 0.005314014792644561
1133.0, 0.0030366045187636137
1134.0, 0.0007544759421774602
1135.0, 0.0012229801672229825
1136.0, 0.0013925027074222543
1137.0, 0.0011217471331353473
1138.0, 0.0013243041302812245
1139.0, 0.0003107175780696441
1140.0, 0.0009549410844536328
1141.0, 0.002715882432516139
1142.0, 0.0022337086079798046
1143.0, 0.00011298553931458991
1144.0, 0.004143195570963693
1145.0, 0.002534506488514188
1146.0, 0.0033721603228757343
1147.0, 0.004905953033989741
1148.0, 0.003084230855695366
1149.0, 0.0026824652850029477
1150.0, 0.0028748409195498087
1151.0, 0.0017482439429462743
1152.0, 0.002192592850256543
1153.0, 0.0010855997852474324
1154.0, 0.0016906194292890277
1155.0, 0.0024293156440949267
1156.0, 0.0007236461003505288
1157.0, 0.004924042514661696
1158.0, 0.004747745153016288
1159.0, 0.003459646166849728
1160.0, 0.0013994262343927655
1161.0, 0.002018661514065246
1162.0, 0.004263851462022265
1163.0, 0.0032562922952509787
1164.0, 0.000823791024117281
1165.0, 0.0012867344778110235
1166.0, 0.003010180006468159
1167.0, 0.0031717554884231657
1168.0, 0.0034293068594092612
1169.0, 0.007241015884584364
1170.0, 0.005613730706303467
1171.0, 0.005641072882477528
1172.0, 0.005786198949062054
1173.0, 0.00581604864275298
1174.0, 0.004103216986054209
1175.0, 0.003768562635203618
1176.0, 0.005192463678132267
1177.0, 0.006649708015835771
1178.0, 0.00481995347086021
1179.0, 0.0031833843240300693
1180.0, 0.003184906849834015
1181.0, 0.003452439941014921
1182.0, 0.0034515665809096547
1183.0, 0.0014487938289767482
1184.0, 0.0017195877952770643
1185.0, 0.003312224812889395
1186.0, 0.0021291233992927682
1187.0, 0.003317090010950848
1188.0, 0.005800837791965615
1189.0, 0.004982016330914587
1190.0, 0.004003855071612505
1191.0, 0.003914998561609409
1192.0, 0.003971501522877296
1193.0, 0.0051281105357778465
1194.0, 0.004654598960956168
1195.0, 0.006151442825964384
1196.0, 0.006245532788079133
1197.0, 0.003183038722207116
1198.0, 0.005437873264210588
1199.0, 0.005636203831526704
1200.0, 0.004617790020541788
1201.0, 0.006128549929699611
1202.0, 0.004555737391929055
1203.0, 0.00393562060093912
1204.0, 0.004135635947776424
1205.0, 0.0012372851842088598
1206.0, 0.005883172548451382
1207.0, 0.007962798182954308
1208.0, 0.004116838707828945
1209.0, 0.003639123822683609
1210.0, 0.004006367510677254
1211.0, 0.0029837229549005283
1212.0, 0.0017110369046657175
1213.0, 0.0024145864952015554
1214.0, 0.005425700510598323
1215.0, 0.004856971355766427
1216.0, 0.003896595796402354
1217.0, 0.0008678474916018982
1218.0, 0.0005502449716512396
1219.0, 0.00349973162903887
1220.0, 0.005597027508215678
1221.0, 0.002435659156238292
1222.0, 0.00014186427852778987
1223.0, 0.0023320771926025833
1224.0, 0.0038070576732360238
1225.0, 0.002112676551259344
1226.0, 0.0014855422713950055
1227.0, 0.004259335723173542
1228.0, 0.004383443432975779
1229.0, 0.0025001336785708244
1230.0, 0.0025250507871022987
1231.0, 0.000670024391915961
1232.0, 0.001037623539656102
1233.0, 0.0021867851376940212
1234.0, 0.0012460898116340873
1235.0, 0.003272789653914032
1236.0, 0.00459723197445891
1237.0, 0.0005383744597647015
1238.0, 0.003785127810249309
1239.0, 0.005182868219167791
1240.0, 0.0010409887935742528
1241.0, 0.0019885310658665817
1242.0, 0.00444579733183951
1243.0, 0.003621425727488325
1244.0, 0.005313045014779779
1245.0, 0.004346609029039306
1246.0, 0.002649548017308377
1247.0, 0.0051912075831247245
1248.0, 0.0053424493230798615
1249.0, 0.0024352289256773406
1250.0, 0.0012636479984501857
1251.0, 0.001778198300695041
1252.0, 0.00014622199684106985
1253.0, 0.00024278561049305186
1254.0, 0.0021571834067683937
1255.0, 0.0016835926334700714
1256.0, 0.0012518406460466979
1257.0, 0.0015812831589414843
1258.0, 0.0025825383466211074
1259.0, 0.005782196054590781
1260.0, 0.004143658235874614
1261.0, 0.0028997051238932345
1262.0, 0.0005994016094687351
1263.0, 0.0011277406018197888
1264.0, 0.006548854717408794
1265.0, 0.004305301993249276
1266.0, 0.002408538315317278
1267.0, 0.001685203388053527
1268.0, 0.004027740973090473
1269.0, 0.004032716235715009
1270.0, 0.003588651217490415
1271.0, 0.004273047970620396
1272.0, 0.004830944990519889
1273.0, 0.004438036292392357
1274.0, 0.004291850443607154
1275.0, 0.005006744321616277
1276.0, 0.0035345105171810773
1277.0, 0.002191805769717438
1278.0, 0.00204516644334924
1279.0, 0.0019203144747427104
1280.0, 0.003167150416879635
1281.0, 0.001452000973639045
1282.0, 0.0007918805834197434
1283.0, 4.616878763201513e-05
1284.0, 0.0003928557273648887
1285, 0.0
1286, 0.0
1287, 0.0
1288, 0.0
1289, 0.0
1290, 0.0
1291, 0.0
1292, 0.0
1293, 0.0
1294, 0.0
1295, 0.0
1296, 0.0
1297, 0.0
1298, 0.0
1299, 0.0
1300, 0.0
1301, 0.0
1302, 0.0
1303, 0.0
1304, 0.0
1305, 0.0
1306, 0.0
1307, 0.0
1308, 0.0
1309, 0.0
1310, 0.0
1311, 0.0
1312, 0.0
1313, 0.0
1314, 0.0
1315, 0.0
1316, 0.0
1317, 0.0
1318, 0.0
1319, 0.0
1320, 0.0
1321, 0.0
1322, 0.0
1323, 0.0
1324, 0.0
1325, 0.0
1326, 0.0
1327, 0.0
1328, 0.0
1329, 0.0
1330, 0.0
1331, 0.0
1332, 0.0
1333, 0.0
1334, 0.0
1335, 0.0
1336, 0.0
1337, 0.0
1338, 0.0
1339, 0.0
1340, 0.0
1341, 0.0
1342, 0.0
1343, 0.0
1344, 0.0
1345, 0.0
1346, 0.0
1347, 0.0
1348, 0.0
1349, 0.0
1350, 0.0
1351, 0.0
1352, 0.0
1353, 0.0
1354, 0.0
1355, 0.0
1356, 0.0
1357, 0.0
1358, 0.0
1359, 0.0
1360, 0.0
1361, 0.0
1362, 0.0
1363, 0.0
1364, 0.0
1365, 0.0
1366, 0.0
1367, 0.0
1368, 0.0
1369, 0.0
1370, 0.0
1371, 0.0
1372, 0.0
1373, 0.0
1374, 0.0
1375, 0.0
1376, 0.0
1377, 0.0
1378, 0.0
1379, 0.0
1380, 0.0
1381, 0.0
1382, 0.0
1383, 0.0
1384, 0.0
1385, 0.0
1386, 0.0
1387, 0.0
1388, 0.0
1389, 0.0
1390, 0.0
1391, 0.0
1392, 0.0
1393, 0.0
1394, 0.0
1395, 0.0
1396, 0.0
1397, 0.0
1398, 0.0
1399, 0.0
1400, 0.0
1401, 0.0
1402, 0.0
1403, 0.0
1404, 0.0
1405, 0.0
1406, 0.0
1407, 0.0
1408, 0.0
1409, 0.0
1410, 0.0
1411, 0.0
1412, 0.0
1413, 0.0
1414, 0.0
1415, 0.0
1416, 0.0
1417, 0.0
1418, 0.0
1419, 0.0
1420, 0.0
1421, 0.0
1422, 0.0
1423, 0.0
1424, 0.0
1425, 0.0
1426, 0.0
1427, 0.0
1428, 0.0
1429, 0.0
1430, 0.0
1431, 0.0
1432, 0.0
1433, 0.0
1434, 0.0
1435, 0.0
1436, 0.0
1437, 0.0
1438, 0.0
1439, 0.0
1440, 0.0
1441, 0.0
1442, 0.0
1443, 0.0
1444, 0.0
1445, 0.0
1446, 0.0
1447, 0.0
1448, 0.0
1449, 0.0
1450, 0.0
1451, 0.0
1452, 0.0
1453, 0.0
1454, 0.0
1455, 0.0
1456, 0.0
1457, 0.0
1458, 0.0
1459, 0.0
1460, 0.0
1461, 0.0
1462, 0.0
1463, 0.0
1464, 0.0
1465, 0.0
1466, 0.0
1467, 0.0
1468, 0.0
1469, 0.0
1470, 0.0
1471, 0.0
1472, 0.0
1473, 0.0
1474, 0.0
1475, 0.0
1476, 0.0
1477, 0.0
1478, 0.0
1479, 0.0
1480, 0.0
1481, 0.0
1482, 0.0
1483, 0.0
1484, 0.0
1485, 0.0
1486, 0.0
1487, 0.0
1488, 0.0
1489, 0.0
1490, 0.0
1491, 0.0
1492, 0.0
1493, 0.0
1494, 0.0
1495, 0.0
1496, 0.0
1497, 0.0
1498, 0.0
1499, 0.0
1500, 0.0
1501, 0.0
1502, 0.0
1503, 0.0
1504, 0.0
1505, 0.0
1506, 0.0
1507, 0.0
1508, 0.0
1509, 0.0
1510, 0.0
1511, 0.0
1512, 0.0
1513, 0.0
1514, 0.0
1515, 0.0
1516, 0.0
1517, 0.0
1518, 0.0
1519, 0.0
1520, 0.0
1521, 0.0
1522, 0.0
1523, 0.0
1524, 0.0
1525, 0.0
1526, 0.0
1527, 0.0
1528, 0.0
1529, 0.0
1530, 0.0
1531, 0.0
1532, 0.0
1533, 0.0
1534, 0.0
1535, 0.0
1536, 0.0
1537, 0.0
1538, 0.0
1539, 0.0
1540, 0.0
1541, 0.0
1542, 0.0
1543, 0.0
1544, 0.0
1545, 0.0
1546, 0.0
1547, 0.0
1548, 0.0
1549, 0.0
1550, 0.0
1551, 0.0
1552, 0.0
1553, 0.0
1554, 0.0
1555, 0.0
1556, 0.0
1557, 0.0
1558, 0.0
1559, 0.0
1560, 0.0
1561, 0.0
1562, 0.0
1563, 0.0
1564, 0.0
1565, 0.0
1566, 0.0
1567, 0.0
1568, 0.0
1569, 0.0
1570, 0.0
1571, 0.0
1572, 0.0
1573, 0.0
1574, 0.0
1575, 0.0
1576, 0.0
1577, 0.0
1578, 0.0
1579, 0.0
1580, 0.0
1581, 0.0
1582, 0.0
1583, 0.0
1584, 0.0
1585, 0.0
1586, 0.0
1587, 0.0
1588, 0.0
1589, 0.0
1590, 0.0
1591, 0.0
1592, 0.0
1593, 0.0
1594, 0.0
1595, 0.0
1596, 0.0
1597, 0.0
1598, 0.0
1599, 0.0
