30, 0.0
31, 0.0
32, 0.0
33, 0.0
34, 0.0
35, 0.0
36, 0.0
37, 0.0
38, 0.0
39, 0.0
40, 0.0
41, 0.0
42, 0.0
43, 0.0
44, 0.0
45, 0.0
46, 0.0
47, 0.0
48, 0.0
49, 0.0
50, 0.0
51, 0.0
52, 0.0
53, 0.0
54, 0.0
55, 0.0
56, 0.0
57, 0.0
58, 0.0
59, 0.0
60, 0.0
61, 0.0
62, 0.0
63, 0.0
64, 0.0
65, 0.0
66, 0.0
67, 0.0
68, 0.0
69, 0.0
70, 0.0
71, 0.0
72, 0.0
73, 0.0
74, 0.0
75, 0.0
76, 0.0
77, 0.0
78, 0.0
79, 0.0
80, 0.0
81, 0.0
82, 0.0
83, 0.0
84, 0.0
85, 0.0
86, 0.0
87, 0.0
88, 0.0
89, 0.0
90, 0.0
91, 0.0
92, 0.0
93, 0.0
94, 0.0
95, 0.0
96, 0.0
97, 0.0
98, 0.0
99, 0.0
100, 0.0
101, 0.0
102, 0.0
103, 0.0
104, 0.0
105, 0.0
106, 0.0
107, 0.0
108, 0.0
109, 0.0
110, 0.0
111, 0.0
112, 0.0
113, 0.0
114, 0.0
115, 0.0
116, 0.0
117, 0.0
118, 0.0
119, 0.0
120, 0.0
121, 0.0
122, 0.0
123, 0.0
124.0, 0.021479683719003394
125.0, 0.012145416762771996
126.0, 0.008036642844059593
127.0, 0.02041003622676339
128.0, 0.023770400343636425
129.0, 0.049630835721933955
130.0, 0.06709344163322445
131.0, 0.11390312417151312
132.0, 0.15694359215000722
133.0, 0.14580847079190323
134.0, 0.1620409955153361
135.0, 0.13317721411149802
136.0, 0.10799446951774294
137.0, 0.09366942382738679
138.0, 0.08578702939567676
139.0, 0.07404369800902108
140.0, 0.0763890610837534
141.0, 0.05834383050023917
142.0, 0.07049421543299993
143.0, 0.10996228156833705
144.0, 0.11987052294330872
145.0, 0.10936564529329659
146.0, 0.11364818762891359
147.0, 0.1114108414767748
148.0, 0.09621977329337326
149.0, 0.07055380428372136
150.0, 0.04640240240323811
151.0, 0.05679661253917639
152.0, 0.03444204637843772
153.0, 0.01016231177037901
154.0, 0.011828494488360366
155.0, 0.038916305133709556
156.0, 0.022274859060148963
157.0, 0.034600829072876156
158.0, 0.03421498365549388
159.0, 0.025436632991036098
160.0, 0.03667915068923763
161.0, 0.046942169851492715
162.0, 0.03421866934435576
163.0, 0.03867772140501585
164.0, 0.0546089721691087
165.0, 0.06613074376267512
166.0, 0.0595972134438639
167.0, 0.05165684898665466
168.0, 0.07513850291191741
169.0, 0.06972215020227872
170.0, 0.04114370797514703
171.0, 0.04756974150651147
172.0, 0.03801762170935474
173.0, 0.016467832528365693
174.0, 0.005677816620893647
175.0, 0.011852595331002268
176.0, 0.03282440268449979
177.0, 0.059082165801206794
178.0, 0.049248448009114584
179.0, 0.055614551930096144
180.0, 0.0532302445528251
181.0, 0.04356921767785965
182.0, 0.05790979825178784
183.0, 0.06640208076491155
184.0, 0.05972496705119556
185.0, 0.06637610218634166
186.0, 0.08685549452630524
187.0, 0.1098141387398534
188.0, 0.12091379505050134
189.0, 0.14132147513649954
190.0, 0.16792241490637075
191.0, 0.1982676775890882
192.0, 0.22981432144610472
193.0, 0.2592189212725544
194.0, 0.26363528500787137
195.0, 0.2543088292004165
196.0, 0.23195738185705336
197.0, 0.22369590991227795
198.0, 0.2388728285315524
199.0, 0.19621817761879887
200.0, 0.23156454687107533
201.0, 0.25124380445380884
202.0, 0.2546106980552231
203.0, 0.2439027094045594
204.0, 0.2178307927208328
205.0, 0.20053351332498903
206.0, 0.15453668033953352
207.0, 0.1259237852819393
208.0, 0.10130203125953578
209.0, 0.06083127549198924
210.0, 0.025018300446354405
211.0, 0.019394386414648995
212.0, 0.012065827688664786
213.0, 0.010701944768784298
214.0, 0.014890232079160914
215.0, 0.01683324188021543
216.0, 0.0305808085062785
217.0, 0.02171996171320778
218.0, 0.027329650245546115
219.0, 0.02897051514128321
220.0, 0.018209027802013784
221.0, 0.04062106191028912
222.0, 0.04899093699470316
223.0, 0.06869373408003124
224.0, 0.10655653904000198
225.0, 0.13527694158700568
226.0, 0.1275695977990106
227.0, 0.19220077287811177
228.0, 0.18542140913696348
229.0, 0.22262506074146576
230.0, 0.2785171322986031
231.0, 0.3166347208896347
232.0, 0.3253049670112009
233.0, 0.2884287469917568
234.0, 0.2911277462489954
235.0, 0.2797410262549808
236.0, 0.24339128460049544
237.0, 0.2037900247175706
238.0, 0.22276814082275362
239.0, 0.24558594846759582
240.0, 0.21853459862287056
241.0, 0.19258081550157308
242.0, 0.1803011951843013
243.0, 0.15089355284727982
244.0, 0.12447090537837772
245.0, 0.08605204452133189
246.0, 0.053870478654165055
247.0, 0.02787407992639899
248.0, 0.008304616413410262
249.0, 0.0054014584769535336
250.0, 0.020229386614788306
251.0, 0.01437739495927067
252.0, 0.019549197059979005
253.0, 0.029144594261526567
254.0, 0.02122342711586875
255.0, 0.005472024631444984
256.0, 0.019446008064556375
257.0, 0.03017564775144982
258.0, 0.02572082576863468
259.0, 0.0118798210717968
260.0, 0.01090274059873294
261.0, 0.054268601382211554
262.0, 0.019326785447504394
263.0, 0.033610988630594286
264.0, 0.04753917158628465
265.0, 0.027711255207394515
266.0, 0.06565571704619941
267.0, 0.09214532693894538
268.0, 0.1046635307313247
269.0, 0.10823934966510397
270.0, 0.11690537775217436
271.0, 0.14711661074692417
272.0, 0.21019989395030048
273.0, 0.1984522295628433
274.0, 0.20429878272033888
275.0, 0.1947783243073113
276.0, 0.18170083277154386
277.0, 0.20839829576844693
278.0, 0.17959505243366694
279.0, 0.14224535151442033
280.0, 0.12362505307733085
281.0, 0.11518226659269344
282.0, 0.10664435654425543
283.0, 0.09913529771074796
284.0, 0.15037377377605687
285.0, 0.16114076521242693
286.0, 0.1708727361166556
287.0, 0.1922346843916078
288.0, 0.22228683745922914
289.0, 0.24674357329137406
290.0, 0.2821089716854113
291.0, 0.3149636579717988
292.0, 0.35398384176669295
293.0, 0.3643188001661297
294.0, 0.3213750609313725
295.0, 0.33556843681027343
296.0, 0.2489319913492476
297.0, 0.23373802865804705
298.0, 0.21186205965459418
299.0, 0.1843139053532222
300.0, 0.21563952109914628
301.0, 0.18905289076476212
302.0, 0.1983152114623719
303.0, 0.17419676956581165
304.0, 0.1447425146398244
305.0, 0.13419878801938268
306.0, 0.13523784342133463
307.0, 0.09398615680604758
308.0, 0.09787730325845664
309.0, 0.07252919234489774
310.0, 0.06494723982862531
311.0, 0.09984686900439876
312.0, 0.10777904124748582
313.0, 0.09427780732504698
314.0, 0.1168248859148391
315.0, 0.12537906892798803
316.0, 0.11778945733077992
317.0, 0.1105142228090657
318.0, 0.11497847388324493
319.0, 0.11367831470220537
320.0, 0.14647311954021847
321.0, 0.15650295879281287
322.0, 0.16722357492260134
323.0, 0.21354144153833815
324.0, 0.22541913257904184
325.0, 0.24129430810034413
326.0, 0.2644449802383973
327.0, 0.2603441448172979
328.0, 0.25747810427563894
329.0, 0.29164574500567036
330.0, 0.24383491827823375
331.0, 0.24995675277298682
332.0, 0.22223480229106962
333.0, 0.18030290874772614
334.0, 0.1535629156062366
335.0, 0.15406049892094076
336.0, 0.11266915384452664
337.0, 0.0528741894379447
338.0, 0.05054386570782688
339.0, 0.05799928149859451
340.0, 0.05457730800300946
341.0, 0.06117760712951476
342.0, 0.07601280731641596
343.0, 0.07785777659954878
344.0, 0.07148598934088218
345.0, 0.06326841671336508
346.0, 0.05457663308250312
347.0, 0.04124311088399975
348.0, 0.023880219859506266
349.0, 0.010068562361039698
350.0, 0.005974334091873454
351.0, 0.012260159447827188
352.0, 0.02986083235287462
353.0, 0.05593960310223252
354.0, 0.02671167433027821
355.0, 0.06295122898370982
356.0, 0.05425531419407354
357.0, 0.05795015172721291
358.0, 0.09656753963364703
359.0, 0.1067660156269222
360.0, 0.15360459946928712
361.0, 0.164214355775154
362.0, 0.18651613028084835
363.0, 0.21339821969035114
364.0, 0.2320215814179409
365.0, 0.2434478844351355
366.0, 0.27825376475677593
367.0, 0.25110996269775354
368.0, 0.24507235573365513
369.0, 0.24062449676119335
370.0, 0.22906165329674508
371.0, 0.24452620074908066
372.0, 0.23135960807974998
373.0, 0.18776021471580112
374.0, 0.18534767753993742
375.0, 0.18499710997842367
376.0, 0.1555964394078893
377.0, 0.11632651908716775
378.0, 0.09233497526365922
379.0, 0.07309734932552604
380.0, 0.044868797126026455
381.0, 0.038580738100806054
382.0, 0.050726222380972075
383.0, 0.03203763261055284
384.0, 0.03093015276748609
385.0, 0.022469592046090284
386.0, 0.0140968314277966
387.0, 0.009455620749866892
388.0, 0.008448339119480931
389.0, 0.008025727226046586
390.0, 0.00923512359523825
391.0, 0.01717139793013077
392.0, 0.00894982976234133
393.0, 0.0035762112496552307
394.0, 0.012711109520936813
395.0, 0.02711269921836159
396.0, 0.008786247110591568
397.0, 0.0024191130957617437
398.0, 0.00603585641112966
399.0, 0.010178896919216938
400.0, 0.009531007351036706
401.0, 0.005042935339760646
402.0, 0.002031839835754937
403.0, 0.007729340502692193
404.0, 0.006835813771354415
405.0, 0.007264392650490245
406.0, 0.009445799985033816
407.0, 0.00880714598490742
408.0, 0.011898915209055729
409.0, 0.027577843061842515
410.0, 0.02469610377708411
411.0, 0.016672457394420068
412.0, 0.008926546820920575
413.0, 0.004425835221881872
414.0, 0.020442481294959052
415.0, 0.018293626578264225
416.0, 0.007205274439348634
417.0, 0.014731658039687333
418.0, 0.04317420559459469
419.0, 0.0707277789969388
420.0, 0.05714680900670624
421.0, 0.06398057678950576
422.0, 0.09343077111445987
423.0, 0.10699180212193383
424.0, 0.11155262148456285
425.0, 0.12204153559363444
426.0, 0.13502027504087816
427.0, 0.12432901614715866
428.0, 0.12490015467238734
429.0, 0.16306080663285102
430.0, 0.18989851366589816
431.0, 0.19299433375999958
432.0, 0.21982053951747862
433.0, 0.23496868268138563
434.0, 0.25985651966193585
435.0, 0.2779785623461273
436.0, 0.28973100211949826
437.0, 0.31007476670192785
438.0, 0.35159166821825444
439.0, 0.3723252601154764
440.0, 0.3767336996113777
441.0, 0.3743580517699567
442.0, 0.3840522253778048
443.0, 0.3865928387224474
444.0, 0.35972775638641974
445.0, 0.3416758503403638
446.0, 0.36937802689523347
447.0, 0.36480608738843645
448.0, 0.3436615408723118
449.0, 0.33806733894501567
450.0, 0.3416308209284544
451.0, 0.28050795654956034
452.0, 0.2546371818742881
453.0, 0.2734489983949805
454.0, 0.25754257111219636
455.0, 0.23735195814894117
456.0, 0.23520329661294578
457.0, 0.22677327528615157
458.0, 0.18788990792860888
459.0, 0.24129747542842864
460.0, 0.24795398617286063
461.0, 0.2367284915272186
462.0, 0.24147831556074897
463.0, 0.27340150979501493
464.0, 0.32313830782579284
465.0, 0.37265565649167787
466.0, 0.3656548613669904
467.0, 0.35910988498432594
468.0, 0.3848122454384468
469.0, 0.44308936046547276
470.0, 0.5067277113919183
471.0, 0.5438496204182666
472.0, 0.6129116345870431
473.0, 0.6651860490406831
474.0, 0.7189336658468444
475.0, 0.7761426936639099
476.0, 0.8064920369883888
477.0, 0.8358463791285339
478.0, 0.8544393323879519
479.0, 0.8460827073476099
480.0, 0.7532021306045069
481.0, 0.6349235806141299
482.0, 0.575292911333804
483.0, 0.4838444047134083
484.0, 0.4190630935248042
485.0, 0.3155809275481462
486.0, 0.2468927816595351
487.0, 0.21251239493839752
488.0, 0.1763832816456787
489.0, 0.11140675551064777
490.0, 0.1110864593490019
491.0, 0.10310938383141287
492.0, 0.13654331060376737
493.0, 0.12241971777477477
494.0, 0.08209703371388727
495.0, 0.10418561101031176
496.0, 0.08025178032052366
497.0, 0.10946359442211694
498.0, 0.1093664866868354
499.0, 0.08514069913006704
500.0, 0.05752378882758669
501.0, 0.04082912448925147
502.0, 0.02957379402882456
503.0, 0.04224258486111402
504.0, 0.026594687436234873
505.0, 0.054562970184302284
506.0, 0.0455534514116239
507.0, 0.0036668075422616217
508.0, 0.01585342297660994
509.0, 0.04706825140848735
510.0, 0.020878171914640975
511.0, 0.014583985270283933
512.0, 0.009740939416352137
513.0, 0.0044893455258785105
514.0, 0.003956016984000801
515.0, 0.007160627088349214
516.0, 0.03413776741064686
517.0, 0.02219328940893671
518.0, 0.022595666762306767
519.0, 0.03040088993614991
520.0, 0.031232759000806826
521.0, 0.019735688207062854
522.0, 0.011792468765309224
523.0, 0.04977322606581706
524.0, 0.019836827712620797
525.0, 0.0024462693263772213
526.0, 0.017178768207521813
527.0, 0.03217000316063858
528.0, 0.003530164328931159
529.0, 0.03286999791811044
530.0, 0.023022950973594677
531.0, 0.008750010018873258
532.0, 0.0036151038729579405
533.0, 0.01960087359571394
534.0, 0.0485809003685067
535.0, 0.030799907859448458
536.0, 0.03943806521541667
537.0, 0.09576507124338118
538.0, 0.08997318399602927
539.0, 0.07439696842664931
540.0, 0.09456047875642873
541.0, 0.11562933997809674
542.0, 0.08218455588497209
543.0, 0.11924388633100046
544.0, 0.12642098279508013
545.0, 0.13739490405624613
546.0, 0.15903087578538413
547.0, 0.16245787607459283
548.0, 0.1102672021735012
549.0, 0.16580880497825756
550.0, 0.16391807946980866
551.0, 0.11492163920246344
552.0, 0.101944166609164
553.0, 0.11435107339736515
554.0, 0.09641076536943234
555.0, 0.11895721306897089
556.0, 0.1229106812187494
557.0, 0.13951787773217963
558.0, 0.12464929096503406
559.0, 0.11636575258924055
560.0, 0.1291864092544387
561.0, 0.1232389343437198
562.0, 0.08495602318243259
563.0, 0.10949457944685871
564.0, 0.12628885375537352
565.0, 0.09102734472598205
566.0, 0.05460561095491802
567.0, 0.07018177239618845
568.0, 0.11303992341978765
569.0, 0.10464522575994767
570.0, 0.12099627858763974
571.0, 0.10219797622182719
572.0, 0.1083174091784244
573.0, 0.1154598447770848
574.0, 0.07856915979118372
575.0, 0.05049447910712735
576.0, 0.10680328527968122
577.0, 0.06872823656530647
578.0, 0.05355816483964411
579.0, 0.05484035108734509
580.0, 0.04410611441406215
581.0, 0.024888540876272774
582.0, 0.06879048372111106
583.0, 0.01768551058336908
584.0, 0.04720004035705782
585.0, 0.03342291522944303
586.0, 0.04162945024039336
587.0, 0.07251488893190966
588.0, 0.04307264190400039
589.0, 0.02071361110684766
590.0, 0.030824538750424898
591.0, 0.027272507383717125
592.0, 0.02489375990827249
593.0, 0.042406255962185405
594.0, 0.0646588355008573
595.0, 0.056180292928258
596.0, 0.07292970914717083
597.0, 0.06632407177409483
598.0, 0.05274723683438513
599.0, 0.08570500003064993
600.0, 0.10491018669132908
601.0, 0.07904083734620056
602.0, 0.0772680632454281
603.0, 0.11644040364984307
604.0, 0.1602081721280961
605.0, 0.16500597398115965
606.0, 0.17880925120309976
607.0, 0.18498283831012882
608.0, 0.17880831752845558
609.0, 0.2061793418814162
610.0, 0.18418320486985137
611.0, 0.21656890785546004
612.0, 0.23007419663285614
613.0, 0.23550762601418823
614.0, 0.2748710993329278
615.0, 0.3156334875685228
616.0, 0.24668877543768966
617.0, 0.32148524959607283
618.0, 0.27294435346672674
619.0, 0.2719826464126143
620.0, 0.28052466151857147
621.0, 0.3043383638742686
622.0, 0.3316773623197996
623.0, 0.2954696710216497
624.0, 0.31738143530540464
625.0, 0.2533851081664515
626.0, 0.2384064535518653
627.0, 0.25979206348254835
628.0, 0.26737010887746665
629.0, 0.22701581309110783
630.0, 0.16127564420556428
631.0, 0.182038598026779
632.0, 0.1458403092047957
633.0, 0.1287330219598393
634.0, 0.13204451644560913
635.0, 0.1334710338669942
636.0, 0.12536432149915025
637.0, 0.12906267814961345
638.0, 0.14092858034536082
639.0, 0.12807378803884584
640.0, 0.13553128209509785
641.0, 0.136861397003982
642.0, 0.14547753062740487
643.0, 0.156188876332357
644.0, 0.12878020843237084
645.0, 0.0990688806593918
646.0, 0.1133539187308488
647.0, 0.11775806366625277
648.0, 0.09211719310362235
649.0, 0.08258147180119056
650.0, 0.09089353257796218
651.0, 0.06740919193646229
652.0, 0.07253275006393732
653.0, 0.0808654354181369
654.0, 0.06789907558879321
655.0, 0.04786885395202765
656.0, 0.03864364613100325
657.0, 0.04484550871175613
658.0, 0.051048370607658856
659.0, 0.027106385047895795
660.0, 0.019784311135103236
661.0, 0.01163020577436881
662.0, 0.011536158449942312
663.0, 0.01582789740459831
664.0, 0.021273928524461843
665.0, 0.02682315430919971
666.0, 0.030515369423358935
667.0, 0.04631633268417269
668.0, 0.04366770862243659
669.0, 0.05168136684267684
670.0, 0.06186059734104229
671.0, 0.08324478303078192
672.0, 0.10513630311273497
673.0, 0.07928130501466273
674.0, 0.1150273571488293
675.0, 0.07004568376588423
676.0, 0.05478580725298439
677.0, 0.05340205765733736
678.0, 0.04803200417445727
679.0, 0.05000100116124874
680.0, 0.07196963421525948
681.0, 0.0021130890548669706
682.0, 0.04962558474008419
683.0, 0.02709973814557693
684.0, 0.029345107492165397
685.0, 0.026299189234183906
686.0, 0.016304786517266676
687.0, 0.0385541162760738
688.0, 0.05142328038746241
689.0, 0.020537714254414294
690.0, 0.017062549807990185
691.0, 0.05723411383755056
692.0, 0.0699222195457916
693.0, 0.0647374946740465
694.0, 0.07948771665886269
695.0, 0.08392255589642476
696.0, 0.07844121343351633
697.0, 0.11413257610508776
698.0, 0.10027499655420886
699.0, 0.08711729540898619
700.0, 0.09497893156126089
701.0, 0.11302143165326745
702.0, 0.12271458060956351
703.0, 0.12370517527166182
704.0, 0.13088065184936826
705.0, 0.12515498432798972
706.0, 0.10032961799189405
707.0, 0.09456962689617751
708.0, 0.09260478334748044
709.0, 0.06586038114615883
710.0, 0.06106343095845288
711.0, 0.04801117293679535
712.0, 0.030650245341467076
713.0, 0.024156578008038953
714.0, 0.01817784433734491
715.0, 0.01217360008458857
716.0, 0.008115635492101515
717.0, 0.004961306256328035
718.0, 0.011216458214095821
719.0, 0.0025138784948635882
720.0, 0.010161803047655175
721.0, 0.013519342654841953
722.0, 0.01899121800069385
723.0, 0.028037744990103128
724.0, 0.034809097624622316
725.0, 0.03924968420688149
726.0, 0.03372243500409177
727.0, 0.01784126002126301
728.0, 0.02438053023360352
729.0, 0.019974714454083147
730.0, 0.007609335121744882
731.0, 0.002925467047903054
732.0, 0.013335938986435172
733.0, 0.04995443949943201
734.0, 0.017967611074709337
735.0, 0.012816331836674567
736.0, 0.013419675768528594
737.0, 0.011292924154456378
738.0, 0.0115010687155597
739.0, 0.02324349363647533
740.0, 0.04435085021668232
741.0, 0.03959947251268728
742.0, 0.008528836972730833
743.0, 0.015366128324529158
744.0, 0.011424889167829671
745.0, 0.021566059311709393
746.0, 0.02930519124866026
747.0, 0.0036353938172700734
748.0, 0.019466215737194814
749.0, 0.019997548018484877
750.0, 0.014358280399997815
751.0, 0.03531113868618567
752.0, 0.038712821574552914
753.0, 0.02216538330010654
754.0, 0.014084490741448585
755.0, 0.025593401805693097
756.0, 0.0003704176658753146
757.0, 0.006791943580194472
758.0, 0.013060205605098619
759.0, 0.026739508035775118
760.0, 0.0256795889940832
761.0, 0.013332704907983384
762.0, 0.0077334924488621426
763.0, 0.01310273848106727
764.0, 0.009308608072243537
765.0, 0.014744286436457619
766.0, 0.008591998588795287
767.0, 0.0053647904959486375
768.0, 0.03758751146497174
769.0, 0.04896041678947477
770.0, 0.007922640059652684
771.0, 0.01615388056076935
772.0, 0.009664724453649114
773.0, 0.01416869842787104
774.0, 0.030942783805413925
775.0, 0.026468193574645204
776.0, 0.01564331505878378
777.0, 0.009320982253117387
778.0, 0.005280350844312803
779.0, 0.008039410596428471
780.0, 0.00837897609461001
781.0, 0.020767763000129384
782.0, 0.007684588750748328
783.0, 0.0025601168302105326
784.0, 0.05369263129034336
785.0, 0.08052048968722135
786.0, 0.019011066709614104
787.0, 0.04681974086522935
788.0, 0.004891560554061803
789.0, 0.01072001859958062
790.0, 0.07140091041203231
791.0, 0.06286076974181576
792.0, 0.022756317578220855
793.0, 0.013976803211805663
794.0, 0.03392053007809195
795.0, 0.03324919489912368
796.0, 0.017690852354592432
797.0, 0.005636976093028926
798.0, 0.021389297724309746
799.0, 0.0438561043396135
800.0, 0.039972232955695644
801.0, 0.0262058925106505
802.0, 0.02967152704730091
803.0, 0.011137634905577674
804.0, 0.028808703179289283
805.0, 0.005409581574372713
806.0, 0.02931124719020549
807.0, 0.08263938932527345
808.0, 0.080621055486269
809.0, 0.041067190899346115
810.0, 0.04499234367777189
811.0, 0.07376594644590283
812.0, 0.03372034571236007
813.0, 0.0693247609466617
814.0, 0.08207557952097251
815.0, 0.0887832208394074
816.0, 0.08508735610661526
817.0, 0.07404365862801947
818.0, 0.06675092358740323
819.0, 0.06490284174258144
820.0, 0.0628449891689629
821.0, 0.059500568445666896
822.0, 0.06273737720237764
823.0, 0.06149496605722665
824.0, 0.05874628021083548
825.0, 0.059460197466148064
826.0, 0.06562498535870231
827.0, 0.07175636231536667
828.0, 0.055347131297243654
829.0, 0.05992028071010007
830.0, 0.03988050595174179
831.0, 0.032912429709783426
832.0, 0.04442483578283453
833.0, 0.044427396097672905
834.0, 0.036886097258741604
835.0, 0.05884257473002533
836.0, 0.07401775287256634
837.0, 0.08712478822449019
838.0, 0.05123000459663742
839.0, 0.06657714933800757
840.0, 0.055559938403430896
841.0, 0.06194362824011057
842.0, 0.10510781021038253
843.0, 0.1220786841413702
844.0, 0.07777152352417814
845.0, 0.12865784004582057
846.0, 0.08641829823980442
847.0, 0.07817090690910641
848.0, 0.032662120500363656
849.0, 0.03736259638522729
850.0, 0.0629007849218994
851.0, 0.05084721668962613
852.0, 0.06041400383662757
853.0, 0.06721727386746248
854.0, 0.13792375136196136
855.0, 0.09444713063508642
856.0, 0.04239784606012129
857.0, 0.08113184205059708
858.0, 0.13993953007164064
859.0, 0.14132971194352734
860.0, 0.11657148754040834
861.0, 0.12497543528585264
862.0, 0.03756081318515304
863.0, 0.08243624420368922
864.0, 0.08090800158229432
865.0, 0.09850366219433661
866.0, 0.09696637992904066
867.0, 0.07119326577578348
868.0, 0.06578058488149656
869.0, 0.0905389196823379
870.0, 0.05989282864642704
871.0, 0.07349693416908142
872.0, 0.06398984490615321
873.0, 0.0754442241106768
874.0, 0.06567976173461229
875.0, 0.049258222257559124
876.0, 0.05574664463626627
877.0, 0.07352323478607443
878.0, 0.06166748432640956
879.0, 0.08126299353814984
880.0, 0.07777019598866936
881.0, 0.09988707918941031
882.0, 0.08874340232396866
883.0, 0.08396570835498983
884.0, 0.09916930983405046
885.0, 0.10831039086813359
886.0, 0.09282059711064758
887.0, 0.07017959420177777
888.0, 0.015319057223619884
889.0, 0.049784953283957226
890.0, 0.04861498379858111
891.0, 0.06466185986317274
892.0, 0.058336927512225786
893.0, 0.056970130266798376
894.0, 0.07698866896443589
895.0, 0.038300854719694695
896.0, 0.06413691434123431
897.0, 0.058587189759853775
898.0, 0.042331787099853656
899.0, 0.07031751001426656
900.0, 0.06502368727912507
901.0, 0.029869100420075893
902.0, 0.006421834498157085
903.0, 0.012535979119589924
904.0, 0.031094022901162883
905.0, 0.034866530372034354
906.0, 0.049810567910538624
907.0, 0.04675653291128321
908.0, 0.020460502508935288
909.0, 0.00704618811392577
910.0, 0.009127946625182655
911.0, 0.012401970749547585
912.0, 0.009782458451744205
913.0, 0.0035252312434445633
914.0, 0.004518609336184932
915.0, 0.011179832743251884
916.0, 0.00700607737219698
917.0, 0.009432248641168598
918.0, 0.0462782821587998
919.0, 0.05892694573149198
920.0, 0.03473969771139516
921.0, 0.031043590831413913
922.0, 0.04385455214879708
923.0, 0.00769240646345834
924.0, 0.0029551253560411166
925.0, 0.004708821791038471
926.0, 0.004078357073588244
927.0, 0.03271131539390666
928.0, 0.038491888368667584
929.0, 0.02443430754322798
930.0, 0.03524285780669525
931.0, 0.014230992672615902
932.0, 0.0006985654990671357
933.0, 0.014120206881933084
934.0, 0.031907244854686295
935.0, 0.023417864292018326
936.0, 0.013394930887218673
937.0, 0.03451770921237533
938.0, 0.047730995845455794
939.0, 0.02099777757173932
940.0, 0.028279835034947767
941.0, 0.037731813685970415
942.0, 0.025911477391667673
943.0, 0.0062166003981661755
944.0, 0.00565705039373822
945.0, 0.005552076977215426
946.0, 0.00765475742751115
947.0, 0.024729508536128594
948.0, 0.04212634563010615
949.0, 0.024842361280839838
950.0, 0.012165799518852348
951.0, 0.058636746619701585
952.0, 0.052649660071786265
953.0, 0.02976740609656834
954.0, 0.013605703791916744
955.0, 0.026677451190217208
956.0, 0.04599272706955211
957.0, 0.04919473466262909
958.0, 0.04897908003187041
959.0, 0.042787210086174116
960.0, 0.004608536068587507
961.0, 0.032785409534178106
962.0, 0.010756421822722012
963.0, 0.003473900542880119
964.0, 0.007847281649589422
965.0, 0.006548944484768842
966.0, 0.002683376406293142
967.0, 0.013117544180849313
968.0, 0.03191310964991738
969.0, 0.004472703955933955
970.0, 0.02144772747735143
971.0, 0.004487914037191915
972.0, 0.0609678976618447
973.0, 0.034897224901870416
974.0, 0.048668577972792434
975.0, 0.0761874431560465
976.0, 0.03780613134150507
977.0, 0.013663850875998598
978.0, 0.0044980797823897176
979.0, 0.029512635448074524
980.0, 0.04836837691709169
981.0, 0.028309379328731323
982.0, 0.011247220574777098
983.0, 0.04674601473116011
984.0, 0.0754134048775569
985.0, 0.08223621154467634
986.0, 0.10845211103362445
987.0, 0.12506414950821035
988.0, 0.09660586241661856
989.0, 0.05746686162416588
990.0, 0.0320791943943977
991.0, 0.08511334903972317
992.0, 0.09825239937447071
993.0, 0.11884510472110013
994.0, 0.141648426899336
995.0, 0.151113315806834
996.0, 0.15900431033843604
997.0, 0.12663769471513522
998.0, 0.1497077402603371
999.0, 0.14059332455938822
1000.0, 0.15271579097628946
1001.0, 0.1443309808736862
1002.0, 0.1897982041656096
1003.0, 0.17689592752600117
1004.0, 0.1717550138194312
1005.0, 0.20977903882999133
1006.0, 0.18783123660563963
1007.0, 0.2526307244638142
1008.0, 0.25139233010854556
1009.0, 0.25274041660786883
1010.0, 0.31104456228507626
1011.0, 0.3314283795467923
1012.0, 0.35473865017229134
1013.0, 0.4016560291290594
1014.0, 0.4259502998375336
1015.0, 0.43551815385770876
1016.0, 0.48946883069586744
1017.0, 0.5024244886209205
1018.0, 0.5778627251507166
1019.0, 0.5320941201029183
1020.0, 0.6308716434926261
1021.0, 0.6467230453649526
1022.0, 0.7121250674975673
1023.0, 0.7657099484931357
1024.0, 0.8139584544187133
1025.0, 0.8804977464149009
1026.0, 0.9040693017102662
1027.0, 0.9427656031392591
1028.0, 0.9998197735520356
1029.0, 0.9834355510097655
1030.0, 0.9521307222147214
1031.0, 0.9315475685949463
1032.0, 0.8850778599077311
1033.0, 0.8508109220314656
1034.0, 0.7670486442997116
1035.0, 0.6408976914598382
1036.0, 0.583568404300566
1037.0, 0.5307409457447191
1038.0, 0.4222251938392353
1039.0, 0.3940738120419557
1040.0, 0.40049005203321664
1041.0, 0.33818999646719555
1042.0, 0.312986597009028
1043.0, 0.27971591419484354
1044.0, 0.24863066343272877
1045.0, 0.21574154790156982
1046.0, 0.17966128971202205
1047.0, 0.2067579493920871
1048.0, 0.13399652101969628
1049.0, 0.07445494580331795
1050.0, 0.09613943494361793
1051.0, 0.10737481681567751
1052.0, 0.1491789084360074
1053.0, 0.16326841076675794
1054.0, 0.172467169882892
1055.0, 0.18405431645328785
1056.0, 0.17959182698521411
1057.0, 0.16771146066517706
1058.0, 0.14753780115151213
1059.0, 0.17985149569899753
1060.0, 0.17866240305482772
1061.0, 0.19925482221296587
1062.0, 0.22455763320056732
1063.0, 0.25836228922514537
1064.0, 0.2757210471192265
1065.0, 0.27927815474897083
1066.0, 0.25921687750686245
1067.0, 0.22372640740953426
1068.0, 0.23094589301780097
1069.0, 0.19587461576371484
1070.0, 0.12392759263385754
1071.0, 0.16881162571585048
1072.0, 0.16157703108238045
1073.0, 0.17716829487812816
1074.0, 0.18605997744441055
1075.0, 0.17304599977301813
1076.0, 0.18178491093181565
1077.0, 0.21883132729237814
1078.0, 0.22671382003918125
1079.0, 0.20237320514621496
1080.0, 0.19704751489255287
1081.0, 0.21242628411020953
1082.0, 0.1917783337742028
1083.0, 0.1462299960043609
1084.0, 0.16773418241929214
1085.0, 0.14994314864232985
1086.0, 0.09437394654183918
1087.0, 0.09614948981853598
1088.0, 0.12602595673381017
1089.0, 0.07939841610234938
1090.0, 0.05706590616434348
1091.0, 0.0030505962972364603
1092.0, 0.05714704991021436
1093.0, 0.011464631346123699
1094.0, 0.06368448688384468
1095.0, 0.045058853494072064
1096.0, 0.016677924454412976
1097.0, 0.021700964059897604
1098.0, 0.03706709238554244
1099.0, 0.042153325753738514
1100.0, 0.046680835959009945
1101.0, 0.05021106027052204
1102.0, 0.043277756689002134
1103.0, 0.021633572169401576
1104.0, 0.030835693036529735
1105.0, 0.0106990209272191
1106.0, 0.0043658973867525055
1107.0, 0.030720399883037285
1108.0, 0.04426033654241403
1109.0, 0.026132716350208245
1110.0, 0.017155735128743972
1111.0, 0.029573081125481314
1112.0, 0.007043428805652322
1113.0, 0.018349682957140567
1114.0, 0.005408815457638953
1115.0, 0.03211314140338183
1116.0, 0.012785045174178685
1117.0, 0.02429930786107563
1118.0, 0.016275086376621818
1119.0, 0.028369028749438464
1120.0, 0.03876661672691278
1121.0, 0.025632800652922557
1122.0, 0.016626749017618476
1123.0, 0.014736086425146271
1124.0, 0.010333295762337397
1125.0, 0.0245278336121939
1126.0, 0.017261834787730267
1127.0, 0.027416037513608604
1128.0, 0.05154880444788686
1129.0, 0.03732027046042091
1130.0, 0.012985588130639124
1131.0, 0.030632151138049134
1132.0, 0.0619010299625842
1133.0, 0.06040931411576779
1134.0, 0.04651255582570157
1135.0, 0.04889271147988014
1136.0, 0.043580460820350456
1137.0, 0.04398612599682493
1138.0, 0.055331267372564934
1139.0, 0.04975147060656946
1140.0, 0.04709833223680067
1141.0, 0.07783534869216625
1142.0, 0.05247906445119694
1143.0, 0.055376579730534344
1144.0, 0.07086609378258509
1145.0, 0.047917950673698154
1146.0, 0.06881029543347819
1147.0, 0.06318434738309466
1148.0, 0.05971327564752027
1149.0, 0.08345065778815655
1150.0, 0.08928339719218745
1151.0, 0.1489425122349739
1152.0, 0.14144571515667959
1153.0, 0.10383708145866366
1154.0, 0.1354640267817462
1155.0, 0.1293701019847268
1156.0, 0.09274073459876217
1157.0, 0.09831390480744596
1158.0, 0.07214491345176015
1159.0, 0.06562350523031082
1160.0, 0.05402546498474042
1161.0, 0.07987897490764413
1162.0, 0.01565648760000973
1163.0, 0.005511629504894857
1164.0, 0.004967204963965217
1165.0, 0.013330699210064757
1166.0, 0.034631981093564565
1167.0, 0.037347235366608486
1168.0, 0.018980185216321718
1169.0, 0.006424794749470565
1170.0, 0.02256192081180037
1171.0, 0.06919146111757984
1172.0, 0.031609672548394606
1173.0, 0.031898074110507844
1174.0, 0.024283421767405316
1175.0, 0.0051350906609685535
1176.0, 0.0007324099708591275
1177.0, 0.005067041751557816
1178.0, 0.003309637504587852
1179.0, 0.008920651939414126
1180.0, 0.016524944705698746
1181.0, 0.011464432081295354
1182.0, 0.01674091054729967
1183.0, 0.04271614731187251
1184.0, 0.0023094425506758037
1185.0, 0.007156727699634189
1186.0, 0.04496984864855738
1187.0, 0.034327116110490385
1188.0, 0.010523204207940675
1189.0, 0.04723538316849052
1190.0, 0.026410902697681767
1191.0, 0.011299880434364968
1192.0, 0.027044533499126923
1193.0, 0.04563059773674397
1194.0, 0.05341094670581229
1195.0, 0.042530163565830906
1196.0, 0.02035176364165117
1197.0, 0.049252275213294575
1198.0, 0.02428572020286011
1199.0, 0.04327986809108262
1200.0, 0.07185159932267976
1201.0, 0.04359053503707669
1202.0, 0.045775399391326646
1203.0, 0.05781429316545205
1204.0, 0.045321089814726975
1205.0, 0.02410525558734617
1206.0, 0.027197170597091806
1207.0, 0.05236539341657543
1208.0, 0.0577821332998393
1209.0, 0.028655239603754344
1210.0, 0.03993597140657926
1211.0, 0.004763213116057419
1212.0, 0.05248600480691254
1213.0, 0.03361791841127375
1214.0, 0.04819051146037005
1215.0, 0.015893145681463147
1216.0, 0.005016595372509034
1217.0, 0.02266208010141783
1218.0, 0.03244328072565449
1219.0, 0.031065535143332126
1220.0, 0.040029208964843695
1221.0, 0.05428395109513962
1222.0, 0.054811531591523195
1223.0, 0.059751737356257426
1224.0, 0.03955112197670394
1225.0, 0.024862903744012323
1226.0, 0.045115691229988784
1227.0, 0.010676792792659607
1228.0, 0.043383633686620474
1229.0, 0.07209608225173962
1230.0, 0.03840536865219516
1231.0, 0.023587197012244026
1232.0, 0.03266414242853495
1233.0, 0.04010243223287786
1234.0, 0.051584686118619896
1235.0, 0.039635825879440555
1236.0, 0.017610597001471426
1237.0, 0.06432130462403728
1238.0, 0.004386659062838326
1239.0, 0.04764185837629715
1240.0, 0.010581890010033148
1241.0, 0.009538336517263825
1242.0, 0.0169129517979849
1243.0, 0.014656916632638513
1244.0, 0.03075713630763716
1245.0, 0.028550102454151367
1246.0, 0.016565844909891724
1247.0, 0.023455055892851396
1248.0, 0.045172585792908906
1249.0, 0.057061328526634716
1250.0, 0.012086496762123627
1251.0, 0.025286910453148924
1252.0, 0.04996635029437069
1253.0, 0.010665453087780455
1254.0, 0.054697686160752865
1255.0, 0.03718660285107006
1256.0, 0.012023427292918432
1257.0, 0.015486263467051023
1258.0, 0.05550617099659384
1259.0, 0.03978566587885657
1260.0, 0.01295493528524367
1261.0, 0.011768471310769918
1262.0, 0.02107653510319782
1263.0, 0.05175895053481831
1264.0, 0.03339427427883854
1265.0, 0.06657225522405244
1266.0, 0.050862290022815226
1267.0, 0.007675464907665151
1268.0, 0.07355411193794438
1269.0, 0.06362418303604066
1270.0, 0.03832073877701077
1271.0, 0.05716612725018623
1272.0, 0.03538856687313103
1273.0, 0.022922617820241176
1274.0, 0.05031894703914705
1275.0, 0.06909420995057713
1276.0, 0.07122861064946537
1277.0, 0.07251187776183725
1278.0, 0.054203783523723736
1279.0, 0.05824834759105778
1280.0, 0.01002840508311274
1281.0, 0.00896600150551921
1282.0, 0.03371776847864486
1283.0, 0.040253675687326115
1284.0, 0.06957666888813024
1285.0, 0.044526299412196435
1286.0, 0.08588398788082088
1287.0, 0.04304874211065205
1288.0, 0.052091805876526884
1289.0, 0.06584677084881711
1290.0, 0.05008031288903798
1291.0, 0.053501809141772376
1292.0, 0.0565331487957161
1293.0, 0.04373738348721013
1294.0, 0.015174737115819245
1295.0, 0.037042953012228506
1296.0, 0.028075596832954724
1297.0, 0.07766817805395457
1298.0, 0.04421729404803547
1299.0, 0.07828583791611438
1300.0, 0.1125414751368153
1301.0, 0.08444988589572297
1302.0, 0.02355431868791273
1303.0, 0.02916854907788813
1304.0, 0.07103633296916942
1305.0, 0.06817797452981908
1306.0, 0.0633380471619111
1307.0, 0.06342331914418167
1308.0, 0.053203349785958316
1309.0, 0.12180591766794534
1310.0, 0.053936496340778364
1311.0, 0.05819935967418118
1312.0, 0.07147332711608864
1313.0, 0.0459748639090835
1314.0, 0.12226168861569157
1315.0, 0.08452171084404062
1316.0, 0.08164746067178803
1317.0, 0.10319153314983344
1318.0, 0.05312927068700343
1319.0, 0.016817343949398773
1320.0, 0.034494986122485166
1321.0, 0.06397555886962482
1322.0, 0.06919758952007482
1323.0, 0.06442917633990028
1324.0, 0.08796204862894025
1325.0, 0.10577876315827608
1326.0, 0.03596417735779832
1327.0, 0.04355326323116487
1328.0, 0.03981771815497774
1329.0, 0.08195211803144316
1330.0, 0.11119914784513463
1331.0, 0.054368145520615654
1332.0, 0.07490296132102066
1333.0, 0.08357240660735839
1334.0, 0.08384636278862831
1335.0, 0.07720537377768565
1336.0, 0.07595616363325063
1337.0, 0.06468977344820537
1338.0, 0.06334588200804749
1339.0, 0.08101990043735803
1340.0, 0.08778559175925885
1341.0, 0.07653577197166132
1342.0, 0.0592849142275139
1343.0, 0.07204366175136977
1344.0, 0.07320362898429775
1345.0, 0.08313346210134773
1346.0, 0.06449895403591502
1347.0, 0.05290870095688888
1348.0, 0.08814447440973797
1349.0, 0.024060293402839213
1350.0, 0.02848322962207539
1351.0, 0.028010929566950418
1352.0, 0.07572034986885921
1353.0, 0.0639248095132461
1354.0, 0.04706659849304982
1355.0, 0.059706447412595544
1356.0, 0.07084222010326262
1357.0, 0.067804907022184
1358.0, 0.054134377958355594
1359.0, 0.06802977390752915
1360.0, 0.06199819546474697
1361.0, 0.027193042618563437
1362.0, 0.09939996303519202
1363.0, 0.027988446946668008
1364.0, 0.08617159359230148
1365.0, 0.07701798204604259
1366.0, 0.08571019929483023
1367.0, 0.01793261011382701
1368.0, 0.05867037023674168
1369.0, 0.06147958718331487
1370.0, 0.06153936194519096
1371.0, 0.0687370528006448
1372.0, 0.0654285264389792
1373.0, 0.0928589349486569
1374.0, 0.13098346510380815
1375.0, 0.11427489784721409
1376.0, 0.06345608426278203
1377.0, 0.037290364265175305
1378.0, 0.041943771727014675
1379.0, 0.027043422490633878
1380.0, 0.10190279242488404
1381.0, 0.05478173808703072
1382.0, 0.07551186195409167
1383.0, 0.11231977987603808
1384.0, 0.035656029980822006
1385.0, 0.037092448198222314
1386.0, 0.047759034999203046
1387.0, 0.06606967539529614
1388.0, 0.07405248235299766
1389.0, 0.08696951332413243
1390.0, 0.07700567974648527
1391.0, 0.08845207942765693
1392.0, 0.08536246686186527
1393.0, 0.046948826829536335
1394.0, 0.019152194666371993
1395.0, 0.019466273155871162
1396.0, 0.060401063811886535
1397.0, 0.08125033497186972
1398.0, 0.07235273747047308
1399.0, 0.030337388348431034
1400.0, 0.046453450421345424
1401.0, 0.06247372475579391
1402.0, 0.02676084428904007
1403.0, 0.03540241355752725
1404.0, 0.017407048838196847
1405.0, 0.013477519938267329
1406.0, 0.03572883091827385
1407.0, 0.05230499042016878
1408.0, 0.04851711883677852
1409.0, 0.03707734472538724
1410.0, 0.07125907231549647
1411.0, 0.07304567552321474
1412.0, 0.0333784828181506
1413.0, 0.03897585007059852
1414.0, 0.0744015674632077
1415.0, 0.0641461430436142
1416.0, 0.021242939998187577
1417.0, 0.012848607988136689
1418.0, 0.034876433631980834
1419.0, 0.013304076824955532
1420.0, 0.029472704090344984
1421.0, 0.02949920055772105
1422.0, 0.0808424326651673
1423.0, 0.1079234716804406
1424.0, 0.05918654238442682
1425.0, 0.06662482827511879
1426.0, 0.02282209326368961
1427.0, 0.023604236200712097
1428.0, 0.01654790371141262
1429.0, 0.04930829553154349
1430.0, 0.12121113008575339
1431.0, 0.0738904544826863
1432.0, 0.014007816047923458
1433.0, 0.007546412956320864
1434.0, 0.021739146287562874
1435.0, 0.030074319675472756
1436.0, 0.026767882323117352
1437.0, 0.05895205084614553
1438.0, 0.05399118834437734
1439.0, 0.017738759674043265
1440.0, 0.04313415986145199
1441.0, 0.05150493986363977
1442.0, 0.03234751934736066
1443.0, 0.07889915502856573
1444.0, 0.11341779466258692
1445.0, 0.047175954041598384
1446.0, 0.07982504661484147
1447.0, 0.056031488603619874
1448.0, 0.04267539626993818
1449.0, 0.05271961737739463
1450.0, 0.10548306564563245
1451.0, 0.09315252278625034
1452.0, 0.10450559326717107
1453.0, 0.08682691571644646
1454.0, 0.04399700786038596
1455.0, 0.015302341098625964
1456.0, 0.02448772228697407
1457.0, 0.05358953644954266
1458.0, 0.07145437836327402
1459.0, 0.08794979796524535
1460.0, 0.09907205515570103
1461.0, 0.10038372815808227
1462.0, 0.09553135556756544
1463.0, 0.06195150306604668
1464.0, 0.0846519478020983
1465.0, 0.05567214964981668
1466.0, 0.0012296221986025022
1467.0, 0.00448820472629818
1468.0, 0.05481259231012389
1469.0, 0.04380888471035927
1470.0, 0.025396227645741037
1471.0, 0.07645851592219347
1472.0, 0.07821614740959842
1473.0, 0.08692492569181284
1474.0, 0.042537208346300676
1475.0, 0.03420612819432646
1476.0, 0.01267863774934187
1477.0, 0.024273722068195593
1478.0, 0.018048367261599058
1479.0, 0.025333785582654984
1480.0, 0.03109901066875325
1481.0, 0.0233869568967705
1482.0, 0.020281499378684873
1483.0, 0.02412671257420685
1484.0, 0.03548882965988183
1485.0, 0.03150853827578764
1486.0, 0.04628324290917531
1487.0, 0.02886397536523532
1488.0, 0.04549641275355734
1489.0, 0.05583922701178477
1490.0, 0.06255901872447572
1491.0, 0.0178494060452326
1492.0, 0.1061689158369202
1493.0, 0.07630556924548562
1494.0, 0.017458717760300377
1495.0, 0.07630193427961361
1496.0, 0.05690915719831062
1497.0, 0.028557462545253265
1498.0, 0.0400046152689084
1499.0, 0.046194138915253175
1500.0, 0.06265714741427668
1501.0, 0.052632648230671424
1502.0, 0.031957663643536104
1503.0, 0.040626510354461215
1504.0, 0.055621397893411244
1505.0, 0.04294554872947652
1506.0, 0.05050876300045978
1507.0, 0.03897531161405639
1508.0, 0.04145612292023135
1509.0, 0.04241498194448602
1510.0, 0.02098758683808388
1511.0, 0.042794742344905295
1512.0, 0.03125600078842611
1513.0, 0.017154269670053134
1514.0, 0.052511899987059185
1515.0, 0.056338070449753794
1516.0, 0.04349728456339505
1517.0, 0.010489933686892158
1518.0, 0.04225042510759221
1519.0, 0.014352668265108955
1520.0, 0.012437339789059337
1521.0, 0.08917924105751387
1522.0, 0.08356194187568834
1523.0, 0.049476440232320465
1524.0, 0.07289087847025613
1525.0, 0.052513003820938806
1526.0, 0.024527612456690377
1527.0, 0.02993926595766662
1528.0, 0.0073252253344783125
1529.0, 0.024571150364482486
1530.0, 0.04118317331104009
1531.0, 0.05525476501808444
1532.0, 0.04922445139381108
1533.0, 0.06565681045977188
1534.0, 0.043338813799568145
1535.0, 0.011341194663385427
1536.0, 0.009006254891080668
1537.0, 0.0074333619526967525
1538.0, 0.048198269211422305
1539.0, 0.060032360581494644
1540.0, 0.019214139037403707
1541.0, 0.0476362007953416
1542.0, 0.08024404907233713
1543.0, 0.06742708052512413
1544.0, 0.07365988958646635
1545.0, 0.05199568310925743
1546.0, 0.057119706537520756
1547.0, 0.018557305305497127
1548.0, 0.06188382723582341
1549.0, 0.03184201911595608
1550.0, 0.08097348397258988
1551.0, 0.11185978131992717
1552.0, 0.025958625721737554
1553.0, 0.06258327363263541
1554.0, 0.04681069309790105
1555.0, 0.003194363909285107
1556.0, 0.00034589716650467155
1557.0, 0.03293144877835835
1558.0, 0.06879633789155179
1559.0, 0.03460187922306536
1560.0, 0.04795843757227329
1561.0, 0.024963821455884237
1562.0, 0.011547829393017878
1563.0, 0.020375243545235032
1564.0, 0.0367506596160543
1565.0, 0.019982494646926637
1566.0, 0.003953786133919944
1567.0, 0.04392027713416809
1568.0, 0.04173468065868202
1569.0, 0.03293659598894715
1570.0, 0.012585903614658011
1571.0, 3.410920140909276e-05
1572, 0.0
1573, 0.0
1574, 0.0
1575, 0.0
1576, 0.0
1577, 0.0
1578, 0.0
1579, 0.0
1580, 0.0
1581, 0.0
1582, 0.0
1583, 0.0
1584, 0.0
1585, 0.0
1586, 0.0
1587, 0.0
1588, 0.0
1589, 0.0
1590, 0.0
1591, 0.0
1592, 0.0
1593, 0.0
1594, 0.0
1595, 0.0
1596, 0.0
1597, 0.0
1598, 0.0
1599, 0.0
