30, 0.0
31, 0.0
32, 0.0
33, 0.0
34, 0.0
35, 0.0
36, 0.0
37, 0.0
38, 0.0
39, 0.0
40, 0.0
41, 0.0
42, 0.0
43, 0.0
44, 0.0
45, 0.0
46, 0.0
47, 0.0
48, 0.0
49, 0.0
50, 0.0
51, 0.0
52, 0.0
53, 0.0
54, 0.0
55, 0.0
56, 0.0
57, 0.0
58, 0.0
59, 0.0
60, 0.0
61, 0.0
62, 0.0
63, 0.0
64, 0.0
65, 0.0
66, 0.0
67, 0.0
68, 0.0
69, 0.0
70, 0.0
71, 0.0
72, 0.0
73, 0.0
74, 0.0
75, 0.0
76, 0.0
77, 0.0
78, 0.0
79, 0.0
80, 0.0
81, 0.0
82, 0.0
83, 0.0
84, 0.0
85, 0.0
86, 0.0
87, 0.0
88, 0.0
89, 0.0
90, 0.0
91, 0.0
92, 0.0
93, 0.0
94, 0.0
95, 0.0
96, 0.0
97, 0.0
98, 0.0
99, 0.0
100, 0.0
101, 0.0
102, 0.0
103, 0.0
104, 0.0
105, 0.0
106, 0.0
107, 0.0
108, 0.0
109, 0.0
110, 0.0
111, 0.0
112, 0.0
113, 0.0
114, 0.0
115, 0.0
116, 0.0
117, 0.0
118, 0.0
119, 0.0
120, 0.0
121, 0.0
122, 0.0
123, 0.0
124, 0.0
125, 0.0
126, 0.0
127, 0.0
128, 0.0
129, 0.0
130, 0.0
131, 0.0
132, 0.0
133, 0.0
134, 0.0
135, 0.0
136, 0.0
137, 0.0
138, 0.0
139, 0.0
140, 0.0
141, 0.0
142, 0.0
143, 0.0
144, 0.0
145, 0.0
146, 0.0
147, 0.0
148, 0.0
149.0, 0.005759471249486073
150.0, 0.008872132149061495
151.0, 0.002420588219351483
152.0, 0.00031409452353974346
153.0, 0.009040956766482562
154.0, 0.013517696173959376
155.0, 0.013731137772710284
156.0, 0.01757705166141566
157.0, 0.037354706204930845
158.0, 0.02936667251632503
159.0, 0.014683089536778337
160.0, 0.011869874879921496
161.0, 0.010492107561422508
162.0, 0.006282015368386577
163.0, 0.004359967968501141
164.0, 0.01193859756413692
165.0, 0.030389294220796843
166.0, 0.028371905083066577
167.0, 0.025273289864366763
168.0, 0.02329496911130839
169.0, 0.020167842950859084
170.0, 0.024797050515603394
171.0, 0.028317487002687238
172.0, 0.03611772807014525
173.0, 0.04081323383851298
174.0, 0.0279992017211806
175.0, 0.021401869581109383
176.0, 0.01771068643868774
177.0, 0.01361096809181604
178.0, 0.009699889314417986
179.0, 0.00469328300765831
180.0, 0.005883439641041638
181.0, 0.006246760518468085
182.0, 0.0010881565843149652
183.0, 0.00015322281343646836
184.0, 0.0012226211600355034
185.0, 0.0022276181877525416
186.0, 0.002152131324205248
187.0, 0.0007507000763685983
188.0, 0.005952574870755897
189.0, 0.004374194233770102
190.0, 0.0017315822790266227
191.0, 0.0022647862665989512
192.0, 0.000717963015013451
193.0, 0.0032117910122283896
194.0, 0.00537406610372709
195.0, 0.0011008693431392457
196.0, 0.001716042442186018
197.0, 0.007271197166506926
198.0, 0.009860755836818039
199.0, 0.009559536891495034
200.0, 0.010962244744960374
201.0, 0.012914555079053902
202.0, 0.013977768878940724
203.0, 0.01622695281496048
204.0, 0.02058525268132665
205.0, 0.023839904309500344
206.0, 0.020990163684566396
207.0, 0.021183698247214854
208.0, 0.024992654119374385
209.0, 0.026845167710963555
210.0, 0.027691519293154034
211.0, 0.02976153939515781
212.0, 0.03356998533335821
213.0, 0.03713379786342651
214.0, 0.03570552219899617
215.0, 0.040960919888537735
216.0, 0.04362281937207273
217.0, 0.0417998170985264
218.0, 0.04301625078064794
219.0, 0.04492968561875647
220.0, 0.046182614112560874
221.0, 0.04456047001331279
222.0, 0.04079151107734292
223.0, 0.04586052126345024
224.0, 0.04298767802462917
225.0, 0.038653615583642595
226.0, 0.036991879118042706
227.0, 0.03488019722941985
228.0, 0.03476537884060133
229.0, 0.03383610331968887
230.0, 0.030115143954658443
231.0, 0.024089239751965107
232.0, 0.020257829628706172
233.0, 0.019989428495246982
234.0, 0.019490172263722294
235.0, 0.018612544075228825
236.0, 0.019969741568298782
237.0, 0.01780705696898696
238.0, 0.016263949759728436
239.0, 0.017220716336378714
240.0, 0.019356372823792288
241.0, 0.018613007594105113
242.0, 0.021046105210915256
243.0, 0.021028000157090818
244.0, 0.018932576115074116
245.0, 0.02015391253073887
246.0, 0.015316569828718632
247.0, 0.016959293826538373
248.0, 0.018699238436142854
249.0, 0.015375933439619151
250.0, 0.015268530164607321
251.0, 0.015331349443810519
252.0, 0.012785141521046834
253.0, 0.010654786627279693
254.0, 0.013040723951253252
255.0, 0.017732784604654935
256.0, 0.013981781650160808
257.0, 0.010752908021553886
258.0, 0.013585428316738625
259.0, 0.016182740570925412
260.0, 0.017007399572415833
261.0, 0.016965847450637183
262.0, 0.01862999550106307
263.0, 0.02214631227567666
264.0, 0.01722227430799164
265.0, 0.01737484706000591
266.0, 0.019041796266370207
267.0, 0.0188626377874576
268.0, 0.01859994196653704
269.0, 0.01852220559570761
270.0, 0.018980934670591885
271.0, 0.02126754622486299
272.0, 0.024822515082153496
273.0, 0.024750155106698677
274.0, 0.020701154980501055
275.0, 0.01775584153352546
276.0, 0.018421138044883954
277.0, 0.021006437263988962
278.0, 0.017511755658120784
279.0, 0.016624342564608083
280.0, 0.015759612424146745
281.0, 0.013502785868909947
282.0, 0.013718258015112568
283.0, 0.011032914455349358
284.0, 0.012143603198627414
285.0, 0.014307387106543223
286.0, 0.012672627914837241
287.0, 0.009373993603642546
288.0, 0.008929916490400671
289.0, 0.010865071253747142
290.0, 0.012291290078043013
291.0, 0.010622900306474526
292.0, 0.00947884244720603
293.0, 0.010667704436083378
294.0, 0.011747013075552978
295.0, 0.01009792038035212
296.0, 0.006005424926889891
297.0, 0.005171698809307373
298.0, 0.0038728799398109297
299.0, 0.0034015866876348244
300.0, 0.005485839515952628
301.0, 0.007035384540764485
302.0, 0.003521504598819467
303.0, 0.0011817381251190548
304.0, 0.0017273720122017925
305.0, 0.002948835783788448
306.0, 0.0045235289267324535
307.0, 0.004142662644017585
308.0, 0.005844859047012598
309.0, 0.00866067613613299
310.0, 0.007447711235472794
311.0, 0.004610568628423047
312.0, 0.0070883765030202205
313.0, 0.008148215989924712
314.0, 0.006086233699872496
315.0, 0.01188041110136129
316.0, 0.011469609225234757
317.0, 0.010104777792571584
318.0, 0.00898079342390165
319.0, 0.007516073294728416
320.0, 0.00887788880904597
321.0, 0.012944158517250415
322.0, 0.011452684197094208
323.0, 0.008159867377984919
324.0, 0.011147295776621933
325.0, 0.013576716195505769
326.0, 0.01294836546181517
327.0, 0.013710827950248233
328.0, 0.01494138795114788
329.0, 0.010599016689849214
330.0, 0.014356159922419584
331.0, 0.012626179116045886
332.0, 0.01004438092619067
333.0, 0.011381443106126916
334.0, 0.011763125306727351
335.0, 0.011638605136393655
336.0, 0.01326083828553896
337.0, 0.014242759559291386
338.0, 0.013449650017542473
339.0, 0.01592998288677422
340.0, 0.017381785818141558
341.0, 0.02038789455856882
342.0, 0.02306063746052728
343.0, 0.022777964461007126
344.0, 0.02571924939869698
345.0, 0.024939921854852175
346.0, 0.0258048249751656
347.0, 0.025785525371779666
348.0, 0.020556170079183568
349.0, 0.02627641397225139
350.0, 0.030429513610308153
351.0, 0.029977816256013385
352.0, 0.03078783722913919
353.0, 0.037524135693898154
354.0, 0.03530463996075959
355.0, 0.03924830084622628
356.0, 0.042326765272622364
357.0, 0.03953263231908024
358.0, 0.03557359952359844
359.0, 0.039065962292377576
360.0, 0.03937005330381743
361.0, 0.03951012399489997
362.0, 0.04276408667154438
363.0, 0.045001053944635605
364.0, 0.045540111466456035
365.0, 0.04249841645632582
366.0, 0.040547575861960616
367.0, 0.0417569454196911
368.0, 0.0415821652686167
369.0, 0.036737299254017294
370.0, 0.03506368999864589
371.0, 0.036008446456251675
372.0, 0.03592145225301562
373.0, 0.0324671378803748
374.0, 0.032175175724645205
375.0, 0.030568045907325918
376.0, 0.028182133167362528
377.0, 0.02747168869344287
378.0, 0.026220739741826926
379.0, 0.023589499247643746
380.0, 0.020997990604699236
381.0, 0.020733634241832347
382.0, 0.022153086695372963
383.0, 0.017369915507504555
384.0, 0.01336034420080163
385.0, 0.010058735661735976
386.0, 0.0074675884999795055
387.0, 0.005976588118721543
388.0, 0.0044008907343359
389.0, 0.002662712973705698
390.0, 0.000674919405062214
391.0, 0.0022543914308003313
392.0, 0.0028829511748335126
393.0, 0.004459432967445583
394.0, 0.006483364482418529
395.0, 0.007683530809543318
396.0, 0.0074292388780003585
397.0, 0.005630702336710998
398.0, 0.003007551766314378
399.0, 0.004050509591072356
400.0, 0.004139887419891688
401.0, 0.0031242599178832077
402.0, 0.002610090535171501
403.0, 0.0017826153005848979
404.0, 0.003483094276902495
405.0, 0.003865505482802526
406.0, 0.004845988858650395
407.0, 0.006446995993844752
408.0, 0.0052040708425732125
409.0, 0.004625835223498382
410.0, 0.004539823072060007
411.0, 0.004626926926264101
412.0, 0.004612147877573609
413.0, 0.003675083923823625
414.0, 0.002483637342477599
415.0, 0.0050569021984527614
416.0, 0.008383361270793447
417.0, 0.00948482484110701
418.0, 0.013704960677528175
419.0, 0.014332973882293112
420.0, 0.01189593599980679
421.0, 0.011262543231600716
422.0, 0.014983121936837773
423.0, 0.018230827401227057
424.0, 0.020699475790747504
425.0, 0.02483169155794382
426.0, 0.0300964211010151
427.0, 0.034629164852345205
428.0, 0.03767859882095606
429.0, 0.04564418488638856
430.0, 0.055298930079720754
431.0, 0.06279466123293999
432.0, 0.0686777385210137
433.0, 0.07805765779101831
434.0, 0.08708139397889603
435.0, 0.0986886395290243
436.0, 0.10945896122259995
437.0, 0.11859727194920285
438.0, 0.1312670731199472
439.0, 0.14481622700460162
440.0, 0.16280599444197724
441.0, 0.18081077664640285
442.0, 0.19358302148646536
443.0, 0.20204906849063603
444.0, 0.21695177014108352
445.0, 0.22932490449591728
446.0, 0.23867874324930696
447.0, 0.24453067932704767
448.0, 0.24468787785096033
449.0, 0.24656764279285584
450.0, 0.2419224787579177
451.0, 0.23418033096244917
452.0, 0.22729476023770454
453.0, 0.22077582277307714
454.0, 0.20615532439426537
455.0, 0.19048001870916095
456.0, 0.18006484785026408
457.0, 0.17346250704336408
458.0, 0.16535952084330618
459.0, 0.15272660393023077
460.0, 0.1435574343644713
461.0, 0.13580452258240291
462.0, 0.1313864863319436
463.0, 0.12995087117705734
464.0, 0.1239241486425168
465.0, 0.12514938229854786
466.0, 0.12184882849543119
467.0, 0.11891444013251508
468.0, 0.11981892317335113
469.0, 0.11799308819417077
470.0, 0.11807335436403758
471.0, 0.11795102311723307
472.0, 0.11726127126709812
473.0, 0.11574379284742914
474.0, 0.11257659824395297
475.0, 0.11029645767232969
476.0, 0.11008657988817064
477.0, 0.10818369753974309
478.0, 0.10569824551563217
479.0, 0.10562526542440563
480.0, 0.10702436700139259
481.0, 0.10746939405759141
482.0, 0.1068180548119565
483.0, 0.10599952115680632
484.0, 0.1068865584616955
485.0, 0.1098122080872426
486.0, 0.11199903597447022
487.0, 0.10773581093808865
488.0, 0.10813911862977148
489.0, 0.1133413720504279
490.0, 0.11008200760411076
491.0, 0.10797627009301518
492.0, 0.11023302889871686
493.0, 0.1091931599461032
494.0, 0.10478495999454308
495.0, 0.10285764310581198
496.0, 0.10171772143568122
497.0, 0.10274474870280531
498.0, 0.09797572942579491
499.0, 0.09298320377159401
500.0, 0.09232896226236678
501.0, 0.08920443102918948
502.0, 0.08110102863096022
503.0, 0.07849589183411082
504.0, 0.07631664539128137
505.0, 0.07241719638644331
506.0, 0.07031136966025954
507.0, 0.06591289323578568
508.0, 0.061989049968608594
509.0, 0.05769404756451689
510.0, 0.05424880500073201
511.0, 0.05277004003217329
512.0, 0.049633266034893764
513.0, 0.041561073586115944
514.0, 0.0383583734536752
515.0, 0.03543445522654122
516.0, 0.0301804211787685
517.0, 0.029416905615516478
518.0, 0.026059564397171067
519.0, 0.018540218869348576
520.0, 0.013997345733256054
521.0, 0.012695756919560312
522.0, 0.009822752211610712
523.0, 0.007364144076337175
524.0, 0.005854751217473653
525.0, 0.0016819061325675996
526.0, 0.0014789265252729638
527.0, 0.0010871633247015735
528.0, 0.0019988197221837045
529.0, 0.0049753090902554765
530.0, 0.008760050471531163
531.0, 0.008457852267239767
532.0, 0.006637526471457942
533.0, 0.008911515636439986
534.0, 0.007285633119222972
535.0, 0.0060315326753905265
536.0, 0.0032799188925255016
537.0, 0.0005773043397882954
538.0, 0.0006059143852577491
539.0, 0.00482791522877019
540.0, 0.0017516731718466951
541.0, 0.001303770624824847
542.0, 0.0035051847047983535
543.0, 0.006780881537761017
544.0, 0.012853811875618348
545.0, 0.02440875520783604
546.0, 0.02886662400818716
547.0, 0.03378361543970862
548.0, 0.039371029119602594
549.0, 0.043910488943103204
550.0, 0.050663373681431444
551.0, 0.0537548105329742
552.0, 0.055911585413610486
553.0, 0.06017055422412675
554.0, 0.06563748723518885
555.0, 0.06975560624520646
556.0, 0.07274914709653542
557.0, 0.07532177135449997
558.0, 0.08019363306624835
559.0, 0.08168676326000464
560.0, 0.08072240998675617
561.0, 0.0857426237588468
562.0, 0.08494183436022762
563.0, 0.08738031530785266
564.0, 0.08968513020601915
565.0, 0.08932523518248084
566.0, 0.08713640086837175
567.0, 0.08433470498039872
568.0, 0.07995312650261227
569.0, 0.08294881242552063
570.0, 0.08314325163634609
571.0, 0.07805468406596099
572.0, 0.07786582410858828
573.0, 0.0846685123813454
574.0, 0.08650778284779796
575.0, 0.083996251958788
576.0, 0.08550240755545684
577.0, 0.09126624016370308
578.0, 0.0920084251997294
579.0, 0.1011777282164512
580.0, 0.10915512096251163
581.0, 0.1144339699305324
582.0, 0.11799935358269598
583.0, 0.12051033295454289
584.0, 0.12347286221104699
585.0, 0.12879569608980954
586.0, 0.13990565154975004
587.0, 0.1491214449464612
588.0, 0.1548047856957196
589.0, 0.16228859678054852
590.0, 0.1704231343770661
591.0, 0.18161031418804346
592.0, 0.19530718810288022
593.0, 0.20619549811054994
594.0, 0.21425898535492569
595.0, 0.22458175476048847
596.0, 0.23304441650561802
597.0, 0.24414563801293393
598.0, 0.25304553497997573
599.0, 0.2569447105939667
600.0, 0.2565321308837326
601.0, 0.2540833440057015
602.0, 0.2503392514403896
603.0, 0.24377108835236044
604.0, 0.2351355338583329
605.0, 0.22659318483835741
606.0, 0.22172641140133054
607.0, 0.22172702847660883
608.0, 0.208948620993351
609.0, 0.21105828069061391
610.0, 0.20708028848192175
611.0, 0.19521884338098422
612.0, 0.19108793051361941
613.0, 0.185978735294975
614.0, 0.1811245407612813
615.0, 0.17761057223659232
616.0, 0.17392397850621547
617.0, 0.16628594779982467
618.0, 0.15635998967058448
619.0, 0.1561123370604269
620.0, 0.14810775165516626
621.0, 0.13644780103862883
622.0, 0.12686066110092734
623.0, 0.11876841082814664
624.0, 0.10908634029025505
625.0, 0.1032279617361204
626.0, 0.09513578027551729
627.0, 0.08878810572161153
628.0, 0.08403892549486323
629.0, 0.07899919410431826
630.0, 0.0750837591315256
631.0, 0.07557052788758366
632.0, 0.06945462925601663
633.0, 0.06185411602001985
634.0, 0.05666008467517452
635.0, 0.05368955300689964
636.0, 0.052156016699581066
637.0, 0.05269438282703838
638.0, 0.051080019482945535
639.0, 0.053758100159281355
640.0, 0.05726716398941421
641.0, 0.05865339350405534
642.0, 0.061761962313534625
643.0, 0.06213016504419351
644.0, 0.06359683410326425
645.0, 0.06757749604079237
646.0, 0.0711171150317976
647.0, 0.07318378981724531
648.0, 0.0750739752128131
649.0, 0.07191214309987772
650.0, 0.07312073991811403
651.0, 0.07641740968675037
652.0, 0.07683098489845486
653.0, 0.0743801217255953
654.0, 0.0731051607240657
655.0, 0.07282116568104248
656.0, 0.06828844426384405
657.0, 0.0602221656396656
658.0, 0.05439131083944917
659.0, 0.05206695638860077
660.0, 0.04768545049751234
661.0, 0.03913501854265803
662.0, 0.03818621678715034
663.0, 0.034593602353572034
664.0, 0.03237486055080003
665.0, 0.03067009989798198
666.0, 0.020388713481561134
667.0, 0.020251216380233153
668.0, 0.022816160211785907
669.0, 0.02045078875187743
670.0, 0.015219804913876698
671.0, 0.012250298188076632
672.0, 0.011650806505307122
673.0, 0.008252670250332153
674.0, 0.009968562971787838
675.0, 0.008773958316058665
676.0, 0.005401750036212966
677.0, 0.0026665198547981515
678.0, 0.001182054701104791
679.0, 0.0019802997143788356
680.0, 0.0028556194327281
681.0, 0.0009079668568590904
682.0, 0.0025808427825759206
683.0, 0.0025956370885677565
684.0, 0.007685863640240065
685.0, 0.0013461523040469725
686.0, 0.0016902470952194538
687.0, 0.0005404821245504879
688.0, 0.0009920629614932049
689.0, 0.0018818675704788638
690.0, 0.0010669205644782257
691.0, 0.0021398385028592545
692.0, 0.002969947180403535
693.0, 0.0006978231335431745
694.0, 0.0027616265555787554
695.0, 0.005143983632896097
696.0, 0.006628152402440412
697.0, 0.006340761994680133
698.0, 0.006553129705029219
699.0, 0.00839030791615667
700.0, 0.007724680793792308
701.0, 0.006476702703881771
702.0, 0.005429594739555221
703.0, 0.003343484820249984
704.0, 0.0038367414134438645
705.0, 7.482918792636349e-05
706.0, 0.0002774160067618566
707.0, 0.00422498169824041
708.0, 0.005637963615655218
709.0, 0.0011359709396546497
710.0, 0.0009238987031248048
711.0, 0.000368335583973396
712.0, 0.0028018862023235325
713.0, 0.00273049965352039
714.0, 0.0007273309432729832
715.0, 0.0016736083061415978
716.0, 0.0004699993325083286
717.0, 0.0017256398998334614
718.0, 0.0021895684629455636
719.0, 0.0033484161109426955
720.0, 0.0028393603825083674
721.0, 0.004024100897776274
722.0, 0.006220185907638597
723.0, 0.005617872523829259
724.0, 0.0037623171793533853
725.0, 0.0062019998501723905
726.0, 0.006822791169114386
727.0, 0.008621438340643241
728.0, 0.010838423762405961
729.0, 0.003917748927367955
730.0, 0.00690003378865709
731.0, 0.006683701168087607
732.0, 0.010747129695211511
733.0, 0.01219289418232776
734.0, 0.00913232240727202
735.0, 0.009063640945956073
736.0, 0.01087772658061863
737.0, 0.013361683027281118
738.0, 0.011020692621313177
739.0, 0.01170459692395692
740.0, 0.013938039447828508
741.0, 0.0140230419146697
742.0, 0.015886897328022512
743.0, 0.014789972899240713
744.0, 0.01546240494241029
745.0, 0.015526787590469989
746.0, 0.01640141281495547
747.0, 0.017602213077616464
748.0, 0.017217069489781585
749.0, 0.019032209376053454
750.0, 0.019875085498113322
751.0, 0.019589018756665563
752.0, 0.015948840068263814
753.0, 0.015206623876235616
754.0, 0.019124900625327353
755.0, 0.018825241179584305
756.0, 0.014835527453860155
757.0, 0.012264663673472906
758.0, 0.011444368128835586
759.0, 0.009900617568090662
760.0, 0.008997031570854661
761.0, 0.010601224695212947
762.0, 0.010357081331013731
763.0, 0.010358438857766999
764.0, 0.01357565790502698
765.0, 0.014605961170562143
766.0, 0.012933190831406441
767.0, 0.01262483463457551
768.0, 0.013874386284113856
769.0, 0.011668497575844755
770.0, 0.018604572258838575
771.0, 0.01657045749089586
772.0, 0.017194899022264655
773.0, 0.02028324660654897
774.0, 0.01800903991708226
775.0, 0.01261361845042965
776.0, 0.01664604864452228
777.0, 0.01962315337807016
778.0, 0.019144873489203938
779.0, 0.016707527160927296
780.0, 0.015703504026449284
781.0, 0.018296559946762603
782.0, 0.022476565332036364
783.0, 0.019864152714841515
784.0, 0.025894216954776863
785.0, 0.023774062071137553
786.0, 0.02119748515182406
787.0, 0.023053128674359272
788.0, 0.02341685849830016
789.0, 0.022864764563526423
790.0, 0.021129673822754717
791.0, 0.02718285099190648
792.0, 0.027820717330576065
793.0, 0.028078882613535174
794.0, 0.030429672363629364
795.0, 0.02953080466857458
796.0, 0.032212932119954005
797.0, 0.03095706191474268
798.0, 0.03281456308468374
799.0, 0.03272278416870723
800.0, 0.03245249053237192
801.0, 0.035974311736142274
802.0, 0.03974833755924199
803.0, 0.033941187875724824
804.0, 0.03461917718781546
805.0, 0.03906112153876871
806.0, 0.04048928146576728
807.0, 0.04384622302800388
808.0, 0.048728051731787986
809.0, 0.047590917572935
810.0, 0.04603557901318174
811.0, 0.04858196274527762
812.0, 0.051381251808080376
813.0, 0.051464187184734875
814.0, 0.05196105182622685
815.0, 0.053717281711001555
816.0, 0.05345578120308699
817.0, 0.05247112708737024
818.0, 0.05364857306553327
819.0, 0.05638796834100495
820.0, 0.05951737907702558
821.0, 0.05740436555325118
822.0, 0.05475885063712046
823.0, 0.059642409051787866
824.0, 0.06105301993643967
825.0, 0.05856665892039962
826.0, 0.058807080688683996
827.0, 0.053096292363761344
828.0, 0.05306185535522216
829.0, 0.06134343583983585
830.0, 0.06491620328363067
831.0, 0.062060667063630885
832.0, 0.060301866399520274
833.0, 0.061826066328068904
834.0, 0.06487752954405875
835.0, 0.06672186760455241
836.0, 0.06746218001474753
837.0, 0.06707613104389953
838.0, 0.0636978478504676
839.0, 0.06542424266561854
840.0, 0.0697063234011219
841.0, 0.07108752055519714
842.0, 0.0699455281011703
843.0, 0.07075645223017418
844.0, 0.07460243519786842
845.0, 0.07792013957622465
846.0, 0.07948710310768471
847.0, 0.0754397811235487
848.0, 0.07580762019154337
849.0, 0.0785893436792019
850.0, 0.080131403954563
851.0, 0.08112103892089803
852.0, 0.08320693848037528
853.0, 0.08518236309241582
854.0, 0.08702133447892516
855.0, 0.08910041210457713
856.0, 0.09056794025022692
857.0, 0.0915810027975239
858.0, 0.09243224853520071
859.0, 0.09407299822042146
860.0, 0.09430898733801378
861.0, 0.09195442639875012
862.0, 0.09262763606040154
863.0, 0.09095334935106097
864.0, 0.08817171900758129
865.0, 0.08542699000307032
866.0, 0.0817341436548433
867.0, 0.07802996405229118
868.0, 0.0762918227984483
869.0, 0.07548352687002732
870.0, 0.07434615475586225
871.0, 0.07201427385499691
872.0, 0.07157395050122668
873.0, 0.07105373608996207
874.0, 0.06567902641844432
875.0, 0.06181814569681008
876.0, 0.054556039255749186
877.0, 0.0549862240206967
878.0, 0.05794862491643656
879.0, 0.055721430147676325
880.0, 0.04903711704666969
881.0, 0.04431594222897236
882.0, 0.043130130447630595
883.0, 0.03650559922324213
884.0, 0.03222102148974009
885.0, 0.034158616663164436
886.0, 0.03140418439712609
887.0, 0.028048857978040517
888.0, 0.028494125884453703
889.0, 0.025618281552379715
890.0, 0.019414036002335728
891.0, 0.0181756184816034
892.0, 0.01649432721774199
893.0, 0.014639693176744396
894.0, 0.01467675560897463
895.0, 0.015304333098381084
896.0, 0.013682486601594938
897.0, 0.008342421536075277
898.0, 0.0007610791659690286
899.0, 0.002086974690193928
900.0, 0.0013658192150898488
901.0, 0.0013007180239580805
902.0, 0.000281362138486773
903.0, 0.0011061111975338414
904.0, 0.0021802119967256764
905.0, 0.0040472578108191335
906.0, 0.005319445899974341
907.0, 0.00838248136996156
908.0, 0.010130777089407595
909.0, 0.007023616146266402
910.0, 0.006028064974134723
911.0, 0.009606576047496491
912.0, 0.00903746336324259
913.0, 0.004040595047952596
914.0, 0.00783468348183992
915.0, 0.008692166665136803
916.0, 0.006905505912212539
917.0, 0.0013097377041187965
918.0, 0.005274773000735695
919.0, 0.007496455281108025
920.0, 0.01177062160087492
921.0, 0.012797282743470794
922.0, 0.017183172597991875
923.0, 0.017057161561853197
924.0, 0.01911376424293277
925.0, 0.025917314210807313
926.0, 0.02936846670165432
927.0, 0.02957690848574196
928.0, 0.036111032478269633
929.0, 0.04321006576889969
930.0, 0.04515859950421121
931.0, 0.052182050595695285
932.0, 0.06066086891891241
933.0, 0.06322126838610827
934.0, 0.0663442424179786
935.0, 0.0735882645475638
936.0, 0.07965956490087978
937.0, 0.08773981189612277
938.0, 0.09501283673036073
939.0, 0.10477045992267738
940.0, 0.10919155491519925
941.0, 0.11564550643871567
942.0, 0.12641004246572599
943.0, 0.13484004402566108
944.0, 0.14042733169633928
945.0, 0.15082231292623505
946.0, 0.15778985975660367
947.0, 0.17012369792900597
948.0, 0.1799270329518311
949.0, 0.19183532373800272
950.0, 0.20325405290835027
951.0, 0.21168204668842866
952.0, 0.22220736602008495
953.0, 0.23588570310110982
954.0, 0.2475709252249291
955.0, 0.2640973878351633
956.0, 0.275490931494681
957.0, 0.2914793620443737
958.0, 0.31017035657696257
959.0, 0.33213447708035715
960.0, 0.3585557277660725
961.0, 0.37982837681607123
962.0, 0.40910577065268006
963.0, 0.44347280929893707
964.0, 0.47666360055812684
965.0, 0.5105967977348774
966.0, 0.5453804361803598
967.0, 0.5855279389322011
968.0, 0.6298083077585559
969.0, 0.6693141506200941
970.0, 0.7094118001660135
971.0, 0.7499029066335847
972.0, 0.7932219936937333
973.0, 0.8387715252452707
974.0, 0.8725838885552257
975.0, 0.9057362921119588
976.0, 0.9402804578337239
977.0, 0.9638413234421204
978.0, 0.9859670861886131
979.0, 0.996778254407178
980.0, 0.9987708189384166
981.0, 0.9825713809476418
982.0, 0.9663242639315064
983.0, 0.9486874507219802
984.0, 0.9232463629029642
985.0, 0.8905148351846025
986.0, 0.8512907305151503
987.0, 0.8100450710621444
988.0, 0.7706951072934326
989.0, 0.7268776094379138
990.0, 0.6865564652475293
991.0, 0.6412043749855175
992.0, 0.5991210406375802
993.0, 0.5627324576466053
994.0, 0.5222715629428722
995.0, 0.483638166381861
996.0, 0.45326077012268423
997.0, 0.41980619625185184
998.0, 0.38842060936095135
999.0, 0.3610068507063879
1000.0, 0.3335118283417038
1001.0, 0.30955000455916265
1002.0, 0.2901650162538076
1003.0, 0.26974968121671317
1004.0, 0.25039828174061873
1005.0, 0.2335996912050336
1006.0, 0.22020900798942544
1007.0, 0.2044645451318212
1008.0, 0.19279645149650193
1009.0, 0.18057820257068832
1010.0, 0.16815629667126417
1011.0, 0.15811672956212067
1012.0, 0.14778982335942228
1013.0, 0.14165622265712047
1014.0, 0.13305932506161383
1015.0, 0.12289340201637351
1016.0, 0.11429799711768973
1017.0, 0.10201268571738055
1018.0, 0.0923375936277111
1019.0, 0.08934236328186394
1020.0, 0.0857514961406925
1021.0, 0.07493623925949215
1022.0, 0.06433920031614641
1023.0, 0.05745453708192902
1024.0, 0.04987239073407438
1025.0, 0.04695825183888585
1026.0, 0.03701386883498443
1027.0, 0.03294002214843134
1028.0, 0.03153115324108397
1029.0, 0.02380163408737741
1030.0, 0.019506554282916463
1031.0, 0.014173540755195425
1032.0, 0.008966735801916353
1033.0, 0.0058239369265450135
1034.0, 0.005108988877127276
1035.0, 0.007710105489258771
1036.0, 0.0031930090590766027
1037.0, 0.0028273214127902593
1038.0, 0.003908553439157204
1039.0, 0.006513763674470863
1040.0, 0.007009162523375872
1041.0, 0.008205684839016356
1042.0, 0.007717787179337506
1043.0, 0.00648441873737921
1044.0, 0.008447611164969207
1045.0, 0.003839489661967952
1046.0, 0.0019359944636523443
1047.0, 0.003047340646737265
1048.0, 0.0016481425625256886
1049.0, 0.006369786056048838
1050.0, 0.002238393366228615
1051.0, 0.00043526304417197106
1052.0, 0.00653500068569616
1053.0, 0.004174343221563336
1054.0, 0.005700266736268742
1055.0, 0.008992734610623578
1056.0, 0.010226899339458152
1057.0, 0.014232535010600492
1058.0, 0.01989840086923326
1059.0, 0.021670327831383347
1060.0, 0.020074495673017365
1061.0, 0.024054094107961745
1062.0, 0.0349800780537589
1063.0, 0.04305002922844976
1064.0, 0.04592891312028805
1065.0, 0.0511736002424281
1066.0, 0.05874027724792786
1067.0, 0.06469249324184893
1068.0, 0.07445761590290417
1069.0, 0.08415578937812512
1070.0, 0.09088356676456154
1071.0, 0.09726527918987378
1072.0, 0.10401378037166321
1073.0, 0.11041201269229764
1074.0, 0.1171421260874218
1075.0, 0.12276757860019069
1076.0, 0.12924084876381664
1077.0, 0.137970196476262
1078.0, 0.14113700172373717
1079.0, 0.14960239734059746
1080.0, 0.1461636666181224
1081.0, 0.14792133897536186
1082.0, 0.14861278177260365
1083.0, 0.1504749863287958
1084.0, 0.1492317611096623
1085.0, 0.14656429465179013
1086.0, 0.14491180400762022
1087.0, 0.13958904253258392
1088.0, 0.13790861822724876
1089.0, 0.1274209088732701
1090.0, 0.1247563289528694
1091.0, 0.12113507893649797
1092.0, 0.11789608295812913
1093.0, 0.11497316837709987
1094.0, 0.11038352487906625
1095.0, 0.10225521987924839
1096.0, 0.0933539356431639
1097.0, 0.0903642394763828
1098.0, 0.09393820633403903
1099.0, 0.09220223589078833
1100.0, 0.08996812930336068
1101.0, 0.08044142991060409
1102.0, 0.07230054041773125
1103.0, 0.07122102970498778
1104.0, 0.06793529328992066
1105.0, 0.06265741813213774
1106.0, 0.06466254869377162
1107.0, 0.06855917554773577
1108.0, 0.06354892797362659
1109.0, 0.06047371924233459
1110.0, 0.05780892009521551
1111.0, 0.06050599511580471
1112.0, 0.060857349628185384
1113.0, 0.057047069991251906
1114.0, 0.05644263283713229
1115.0, 0.056153637411909624
1116.0, 0.05402061377526218
1117.0, 0.054309842442950965
1118.0, 0.05223721337237251
1119.0, 0.05376967354076221
1120.0, 0.05197295464263726
1121.0, 0.047649891777379716
1122.0, 0.046587966033602796
1123.0, 0.047442182431442124
1124.0, 0.04673614185938577
1125.0, 0.04710730219449611
1126.0, 0.04996718980066324
1127.0, 0.049560932225877964
1128.0, 0.04435014185727507
1129.0, 0.04336862748445745
1130.0, 0.042041914221685746
1131.0, 0.04348629828927032
1132.0, 0.048651472230525454
1133.0, 0.04921714876946231
1134.0, 0.047207063228578656
1135.0, 0.04658374003030379
1136.0, 0.050086657762041076
1137.0, 0.05114726363063183
1138.0, 0.04760184202329224
1139.0, 0.05293831961583395
1140.0, 0.05321892604643588
1141.0, 0.05064470047298446
1142.0, 0.050441298908507355
1143.0, 0.055402422002336735
1144.0, 0.05685209134186128
1145.0, 0.05157301993799755
1146.0, 0.05102437904597328
1147.0, 0.050717841753599426
1148.0, 0.04515617682366038
1149.0, 0.042257021841212605
1150.0, 0.042224273201241475
1151.0, 0.03761620382315813
1152.0, 0.03995348053006676
1153.0, 0.036047253948537104
1154.0, 0.03854479967715747
1155.0, 0.0357315065821031
1156.0, 0.03298318374344806
1157.0, 0.03151255893649655
1158.0, 0.02873507670648655
1159.0, 0.025580488244786804
1160.0, 0.022882734579310133
1161.0, 0.02064466468443443
1162.0, 0.018087237082778544
1163.0, 0.020440672015886344
1164.0, 0.01704513718422865
1165.0, 0.014679958000212375
1166.0, 0.015806929069050887
1167.0, 0.016198389295758658
1168.0, 0.015980502176676334
1169.0, 0.015407395857697938
1170.0, 0.014424996600415494
1171.0, 0.01529961424294993
1172.0, 0.017592053032086424
1173.0, 0.01634056508177291
1174.0, 0.01241576711160045
1175.0, 0.012085712029599453
1176.0, 0.011315252031829617
1177.0, 0.010004776276495425
1178.0, 0.006741067118967305
1179.0, 0.006767579936594385
1180.0, 0.0071462026604712835
1181.0, 0.006874615242190426
1182.0, 0.006077087901760621
1183.0, 0.002961070371060342
1184.0, 0.0020858327770376414
1185.0, 0.004303087967252222
1186.0, 0.0017857799275374994
1187.0, 0.00031279904581595346
1188.0, 0.003142233159499524
1189.0, 0.00212746658089692
1190.0, 0.003222084842762742
1191.0, 0.0014931035862375546
1192.0, 0.0008570485526374712
1193.0, 0.002556560870239374
1194.0, 0.0021218049787067425
1195.0, 0.0018756470957131779
1196.0, 0.00335291319236289
1197.0, 0.00143174041393785
1198.0, 0.0005293443650486913
1199.0, 0.005154979124967948
1200.0, 0.003648943180542611
1201.0, 0.00036400690133223665
1202.0, 0.0012902337483840026
1203.0, 0.003887001674270249
1204.0, 0.0004975967498708118
1205.0, 0.005223959326213616
1206.0, 0.0035607436587071625
1207.0, 0.002554643398093895
1208.0, 0.007556657190230543
1209.0, 0.005435514730892306
1210.0, 0.006124201984907626
1211.0, 0.01112603995596053
1212.0, 0.011666262059102773
1213.0, 0.01236447406231957
1214.0, 0.011706398423555057
1215.0, 0.013087391585791905
1216.0, 0.014278424592390933
1217.0, 0.01488601784176336
1218.0, 0.01559447325265689
1219.0, 0.015612968638254818
1220.0, 0.017060788892277162
1221.0, 0.02059082417995842
1222.0, 0.021196454557153063
1223.0, 0.01815530885643334
1224.0, 0.01882123200591501
1225.0, 0.021950024612439483
1226.0, 0.022057577224778736
1227.0, 0.025126599189813383
1228.0, 0.023146130181385408
1229.0, 0.021728990883271505
1230.0, 0.022659247505294206
1231.0, 0.020755435317003548
1232.0, 0.020239857711432753
1233.0, 0.024062504263614254
1234.0, 0.023780912255014795
1235.0, 0.02642385822013877
1236.0, 0.02346427388743953
1237.0, 0.025568080774166002
1238.0, 0.027242161206338475
1239.0, 0.028726791514775363
1240.0, 0.029165556085468627
1241.0, 0.02718565536263348
1242.0, 0.029147863107349885
1243.0, 0.027542555360902877
1244.0, 0.027010403663035976
1245.0, 0.03372810674945405
1246.0, 0.03119265238694174
1247.0, 0.030916324607029547
1248.0, 0.028835489924352406
1249.0, 0.024677161646425163
1250.0, 0.028867905562707498
1251.0, 0.024959024469119
1252.0, 0.02308668849681034
1253.0, 0.022365719104403724
1254.0, 0.02137428586111293
1255.0, 0.01781323456654568
1256.0, 0.018857299241374144
1257.0, 0.02118041170765164
1258.0, 0.0187869800925305
1259.0, 0.016166876577819726
1260.0, 0.01408731914711247
1261.0, 0.015864774512065884
1262.0, 0.021897186890287416
1263.0, 0.017400241808326715
1264.0, 0.017385207087651348
1265.0, 0.014421581429748094
1266.0, 0.013217874566939314
1267.0, 0.01579327219458179
1268.0, 0.013716175735755783
1269.0, 0.014164336864554582
1270.0, 0.015190600200291665
1271.0, 0.012936484718823691
1272.0, 0.011245113894484517
1273.0, 0.01151557960114614
1274.0, 0.01128612777799552
1275.0, 0.007422877179003651
1276.0, 0.00880687600079517
1277.0, 0.009116757741234788
1278.0, 0.005994385478110724
1279.0, 0.0035064177428311217
1280.0, 0.004397891073674893
1281.0, 0.006858013531488215
1282.0, 0.006220540546000404
1283.0, 0.007483769771329293
1284.0, 0.008339275688679234
1285.0, 0.005532545343208526
1286.0, 0.0046614622416465004
1287.0, 0.005919647882284764
1288.0, 0.004174860131783039
1289.0, 0.005062181053186928
1290.0, 0.0007773731066129671
1291.0, 0.002174053565906391
1292.0, 0.0034782640069352076
1293.0, 0.006354881155751308
1294.0, 0.010174150638900635
1295.0, 0.005380153176849273
1296.0, 0.002931480543119927
1297.0, 0.0030921683962210605
1298.0, 0.0006826499370675627
1299.0, 0.00209800305565606
1300.0, 0.0042724698073926684
1301.0, 0.0013926076587691114
1302, 0.0
1303, 0.0
1304, 0.0
1305, 0.0
1306, 0.0
1307, 0.0
1308, 0.0
1309, 0.0
1310, 0.0
1311, 0.0
1312, 0.0
1313, 0.0
1314, 0.0
1315, 0.0
1316, 0.0
1317, 0.0
1318, 0.0
1319, 0.0
1320, 0.0
1321, 0.0
1322, 0.0
1323, 0.0
1324, 0.0
1325, 0.0
1326, 0.0
1327, 0.0
1328, 0.0
1329, 0.0
1330, 0.0
1331, 0.0
1332, 0.0
1333, 0.0
1334, 0.0
1335, 0.0
1336, 0.0
1337, 0.0
1338, 0.0
1339, 0.0
1340, 0.0
1341, 0.0
1342, 0.0
1343, 0.0
1344, 0.0
1345, 0.0
1346, 0.0
1347, 0.0
1348, 0.0
1349, 0.0
1350, 0.0
1351, 0.0
1352, 0.0
1353, 0.0
1354, 0.0
1355, 0.0
1356, 0.0
1357, 0.0
1358, 0.0
1359, 0.0
1360, 0.0
1361, 0.0
1362, 0.0
1363, 0.0
1364, 0.0
1365, 0.0
1366, 0.0
1367, 0.0
1368, 0.0
1369, 0.0
1370, 0.0
1371, 0.0
1372, 0.0
1373, 0.0
1374, 0.0
1375, 0.0
1376, 0.0
1377, 0.0
1378, 0.0
1379, 0.0
1380, 0.0
1381, 0.0
1382, 0.0
1383, 0.0
1384, 0.0
1385, 0.0
1386, 0.0
1387, 0.0
1388, 0.0
1389, 0.0
1390, 0.0
1391, 0.0
1392, 0.0
1393, 0.0
1394, 0.0
1395, 0.0
1396, 0.0
1397, 0.0
1398, 0.0
1399, 0.0
1400, 0.0
1401, 0.0
1402, 0.0
1403, 0.0
1404, 0.0
1405, 0.0
1406, 0.0
1407, 0.0
1408, 0.0
1409, 0.0
1410, 0.0
1411, 0.0
1412, 0.0
1413, 0.0
1414, 0.0
1415, 0.0
1416, 0.0
1417, 0.0
1418, 0.0
1419, 0.0
1420, 0.0
1421, 0.0
1422, 0.0
1423, 0.0
1424, 0.0
1425, 0.0
1426, 0.0
1427, 0.0
1428, 0.0
1429, 0.0
1430, 0.0
1431, 0.0
1432, 0.0
1433, 0.0
1434, 0.0
1435, 0.0
1436, 0.0
1437, 0.0
1438, 0.0
1439, 0.0
1440, 0.0
1441, 0.0
1442, 0.0
1443, 0.0
1444, 0.0
1445, 0.0
1446, 0.0
1447, 0.0
1448, 0.0
1449, 0.0
1450, 0.0
1451, 0.0
1452, 0.0
1453, 0.0
1454, 0.0
1455, 0.0
1456, 0.0
1457, 0.0
1458, 0.0
1459, 0.0
1460, 0.0
1461, 0.0
1462, 0.0
1463, 0.0
1464, 0.0
1465, 0.0
1466, 0.0
1467, 0.0
1468, 0.0
1469, 0.0
1470, 0.0
1471, 0.0
1472, 0.0
1473, 0.0
1474, 0.0
1475, 0.0
1476, 0.0
1477, 0.0
1478, 0.0
1479, 0.0
1480, 0.0
1481, 0.0
1482, 0.0
1483, 0.0
1484, 0.0
1485, 0.0
1486, 0.0
1487, 0.0
1488, 0.0
1489, 0.0
1490, 0.0
1491, 0.0
1492, 0.0
1493, 0.0
1494, 0.0
1495, 0.0
1496, 0.0
1497, 0.0
1498, 0.0
1499, 0.0
1500, 0.0
1501, 0.0
1502, 0.0
1503, 0.0
1504, 0.0
1505, 0.0
1506, 0.0
1507, 0.0
1508, 0.0
1509, 0.0
1510, 0.0
1511, 0.0
1512, 0.0
1513, 0.0
1514, 0.0
1515, 0.0
1516, 0.0
1517, 0.0
1518, 0.0
1519, 0.0
1520, 0.0
1521, 0.0
1522, 0.0
1523, 0.0
1524, 0.0
1525, 0.0
1526, 0.0
1527, 0.0
1528, 0.0
1529, 0.0
1530, 0.0
1531, 0.0
1532, 0.0
1533, 0.0
1534, 0.0
1535, 0.0
1536, 0.0
1537, 0.0
1538, 0.0
1539, 0.0
1540, 0.0
1541, 0.0
1542, 0.0
1543, 0.0
1544, 0.0
1545, 0.0
1546, 0.0
1547, 0.0
1548, 0.0
1549, 0.0
1550, 0.0
1551, 0.0
1552, 0.0
1553, 0.0
1554, 0.0
1555, 0.0
1556, 0.0
1557, 0.0
1558, 0.0
1559, 0.0
1560, 0.0
1561, 0.0
1562, 0.0
1563, 0.0
1564, 0.0
1565, 0.0
1566, 0.0
1567, 0.0
1568, 0.0
1569, 0.0
1570, 0.0
1571, 0.0
1572, 0.0
1573, 0.0
1574, 0.0
1575, 0.0
1576, 0.0
1577, 0.0
1578, 0.0
1579, 0.0
1580, 0.0
1581, 0.0
1582, 0.0
1583, 0.0
1584, 0.0
1585, 0.0
1586, 0.0
1587, 0.0
1588, 0.0
1589, 0.0
1590, 0.0
1591, 0.0
1592, 0.0
1593, 0.0
1594, 0.0
1595, 0.0
1596, 0.0
1597, 0.0
1598, 0.0
1599, 0.0
