30, 0.0
31, 0.0
32, 0.0
33, 0.0
34, 0.0
35, 0.0
36, 0.0
37, 0.0
38, 0.0
39, 0.0
40, 0.0
41, 0.0
42, 0.0
43, 0.0
44, 0.0
45, 0.0
46, 0.0
47, 0.0
48, 0.0
49, 0.0
50, 0.0
51, 0.0
52, 0.0
53, 0.0
54, 0.0
55, 0.0
56, 0.0
57, 0.0
58, 0.0
59, 0.0
60, 0.0
61, 0.0
62, 0.0
63, 0.0
64, 0.0
65, 0.0
66, 0.0
67, 0.0
68, 0.0
69, 0.0
70, 0.0
71, 0.0
72, 0.0
73, 0.0
74, 0.0
75, 0.0
76, 0.0
77, 0.0
78, 0.0
79, 0.0
80, 0.0
81, 0.0
82, 0.0
83, 0.0
84, 0.0
85, 0.0
86, 0.0
87, 0.0
88, 0.0
89, 0.0
90, 0.0
91, 0.0
92, 0.0
93, 0.0
94, 0.0
95, 0.0
96, 0.0
97, 0.0
98, 0.0
99, 0.0
100, 0.0
101, 0.0
102, 0.0
103, 0.0
104, 0.0
105, 0.0
106, 0.0
107, 0.0
108, 0.0
109, 0.0
110, 0.0
111, 0.0
112, 0.0
113, 0.0
114, 0.0
115, 0.0
116, 0.0
117, 0.0
118, 0.0
119, 0.0
120, 0.0
121, 0.0
122, 0.0
123, 0.0
124, 0.0
125, 0.0
126, 0.0
127, 0.0
128, 0.0
129, 0.0
130, 0.0
131, 0.0
132, 0.0
133, 0.0
134, 0.0
135, 0.0
136, 0.0
137, 0.0
138, 0.0
139, 0.0
140, 0.0
141, 0.0
142, 0.0
143, 0.0
144, 0.0
145, 0.0
146, 0.0
147, 0.0
148, 0.0
149, 0.0
150, 0.0
151, 0.0
152, 0.0
153, 0.0
154, 0.0
155, 0.0
156, 0.0
157, 0.0
158, 0.0
159, 0.0
160, 0.0
161.0, 0.0011136076530892287
162.0, 0.00033460154909955073
163.0, 0.00318368309246191
164.0, 0.00551269672456731
165.0, 0.0011338406991601988
166.0, 0.006576357092762985
167.0, 0.014848655624161844
168.0, 0.016302427769836546
169.0, 0.009582360355869386
170.0, 0.012987475770687274
171.0, 0.013988985728256575
172.0, 0.010642321685963817
173.0, 0.008419631306954022
174.0, 0.008609582027970034
175.0, 0.007157596044889001
176.0, 0.008115929293861011
177.0, 0.00860451930190067
178.0, 0.005572563196784495
179.0, 0.012040841117332998
180.0, 0.011928264390981281
181.0, 0.006504346376201594
182.0, 0.0042397467818226274
183.0, 0.004064665345967055
184.0, 0.0042307529586903475
185.0, 0.0062021302221075035
186.0, 0.008947952455440404
187.0, 0.008775165121297971
188.0, 0.009223680186846779
189.0, 0.008371331246524928
190.0, 0.003877507169120762
191.0, 0.0032030821791995032
192.0, 0.0039030772356740805
193.0, 0.0031661244687673945
194.0, 0.0030002694587591625
195.0, 0.0029459677732145972
196.0, 0.0017206719955487498
197.0, 0.002033059401011227
198.0, 0.004699641627692556
199.0, 0.009827207850280894
200.0, 0.007326561191139566
201.0, 0.015233074545865503
202.0, 0.01312919513914773
203.0, 0.013817678431708846
204.0, 0.020025576777833374
205.0, 0.019954294648067205
206.0, 0.02017583160207642
207.0, 0.021757248644909164
208.0, 0.024289561399994924
209.0, 0.028688991617566297
210.0, 0.03764748951226878
211.0, 0.041058987263407745
212.0, 0.04270751839305134
213.0, 0.0458422309560272
214.0, 0.05048017746922141
215.0, 0.05761152921765554
216.0, 0.060024926643044284
217.0, 0.0603168561788839
218.0, 0.06293711744780685
219.0, 0.06934877421651815
220.0, 0.07353312599825375
221.0, 0.07557375837263919
222.0, 0.07933148272800919
223.0, 0.08505480180289954
224.0, 0.08128336257513012
225.0, 0.08209476603248927
226.0, 0.0859080503357478
227.0, 0.08772201805875675
228.0, 0.08631010056510344
229.0, 0.08595912822895532
230.0, 0.08541297005973908
231.0, 0.08734699990031514
232.0, 0.08991878874749
233.0, 0.08378573124408588
234.0, 0.08783876975068038
235.0, 0.08984790695132602
236.0, 0.08479836165898896
237.0, 0.07749372786790132
238.0, 0.07673554882274733
239.0, 0.0756603457133871
240.0, 0.07544306904331144
241.0, 0.07589855545484385
242.0, 0.07460380628336007
243.0, 0.08117060192860505
244.0, 0.07725884399337245
245.0, 0.07092282634612682
246.0, 0.07006256738567214
247.0, 0.06313641333341616
248.0, 0.06048969266291039
249.0, 0.06146345647130744
250.0, 0.06050768595665763
251.0, 0.05389088405919266
252.0, 0.047685110146194656
253.0, 0.04670813049061403
254.0, 0.051495543343503314
255.0, 0.05284768263894694
256.0, 0.04631171210016961
257.0, 0.053419199288258445
258.0, 0.05371832846506087
259.0, 0.04927606234509919
260.0, 0.048750348016839924
261.0, 0.05547429468696604
262.0, 0.055486064643963294
263.0, 0.058496604635778666
264.0, 0.060749053401660154
265.0, 0.06071843999780965
266.0, 0.06758609432964639
267.0, 0.06989736585334846
268.0, 0.07192240927083539
269.0, 0.07456200244800408
270.0, 0.07757856550603269
271.0, 0.08481805981517405
272.0, 0.09085538555650832
273.0, 0.09808949712682129
274.0, 0.10671808718564346
275.0, 0.11365118993123881
276.0, 0.11637622116825896
277.0, 0.11845155805308982
278.0, 0.12686342884548035
279.0, 0.13659040939145653
280.0, 0.13713710240420654
281.0, 0.14355999278741222
282.0, 0.14355393936276542
283.0, 0.1427575930980279
284.0, 0.14286916918976572
285.0, 0.13563591064236852
286.0, 0.13682298316283859
287.0, 0.13082466250390282
288.0, 0.11919626989624905
289.0, 0.11068472787218137
290.0, 0.10801701222969429
291.0, 0.09421898931837161
292.0, 0.09157062315874634
293.0, 0.09584077197215053
294.0, 0.0947376626961603
295.0, 0.09256467377260462
296.0, 0.089529818347313
297.0, 0.08538706737649103
298.0, 0.08073011942834847
299.0, 0.07908205888911488
300.0, 0.08656848167460464
301.0, 0.08719256085086123
302.0, 0.08617599917685109
303.0, 0.08673533814713329
304.0, 0.0856800148441397
305.0, 0.0750509586305597
306.0, 0.07174660740643182
307.0, 0.06944798250138255
308.0, 0.06490964825151345
309.0, 0.05937025205284543
310.0, 0.05214947937929179
311.0, 0.042896466085383333
312.0, 0.0359509571468978
313.0, 0.032726637332447635
314.0, 0.0315444613411675
315.0, 0.02985103624049783
316.0, 0.027614533014331245
317.0, 0.023168103271236317
318.0, 0.017848316157059348
319.0, 0.014886361609776843
320.0, 0.012132572727477454
321.0, 0.009263196464238156
322.0, 0.00943052761363572
323.0, 0.008001863156404413
324.0, 0.0010447642065714781
325.0, 0.007300450637204068
326.0, 0.001563427094362235
327.0, 0.0015834481685614184
328.0, 0.002143743394725937
329.0, 0.004255668498476521
330.0, 0.0036313661576373732
331.0, 0.0008286802694812606
332.0, 0.0018028407618648538
333.0, 0.0022431810330928183
334.0, 0.0007639472274968131
335.0, 0.0046575105754814
336.0, 0.006455069419070269
337.0, 0.0051060173488007
338.0, 0.004361054178424252
339.0, 0.006886445787372397
340.0, 0.011926580939063345
341.0, 0.008364277947855813
342.0, 0.01311116200384914
343.0, 0.021703231573473498
344.0, 0.022067134032684635
345.0, 0.020327520914054226
346.0, 0.022940627693907936
347.0, 0.02458443564659191
348.0, 0.026869264691233838
349.0, 0.033337768325992924
350.0, 0.03845247081158742
351.0, 0.04241686688564065
352.0, 0.04479351265616787
353.0, 0.04656193588215394
354.0, 0.049639073882135724
355.0, 0.05455740903791784
356.0, 0.0520373366082119
357.0, 0.051984754237392634
358.0, 0.0524706252927444
359.0, 0.05122051618472549
360.0, 0.0551787057231118
361.0, 0.051440946414936885
362.0, 0.048750380139249566
363.0, 0.04725622239692665
364.0, 0.045066266553477355
365.0, 0.04408215572518737
366.0, 0.04830068725879567
367.0, 0.044293111465781396
368.0, 0.03718273980531848
369.0, 0.035518011849384065
370.0, 0.03852805314803667
371.0, 0.03124431121380882
372.0, 0.04168693221027347
373.0, 0.040612836472294515
374.0, 0.023428169272057837
375.0, 0.021003918355187598
376.0, 0.022017397437338295
377.0, 0.015470506761779267
378.0, 0.009582874907851082
379.0, 0.008683455015929539
380.0, 0.010192155258035893
381.0, 0.007447601011679651
382.0, 0.0039449048513765265
383.0, 0.0029499355188062513
384.0, 0.0029170246029595645
385.0, 0.0018904705804211831
386.0, 0.008490234695849912
387.0, 0.008112127407096293
388.0, 0.0035551627445059835
389.0, 0.0015279825226197272
390.0, 0.002906406801077727
391.0, 0.0033278956053593854
392.0, 0.004309011531684875
393.0, 0.0002410548919230932
394.0, 0.004456243914700105
395.0, 0.0028121718790921598
396.0, 0.005613163436421089
397.0, 0.0024871843789889794
398.0, 0.0012449272756157844
399.0, 0.004538181230791875
400.0, 0.004981377656721127
401.0, 0.0017809186556969547
402.0, 0.003170496253657745
403.0, 0.007989089016372231
404.0, 0.012284252139472446
405.0, 0.014901755901585594
406.0, 0.01595034909210927
407.0, 0.01570869554764777
408.0, 0.018349046465355307
409.0, 0.026044257395953282
410.0, 0.02823467335980648
411.0, 0.030902728181783995
412.0, 0.04572386421423444
413.0, 0.050075077836132575
414.0, 0.056850690399357376
415.0, 0.06330573832947271
416.0, 0.06809369876850697
417.0, 0.07373805214119616
418.0, 0.08060470879685816
419.0, 0.08873648757695453
420.0, 0.09494845400073129
421.0, 0.10270345413472484
422.0, 0.11041758749466746
423.0, 0.11366123283619832
424.0, 0.12162598097498763
425.0, 0.1328875264965942
426.0, 0.1360782714468065
427.0, 0.13114843141269433
428.0, 0.12722349751493617
429.0, 0.13358247547949353
430.0, 0.13733686571704853
431.0, 0.13646081479201716
432.0, 0.12824802966143264
433.0, 0.11957300469924383
434.0, 0.12226599220126513
435.0, 0.11201335079327103
436.0, 0.10262346722412925
437.0, 0.095803549843996
438.0, 0.09337101997685424
439.0, 0.09421734591921735
440.0, 0.08577001037288676
441.0, 0.07896999799447539
442.0, 0.0693837344988741
443.0, 0.0662017219268056
444.0, 0.06947852960089798
445.0, 0.06312000483843538
446.0, 0.05786304246750484
447.0, 0.0562475103406486
448.0, 0.05203495301049719
449.0, 0.045694440814210494
450.0, 0.04292983481577346
451.0, 0.04737471171950218
452.0, 0.04411424657681667
453.0, 0.03752968060454373
454.0, 0.03579873514482671
455.0, 0.037192481834985344
456.0, 0.0331246744870413
457.0, 0.03818673551108552
458.0, 0.03385452879064467
459.0, 0.027349087619389836
460.0, 0.025631170607333973
461.0, 0.028739636794529535
462.0, 0.03117924884191794
463.0, 0.02745743718283866
464.0, 0.026874474486379554
465.0, 0.029131535058012987
466.0, 0.03198741223279503
467.0, 0.033525781013100116
468.0, 0.027719350058980668
469.0, 0.031577497584245294
470.0, 0.03360002267499384
471.0, 0.034617274119972334
472.0, 0.0365912348311051
473.0, 0.03547760370302829
474.0, 0.03696517691679322
475.0, 0.03537798539954074
476.0, 0.03802502673260565
477.0, 0.041007700767646274
478.0, 0.038957025564034374
479.0, 0.0376209162638816
480.0, 0.04197089742824957
481.0, 0.04230570038933227
482.0, 0.041372177062969376
483.0, 0.04040724342992218
484.0, 0.03902883487252833
485.0, 0.04405537326310625
486.0, 0.04228629031781871
487.0, 0.04475699965448632
488.0, 0.045809659102205996
489.0, 0.04406528276467382
490.0, 0.04598036890617158
491.0, 0.045489194538258844
492.0, 0.044189024266483114
493.0, 0.043606347315561955
494.0, 0.0451775734867379
495.0, 0.045864642395585326
496.0, 0.041246101692613106
497.0, 0.04514335229948192
498.0, 0.0413772939102895
499.0, 0.042231822539025236
500.0, 0.04095278573120919
501.0, 0.03323091759594336
502.0, 0.035969833514517144
503.0, 0.032693076986094596
504.0, 0.028579649087327193
505.0, 0.027527471205711047
506.0, 0.027236104195360225
507.0, 0.02326147470112135
508.0, 0.014717561258555735
509.0, 0.01771715425659177
510.0, 0.021484850208275435
511.0, 0.019504317788630154
512.0, 0.013231429826321485
513.0, 0.007989262349240266
514.0, 0.00784920755163738
515.0, 0.00638417149311034
516.0, 0.006168614230816956
517.0, 0.004379464534140075
518.0, 0.002229718052047988
519.0, 0.0022359375475333584
520.0, 0.000815124163213144
521.0, 0.004059757175782256
522.0, 0.005648165302474232
523.0, 0.0035598088856917147
524.0, 0.0031696654971578187
525.0, 0.005429803956209126
526.0, 0.002628932639820359
527.0, 0.006256133844031925
528.0, 0.00843255550657305
529.0, 0.0038484409376960994
530.0, 0.0006042054863977127
531.0, 0.004073477707405234
532.0, 0.0012158998539700651
533.0, 0.0008639697265980001
534.0, 0.004516688138390516
535.0, 0.005950168805911691
536.0, 0.0070718272926702285
537.0, 0.01262752809107763
538.0, 0.01608095868799246
539.0, 0.016382892548805074
540.0, 0.0243077279653428
541.0, 0.03055339806055096
542.0, 0.03634912708583977
543.0, 0.04622322390807907
544.0, 0.04669390350235484
545.0, 0.05306346815272053
546.0, 0.06066451616933358
547.0, 0.0663057715270703
548.0, 0.07035456089535831
549.0, 0.07538754086396134
550.0, 0.08273244709508104
551.0, 0.08715298661284954
552.0, 0.09343341522767017
553.0, 0.10402642197563738
554.0, 0.1105063215621479
555.0, 0.11136122639796701
556.0, 0.12582349792341027
557.0, 0.13200874569988294
558.0, 0.13357823243819028
559.0, 0.13663642056072928
560.0, 0.1424510769570568
561.0, 0.1512026112848116
562.0, 0.1615424760847231
563.0, 0.15989389682668703
564.0, 0.1611698512466568
565.0, 0.16048930342595571
566.0, 0.16311624105431594
567.0, 0.1700869386817006
568.0, 0.17159924008848063
569.0, 0.17733039136464285
570.0, 0.1719122322843176
571.0, 0.17996921252086104
572.0, 0.19031477003518266
573.0, 0.19157427962664605
574.0, 0.1913265628520263
575.0, 0.1919945261886493
576.0, 0.191885580562617
577.0, 0.1917945004526039
578.0, 0.1977717904169169
579.0, 0.2035339255699632
580.0, 0.2022602579285827
581.0, 0.20114284194055063
582.0, 0.21460209157215168
583.0, 0.20561963252663912
584.0, 0.20255685630479692
585.0, 0.2122986912592186
586.0, 0.2192358911265071
587.0, 0.21441486840563057
588.0, 0.21068610597287823
589.0, 0.21485812060630902
590.0, 0.2117446117811739
591.0, 0.19951093228652642
592.0, 0.18963239106932714
593.0, 0.1875580128611591
594.0, 0.1798484614846982
595.0, 0.1741175707015983
596.0, 0.16008023398782
597.0, 0.1416712535301325
598.0, 0.12630248791100132
599.0, 0.11512461839324879
600.0, 0.10491128924135937
601.0, 0.096177242806846
602.0, 0.08259996848092392
603.0, 0.07047577938707653
604.0, 0.06217141781787535
605.0, 0.058734070100445734
606.0, 0.05707582545564625
607.0, 0.04974329717325739
608.0, 0.05148969737006123
609.0, 0.04455077724781669
610.0, 0.04319003174541987
611.0, 0.04557233531277304
612.0, 0.042489655742022
613.0, 0.03991083887664463
614.0, 0.04039749188099766
615.0, 0.037036417810681004
616.0, 0.040202396226633304
617.0, 0.04574335768603938
618.0, 0.04760861252727256
619.0, 0.04571202387142304
620.0, 0.04008551659816843
621.0, 0.05394961204649739
622.0, 0.05465248854209972
623.0, 0.050938732473470735
624.0, 0.05194822557088803
625.0, 0.05705457680968587
626.0, 0.058161824415145
627.0, 0.05491246619688723
628.0, 0.05192303033832702
629.0, 0.04721706613562332
630.0, 0.04668362355326799
631.0, 0.05041239399819929
632.0, 0.051801180666939804
633.0, 0.04584640690487038
634.0, 0.040569946912715
635.0, 0.04068737441091294
636.0, 0.04515159505047857
637.0, 0.04164824664371749
638.0, 0.0371925112012851
639.0, 0.037963876304715094
640.0, 0.031795260087332806
641.0, 0.029115479924792874
642.0, 0.025087479059403787
643.0, 0.024156164318328628
644.0, 0.023034511187169836
645.0, 0.019360588381192655
646.0, 0.017005595920340535
647.0, 0.01783534261654679
648.0, 0.012854545369611808
649.0, 0.01462187847253188
650.0, 0.011103648108689688
651.0, 0.009846995471724502
652.0, 0.012662850490235002
653.0, 0.011053868332932672
654.0, 0.009374711469621612
655.0, 0.007437430712542179
656.0, 0.007586830018255315
657.0, 0.004253183568467507
658.0, 0.0031175942874918042
659.0, 0.0051803036967952975
660.0, 0.004543324503513965
661.0, 0.008543099991007873
662.0, 0.003508221328063551
663.0, 0.002188646103089712
664.0, 0.0037661213129096937
665.0, 0.0025704480477567347
666.0, 0.0005245938535587382
667.0, 0.0013112655662334265
668.0, 0.00447317171577797
669.0, 0.002086414281202694
670.0, 0.0024976455994047534
671.0, 0.003967578434266211
672.0, 0.0007928393062889146
673.0, 0.003617053765022526
674.0, 0.004486556404946797
675.0, 0.003089736446654422
676.0, 0.0025510564953424965
677.0, 0.0004286674536109962
678.0, 0.0017726704500676017
679.0, 0.002210717488931181
680.0, 0.003395947605996062
681.0, 0.002508636449248431
682.0, 0.003341576467398183
683.0, 0.0030662939362268793
684.0, 0.004142232396547218
685.0, 0.0012250047683649771
686.0, 0.0008746470090426859
687.0, 0.0008666202104314146
688.0, 0.00026400318801933525
689.0, 0.0009959846605609992
690.0, 0.004927690031945271
691.0, 0.00124845831826863
692.0, 0.003464659160299915
693.0, 0.0037354161534836495
694.0, 0.005472684508950835
695.0, 0.0036022567963615508
696.0, 0.0020163812781925365
697.0, 0.0020649414270092117
698.0, 0.0016182683490264752
699.0, 0.002697111421713909
700.0, 0.0035739811951931467
701.0, 0.005987742147383497
702.0, 0.006416473164769599
703.0, 0.0005291908737476202
704.0, 0.006602141322273753
705.0, 0.0008808675494599782
706.0, 0.005707731350580541
707.0, 0.0027794751275278832
708.0, 0.0019102284485400325
709.0, 0.00036055107706214933
710.0, 0.001246706652625884
711.0, 0.0025142453242068086
712.0, 0.002951985916568246
713.0, 0.004087108131199424
714.0, 0.001969221295754152
715.0, 0.004606835138769878
716.0, 0.007471598568055316
717.0, 0.006180201941320881
718.0, 0.006541667029181579
719.0, 0.007580854910387582
720.0, 0.007037301406790171
721.0, 0.005724907913375941
722.0, 0.004691811162601223
723.0, 0.006585948064218116
724.0, 0.008783844758076077
725.0, 0.007954586211641074
726.0, 0.007622859194257761
727.0, 0.006587898223484766
728.0, 0.0061324961916287505
729.0, 0.009673973198527577
730.0, 0.008648728239642588
731.0, 0.0044971347471541275
732.0, 0.003918596121954748
733.0, 0.0059746440835898
734.0, 0.006558862617006554
735.0, 0.005858025637882315
736.0, 0.003783486025969146
737.0, 0.005698296812722164
738.0, 0.005544705966868312
739.0, 0.004242244472823954
740.0, 0.007308571513806882
741.0, 0.011253042243391341
742.0, 0.007313233428980347
743.0, 0.009199625378645115
744.0, 0.012835614933930888
745.0, 0.009752781376982657
746.0, 0.004093038911972562
747.0, 0.0018384234665284284
748.0, 0.005598814242657854
749.0, 0.014346447744519715
750.0, 0.005145396960264153
751.0, 0.007898383402193832
752.0, 0.007893852212655613
753.0, 0.010404033607423448
754.0, 0.009810634025320975
755.0, 0.005903059258718712
756.0, 0.006735679795935535
757.0, 0.009831138589483989
758.0, 0.010301352801154205
759.0, 0.006321820685837483
760.0, 0.004166695259189464
761.0, 0.0020943336950614362
762.0, 0.004549618910268937
763.0, 0.007804717800873976
764.0, 0.007290072686545658
765.0, 0.008652321916036923
766.0, 0.004427969541266566
767.0, 0.0017216471558822786
768.0, 0.0010238445539368275
769.0, 5.111143903918918e-05
770.0, 0.003964759931405589
771.0, 0.008405741413814118
772.0, 0.005806743850390369
773.0, 0.008524153911606871
774.0, 0.005514270280744648
775.0, 0.004535237592061648
776.0, 0.0066101191619496865
777.0, 0.005282026225022773
778.0, 0.005389999225986814
779.0, 0.00782080223011999
780.0, 0.00896858938842244
781.0, 0.01084135391712031
782.0, 0.010731359835368952
783.0, 0.009777210101572467
784.0, 0.008541483409514944
785.0, 0.007970038743305508
786.0, 0.010185033573750932
787.0, 0.013183204680097938
788.0, 0.01349425254162017
789.0, 0.01085949457555472
790.0, 0.008394652437661874
791.0, 0.011429313315158635
792.0, 0.011924817070224806
793.0, 0.010370042357023171
794.0, 0.008834481835535321
795.0, 0.010664655347613473
796.0, 0.011825697545604434
797.0, 0.005484267917637603
798.0, 0.0033350430438803505
799.0, 0.0030184931859197164
800.0, 0.003822086493310519
801.0, 0.0019389654950843585
802.0, 0.006028954589702956
803.0, 0.005053918501353002
804.0, 0.0023550902412427218
805.0, 0.003955875252766633
806.0, 0.01233219503514499
807.0, 0.0068523391424150535
808.0, 0.006460329898727026
809.0, 0.011096406616648334
810.0, 0.011427006651555612
811.0, 0.010511389828121274
812.0, 0.00800070728607807
813.0, 0.007449185615179675
814.0, 0.014631519201431534
815.0, 0.01435578670624769
816.0, 0.016738352078869204
817.0, 0.008960576790234686
818.0, 0.0106027849738272
819.0, 0.010319163014456012
820.0, 0.012875638335028425
821.0, 0.012173116100535009
822.0, 0.007492242467067551
823.0, 0.012081430171333384
824.0, 0.010295895744307242
825.0, 0.012539903372004604
826.0, 0.012941256944808488
827.0, 0.008897414947801168
828.0, 0.0091407663698437
829.0, 0.01182813278224106
830.0, 0.01158441107988963
831.0, 0.011055980434502637
832.0, 0.013158435043276004
833.0, 0.012579841081985286
834.0, 0.014014674397031277
835.0, 0.00859497424906349
836.0, 0.013013670600055326
837.0, 0.013832621368321365
838.0, 0.012104554937111623
839.0, 0.013116309412770274
840.0, 0.01366475379807489
841.0, 0.010938500645514647
842.0, 0.005889787419147195
843.0, 0.010055568399739421
844.0, 0.004053676205365729
845.0, 0.0031174333894591674
846.0, 0.005696606525676737
847.0, 0.00932448745021261
848.0, 0.012262280215549625
849.0, 0.012214993434220167
850.0, 0.010244061782645166
851.0, 0.0069207666547826865
852.0, 0.006648070438291509
853.0, 0.0069683803275225826
854.0, 0.003056925140381495
855.0, 0.003040630666886119
856.0, 0.004622238386409929
857.0, 0.005668850726705535
858.0, 0.006034644060853462
859.0, 0.00476357731560147
860.0, 0.004875444403849682
861.0, 0.00555601403036311
862.0, 0.003598813717064353
863.0, 0.0034013747045389575
864.0, 0.002451311868831316
865.0, 0.0027485173207992754
866.0, 0.002511842455399388
867.0, 0.0014752120163832468
868.0, 0.001788177291893863
869.0, 0.0008249943791427562
870.0, 0.0019161114514258683
871.0, 0.0007024766051641196
872.0, 0.0017717888040332116
873.0, 0.0008060106424489166
874.0, 0.0019426243307977516
875.0, 0.001162201440397184
876.0, 0.0008924380587469488
877.0, 0.0020625502185336953
878.0, 0.0005494348219617078
879.0, 0.002812099027280401
880.0, 0.0008690027209065314
881.0, 0.0007647774259606393
882.0, 0.0024428981221413064
883.0, 0.004373202572697049
884.0, 0.0034370601534694702
885.0, 0.0011988733762049052
886.0, 0.0018119875209231266
887.0, 0.001175421793293957
888.0, 0.0036476443546904743
889.0, 0.003246969166293316
890.0, 0.0009213857894886822
891.0, 0.004117681355341445
892.0, 0.00031350960003648665
893.0, 0.0032782482285594527
894.0, 0.002399097991358251
895.0, 0.002502276065393236
896.0, 0.0017406156134260268
897.0, 0.0012186311077387298
898.0, 0.003116788042266816
899.0, 0.00198617202453899
900.0, 0.004081124022751586
901.0, 0.00414058590770254
902.0, 0.0013285702698855868
903.0, 0.0008517274036435362
904.0, 0.0028069748728586606
905.0, 0.008067592773848224
906.0, 0.008480474740281959
907.0, 0.007874715915908482
908.0, 0.010585201610610152
909.0, 0.0064599848154660066
910.0, 0.006992755481627907
911.0, 0.014065620075399925
912.0, 0.01460855099281498
913.0, 0.01509972378006607
914.0, 0.017054735630770985
915.0, 0.01629299291217336
916.0, 0.016966185156699832
917.0, 0.022001741771224062
918.0, 0.025314021461505964
919.0, 0.02220915368643349
920.0, 0.025924228845363904
921.0, 0.02642846642819538
922.0, 0.02482849968067103
923.0, 0.02608076138730425
924.0, 0.028256466652739173
925.0, 0.027894582298530538
926.0, 0.03177289784540982
927.0, 0.03893371747345783
928.0, 0.03905346374485283
929.0, 0.03276914941020651
930.0, 0.030463187787963725
931.0, 0.040159855588370194
932.0, 0.038067977920369755
933.0, 0.0382814917224672
934.0, 0.04380330890832999
935.0, 0.052727517007456315
936.0, 0.060961709316254296
937.0, 0.06554896900624047
938.0, 0.06715613824685147
939.0, 0.07584113841983932
940.0, 0.09620397002459939
941.0, 0.10287533515277353
942.0, 0.11283741056645724
943.0, 0.12498660850966507
944.0, 0.1379808824078825
945.0, 0.15145885751263086
946.0, 0.16883361779578776
947.0, 0.18903009681489086
948.0, 0.21108671205360097
949.0, 0.23603761216711516
950.0, 0.2659237803801672
951.0, 0.29814761863266015
952.0, 0.3284600889753439
953.0, 0.3671044023373742
954.0, 0.4128077338178993
955.0, 0.4494172839379525
956.0, 0.4900895733935682
957.0, 0.5278254127635865
958.0, 0.5695231243833996
959.0, 0.6180786040327881
960.0, 0.6587673511542195
961.0, 0.6852714099466296
962.0, 0.715116433504634
963.0, 0.7564423710553362
964.0, 0.8035007832573371
965.0, 0.8444131951521471
966.0, 0.8694020078479616
967.0, 0.9005128269314355
968.0, 0.9385173672321032
969.0, 0.9652878215862192
970.0, 0.9874634122296855
971.0, 0.9999106212894897
972.0, 0.9952821620534081
973.0, 0.9837020105830396
974.0, 0.9650762366593052
975.0, 0.919550566118164
976.0, 0.8694238468150248
977.0, 0.8179341290385641
978.0, 0.7416091037361046
979.0, 0.6802487989514958
980.0, 0.6164359144499911
981.0, 0.55694918489221
982.0, 0.4987287244941731
983.0, 0.44454507621931194
984.0, 0.39573668099747517
985.0, 0.35128936503459174
986.0, 0.32426014944138654
987.0, 0.2962530650011297
988.0, 0.2642636750306795
989.0, 0.23606077638348008
990.0, 0.21530384036624875
991.0, 0.19889267968815963
992.0, 0.17713891172015786
993.0, 0.1616530969322998
994.0, 0.14959805967734055
995.0, 0.14268153973121595
996.0, 0.1357732531547985
997.0, 0.1224587662257972
998.0, 0.1150617673266111
999.0, 0.10730428090732388
1000.0, 0.10302783280180038
1001.0, 0.08714425614015528
1002.0, 0.08572238195175005
1003.0, 0.08095884864054971
1004.0, 0.07443731315649073
1005.0, 0.06886945159425253
1006.0, 0.05963810494626491
1007.0, 0.056879719728927365
1008.0, 0.05798657563570767
1009.0, 0.055179393999421386
1010.0, 0.048923650539626856
1011.0, 0.037545225651545215
1012.0, 0.03629161438838577
1013.0, 0.034871061382418356
1014.0, 0.03561168729759091
1015.0, 0.03410611929702468
1016.0, 0.02843937815722974
1017.0, 0.024401629407601294
1018.0, 0.023312191741447205
1019.0, 0.021144036020116955
1020.0, 0.01691886789427253
1021.0, 0.012940899048006164
1022.0, 0.009404552663223733
1023.0, 0.006187015123599187
1024.0, 0.0050893848029685065
1025.0, 0.004506248487944832
1026.0, 0.006038599247973916
1027.0, 0.006682984986220453
1028.0, 0.0020932385111943415
1029.0, 0.0029266964307720017
1030.0, 0.007072731372943143
1031.0, 0.004414184190393438
1032.0, 0.00797072106426811
1033.0, 0.00578267774113032
1034.0, 0.004516408416252053
1035.0, 0.005097180744505525
1036.0, 0.0027808202818999173
1037.0, 0.0028511100910914577
1038.0, 0.002063542468164388
1039.0, 0.0005895075831284303
1040.0, 0.0031978840439839348
1041.0, 0.0015697280961377957
1042.0, 0.0008605583642241155
1043.0, 0.001946617634088562
1044.0, 0.0020674797658955255
1045.0, 0.0024909158051726384
1046.0, 0.0018527221339378478
1047.0, 0.0012523386529541508
1048.0, 0.003487099744978321
1049.0, 0.002975124664875787
1050.0, 0.003808212146962109
1051.0, 0.0078019245507284785
1052.0, 0.00617821053156718
1053.0, 0.007120345263657719
1054.0, 0.0040143707880397825
1055.0, 0.0016274907758178562
1056.0, 0.004075150541877258
1057.0, 0.0004618700226587047
1058.0, 0.004584510334683695
1059.0, 0.011329899103360283
1060.0, 0.014255221815261364
1061.0, 0.012133098624166476
1062.0, 0.012791431066003346
1063.0, 0.016950751277743065
1064.0, 0.020452061218286827
1065.0, 0.021106774213383566
1066.0, 0.02142795766655017
1067.0, 0.03344284992291984
1068.0, 0.035507011161057436
1069.0, 0.03607017554117582
1070.0, 0.039769102805052935
1071.0, 0.04640452347170585
1072.0, 0.048853406679538594
1073.0, 0.04942937930457877
1074.0, 0.048193256694409256
1075.0, 0.05200717166096411
1076.0, 0.054278971586910585
1077.0, 0.05193538802632114
1078.0, 0.05618781663642343
1079.0, 0.05747355534601771
1080.0, 0.047139679611661975
1081.0, 0.04719957406480927
1082.0, 0.057346445568020335
1083.0, 0.049756253799897524
1084.0, 0.050659452168293546
1085.0, 0.0483208453314089
1086.0, 0.04301040428016337
1087.0, 0.04419189754658912
1088.0, 0.037834964969662634
1089.0, 0.036758765326102366
1090.0, 0.03329106658792803
1091.0, 0.032788533284955484
1092.0, 0.030661045622291026
1093.0, 0.030283008050593002
1094.0, 0.03301796991671334
1095.0, 0.02975219577120767
1096.0, 0.02261999063474972
1097.0, 0.023301834145840392
1098.0, 0.02250919593402064
1099.0, 0.018759345862917394
1100.0, 0.022696760748082193
1101.0, 0.020985853063667268
1102.0, 0.017358910061858905
1103.0, 0.014444984340379812
1104.0, 0.01740209698963967
1105.0, 0.013074365357560168
1106.0, 0.014070243384027086
1107.0, 0.008412896303303014
1108.0, 0.009111102899807802
1109.0, 0.011162850438630587
1110.0, 0.010073940956753128
1111.0, 0.009248008621988813
1112.0, 0.006264725394956375
1113.0, 0.0017705579555842758
1114.0, 0.0022971015052673724
1115.0, 0.003533740052316144
1116.0, 0.0012767182114056413
1117.0, 0.007241948996718296
1118.0, 0.005923759399053824
1119.0, 0.003075462303246999
1120.0, 0.0019765655305061317
1121.0, 0.0033956583761062704
1122.0, 0.0028512802932969834
1123.0, 0.002241407572768533
1124.0, 0.00045135608149486764
1125.0, 0.0003663882953240805
1126.0, 0.0029033193216187383
1127.0, 0.004503856349452476
1128.0, 0.004092630823099367
1129.0, 0.004744497661353222
1130.0, 0.004749874736791818
1131.0, 0.004564887898187113
1132.0, 0.006150242007354415
1133.0, 0.007155022427019256
1134.0, 0.008845013072123356
1135.0, 0.006757774293955814
1136.0, 0.004921285854022196
1137.0, 0.007087683963586825
1138.0, 0.009257502542108359
1139.0, 0.012946079086824774
1140.0, 0.01186748833236015
1141.0, 0.009652378626886742
1142.0, 0.015335719766206533
1143.0, 0.012076569479173254
1144.0, 0.008108081852962705
1145.0, 0.009519968187446161
1146.0, 0.012235978002024061
1147.0, 0.013079132677392028
1148.0, 0.010433194244806947
1149.0, 0.012850130818075022
1150.0, 0.016557324937958116
1151.0, 0.016231861095648798
1152.0, 0.0205160457478219
1153.0, 0.01847311194546973
1154.0, 0.01806931285850038
1155.0, 0.022577758065706964
1156.0, 0.02387784193637328
1157.0, 0.023138222118459777
1158.0, 0.025118975430898662
1159.0, 0.022926914900337506
1160.0, 0.02803659838128104
1161.0, 0.027984239637902156
1162.0, 0.025310128773124923
1163.0, 0.022007566639534504
1164.0, 0.02269030397910455
1165.0, 0.02327482046596929
1166.0, 0.025151704353207058
1167.0, 0.022943096809924284
1168.0, 0.021935752818718224
1169.0, 0.0205852537466271
1170.0, 0.018446671243409256
1171.0, 0.017635833403949166
1172.0, 0.017914313121717818
1173.0, 0.0196817509886966
1174.0, 0.0182552691538942
1175.0, 0.018688062713494873
1176.0, 0.020667603752282236
1177.0, 0.02183134247817642
1178.0, 0.019472564996430044
1179.0, 0.0213325266672433
1180.0, 0.019442637905838528
1181.0, 0.01633403358540777
1182.0, 0.011699731517108548
1183.0, 0.01673780786732841
1184.0, 0.015106485664087812
1185.0, 0.012547530145870416
1186.0, 0.01580235502135063
1187.0, 0.013982096361645277
1188.0, 0.01365331631775129
1189.0, 0.017070130252252704
1190.0, 0.0117570400604394
1191.0, 0.007225192639966683
1192.0, 0.00947365545221713
1193.0, 0.007343182877594009
1194.0, 0.004570843154545488
1195.0, 0.007538885985443628
1196.0, 0.007429635090051942
1197.0, 0.005055911434682354
1198.0, 0.003964529138141476
1199.0, 0.0033901575653325915
1200.0, 0.002269290309759991
1201.0, 0.00826231699204186
1202.0, 0.0060934271948653775
1203.0, 0.0017381124781092703
1204.0, 0.0024934110120252875
1205.0, 0.0012505998274833661
1206.0, 0.0009183881024744363
1207.0, 0.00442628961372936
1208.0, 0.0024206794857780183
1209.0, 0.006693422591715464
1210.0, 0.005563874810552645
1211.0, 0.005200121804233805
1212.0, 0.0034020218553141293
1213.0, 0.004424682966756594
1214.0, 0.00506247679250409
1215.0, 0.011048086688365108
1216.0, 0.011362012499801734
1217.0, 0.006625999747736016
1218.0, 0.010264230750644464
1219.0, 0.013780388214263539
1220.0, 0.010753046692819845
1221.0, 0.006540493631479454
1222.0, 0.006574895380980419
1223.0, 0.010198670996239697
1224.0, 0.012759915844063793
1225.0, 0.014583554722336592
1226.0, 0.012203888658168573
1227.0, 0.011573592218211933
1228.0, 0.011006545234683529
1229.0, 0.00928525889846856
1230.0, 0.011273311008809574
1231.0, 0.009632517488206137
1232.0, 0.016565835958650764
1233.0, 0.011671202526961176
1234.0, 0.014981392251233369
1235.0, 0.005965928358551234
1236.0, 0.002409155512216943
1237.0, 0.0016010140059856274
1238.0, 0.0010867863456720905
1239.0, 0.002750851166662704
1240.0, 0.005684403443385496
1241.0, 0.0015975628556782198
1242.0, 0.00721311875571354
1243.0, 0.013062719425248824
1244.0, 0.01422839568638033
1245.0, 0.01444474652375017
1246.0, 0.014239479682865479
1247.0, 0.016532294588825533
1248.0, 0.012435249057012961
1249.0, 0.01208591461511088
1250.0, 0.010675620813256795
1251.0, 0.005617065232585037
1252.0, 0.007494377193347834
1253.0, 0.009493422353560889
1254.0, 0.004975754313348164
1255.0, 0.0013781957813876642
1256.0, 0.0014548112493348807
1257.0, 0.0005497081054912334
1258.0, 0.002135757007246919
1259.0, 0.003161407347310555
1260.0, 0.0020363796950469424
1261.0, 0.0036619910456632265
1262.0, 0.004272553413687298
1263.0, 0.00024782639515822665
1264.0, 0.0002822994938879213
1265, 0.0
1266, 0.0
1267, 0.0
1268, 0.0
1269, 0.0
1270, 0.0
1271, 0.0
1272, 0.0
1273, 0.0
1274, 0.0
1275, 0.0
1276, 0.0
1277, 0.0
1278, 0.0
1279, 0.0
1280, 0.0
1281, 0.0
1282, 0.0
1283, 0.0
1284, 0.0
1285, 0.0
1286, 0.0
1287, 0.0
1288, 0.0
1289, 0.0
1290, 0.0
1291, 0.0
1292, 0.0
1293, 0.0
1294, 0.0
1295, 0.0
1296, 0.0
1297, 0.0
1298, 0.0
1299, 0.0
1300, 0.0
1301, 0.0
1302, 0.0
1303, 0.0
1304, 0.0
1305, 0.0
1306, 0.0
1307, 0.0
1308, 0.0
1309, 0.0
1310, 0.0
1311, 0.0
1312, 0.0
1313, 0.0
1314, 0.0
1315, 0.0
1316, 0.0
1317, 0.0
1318, 0.0
1319, 0.0
1320, 0.0
1321, 0.0
1322, 0.0
1323, 0.0
1324, 0.0
1325, 0.0
1326, 0.0
1327, 0.0
1328, 0.0
1329, 0.0
1330, 0.0
1331, 0.0
1332, 0.0
1333, 0.0
1334, 0.0
1335, 0.0
1336, 0.0
1337, 0.0
1338, 0.0
1339, 0.0
1340, 0.0
1341, 0.0
1342, 0.0
1343, 0.0
1344, 0.0
1345, 0.0
1346, 0.0
1347, 0.0
1348, 0.0
1349, 0.0
1350, 0.0
1351, 0.0
1352, 0.0
1353, 0.0
1354, 0.0
1355, 0.0
1356, 0.0
1357, 0.0
1358, 0.0
1359, 0.0
1360, 0.0
1361, 0.0
1362, 0.0
1363, 0.0
1364, 0.0
1365, 0.0
1366, 0.0
1367, 0.0
1368, 0.0
1369, 0.0
1370, 0.0
1371, 0.0
1372, 0.0
1373, 0.0
1374, 0.0
1375, 0.0
1376, 0.0
1377, 0.0
1378, 0.0
1379, 0.0
1380, 0.0
1381, 0.0
1382, 0.0
1383, 0.0
1384, 0.0
1385, 0.0
1386, 0.0
1387, 0.0
1388, 0.0
1389, 0.0
1390, 0.0
1391, 0.0
1392, 0.0
1393, 0.0
1394, 0.0
1395, 0.0
1396, 0.0
1397, 0.0
1398, 0.0
1399, 0.0
1400, 0.0
1401, 0.0
1402, 0.0
1403, 0.0
1404, 0.0
1405, 0.0
1406, 0.0
1407, 0.0
1408, 0.0
1409, 0.0
1410, 0.0
1411, 0.0
1412, 0.0
1413, 0.0
1414, 0.0
1415, 0.0
1416, 0.0
1417, 0.0
1418, 0.0
1419, 0.0
1420, 0.0
1421, 0.0
1422, 0.0
1423, 0.0
1424, 0.0
1425, 0.0
1426, 0.0
1427, 0.0
1428, 0.0
1429, 0.0
1430, 0.0
1431, 0.0
1432, 0.0
1433, 0.0
1434, 0.0
1435, 0.0
1436, 0.0
1437, 0.0
1438, 0.0
1439, 0.0
1440, 0.0
1441, 0.0
1442, 0.0
1443, 0.0
1444, 0.0
1445, 0.0
1446, 0.0
1447, 0.0
1448, 0.0
1449, 0.0
1450, 0.0
1451, 0.0
1452, 0.0
1453, 0.0
1454, 0.0
1455, 0.0
1456, 0.0
1457, 0.0
1458, 0.0
1459, 0.0
1460, 0.0
1461, 0.0
1462, 0.0
1463, 0.0
1464, 0.0
1465, 0.0
1466, 0.0
1467, 0.0
1468, 0.0
1469, 0.0
1470, 0.0
1471, 0.0
1472, 0.0
1473, 0.0
1474, 0.0
1475, 0.0
1476, 0.0
1477, 0.0
1478, 0.0
1479, 0.0
1480, 0.0
1481, 0.0
1482, 0.0
1483, 0.0
1484, 0.0
1485, 0.0
1486, 0.0
1487, 0.0
1488, 0.0
1489, 0.0
1490, 0.0
1491, 0.0
1492, 0.0
1493, 0.0
1494, 0.0
1495, 0.0
1496, 0.0
1497, 0.0
1498, 0.0
1499, 0.0
1500, 0.0
1501, 0.0
1502, 0.0
1503, 0.0
1504, 0.0
1505, 0.0
1506, 0.0
1507, 0.0
1508, 0.0
1509, 0.0
1510, 0.0
1511, 0.0
1512, 0.0
1513, 0.0
1514, 0.0
1515, 0.0
1516, 0.0
1517, 0.0
1518, 0.0
1519, 0.0
1520, 0.0
1521, 0.0
1522, 0.0
1523, 0.0
1524, 0.0
1525, 0.0
1526, 0.0
1527, 0.0
1528, 0.0
1529, 0.0
1530, 0.0
1531, 0.0
1532, 0.0
1533, 0.0
1534, 0.0
1535, 0.0
1536, 0.0
1537, 0.0
1538, 0.0
1539, 0.0
1540, 0.0
1541, 0.0
1542, 0.0
1543, 0.0
1544, 0.0
1545, 0.0
1546, 0.0
1547, 0.0
1548, 0.0
1549, 0.0
1550, 0.0
1551, 0.0
1552, 0.0
1553, 0.0
1554, 0.0
1555, 0.0
1556, 0.0
1557, 0.0
1558, 0.0
1559, 0.0
1560, 0.0
1561, 0.0
1562, 0.0
1563, 0.0
1564, 0.0
1565, 0.0
1566, 0.0
1567, 0.0
1568, 0.0
1569, 0.0
1570, 0.0
1571, 0.0
1572, 0.0
1573, 0.0
1574, 0.0
1575, 0.0
1576, 0.0
1577, 0.0
1578, 0.0
1579, 0.0
1580, 0.0
1581, 0.0
1582, 0.0
1583, 0.0
1584, 0.0
1585, 0.0
1586, 0.0
1587, 0.0
1588, 0.0
1589, 0.0
1590, 0.0
1591, 0.0
1592, 0.0
1593, 0.0
1594, 0.0
1595, 0.0
1596, 0.0
1597, 0.0
1598, 0.0
1599, 0.0
