30, 0.0
31, 0.0
32, 0.0
33, 0.0
34, 0.0
35, 0.0
36, 0.0
37, 0.0
38, 0.0
39, 0.0
40, 0.0
41, 0.0
42, 0.0
43, 0.0
44, 0.0
45, 0.0
46, 0.0
47, 0.0
48, 0.0
49, 0.0
50, 0.0
51, 0.0
52, 0.0
53, 0.0
54, 0.0
55, 0.0
56, 0.0
57, 0.0
58, 0.0
59, 0.0
60, 0.0
61, 0.0
62, 0.0
63, 0.0
64, 0.0
65, 0.0
66, 0.0
67, 0.0
68, 0.0
69, 0.0
70, 0.0
71, 0.0
72, 0.0
73, 0.0
74, 0.0
75, 0.0
76, 0.0
77, 0.0
78, 0.0
79, 0.0
80, 0.0
81, 0.0
82, 0.0
83, 0.0
84, 0.0
85, 0.0
86, 0.0
87, 0.0
88, 0.0
89, 0.0
90, 0.0
91, 0.0
92, 0.0
93, 0.0
94, 0.0
95, 0.0
96, 0.0
97, 0.0
98, 0.0
99, 0.0
100, 0.0
101, 0.0
102, 0.0
103, 0.0
104, 0.0
105, 0.0
106, 0.0
107, 0.0
108, 0.0
109, 0.0
110, 0.0
111, 0.0
112, 0.0
113, 0.0
114, 0.0
115, 0.0
116, 0.0
117, 0.0
118, 0.0
119, 0.0
120, 0.0
121, 0.0
122, 0.0
123, 0.0
124, 0.0
125, 0.0
126, 0.0
127, 0.0
128, 0.0
129, 0.0
130, 0.0
131, 0.0
132, 0.0
133, 0.0
134, 0.0
135, 0.0
136, 0.0
137, 0.0
138, 0.0
139, 0.0
140, 0.0
141, 0.0
142, 0.0
143, 0.0
144, 0.0
145.0, 0.0014785729942216723
146.0, 0.0037103646259632407
147.0, 0.005072406123314027
148.0, 0.00602130436435181
149.0, 0.0071566085116249335
150.0, 0.007669147590066245
151.0, 0.0066083325355544825
152.0, 0.005279730520246149
153.0, 0.0034256043573184882
154.0, 0.0036510263118613396
155.0, 0.0056456045539804035
156.0, 0.007955954650276596
157.0, 0.011463960869708347
158.0, 0.014910743002520255
159.0, 0.018408742146571715
160.0, 0.022161307576459902
161.0, 0.024346497059291875
162.0, 0.026048169320920998
163.0, 0.027216136560956877
164.0, 0.027400911488255582
165.0, 0.025674311370538314
166.0, 0.023110987040036682
167.0, 0.02062321514650295
168.0, 0.017971031893991195
169.0, 0.014833820674072783
170.0, 0.01150714434042275
171.0, 0.008833678790675648
172.0, 0.006581044900213608
173.0, 0.004503543007323964
174.0, 0.0026118101561309324
175.0, 0.0011628972856397297
176.0, 0.00021195226398183287
177.0, 0.0006275171310747538
178.0, 0.001263477978178139
179.0, 0.001766975259442506
180.0, 0.0019810370437554525
181.0, 0.0018570523920377862
182.0, 0.0015407672256668823
183.0, 0.0014225669638085578
184.0, 0.0009966569381077701
185.0, 0.00013148366777261038
186.0, 0.0012805621707500034
187.0, 0.0020898450890241187
188.0, 0.003169433495486855
189.0, 0.004754599977864991
190.0, 0.00718622567582057
191.0, 0.011032909472252148
192.0, 0.016192615523815287
193.0, 0.024948639132920804
194.0, 0.03877368545630183
195.0, 0.058250086432390956
196.0, 0.08238866545378037
197.0, 0.10439513418325211
198.0, 0.11856526003339539
199.0, 0.12331160774554858
200.0, 0.1264742020707451
201.0, 0.1335924383932302
202.0, 0.14500165659672806
203.0, 0.16205471277491865
204.0, 0.1826437459076761
205.0, 0.20607118060280408
206.0, 0.23161025859260972
207.0, 0.25966601864311806
208.0, 0.29162493254173205
209.0, 0.33076229905633675
210.0, 0.38196924546839794
211.0, 0.45206268591176413
212.0, 0.5490289753932885
213.0, 0.6829023643818716
214.0, 0.8485000959542772
215.0, 0.9733139516140428
216.0, 0.9712931635319703
217.0, 0.7951457868458705
218.0, 0.5588812262538765
219.0, 0.3689145045621239
220.0, 0.2468298814845712
221.0, 0.17752880551765327
222.0, 0.13622576680337303
223.0, 0.10968203980182469
224.0, 0.09173347866941574
225.0, 0.0792462695000394
226.0, 0.06997022059634365
227.0, 0.062388497294164354
228.0, 0.056614988125324554
229.0, 0.05196518301572133
230.0, 0.04800230203621863
231.0, 0.044677940507853384
232.0, 0.042349651876582864
233.0, 0.04016177118632017
234.0, 0.038287457509149414
235.0, 0.03699197327466507
236.0, 0.035624594856536275
237.0, 0.034443788389094496
238.0, 0.03367909927136397
239.0, 0.033080472809139554
240.0, 0.03195981331586991
241.0, 0.031075470212829807
242.0, 0.03029658970239456
243.0, 0.02966755065575234
244.0, 0.029048242121620372
245.0, 0.02789630721648258
246.0, 0.026866522233008363
247.0, 0.025715947233593096
248.0, 0.02440668328205869
249.0, 0.02316668912449319
250.0, 0.02181837125703347
251.0, 0.020740672139410485
252.0, 0.020004148163797867
253.0, 0.019410302368279394
254.0, 0.018574489219441756
255.0, 0.017578732178325045
256.0, 0.01681104970418395
257.0, 0.016339215665546542
258.0, 0.015913545109763484
259.0, 0.01528934979010267
260.0, 0.014340064649301713
261.0, 0.013762733518800547
262.0, 0.013526748896409074
263.0, 0.012803818111071813
264.0, 0.012092175928611679
265.0, 0.011790242019264919
266.0, 0.011449848146694122
267.0, 0.010873578925173386
268.0, 0.01070718404891244
269.0, 0.010425707488313764
270.0, 0.010118088615982823
271.0, 0.009836556079170266
272.0, 0.009498313189999682
273.0, 0.009029007198322081
274.0, 0.008477126936869308
275.0, 0.007975251889017326
276.0, 0.007629455430931869
277.0, 0.007531214331688311
278.0, 0.007111924938360821
279.0, 0.006697726989190734
280.0, 0.006446575261957382
281.0, 0.006270557212997225
282.0, 0.0055550093325966885
283.0, 0.004985181816695314
284.0, 0.004490024715226937
285.0, 0.0038716163741803677
286.0, 0.003189512720545015
287.0, 0.0028332338097022862
288.0, 0.0024485349948224497
289.0, 0.001916786153868503
290.0, 0.0013955783804067083
291.0, 0.0010738558318257078
292.0, 0.0009496951960663864
293.0, 0.0009405975626521105
294.0, 0.0008153547038605262
295.0, 0.0005905235679936641
296.0, 0.0006201482173876441
297.0, 0.0005405570666575179
298.0, 0.0006723020165119721
299.0, 0.0009352437069996829
300.0, 0.0010942892526260544
301.0, 0.0012028810444828333
302.0, 0.0014233652822788123
303.0, 0.0015108226967811792
304.0, 0.0014347057535670374
305.0, 0.0014400339373267027
306.0, 0.0017342696049229842
307.0, 0.001967434087671525
308.0, 0.0020655192621329985
309.0, 0.002095144460988582
310.0, 0.0022888105380014807
311.0, 0.0024845702214011927
312.0, 0.002403339627055174
313.0, 0.0023063103981012
314.0, 0.002395709508393023
315.0, 0.002247397337636785
316.0, 0.0022691555173975086
317.0, 0.0022596302931958954
318.0, 0.0021560075265880485
319.0, 0.0020676333435039086
320.0, 0.002054378054943827
321.0, 0.0019087557673785286
322.0, 0.001798628235536237
323.0, 0.0017193530488257525
324.0, 0.0015661421923344875
325.0, 0.0014075071593572163
326.0, 0.0012935523587264614
327.0, 0.0011759440711416648
328.0, 0.001081528031489907
329.0, 0.0010877527571157947
330.0, 0.0010570835500498298
331.0, 0.0009473934901988301
332.0, 0.0008874954013086022
333.0, 0.0009265863678192384
334.0, 0.000918672246636475
335.0, 0.0008369394850368702
336.0, 0.0006258905109170433
337.0, 0.0005538985602119259
338.0, 0.0007286123509659097
339.0, 0.0006729737780374762
340.0, 0.0005728820630685151
341.0, 0.0005976882595443633
342.0, 0.0005392678998064987
343.0, 0.00034319262143046056
344.0, 0.00035289465719606333
345.0, 0.00043906800200651256
346.0, 0.00012418244255504984
347.0, 0.00010803689216028426
348.0, 4.9128716780092374e-05
349.0, 1.6395268580228073e-05
350.0, 1.7908821921930404e-05
351.0, 5.2456599722096935e-05
352.0, 0.00018684880720933812
353.0, 0.00032784298105801224
354.0, 0.00020763546442505455
355.0, 0.0003755645317382341
356.0, 0.00045167300348238277
357.0, 0.0004622075596970331
358.0, 0.0005984883525677498
359.0, 0.0004234286075944452
360.0, 0.0005332363610769055
361.0, 0.0005917432238744647
362.0, 0.0005320603299460126
363.0, 0.00048634534678816145
364.0, 0.0003131074809841285
365.0, 0.0004803549971919721
366.0, 0.0005723681404016235
367.0, 0.00045382965471192475
368.0, 0.0003530021974018525
369.0, 0.0002452315103340767
370.0, 4.887342616518846e-05
371.0, 6.82468529061593e-05
372.0, 0.00014025597894980088
373.0, 6.448817263594801e-05
374.0, 0.00044387851570316895
375.0, 0.0008144810113138433
376.0, 0.0009514806654381217
377.0, 0.0010554130243352678
378.0, 0.0013690656666096512
379.0, 0.0015919714394180726
380.0, 0.0019310362340987505
381.0, 0.002386191594184499
382.0, 0.002745686067027275
383.0, 0.0029874387383555657
384.0, 0.0035756986336013415
385.0, 0.004141216137777662
386.0, 0.00465279260889361
387.0, 0.005140337520914168
388.0, 0.005608313739738416
389.0, 0.006091144660694791
390.0, 0.006970755293875418
391.0, 0.007871597715182938
392.0, 0.008778068576195982
393.0, 0.009742345776209993
394.0, 0.01052233267932467
395.0, 0.011393429666837419
396.0, 0.012462090808978536
397.0, 0.013423360939477814
398.0, 0.014179601886323692
399.0, 0.015388319036328067
400.0, 0.01635145128167945
401.0, 0.017465068734660933
402.0, 0.01865215422238672
403.0, 0.019715173786300434
404.0, 0.020714792761385197
405.0, 0.021609284322676822
406.0, 0.022458631677895937
407.0, 0.02314844547060438
408.0, 0.0235679690795745
409.0, 0.023766181651729522
410.0, 0.023812060799250002
411.0, 0.023345950781696434
412.0, 0.022525284905420193
413.0, 0.02143122792737176
414.0, 0.020030937875212176
415.0, 0.018624512639495272
416.0, 0.017085693586327923
417.0, 0.015548668968508038
418.0, 0.014044562984504683
419.0, 0.012559115215836537
420.0, 0.011277614713262283
421.0, 0.010215767086894536
422.0, 0.009203587291416022
423.0, 0.008230166598470121
424.0, 0.007384544247443227
425.0, 0.00671793605765992
426.0, 0.006048550419205612
427.0, 0.005519713990254493
428.0, 0.004971259503112704
429.0, 0.004431054575835491
430.0, 0.004182850493635862
431.0, 0.0038979768404183565
432.0, 0.0034975384239621984
433.0, 0.0032009970811873838
434.0, 0.0030108861828927673
435.0, 0.0027153968133833326
436.0, 0.0026009665859351664
437.0, 0.0023061233155796416
438.0, 0.0020223240655115747
439.0, 0.0018926450524444942
440.0, 0.0018998849587604015
441.0, 0.0016547036970068266
442.0, 0.0016132583215173544
443.0, 0.0014956698013647975
444.0, 0.001349104496273481
445.0, 0.0012988205196917814
446.0, 0.0009862374007919919
447.0, 0.0007960453805504316
448.0, 0.0007635048727649552
449.0, 0.0007184526492018947
450.0, 0.0005916140220845354
451.0, 0.0005065997636346686
452.0, 0.0005761736167892811
453.0, 0.00044532157778180383
454.0, 0.0003698987372173355
455.0, 0.0004028060188541032
456.0, 0.000337738122299731
457.0, 0.00029613353320226643
458.0, 0.00019858338292666643
459.0, 0.00015976104083905216
460.0, 0.00018970966109404437
461.0, 0.00025988462037788426
462.0, 0.0003681507984960899
463.0, 0.00011438176417589687
464.0, 4.680444471970585e-05
465.0, 6.825411578332351e-05
466.0, 5.567879331554792e-05
467.0, 0.00011126085991847474
468.0, 7.024678323094427e-06
469.0, 2.5396760318778394e-05
470.0, 2.1040948471863022e-05
471.0, 1.910885601515389e-05
472.0, 1.2248281171198819e-05
473.0, 9.185729928159235e-05
474.0, 6.387055467033933e-05
475.0, 5.0046380484290845e-05
476.0, 4.407730606420894e-05
477.0, 9.939827171618257e-05
478.0, 0.0002652980702620744
479.0, 6.612518331285412e-05
480.0, 2.3790066589691105e-06
481.0, 0.00013156285248641455
482.0, 0.00019394610535643662
483.0, 0.00030460347497913987
484.0, 0.000425214995889648
485.0, 0.00018927060288833914
486.0, 0.00011661306575859628
487.0, 0.00016955279321381202
488.0, 0.0001878103131501228
489.0, 0.00017428861721567135
490.0, 4.050494447977782e-05
491.0, 1.4654012228882948e-05
492.0, 9.77675904675125e-05
493.0, 0.00018559536693783606
494.0, 0.0001560815237764823
495.0, 2.945059855769651e-05
496.0, 0.0002534627725749585
497.0, 0.0003624330081633373
498.0, 0.00033276207810475623
499.0, 0.0003940587979897404
500.0, 0.0006250817930789435
501.0, 0.000680290056393218
502.0, 0.0008433800198929279
503.0, 0.0010615265845427984
504.0, 0.0013157428477714433
505.0, 0.001598163523654219
506.0, 0.0017798243722267077
507.0, 0.0020885767695764147
508.0, 0.002366484463407183
509.0, 0.0023692655846881626
510.0, 0.0023387559940912968
511.0, 0.002833186235826067
512.0, 0.0033114169893686167
513.0, 0.0037615481240134492
514.0, 0.004151844838797199
515.0, 0.004523749915212317
516.0, 0.004954039676640566
517.0, 0.005495249479823376
518.0, 0.0061514736713502785
519.0, 0.006743247925287822
520.0, 0.007379761773263777
521.0, 0.008208020402116458
522.0, 0.009259316030235257
523.0, 0.010220796263171184
524.0, 0.011387433695443424
525.0, 0.012652762190750497
526.0, 0.01416856880190457
527.0, 0.01593558669027639
528.0, 0.01776244568045212
529.0, 0.019839624987133483
530.0, 0.02205810444837278
531.0, 0.024567416436359336
532.0, 0.027320190045559283
533.0, 0.0303018829209233
534.0, 0.033617523145524644
535.0, 0.03707101786789406
536.0, 0.041011301039615665
537.0, 0.045171772356346576
538.0, 0.04945104962621846
539.0, 0.05397719303933027
540.0, 0.05878057564633505
541.0, 0.06385135454006667
542.0, 0.0694175969066347
543.0, 0.07488498500703314
544.0, 0.08024202498530322
545.0, 0.08561241909136696
546.0, 0.09045382714930604
547.0, 0.09474137913761088
548.0, 0.0982945260879477
549.0, 0.10065647130439442
550.0, 0.10136720495820645
551.0, 0.10048454745063225
552.0, 0.09874645978276407
553.0, 0.09506362646748741
554.0, 0.09066306615676512
555.0, 0.08594029799296209
556.0, 0.08075193391720709
557.0, 0.0753458166421698
558.0, 0.07021465168452581
559.0, 0.06493735208648965
560.0, 0.06026857089999732
561.0, 0.0561450479079138
562.0, 0.05229251214702414
563.0, 0.04874388567947268
564.0, 0.04574437961087453
565.0, 0.042474894302558054
566.0, 0.039642510955887486
567.0, 0.037204257283085504
568.0, 0.03478851513052241
569.0, 0.032553962922098924
570.0, 0.030939092017195812
571.0, 0.029231958334957692
572.0, 0.027640678989087016
573.0, 0.026197658179608427
574.0, 0.024757334206532013
575.0, 0.02334736339351335
576.0, 0.022261436627735852
577.0, 0.021142614474810653
578.0, 0.019962269386991388
579.0, 0.01884257183511146
580.0, 0.017878515202618187
581.0, 0.01702844118867288
582.0, 0.01611821630107606
583.0, 0.01520394766208156
584.0, 0.014471375408513358
585.0, 0.01390159256370986
586.0, 0.013275075440017289
587.0, 0.012552720273212241
588.0, 0.01198226960584207
589.0, 0.011369178398856403
590.0, 0.010707829514047409
591.0, 0.010201440098871334
592.0, 0.009833505294378696
593.0, 0.009340150910554153
594.0, 0.008710615621438995
595.0, 0.008312277121649576
596.0, 0.007929363848383126
597.0, 0.007477352914270087
598.0, 0.007102490135221726
599.0, 0.00669841406228134
600.0, 0.0059566095310903035
601.0, 0.0058328741660311
602.0, 0.005495394151510434
603.0, 0.005090465238983291
604.0, 0.0048258084889267975
605.0, 0.004614348069022543
606.0, 0.00425598767822063
607.0, 0.003739345948867033
608.0, 0.003534759509626466
609.0, 0.003396229388278628
610.0, 0.0031290933763465094
611.0, 0.002829812051672854
612.0, 0.0025823662542042913
613.0, 0.0023615096687719947
614.0, 0.0021883803562539987
615.0, 0.0020199093901630376
616.0, 0.0018624188797700999
617.0, 0.0017043366740620122
618.0, 0.001465655950838737
619.0, 0.0011522333305419232
620.0, 0.0011375173306116503
621.0, 0.0011701683467823807
622.0, 0.0009495058253448781
623.0, 0.0006712766507163651
624.0, 0.0006481607664849994
625.0, 0.0006056936203318841
626.0, 0.0004756916164546068
627.0, 0.0003216208673390823
628.0, 0.0002695314588389845
629.0, 0.00025567222922608405
630.0, 0.0001842556777013418
631.0, 0.0001532554618900773
632.0, 0.0001659017077719871
633.0, 6.0716607554082164e-05
634.0, 1.809885605607197e-05
635.0, 4.2236263704602534e-05
636.0, 0.00013208360731918582
637.0, 9.619858042366104e-05
638.0, 0.0001580091224470229
639.0, 0.00017471283960776723
640.0, 0.00034070712128573123
641.0, 0.0002926640644360907
642.0, 0.00017051162736491938
643.0, 6.297015640942591e-05
644.0, 0.0001396973453234299
645.0, 0.00015312578380362709
646.0, 0.00018462876618641964
647.0, 9.169990130672571e-05
648.0, 9.687016453593459e-05
649.0, 0.00023038047932318775
650.0, 0.00013956614885100936
651.0, 0.00014310868356144654
652.0, 0.0001789011633904779
653.0, 0.0001449296216002629
654.0, 0.00012421279013961707
655.0, 0.00013089581630871928
656.0, 8.205547474436991e-05
657.0, 5.396878480270607e-05
658.0, 2.107822109121761e-05
659.0, 0.00017596690473668507
660.0, 0.00024395424640885272
661.0, 0.00019284990447897328
662.0, 0.0001362167987364357
663.0, 7.08063127478478e-05
664.0, 0.00016464329822748678
665.0, 5.2705434858651513e-05
666.0, 3.2783060724552104e-05
667.0, 4.9739753299386024e-05
668.0, 0.00012137787165413204
669.0, 0.00023502435048119422
670.0, 0.0003376676071112066
671.0, 0.00033277300785270234
672.0, 0.0003882225450482988
673.0, 0.0002797184331440378
674.0, 0.00027730160496684017
675.0, 0.00022935649690830116
676.0, 0.00038966473552615904
677.0, 0.0003335406602917617
678.0, 0.0005019452844525592
679.0, 0.0004904182570604487
680.0, 0.000545114714473875
681.0, 0.00053990878729472
682.0, 0.00037776132453644145
683.0, 0.0003583800233188529
684.0, 0.0004884966682145529
685.0, 0.0005153487139584146
686.0, 0.000534587715143353
687.0, 0.0006315516306657021
688.0, 0.0007466874214048767
689.0, 0.0008080973221067996
690.0, 0.0007581228204423619
691.0, 0.0005099924843090883
692.0, 0.0006624550348424419
693.0, 0.0009681711646207912
694.0, 0.0009446541469898666
695.0, 0.0008889000370931544
696.0, 0.0010441738325345342
697.0, 0.0010186184963151398
698.0, 0.0009363122802885456
699.0, 0.0010988099452905252
700.0, 0.0010413410707450857
701.0, 0.0010228485267096679
702.0, 0.001143072143732683
703.0, 0.0011482675873679595
704.0, 0.0012182153082342124
705.0, 0.001201770101453374
706.0, 0.0011148156585011712
707.0, 0.0011788050350731948
708.0, 0.0012532134426030562
709.0, 0.001229314506552518
710.0, 0.0011974031594637808
711.0, 0.001168980083541378
712.0, 0.0011325264706759377
713.0, 0.0011828645039247505
714.0, 0.0011363130099836202
715.0, 0.001104412000301213
716.0, 0.0011296080447349703
717.0, 0.001105229812435847
718.0, 0.0010819728702138767
719.0, 0.0008870350390923632
720.0, 0.000907300758749913
721.0, 0.0009172706096852736
722.0, 0.000910166567858812
723.0, 0.0009006863265977695
724.0, 0.0008763126514173677
725.0, 0.0008217378925523432
726.0, 0.0008438882356195716
727.0, 0.0007670970481169034
728.0, 0.000696341956731753
729.0, 0.0007600631842999946
730.0, 0.0008290091292195741
731.0, 0.0008562120043079632
732.0, 0.000979150414574653
733.0, 0.0008266166872873238
734.0, 0.0007211005386141741
735.0, 0.000762738179230426
736.0, 0.0006623046422502194
737.0, 0.0006905940613799243
738.0, 0.0008487037660776036
739.0, 0.0007253890811189397
740.0, 0.000665277623003861
741.0, 0.0005897344678623697
742.0, 0.0007209554101521851
743.0, 0.0006439893217862918
744.0, 0.0005709482164108707
745.0, 0.0006426315081828571
746.0, 0.0004824400961450107
747.0, 0.0004240599155151581
748.0, 0.0004473360682446448
749.0, 0.0005141941080981309
750.0, 0.0005861404976808643
751.0, 0.000655210687206886
752.0, 0.0006548677634504625
753.0, 0.0005214529608668787
754.0, 0.00043196312132245767
755.0, 0.0005012850511269627
756.0, 0.0004077391661917799
757.0, 0.00033769567231746255
758.0, 0.000360410826670186
759.0, 0.00038239544287124716
760.0, 0.0003883973601433281
761.0, 0.0004374077093937051
762.0, 0.0004335411890909829
763.0, 0.00041121985926660486
764.0, 0.00029356479238266145
765.0, 0.0002390298931727543
766.0, 0.0003727480317429901
767.0, 0.0004996575058028466
768.0, 0.00040533207474987946
769.0, 0.00031679888732207673
770.0, 0.0003241033234816265
771.0, 0.00048695304344376636
772.0, 0.00041022692054107487
773.0, 0.0003169404511192843
774.0, 0.000372536699301721
775.0, 0.0003799383689164785
776.0, 0.000257526966061535
777.0, 0.0003724094030887512
778.0, 0.000397255056068165
779.0, 0.00035907948859021445
780.0, 0.00019969412297053424
781.0, 0.00011785156470364537
782.0, 0.00020682552668209835
783.0, 0.0003270882243192643
784.0, 0.00036955387599526884
785.0, 0.0002283135769940912
786.0, 0.00021784344815346847
787.0, 0.00025065267606824617
788.0, 0.0003296195872522267
789.0, 0.0003319459821280969
790.0, 0.0002570895575213587
791.0, 0.00028470379786824904
792.0, 0.0001944231902879552
793.0, 0.0001230722969987181
794.0, 0.000189900951506129
795.0, 0.0001849800699820583
796.0, 0.00014616757875071562
797.0, 0.00022151316787768856
798.0, 0.00034257538093744697
799.0, 0.0003144250515260183
800.0, 0.00012118498278127838
801.0, 1.4654813363425622e-05
802.0, 0.0001157128987368714
803.0, 3.1111306108841184e-05
804.0, 1.1673655326935703e-05
805.0, 5.103800702412001e-05
806.0, 5.9513887075305766e-05
807.0, 3.912663601424611e-05
808.0, 2.8906085466821765e-05
809.0, 0.00012794276532162037
810.0, 3.995615776726729e-05
811.0, 1.928698472663309e-05
812.0, 2.99689410715561e-05
813.0, 0.00011362771425385727
814.0, 0.00018287366171349754
815.0, 0.00011221967672737573
816.0, 7.515583173337376e-05
817.0, 1.4821930750769697e-05
818.0, 4.5814256311243665e-05
819.0, 4.5125587716406906e-05
820.0, 4.542439101249115e-05
821.0, 3.669585004184014e-05
822.0, 4.4139715879852094e-05
823.0, 0.00014433280881478243
824.0, 0.0001624767317897419
825.0, 8.366035674745589e-05
826.0, 2.399323774978909e-05
827.0, 3.7841305179714906e-05
828.0, 1.7523160340994674e-05
829.0, 1.2457782739972708e-05
830.0, 6.275273208365062e-06
831.0, 9.060400836778952e-05
832.0, 2.805585020451519e-05
833.0, 5.6595937148120275e-06
834.0, 9.849508230187691e-06
835.0, 0.0001686678193861526
836.0, 0.00028129178144988985
837.0, 0.00024997489504782766
838.0, 0.00014945805280940265
839.0, 0.00010703986666069635
840.0, 0.00018138246581431348
841.0, 0.000137787261158261
842.0, 0.00017583365357711162
843.0, 0.0002548299724384803
844.0, 0.00027160983004861564
845.0, 0.00024309554601594413
846.0, 0.0002117738155639861
847.0, 0.00015875439752565195
848.0, 6.110074586682537e-05
849.0, 0.00011889682147978122
850.0, 0.00014106802492950906
851.0, 0.00011181819212236308
852.0, 0.0002459618249211753
853.0, 0.00023496791765743083
854.0, 0.0001619713190938146
855.0, 0.00018867979952569627
856.0, 0.00016571227073314498
857.0, 0.00020179411427559044
858.0, 0.00013392269796978028
859.0, 0.00015062084247837248
860.0, 0.000104106671669405
861.0, 0.00012453939762623568
862.0, 0.00014121914722101122
863.0, 0.0001468361125942275
864.0, 0.00017105777295608693
865.0, 0.00015386544420283908
866.0, 0.00034757261003647515
867.0, 0.0008042243357039863
868.0, 0.00037104173375097156
869.0, 0.00026131317285282195
870.0, 0.00036659839110262987
871.0, 0.00029980405061953827
872.0, 0.00022453227836617126
873.0, 0.0002676753591853015
874.0, 0.00019435941962511164
875.0, 0.00031379834727421536
876.0, 0.00023613689886592214
877.0, 9.795146499623665e-05
878.0, 0.0002256183946485283
879.0, 0.0002480104631920541
880.0, 0.00020717618903433793
881.0, 0.0002778161542194431
882.0, 0.00024610851003302
883.0, 0.00010170892008459998
884.0, 0.0002477346876102347
885.0, 0.0002050342664490768
886.0, 0.00011121542238364836
887.0, 0.0002013320497003046
888.0, 0.00020195598862293986
889.0, 9.921158329513215e-05
890.0, 6.747976996803636e-05
891.0, 4.5997008990243425e-05
892.0, 0.00012462036064758497
893.0, 0.00024622819226692295
894.0, 3.771212310952709e-05
895.0, 1.3117535474516585e-05
896.0, 6.614916192283772e-05
897.0, 0.00011143044253212806
898.0, 7.845123820692331e-05
899.0, 1.1667882021793488e-05
900.0, 4.0714091324968424e-05
901.0, 0.00019951841382218437
902.0, 0.00020720472499369074
903.0, 6.393686087040551e-05
904.0, 3.10418142977605e-05
905.0, 7.097647417238218e-05
906.0, 0.00012131499449545805
907.0, 0.00017176103989895663
908.0, 0.00014832941822594077
909.0, 5.9278396880258005e-05
910.0, 5.373218671209481e-05
911.0, 9.327200676129095e-05
912.0, 0.000130241431543741
913.0, 6.791904200917965e-05
914.0, 4.539036727429255e-05
915.0, 8.651474052712628e-05
916.0, 9.230525702960577e-05
917.0, 4.52548171426478e-05
918.0, 7.207568403189103e-05
919.0, 0.00014511504246949932
920.0, 6.085444009278491e-05
921.0, 0.00012721660486014256
922.0, 0.00022417487339080925
923.0, 0.00014837555469943977
924.0, 0.00018102239816269463
925.0, 0.00011586909011081173
926.0, 0.00016856425135554988
927.0, 0.00024218790316228605
928.0, 0.0001244306097751525
929.0, 0.00019191815680645054
930.0, 6.992034085119495e-05
931.0, 0.000125172644968057
932.0, 0.00016115991399971624
933.0, 8.74628872469009e-05
934.0, 7.485333165078206e-05
935.0, 0.00018030190133781564
936.0, 0.0001630141113106641
937.0, 6.495164284686752e-05
938.0, 0.0001134676740380332
939.0, 2.746423166454633e-05
940.0, 0.00012057600110009189
941.0, 0.00019270454920209903
942.0, 4.664810373411849e-05
943.0, 9.926118753860209e-05
944.0, 0.00010757053183700749
945.0, 0.000104451753604532
946.0, 0.00015475253771856108
947.0, 0.00015472345586867102
948.0, 0.00011303521865990356
949.0, 7.318632293202743e-05
950.0, 8.770660468536735e-05
951.0, 0.00023974283208952663
952.0, 0.0001935561777220474
953.0, 0.00014913339612211465
954.0, 0.00014328561976143225
955.0, 0.00017948417515693027
956.0, 0.00019180086282820876
957.0, 0.00013759323738952357
958.0, 0.00011554859514528871
959.0, 0.00010328006013740104
960.0, 7.463038912796972e-05
961.0, 4.643515229498015e-05
962.0, 6.0471279514158276e-05
963.0, 0.00011444971458540624
964.0, 0.00015780949905334568
965.0, 0.00012070299498358345
966.0, 9.276279799362507e-05
967.0, 9.353076774701032e-05
968.0, 0.00016147732432528217
969.0, 0.0001092522842763
970.0, 1.2439942041873168e-05
971.0, 3.247927280662458e-05
972.0, 8.747298102174044e-05
973.0, 3.0418749223377867e-05
974.0, 4.7285454676114256e-05
975.0, 5.53252480992267e-05
976.0, 6.369461515987984e-05
977.0, 3.767903868191999e-05
978.0, 0.0001230009524768167
979.0, 0.00011390948852872096
980.0, 5.7707370245372665e-05
981.0, 7.91482300312155e-05
982.0, 7.186753439373066e-06
983.0, 5.4520032216319036e-05
984.0, 0.00011718935423460432
985.0, 0.0001519230969051672
986.0, 8.438626611069705e-05
987.0, 2.4890164700790448e-05
988.0, 1.901963708218373e-05
989.0, 1.1042296120483218e-05
990.0, 8.83625049756882e-05
991.0, 0.00015405741912735666
992.0, 0.00020036495552121377
993.0, 7.530152690752827e-05
994.0, 2.7434556975934204e-05
995.0, 0.0001006753301513887
996.0, 0.0002147593837348886
997.0, 0.00014057274888874203
998.0, 2.604369717971275e-05
999.0, 4.01836789852548e-05
1000.0, 0.00016089477003336335
1001.0, 0.0002490309121581984
1002.0, 0.0001830608642754492
1003.0, 5.218633537344599e-05
1004.0, 2.203935889899532e-05
1005.0, 1.592785938965301e-05
1006.0, 4.9961824175497806e-05
1007.0, 0.00013348552811277159
1008.0, 0.00011282181711505672
1009.0, 0.00010959809799844226
1010.0, 0.00016526258996363126
1011.0, 0.0001675495275116495
1012.0, 0.00016464206233354138
1013.0, 0.00013202602561381924
1014.0, 0.00020212988954132705
1015.0, 0.0001517638367387842
1016.0, 7.514378851822609e-05
1017.0, 8.595720760123634e-05
1018.0, 0.0001059513605851044
1019.0, 0.00014579104220149597
1020.0, 0.0001965182955790312
1021.0, 0.00012009121148393402
1022.0, 1.7265718614454243e-05
1023.0, 0.0001238101646839189
1024.0, 0.00010516698357908067
1025.0, 3.238313382387704e-05
1026.0, 0.00016143746110966508
1027.0, 0.00023877326443493902
1028.0, 0.00016313589762959374
1029.0, 0.0001564389667693205
1030.0, 0.00022744869081592288
1031.0, 9.859228791362157e-05
1032.0, 0.00016235778978908539
1033.0, 0.000309326233075584
1034.0, 0.00018802811881041522
1035.0, 0.00011659491097256201
1036.0, 2.4784049972532418e-05
1037.0, 5.974949061871647e-05
1038.0, 0.0001168851016923231
1039.0, 3.3958083387177245e-05
1040.0, 7.774510839920152e-05
1041.0, 5.0048531272835043e-05
1042.0, 0.0001121289732389895
1043.0, 7.52743567040567e-05
1044.0, 8.902663634908586e-05
1045.0, 3.548830820537713e-05
1046.0, 0.00014936395643638133
1047.0, 0.0002292993857185645
1048.0, 7.80625338738522e-05
1049.0, 0.00011461888645014052
1050.0, 6.0665224414358105e-05
1051.0, 0.00021781284208905016
1052.0, 0.00016234395869960032
1053.0, 2.7980991539537725e-05
1054.0, 6.637524272299897e-05
1055.0, 0.00014178051366277916
1056.0, 0.00019668021127017613
1057.0, 0.00017058201086467102
1058.0, 0.0001403757646181918
1059.0, 0.0001552565400091974
1060.0, 0.00015187438122009133
1061.0, 0.00023871476103216993
1062.0, 0.00015701044984148173
1063.0, 0.00010884516790841697
1064.0, 0.0001344085589174104
1065.0, 0.0002358546216359128
1066.0, 0.0002450577237300171
1067.0, 0.00013266244196694814
1068.0, 0.00021173409987125579
1069.0, 0.00025110040706074056
1070.0, 0.00029136456143200945
1071.0, 0.0003414352157786598
1072.0, 0.00023040951332047678
1073.0, 0.00021609489779352188
1074.0, 0.00034420861347257567
1075.0, 0.00029641680162342983
1076.0, 0.00031509754235328036
1077.0, 0.0004366416161632451
1078.0, 0.00031535954699556
1079.0, 0.000421884867592723
1080.0, 0.0005283137747079581
1081.0, 0.0004966866300550569
1082.0, 0.0004594253453462795
1083.0, 0.00032492085523567663
1084.0, 0.00026815250659569916
1085.0, 0.0004210758742759001
1086.0, 0.0005189734272032965
1087.0, 0.0005209888554820012
1088.0, 0.00048463928176190594
1089.0, 0.0006193359118959926
1090.0, 0.0006575574615378076
1091.0, 0.0005328005929876319
1092.0, 0.0005789273569910733
1093.0, 0.0006719773706061287
1094.0, 0.0006730146733736163
1095.0, 0.0006458770095909942
1096.0, 0.0005623637756550647
1097.0, 0.0005493446165270111
1098.0, 0.0005689908158742955
1099.0, 0.0006199367513850632
1100.0, 0.0007026508558939178
1101.0, 0.0005045113294111887
1102.0, 0.0005444270249738304
1103.0, 0.0006081246662576933
1104.0, 0.000715937280461363
1105.0, 0.0005657296900238074
1106.0, 0.00047458795547983794
1107.0, 0.00047315905008226924
1108.0, 0.0005324654207393888
1109.0, 0.0005132314787671927
1110.0, 0.0004729807203014537
1111.0, 0.000543615124628294
1112.0, 0.0005615990655594092
1113.0, 0.0004915081122768759
1114.0, 0.0004188811462280717
1115.0, 0.00029969396048929483
1116.0, 0.0005250086837442954
1117.0, 0.00027562900930221134
1118.0, 0.00034401447718179816
1119.0, 0.0004149495843848808
1120.0, 0.00042701789593957597
1121.0, 0.0004260018859567553
1122.0, 0.0003374430899629384
1123.0, 0.00035194274234659527
1124.0, 0.00036298265344515245
1125.0, 0.0003638787745720694
1126.0, 0.0003642644293387188
1127.0, 0.00024378277438694802
1128.0, 0.00014881685013657395
1129.0, 0.00024727424676841334
1130.0, 0.00025702825286426774
1131.0, 0.00028110759112760054
1132.0, 0.0004097873542308763
1133.0, 0.00036690376269436716
1134.0, 0.0003674587182760945
1135.0, 0.00018851144793892796
1136.0, 0.00027250609577457674
1137.0, 0.00035325547720998417
1138.0, 0.00029319882064303995
1139.0, 0.0002368761277506083
1140.0, 0.00016213797261222754
1141.0, 0.00017111734436944893
1142.0, 0.0002945442405628187
1143.0, 0.00029976714227941524
1144.0, 0.00021410876337136288
1145.0, 0.00020298054768338013
1146.0, 0.00016702990823687112
1147.0, 0.00023333605129998323
1148.0, 0.000261481896389309
1149.0, 0.0001912780793800223
1150.0, 0.00021541819137695027
1151.0, 0.00019586370930010412
1152.0, 6.516360631678608e-05
1153.0, 0.00010814652150988677
1154.0, 9.670824512764332e-05
1155.0, 0.0002592208005881149
1156.0, 0.00021937526821197905
1157.0, 0.00010996105209735239
1158.0, 0.00019352953405564846
1159.0, 0.00025138371474347647
1160.0, 0.00018704950610290603
1161.0, 0.00017961109929384128
1162.0, 0.00017956240210581493
1163.0, 8.485633070748623e-05
1164.0, 7.096695763422912e-05
1165.0, 0.0001081026715369247
1166.0, 0.00015441897742377438
1167.0, 0.00017303400141302882
1168.0, 2.344711540559344e-05
1169.0, 9.03481381399133e-05
1170.0, 2.5471903789996287e-05
1171.0, 3.303373088171507e-05
1172.0, 1.0450366944394803e-05
1173.0, 0.0001226157582062011
1174.0, 0.00015416741302111793
1175.0, 0.00015691888100969372
1176.0, 0.00011743718443084272
1177.0, 0.00018465888697681684
1178.0, 0.00028728354190010383
1179.0, 0.00015151522443666211
1180.0, 2.3119033482117446e-05
1181.0, 5.4938240852969684e-05
1182.0, 0.000143829798510575
1183.0, 1.533088370480486e-05
1184.0, 7.606053841265441e-05
1185.0, 0.00010626060879617548
1186.0, 0.00015093127938289446
1187.0, 0.0001140729019494449
1188.0, 8.501400361735337e-05
1189.0, 6.844250361140058e-05
1190.0, 0.0001471282657725184
1191.0, 0.00024338464504636222
1192.0, 0.00018762881667533284
1193.0, 0.00010472442751574281
1194.0, 0.00010707963378448116
1195.0, 3.9057035279232805e-05
1196.0, 3.25346657115622e-05
1197.0, 0.00011063759681945054
1198.0, 2.325377985325696e-05
1199.0, 4.76077831510954e-05
1200.0, 5.317284619762616e-05
1201.0, 0.0001146001211088034
1202.0, 2.6632539536380872e-05
1203.0, 0.00013820795382432578
1204.0, 7.513287263685638e-05
1205.0, 9.921160730530649e-05
1206.0, 1.3315803834988248e-05
1207.0, 8.916069602603202e-05
1208.0, 8.540851013024824e-05
1209.0, 1.8848305213420723e-05
1210.0, 0.00017686432185411467
1211.0, 4.453649621462556e-05
1212.0, 4.8729207498985795e-05
1213.0, 9.296244894318705e-05
1214.0, 5.550456847273054e-05
1215.0, 6.142637090749298e-05
1216.0, 2.9811468530250407e-05
1217.0, 3.530070554608769e-05
1218.0, 3.919510330978383e-05
1219.0, 0.00010697781164774946
1220.0, 8.618923389816518e-05
1221.0, 7.121854596533164e-05
1222.0, 5.599499078492574e-05
1223.0, 6.959531657112778e-05
1224.0, 0.0001177109130333948
1225.0, 3.6133779110963626e-05
1226.0, 0.00014781525280675598
1227.0, 7.441978547188478e-05
1228.0, 1.4049417158858608e-05
1229.0, 0.00010851913145433075
1230.0, 5.639047798222441e-05
1231.0, 0.00011471133797552531
1232.0, 0.00019317125057629673
1233.0, 0.0001438836561488517
1234.0, 4.2641425619374814e-05
1235.0, 5.4762840541708944e-05
1236.0, 6.969842601341841e-05
1237.0, 0.00014205939715020613
1238.0, 0.00018851671167222694
1239.0, 0.00012062223488500812
1240.0, 9.997924477063333e-05
1241.0, 0.0001328395200958261
1242.0, 0.00010957157610629929
1243.0, 2.40501729695586e-05
1244.0, 1.362163890059089e-05
1245.0, 6.582609973065936e-05
1246.0, 0.00013689838110695382
1247.0, 0.0005190128619991885
1248.0, 0.0009303324386998731
1249.0, 0.00027037495260986733
1250.0, 0.00013475318978515584
1251.0, 7.184960609546773e-05
1252.0, 3.6452232458622415e-05
1253.0, 7.88820542378042e-05
1254.0, 7.5465949624697255e-06
1255.0, 9.180959277965476e-05
1256.0, 9.951811270403944e-05
1257.0, 0.00011766829059375103
1258.0, 7.528254697072097e-05
1259.0, 3.812962432198483e-05
1260.0, 3.342677874193566e-05
1261.0, 4.9736636723940174e-05
1262.0, 0.00020187881336405583
1263.0, 0.00026331446960337784
1264.0, 0.00023922800061520948
1265.0, 0.00015342510058036983
1266.0, 7.08165433828137e-05
1267.0, 0.0001650514001249296
1268.0, 0.00013699750468379972
1269.0, 7.201442382444371e-05
1270.0, 5.501379088266411e-05
1271.0, 5.296167957573969e-06
1272.0, 5.4575870419657024e-05
1273.0, 0.00017085255867023785
1274.0, 0.00013899122472909724
1275.0, 7.436781444224527e-05
1276.0, 0.00014609356550986005
1277.0, 0.00010754208415065333
1278.0, 0.000218290942508719
1279.0, 0.00018081725825474544
1280.0, 0.0001546628492814965
1281.0, 7.92919102651123e-05
1282.0, 8.69871185943117e-05
1283.0, 0.000193787958235151
1284.0, 3.852498813404967e-05
1285.0, 0.00010448800476827735
1286.0, 1.8335506686676848e-05
1287, 0.0
1288, 0.0
1289, 0.0
1290, 0.0
1291, 0.0
1292, 0.0
1293, 0.0
1294, 0.0
1295, 0.0
1296, 0.0
1297, 0.0
1298, 0.0
1299, 0.0
1300, 0.0
1301, 0.0
1302, 0.0
1303, 0.0
1304, 0.0
1305, 0.0
1306, 0.0
1307, 0.0
1308, 0.0
1309, 0.0
1310, 0.0
1311, 0.0
1312, 0.0
1313, 0.0
1314, 0.0
1315, 0.0
1316, 0.0
1317, 0.0
1318, 0.0
1319, 0.0
1320, 0.0
1321, 0.0
1322, 0.0
1323, 0.0
1324, 0.0
1325, 0.0
1326, 0.0
1327, 0.0
1328, 0.0
1329, 0.0
1330, 0.0
1331, 0.0
1332, 0.0
1333, 0.0
1334, 0.0
1335, 0.0
1336, 0.0
1337, 0.0
1338, 0.0
1339, 0.0
1340, 0.0
1341, 0.0
1342, 0.0
1343, 0.0
1344, 0.0
1345, 0.0
1346, 0.0
1347, 0.0
1348, 0.0
1349, 0.0
1350, 0.0
1351, 0.0
1352, 0.0
1353, 0.0
1354, 0.0
1355, 0.0
1356, 0.0
1357, 0.0
1358, 0.0
1359, 0.0
1360, 0.0
1361, 0.0
1362, 0.0
1363, 0.0
1364, 0.0
1365, 0.0
1366, 0.0
1367, 0.0
1368, 0.0
1369, 0.0
1370, 0.0
1371, 0.0
1372, 0.0
1373, 0.0
1374, 0.0
1375, 0.0
1376, 0.0
1377, 0.0
1378, 0.0
1379, 0.0
1380, 0.0
1381, 0.0
1382, 0.0
1383, 0.0
1384, 0.0
1385, 0.0
1386, 0.0
1387, 0.0
1388, 0.0
1389, 0.0
1390, 0.0
1391, 0.0
1392, 0.0
1393, 0.0
1394, 0.0
1395, 0.0
1396, 0.0
1397, 0.0
1398, 0.0
1399, 0.0
1400, 0.0
1401, 0.0
1402, 0.0
1403, 0.0
1404, 0.0
1405, 0.0
1406, 0.0
1407, 0.0
1408, 0.0
1409, 0.0
1410, 0.0
1411, 0.0
1412, 0.0
1413, 0.0
1414, 0.0
1415, 0.0
1416, 0.0
1417, 0.0
1418, 0.0
1419, 0.0
1420, 0.0
1421, 0.0
1422, 0.0
1423, 0.0
1424, 0.0
1425, 0.0
1426, 0.0
1427, 0.0
1428, 0.0
1429, 0.0
1430, 0.0
1431, 0.0
1432, 0.0
1433, 0.0
1434, 0.0
1435, 0.0
1436, 0.0
1437, 0.0
1438, 0.0
1439, 0.0
1440, 0.0
1441, 0.0
1442, 0.0
1443, 0.0
1444, 0.0
1445, 0.0
1446, 0.0
1447, 0.0
1448, 0.0
1449, 0.0
1450, 0.0
1451, 0.0
1452, 0.0
1453, 0.0
1454, 0.0
1455, 0.0
1456, 0.0
1457, 0.0
1458, 0.0
1459, 0.0
1460, 0.0
1461, 0.0
1462, 0.0
1463, 0.0
1464, 0.0
1465, 0.0
1466, 0.0
1467, 0.0
1468, 0.0
1469, 0.0
1470, 0.0
1471, 0.0
1472, 0.0
1473, 0.0
1474, 0.0
1475, 0.0
1476, 0.0
1477, 0.0
1478, 0.0
1479, 0.0
1480, 0.0
1481, 0.0
1482, 0.0
1483, 0.0
1484, 0.0
1485, 0.0
1486, 0.0
1487, 0.0
1488, 0.0
1489, 0.0
1490, 0.0
1491, 0.0
1492, 0.0
1493, 0.0
1494, 0.0
1495, 0.0
1496, 0.0
1497, 0.0
1498, 0.0
1499, 0.0
1500, 0.0
1501, 0.0
1502, 0.0
1503, 0.0
1504, 0.0
1505, 0.0
1506, 0.0
1507, 0.0
1508, 0.0
1509, 0.0
1510, 0.0
1511, 0.0
1512, 0.0
1513, 0.0
1514, 0.0
1515, 0.0
1516, 0.0
1517, 0.0
1518, 0.0
1519, 0.0
1520, 0.0
1521, 0.0
1522, 0.0
1523, 0.0
1524, 0.0
1525, 0.0
1526, 0.0
1527, 0.0
1528, 0.0
1529, 0.0
1530, 0.0
1531, 0.0
1532, 0.0
1533, 0.0
1534, 0.0
1535, 0.0
1536, 0.0
1537, 0.0
1538, 0.0
1539, 0.0
1540, 0.0
1541, 0.0
1542, 0.0
1543, 0.0
1544, 0.0
1545, 0.0
1546, 0.0
1547, 0.0
1548, 0.0
1549, 0.0
1550, 0.0
1551, 0.0
1552, 0.0
1553, 0.0
1554, 0.0
1555, 0.0
1556, 0.0
1557, 0.0
1558, 0.0
1559, 0.0
1560, 0.0
1561, 0.0
1562, 0.0
1563, 0.0
1564, 0.0
1565, 0.0
1566, 0.0
1567, 0.0
1568, 0.0
1569, 0.0
1570, 0.0
1571, 0.0
1572, 0.0
1573, 0.0
1574, 0.0
1575, 0.0
1576, 0.0
1577, 0.0
1578, 0.0
1579, 0.0
1580, 0.0
1581, 0.0
1582, 0.0
1583, 0.0
1584, 0.0
1585, 0.0
1586, 0.0
1587, 0.0
1588, 0.0
1589, 0.0
1590, 0.0
1591, 0.0
1592, 0.0
1593, 0.0
1594, 0.0
1595, 0.0
1596, 0.0
1597, 0.0
1598, 0.0
1599, 0.0
