30, 0.0
31, 0.0
32, 0.0
33, 0.0
34, 0.0
35, 0.0
36, 0.0
37, 0.0
38, 0.0
39, 0.0
40, 0.0
41, 0.0
42, 0.0
43, 0.0
44, 0.0
45, 0.0
46, 0.0
47, 0.0
48, 0.0
49, 0.0
50, 0.0
51, 0.0
52, 0.0
53, 0.0
54, 0.0
55, 0.0
56, 0.0
57, 0.0
58, 0.0
59, 0.0
60, 0.0
61, 0.0
62, 0.0
63, 0.0
64, 0.0
65, 0.0
66, 0.0
67, 0.0
68, 0.0
69, 0.0
70, 0.0
71, 0.0
72, 0.0
73, 0.0
74, 0.0
75, 0.0
76, 0.0
77, 0.0
78, 0.0
79, 0.0
80, 0.0
81, 0.0
82, 0.0
83.0, 1.1740604807745338e-07
84.0, 7.138585726471706e-06
85.0, 1.5931077329099554e-06
86.0, 2.9434241711255567e-05
87.0, 4.0556721002404715e-05
88.0, 4.001031377556884e-05
89.0, 7.822389316230254e-05
90.0, 8.881297113506078e-05
91.0, 5.743439958610163e-05
92.0, 3.432772364229418e-05
93.0, 6.673717277596204e-05
94.0, 6.527470846505524e-05
95.0, 0.00010860276261451777
96.0, 0.00015817299082011616
97.0, 0.0001032876973899595
98.0, 0.0001311283598569337
99.0, 0.00010030986113371301
100.0, 3.410759065247735e-05
101.0, 2.974574999417341e-05
102.0, 4.7487310414178216e-05
103.0, 4.3546292812781345e-05
104.0, 2.6794012166453657e-05
105.0, 2.0493507785855822e-05
106.0, 1.0793752241814591e-05
107.0, 2.3099775573486442e-05
108.0, 2.1617154509051173e-05
109.0, 4.740610488531899e-05
110.0, 7.390208934000323e-05
111.0, 9.588264034845041e-05
112.0, 5.548754167019022e-05
113.0, 2.9138265709339874e-05
114.0, 3.1064166601043405e-05
115.0, 6.964626985594871e-05
116.0, 0.00011648856928163274
117.0, 0.00017861098132085896
118.0, 0.00020020954007082394
119.0, 0.00026621636527505326
120.0, 0.0003229095387499234
121.0, 0.0003631818904803046
122.0, 0.00043089757846777717
123.0, 0.0005112810131040929
124.0, 0.0005518187963961433
125.0, 0.0005695107567851097
126.0, 0.0006139410691447229
127.0, 0.0006261767658492038
128.0, 0.0006331789602626822
129.0, 0.0006500290899478082
130.0, 0.0006530715546769979
131.0, 0.0006376171857132853
132.0, 0.0005431220562974247
133.0, 0.0004664707081510187
134.0, 0.0004790146180963457
135.0, 0.0004903962249559868
136.0, 0.0005767583273618561
137.0, 0.0008108071471078419
138.0, 0.0012213090457606308
139.0, 0.0017915294854764477
140.0, 0.002645924529905407
141.0, 0.0036362867226971563
142.0, 0.004498039784798916
143.0, 0.004930565262828724
144.0, 0.005771474309152191
145.0, 0.006274794181517857
146.0, 0.006952177748506727
147.0, 0.009538693458328525
148.0, 0.019487569905269116
149.0, 0.016486795092801494
150.0, 0.006565525398154861
151.0, 0.0014657201596959602
152.0, 0.0003893744659965644
153.0, 0.0002656570736733311
154.0, 0.00026976168757890937
155.0, 0.00024482021547632323
156.0, 0.00022967132220876914
157.0, 0.0002184227493472499
158.0, 0.00021564812411962385
159.0, 0.0002100648562032404
160.0, 0.0001775765511474177
161.0, 0.0001568195863191013
162.0, 0.00017722670491740011
163.0, 0.00018630035204028904
164.0, 0.00011771367923955146
165.0, 0.00011206206108457618
166.0, 0.0001461116446976464
167.0, 0.00018486106321040108
168.0, 0.00018872009137499435
169.0, 0.00013949702071306682
170.0, 9.556268145214096e-05
171.0, 5.450770879201793e-05
172.0, 2.542419824836514e-05
173.0, 4.3023518033793296e-05
174.0, 0.000102474460697073
175.0, 0.00010378731490613071
176.0, 5.7146151746005984e-05
177.0, 6.745329577773766e-05
178.0, 0.00012357951197306335
179.0, 8.851515612676888e-05
180.0, 3.535551730516608e-05
181.0, 8.741938163093592e-05
182.0, 8.319027369037387e-05
183.0, 7.718123027732427e-05
184.0, 8.540332338533137e-05
185.0, 8.60470542977727e-05
186.0, 5.2708230924223636e-05
187.0, 7.62643251535458e-05
188.0, 8.750518065657948e-05
189.0, 6.478592054327163e-05
190.0, 7.150695245880118e-05
191.0, 5.8859654315519606e-05
192.0, 3.795091217615256e-05
193.0, 2.695879963843622e-05
194.0, 4.147410202652504e-05
195.0, 8.488231069020675e-05
196.0, 7.723790979228741e-05
197.0, 3.876618619695017e-05
198.0, 2.17341336196159e-05
199.0, 3.7622236104260146e-05
200.0, 5.7269596647083e-05
201.0, 5.841575192230827e-05
202.0, 4.789016400466835e-05
203.0, 5.49653475549368e-05
204.0, 7.631931056818743e-05
205.0, 6.466798158836316e-05
206.0, 5.894649712580681e-05
207.0, 0.00010830611844294836
208.0, 6.208102211193399e-05
209.0, 7.096103486231766e-05
210.0, 7.611836126618619e-05
211.0, 2.933318124164804e-05
212.0, 5.203232881612798e-05
213.0, 4.11635039725067e-05
214.0, 3.4661405202266664e-05
215.0, 4.7408247293723596e-05
216.0, 3.908141311891081e-05
217.0, 2.3564630596322294e-05
218.0, 2.4953865127176985e-05
219.0, 3.880977474624645e-05
220.0, 5.999064768502242e-05
221.0, 6.681378565047978e-05
222.0, 7.958299258935728e-05
223.0, 0.00012502578895300098
224.0, 0.00022637966761719945
225.0, 0.0003845544344134785
226.0, 0.0005741907596728548
227.0, 0.0007218248378394421
228.0, 0.000912148204865947
229.0, 0.0013425475484203629
230.0, 0.002343094194155318
231.0, 0.003147692358779487
232.0, 0.0037384817755576516
233.0, 0.004644677608832925
234.0, 0.0071670675206111124
235.0, 0.006722267622057423
236.0, 0.005737104636841321
237.0, 0.0057046163889038085
238.0, 0.007261624549653406
239.0, 0.01613666972074862
240.0, 0.015367189799869103
241.0, 0.007418534124524743
242.0, 0.0015471095437678876
243.0, 0.0002989876570829629
244.0, 7.342348537973989e-05
245.0, 5.5864647088105544e-05
246.0, 8.7952725831761e-05
247.0, 3.961990178219715e-05
248.0, 4.785153931742979e-05
249.0, 4.35737393120565e-05
250.0, 2.2609948440813906e-05
251.0, 1.5906965846824516e-05
252.0, 4.2814960594495014e-05
253.0, 3.214459604027448e-05
254.0, 2.681286003484873e-05
255.0, 6.213460671383286e-05
256.0, 0.00013422862547772004
257.0, 0.00014287733282742658
258.0, 0.0001678946269895389
259.0, 0.00018045549470033145
260.0, 0.00013744208891426095
261.0, 0.00020409348531447722
262.0, 0.0002453681707606799
263.0, 0.00032403882601100587
264.0, 0.0005761295261809948
265.0, 0.0010179628677732446
266.0, 0.0007951288571869371
267.0, 0.0003592490044921287
268.0, 6.135961235324785e-05
269.0, 3.7562057659721293e-06
270.0, 6.710665426901985e-05
271.0, 8.274342055036733e-06
272.0, 5.158458894206717e-05
273.0, 3.0412171030950452e-05
274.0, 9.193629918738978e-06
275.0, 4.033218095807394e-05
276.0, 3.105315375212118e-05
277.0, 2.739753431090286e-05
278.0, 4.401410157108446e-05
279.0, 1.4504362855168145e-05
280.0, 2.921823890980569e-05
281.0, 3.1624878989147575e-05
282.0, 5.820508958523991e-06
283.0, 5.826340886996623e-05
284.0, 8.187675262810625e-06
285.0, 1.7209168726043087e-05
286.0, 5.6861768118886364e-05
287.0, 6.118441020772777e-05
288.0, 7.764431270269607e-05
289.0, 8.58940925733026e-05
290.0, 7.619339677834573e-05
291.0, 5.1398126520945615e-05
292.0, 2.8095125135747018e-05
293.0, 5.1110214507434666e-05
294.0, 9.12003111116798e-05
295.0, 0.0001189593831258549
296.0, 0.00011517374777292545
297.0, 7.965440904248307e-05
298.0, 0.00011461224428156334
299.0, 0.00010828045738889075
300.0, 8.674091821236438e-05
301.0, 0.0001077094710155337
302.0, 9.575241047210296e-05
303.0, 8.761707815425212e-05
304.0, 8.65303210398884e-05
305.0, 8.739358355843311e-05
306.0, 9.24745483599389e-05
307.0, 0.00012059429505006353
308.0, 0.0001521570584020508
309.0, 0.0001828165415357165
310.0, 0.00019793057743043194
311.0, 0.0001592273168627443
312.0, 0.0001283429464638507
313.0, 0.00014861985973914927
314.0, 0.00018663971673995523
315.0, 0.00018539631492441472
316.0, 0.0001402894945528501
317.0, 0.00012427228507415374
318.0, 0.00013961344971436066
319.0, 0.0001517718032795915
320.0, 0.00012736473422083868
321.0, 0.00011615923616590923
322.0, 0.00010903755839588509
323.0, 0.00011037117543421119
324.0, 0.00010876884588552386
325.0, 2.8908156660645687e-05
326.0, 7.532992775681625e-05
327.0, 9.309444133513288e-05
328.0, 7.365139898144871e-05
329.0, 8.82523896658637e-05
330.0, 0.00011258167704676308
331.0, 4.4807362294356184e-05
332.0, 4.986372770173072e-05
333.0, 0.00011695387696456629
334.0, 3.796736808139598e-05
335.0, 6.216979260400169e-05
336.0, 5.7913898985838116e-05
337.0, 2.581724632377442e-05
338.0, 1.397731038966216e-05
339.0, 1.1131804763679601e-05
340.0, 3.1777524101053115e-05
341.0, 5.5329963172650664e-05
342.0, 5.7318008207047444e-05
343.0, 3.30683895189747e-05
344.0, 1.704470557971836e-05
345.0, 1.7260452873891597e-05
346.0, 2.3453063275690267e-05
347.0, 5.337064533902006e-06
348.0, 1.598036428888493e-05
349.0, 1.6758002732948563e-05
350.0, 5.243221394771711e-05
351.0, 7.06893466337727e-05
352.0, 4.157493087196789e-05
353.0, 8.399446923600252e-06
354.0, 1.36699864541864e-05
355.0, 2.946853726971102e-05
356.0, 1.7695213299185425e-05
357.0, 1.7070068136972323e-05
358.0, 9.975898352051899e-06
359.0, 6.054279905316134e-06
360.0, 7.105035602129577e-06
361.0, 1.0939152528550093e-05
362.0, 2.78738335782553e-05
363.0, 1.1443406035218342e-05
364.0, 1.1963792830574669e-05
365.0, 3.0222470011992444e-06
366.0, 3.7809985341601264e-05
367.0, 6.074295068807029e-05
368.0, 7.856008062284878e-05
369.0, 5.00609252407949e-05
370.0, 6.20818365060157e-05
371.0, 0.00011041381402349214
372.0, 8.838559611445324e-05
373.0, 9.263619620195465e-05
374.0, 4.261338582066949e-05
375.0, 3.373356719133933e-05
376.0, 8.134464781987893e-05
377.0, 4.258615428865273e-05
378.0, 8.204991838506742e-05
379.0, 8.776647184332254e-05
380.0, 7.536283783928271e-05
381.0, 8.69361109104031e-05
382.0, 8.363173680272968e-05
383.0, 7.565500510147997e-05
384.0, 8.252847441697835e-05
385.0, 9.806192844745995e-05
386.0, 0.00010738832976896173
387.0, 0.00011533343018982371
388.0, 0.00013659581779588788
389.0, 0.0001503728551350877
390.0, 0.0001609684803584015
391.0, 0.00016572566849206704
392.0, 9.857381178867383e-05
393.0, 0.00015211678044561123
394.0, 0.00017309258677346376
395.0, 0.0001458547175084529
396.0, 0.0001433314290006749
397.0, 9.319354005447689e-05
398.0, 0.00011026427375535206
399.0, 0.0001384374347555456
400.0, 0.00013606546863773825
401.0, 0.0001200293262828785
402.0, 0.00014473902637799526
403.0, 0.00019798799123186086
404.0, 0.00021461582495320325
405.0, 0.0001883955954853402
406.0, 0.0001625868998817259
407.0, 0.00015243929854405852
408.0, 0.00011263555215244839
409.0, 0.0001095741477065898
410.0, 0.0001503956318478514
411.0, 0.00014559754689900505
412.0, 0.00014661833185157795
413.0, 0.00015901965993868268
414.0, 0.0001402274056030446
415.0, 0.00010329824610019227
416.0, 0.000123858464829564
417.0, 0.00023401810922117007
418.0, 0.00016939411761099225
419.0, 0.00010119501286973479
420.0, 0.00012384134947029604
421.0, 0.00011362391797858673
422.0, 0.00010042278074169855
423.0, 8.037474091355593e-05
424.0, 9.40488097873256e-05
425.0, 0.00010711950131143671
426.0, 1.7281781710670115e-05
427.0, 7.497431470561108e-05
428.0, 7.606762177023728e-05
429.0, 0.0001129913254197086
430.0, 0.00017941470319356433
431.0, 7.539709649490303e-05
432.0, 0.00010033232016850281
433.0, 0.0001159950415518952
434.0, 6.56755081324054e-05
435.0, 6.789655653279284e-06
436.0, 5.232308883509288e-05
437.0, 5.5338525312090794e-05
438.0, 7.542395526186378e-05
439.0, 8.37188427548843e-05
440.0, 5.7821487427809555e-05
441.0, 3.263559856988544e-05
442.0, 1.6881176016146824e-05
443.0, 2.485672969049413e-05
444.0, 5.376725291744415e-05
445.0, 7.412419662395873e-05
446.0, 4.904266684199291e-05
447.0, 3.4703509235570324e-06
448.0, 6.049940863013458e-05
449.0, 7.626363978140385e-05
450.0, 1.746836604547675e-05
451.0, 4.0336612071524576e-05
452.0, 9.742253094582256e-05
453.0, 7.254921690672854e-05
454.0, 2.5738506845888044e-05
455.0, 2.8810189593749307e-05
456.0, 7.410379538981402e-05
457.0, 6.62742312399221e-05
458.0, 1.0991245814779e-05
459.0, 3.90373054941987e-06
460.0, 3.571910590589906e-05
461.0, 7.463965401629918e-05
462.0, 8.243300120901987e-05
463.0, 3.602280990841116e-05
464.0, 4.217376663921995e-05
465.0, 7.502722677102681e-05
466.0, 3.7537636138231816e-05
467.0, 3.476018688916329e-05
468.0, 1.9506846991932756e-05
469.0, 2.5588595460784904e-05
470.0, 1.4914557531988784e-05
471.0, 4.775664498854969e-05
472.0, 5.1582577337620956e-05
473.0, 1.6369235847488344e-05
474.0, 1.541068167583675e-05
475.0, 1.900234118091752e-05
476.0, 8.534788866304289e-06
477.0, 1.7420295417112996e-05
478.0, 6.084634273649289e-05
479.0, 2.5771494684915526e-05
480.0, 3.128628596792494e-05
481.0, 5.9431068861432534e-05
482.0, 0.00012807861475264042
483.0, 6.321305132004581e-05
484.0, 1.4027515192981588e-05
485.0, 1.2002525742420935e-05
486.0, 3.064160414549682e-05
487.0, 2.194153627544427e-05
488.0, 2.57437159867207e-05
489.0, 5.894457232783529e-06
490.0, 3.5534529155242724e-05
491.0, 0.00020395448220213053
492.0, 0.00046067021811651215
493.0, 0.0006041754787363119
494.0, 0.0007360716874875772
495.0, 0.0008934283802599952
496.0, 0.0010609952669958936
497.0, 0.0012316653257406713
498.0, 0.0014580176985405716
499.0, 0.0019059678104491955
500.0, 0.002277407738528033
501.0, 0.002712095180149635
502.0, 0.003413270824763012
503.0, 0.004306183122861457
504.0, 0.006296489720342334
505.0, 0.008380434493110914
506.0, 0.0074130505864314815
507.0, 0.0035687402291057022
508.0, 0.0015106280586341314
509.0, 0.0008739098868279113
510.0, 0.0007945909011522392
511.0, 0.0009895808153108432
512.0, 0.0013186128859841485
513.0, 0.0014885766987903293
514.0, 0.0009936842840825707
515.0, 0.00041794755952672026
516.0, 0.00011489942991548514
517.0, 2.8996227039487977e-05
518.0, 7.445956395621782e-06
519.0, 2.4071877677730214e-05
520.0, 2.2373926721372347e-05
521.0, 1.7583723781653746e-05
522.0, 3.39918532031171e-05
523.0, 4.293707580832863e-05
524.0, 9.227545276139018e-05
525.0, 5.795983712759179e-05
526.0, 6.48238334310991e-05
527.0, 8.224679005543473e-05
528.0, 8.416415561935639e-05
529.0, 0.00010193341877734582
530.0, 0.00016291431100326278
531.0, 0.00018457597421325578
532.0, 0.00021115205446972795
533.0, 0.00024118678368942383
534.0, 0.00023296636844847554
535.0, 0.0001709529928725878
536.0, 0.00024007000652198184
537.0, 0.00023972766314515223
538.0, 0.00016960115584161806
539.0, 0.0001254379588818975
540.0, 0.00016758153911692
541.0, 0.00026836894812330475
542.0, 0.00018449719654256555
543.0, 0.0001753599976872597
544.0, 0.00024713200082976714
545.0, 0.000254872243820681
546.0, 0.00026905245002216665
547.0, 0.00023791413833886403
548.0, 0.0002282811669819885
549.0, 0.00019203182831865797
550.0, 0.00015294864494463963
551.0, 0.00023635356421607113
552.0, 0.00024941053683018825
553.0, 0.0003463812716488053
554.0, 0.00037817352532299126
555.0, 0.000305629669129272
556.0, 0.00023619687354670582
557.0, 0.000215945143650936
558.0, 0.00027335572672286605
559.0, 0.0002993742628614606
560.0, 0.0003010469360682564
561.0, 0.0002948035952040481
562.0, 0.00025754724156318255
563.0, 0.00037130494504114726
564.0, 0.00040409499852356307
565.0, 0.00041470263037791136
566.0, 0.00041568533784640054
567.0, 0.000369948203801233
568.0, 0.00039171403421176784
569.0, 0.00041331807270765644
570.0, 0.0003950708907697918
571.0, 0.0004061659142573163
572.0, 0.00046912188416853426
573.0, 0.0005067839522442796
574.0, 0.0005269845641765203
575.0, 0.0006141454117628708
576.0, 0.0006835875235526993
577.0, 0.0006271540898803206
578.0, 0.0005103387597885267
579.0, 0.0006509971590185991
580.0, 0.0007459306761298473
581.0, 0.0007448615356347449
582.0, 0.0006744977950066889
583.0, 0.0006470138167753216
584.0, 0.00076430440329074
585.0, 0.0007775190472515564
586.0, 0.0007493702582798802
587.0, 0.0006514931819872295
588.0, 0.0006185184304080282
589.0, 0.0007074892263110212
590.0, 0.0006972738555744268
591.0, 0.0007629405702084571
592.0, 0.0008228690882995285
593.0, 0.0008099863926302993
594.0, 0.0007945474100014221
595.0, 0.0008614115079866926
596.0, 0.0008907734508725489
597.0, 0.0008740306151424362
598.0, 0.0008592089786857702
599.0, 0.000896104249933543
600.0, 0.0009476733444589753
601.0, 0.0009274754346433065
602.0, 0.0009394473215345882
603.0, 0.0009532238555103646
604.0, 0.00088897636961307
605.0, 0.000851122313867543
606.0, 0.0008891317396904425
607.0, 0.0008063573554843575
608.0, 0.0008587541235165185
609.0, 0.000885312618256096
610.0, 0.0008007847981619726
611.0, 0.0007238748262953415
612.0, 0.0007684516081297759
613.0, 0.0006796564995408125
614.0, 0.0006884044095524592
615.0, 0.0007076016434161712
616.0, 0.0006481460386075389
617.0, 0.0005742722864737629
618.0, 0.0006194961346479718
619.0, 0.0006909946721046331
620.0, 0.0006749679919651412
621.0, 0.0006189519396619583
622.0, 0.0005571718268732989
623.0, 0.0005110684343492323
624.0, 0.0005169619552229121
625.0, 0.0005226192815025772
626.0, 0.0004627943425443419
627.0, 0.0003762911874360646
628.0, 0.0003611035470089783
629.0, 0.000423104799841359
630.0, 0.00040367246449882113
631.0, 0.00029870159010055757
632.0, 0.00031326282578648707
633.0, 0.00035216391972766177
634.0, 0.0003018505826254024
635.0, 0.00017912780954785134
636.0, 0.0001345555151432891
637.0, 0.0002000328168743209
638.0, 0.00019494708200335653
639.0, 0.000146387542769092
640.0, 8.510213605690659e-05
641.0, 3.5375371924655196e-05
642.0, 0.00012409281984103386
643.0, 0.00020299899814441887
644.0, 0.00016204498480416478
645.0, 8.558848466462562e-05
646.0, 7.976097217268992e-05
647.0, 0.00011360998700424846
648.0, 7.925302763489328e-05
649.0, 0.00010433656745478833
650.0, 6.571403614851818e-05
651.0, 3.241311709652642e-05
652.0, 3.246797060956424e-05
653.0, 8.710773387914469e-05
654.0, 0.0001507856844452726
655.0, 6.254142981009416e-05
656.0, 3.7496362115119494e-05
657.0, 5.369802666111439e-05
658.0, 3.712983058676947e-05
659.0, 3.0465541026456827e-05
660.0, 5.729749648972846e-05
661.0, 6.185045181813832e-05
662.0, 1.4798003864079996e-05
663.0, 2.4172577353217855e-05
664.0, 6.423777115624693e-05
665.0, 3.053148142995045e-05
666.0, 4.8669663472280185e-05
667.0, 2.759309530629366e-05
668.0, 3.810610224393604e-05
669.0, 9.478389753393117e-05
670.0, 0.00010016019122447082
671.0, 7.125876214409157e-06
672.0, 0.000139583285628857
673.0, 0.00015242593203279017
674.0, 9.955545910271219e-05
675.0, 0.00012010338407540803
676.0, 0.0001819243162782995
677.0, 0.00013074118859318664
678.0, 6.94741577513093e-05
679.0, 6.414934475316883e-05
680.0, 0.00014307794432766337
681.0, 0.00012112045316081912
682.0, 9.871900710317463e-06
683.0, 1.6068274052089022e-05
684.0, 1.0671001635114753e-05
685.0, 0.00014687101865912115
686.0, 0.00014017967283155256
687.0, 0.00012174101851156062
688.0, 0.00010914608691125623
689.0, 6.850717620805372e-05
690.0, 3.7881131260168796e-05
691.0, 7.26315311586806e-06
692.0, 3.3261701625807074e-05
693.0, 6.932708283865848e-05
694.0, 7.481553158571695e-05
695.0, 2.3095956640424603e-05
696.0, 0.00011616568198388986
697.0, 0.0002528939508250637
698.0, 0.000332638696337751
699.0, 0.0004336222072597403
700.0, 0.0005385577120983219
701.0, 0.0005395395965193996
702.0, 0.00047772767080971805
703.0, 0.0005511339816719031
704.0, 0.000481369872350129
705.0, 0.00041533355665921914
706.0, 0.0003002446166493087
707.0, 0.00010971107079012332
708.0, 0.00014145662954275553
709.0, 0.00013018575315753742
710.0, 4.518673906877789e-05
711.0, 0.00012272571150290907
712.0, 0.0002542102348152811
713.0, 0.00034419000585871637
714.0, 0.0005019101938570944
715.0, 0.0004889557146528976
716.0, 0.0004741532221844867
717.0, 0.000327878816006637
718.0, 0.0001677713566539003
719.0, 6.705820292047229e-05
720.0, 3.314852241040976e-05
721.0, 2.044900294651381e-05
722.0, 6.664041783180392e-05
723.0, 3.1109687879638365e-05
724.0, 3.281295421709456e-05
725.0, 7.759518929262288e-05
726.0, 0.0002796571031471209
727.0, 0.0003072178472834308
728.0, 0.00033680856714879583
729.0, 0.0003926196696594234
730.0, 0.000405096704718493
731.0, 0.0004680241353773267
732.0, 0.0006109886497423061
733.0, 0.0006827384108968366
734.0, 0.000989289129428524
735.0, 0.0011503077629433237
736.0, 0.0012489472339969636
737.0, 0.0014655637442124432
738.0, 0.0017258680417489905
739.0, 0.0019108347800901766
740.0, 0.0022679224723806107
741.0, 0.0024319917385660795
742.0, 0.0026428302885424825
743.0, 0.0030544731415555423
744.0, 0.0034204413293581993
745.0, 0.0035698851133703635
746.0, 0.0038977857546529937
747.0, 0.00437769180373853
748.0, 0.004699983910796803
749.0, 0.005019557115228446
750.0, 0.0054456318574724214
751.0, 0.005951448851158998
752.0, 0.006566661280419037
753.0, 0.007490535321191952
754.0, 0.008502297240569516
755.0, 0.009250067473345969
756.0, 0.010153079368794905
757.0, 0.011347002699615218
758.0, 0.012647696899574937
759.0, 0.01407219394865598
760.0, 0.016013398712563097
761.0, 0.017939055227270892
762.0, 0.02024979506044494
763.0, 0.02318211060514168
764.0, 0.026826168142735096
765.0, 0.031604862352208656
766.0, 0.0382365632403928
767.0, 0.04178853720675309
768.0, 0.037851659515215345
769.0, 0.03255726492716946
770.0, 0.031467914156156886
771.0, 0.03532699718653642
772.0, 0.04289502854185447
773.0, 0.055759368212059394
774.0, 0.0716922457201513
775.0, 0.08790176493304934
776.0, 0.1058915698072944
777.0, 0.12800446732013146
778.0, 0.15457487271192039
779.0, 0.18506445519430884
780.0, 0.22047530552416808
781.0, 0.2668376663464053
782.0, 0.32076624398450265
783.0, 0.38779204587915017
784.0, 0.4771271382652542
785.0, 0.6010859087326144
786.0, 0.7833603470822259
787.0, 0.9730275248110508
788.0, 0.8931284572675424
789.0, 0.6153710768477139
790.0, 0.35275756656906465
791.0, 0.22041138307796507
792.0, 0.16823175035266602
793.0, 0.15246325394826293
794.0, 0.15841232138595282
795.0, 0.17923897522469845
796.0, 0.22985893054416195
797.0, 0.2849510350522099
798.0, 0.28138683786303703
799.0, 0.17061141042035613
800.0, 0.08673508799115773
801.0, 0.04490810042787131
802.0, 0.027319341679849198
803.0, 0.019028604025097328
804.0, 0.014204355303470657
805.0, 0.01100354149929861
806.0, 0.008687524875672072
807.0, 0.006947192170463348
808.0, 0.005688134461947483
809.0, 0.004749198727257334
810.0, 0.004090756641697078
811.0, 0.003549122004052333
812.0, 0.002883112604840897
813.0, 0.0023189673010021792
814.0, 0.0018884243851951797
815.0, 0.0016337344876758114
816.0, 0.001294469432146849
817.0, 0.0009692800875510598
818.0, 0.0008553319347392459
819.0, 0.0007879638847954867
820.0, 0.0004942971983423065
821.0, 0.00040686436547415116
822.0, 0.0003761621795729202
823.0, 0.0003683165844083111
824.0, 0.0002961583347491877
825.0, 0.00018157798944030019
826.0, 0.0001786107156154968
827.0, 4.684057580242041e-05
828.0, 5.169736496681208e-05
829.0, 0.00010023820490685082
830.0, 5.064789398969221e-05
831.0, 0.0001067045473034591
832.0, 8.89285439493917e-05
833.0, 0.00011087086162119753
834.0, 0.0001256192490419525
835.0, 0.00013919012244176037
836.0, 8.294314026803643e-05
837.0, 8.110990649892609e-05
838.0, 9.521342942747409e-05
839.0, 9.650576055923721e-05
840.0, 0.00016282894872184417
841.0, 0.00010310338752316428
842.0, 4.016323589266371e-05
843.0, 8.227680643683963e-05
844.0, 8.31693192138151e-05
845.0, 3.167739623466492e-05
846.0, 5.35393050418398e-06
847.0, 2.2182369417129006e-05
848.0, 4.176778146038934e-05
849.0, 3.133233395586811e-05
850.0, 3.3912127207914636e-06
851.0, 5.5378363685411645e-05
852.0, 0.0001065152984073043
853.0, 0.00013168364486312102
854.0, 0.00010874366032501633
855.0, 9.42232446730363e-05
856.0, 5.82298331898888e-05
857.0, 0.00015554309487777598
858.0, 0.00015640949822638413
859.0, 0.0001688549855959077
860.0, 0.00021183282491430032
861.0, 0.0001886868947693613
862.0, 0.00025757659738742347
863.0, 0.00017245136756677653
864.0, 0.00024194665545997036
865.0, 0.0002526650152991724
866.0, 0.00024240987336091044
867.0, 0.0002833300003346031
868.0, 0.00034133749655032363
869.0, 0.00037399344669908206
870.0, 0.0004244088282464182
871.0, 0.0004934265049673747
872.0, 0.00047178623324266024
873.0, 0.000496886413700196
874.0, 0.0006163258032499305
875.0, 0.0007728187936703165
876.0, 0.0009302699070250971
877.0, 0.001040249521556947
878.0, 0.0013419985110065692
879.0, 0.0016887996770893366
880.0, 0.0019534033276313242
881.0, 0.0022482211561456176
882.0, 0.002679692030477895
883.0, 0.0032614775546396754
884.0, 0.0039841314832280246
885.0, 0.004685228230238596
886.0, 0.005529284031888141
887.0, 0.006910021300385087
888.0, 0.009831211807511954
889.0, 0.010779848230982957
890.0, 0.007756998279199497
891.0, 0.003870687240030685
892.0, 0.002021640445243241
893.0, 0.0014027410957354039
894.0, 0.0011478143047541109
895.0, 0.0009809045291479742
896.0, 0.0009189852447207829
897.0, 0.0009835005351677268
898.0, 0.001013097702415986
899.0, 0.0008736308069375764
900.0, 0.0008774527989604666
901.0, 0.0008507443862948795
902.0, 0.0007896007390027019
903.0, 0.0008464846220505918
904.0, 0.0009073972039862191
905.0, 0.0008705530283963889
906.0, 0.0008591458014240144
907.0, 0.0009230813621272892
908.0, 0.0008496177433006143
909.0, 0.0008112459358643822
910.0, 0.0008460370563110638
911.0, 0.0008616927760729891
912.0, 0.0008309248447634974
913.0, 0.00082527515916039
914.0, 0.0008508024129744788
915.0, 0.0008025954403131035
916.0, 0.0008159479214345756
917.0, 0.0009077964998492963
918.0, 0.0008671974987120617
919.0, 0.0008320614078549585
920.0, 0.0009319795388220305
921.0, 0.0010265182025657393
922.0, 0.0009546457362312113
923.0, 0.001052943805547522
924.0, 0.0009696390455686691
925.0, 0.0010310702342159381
926.0, 0.0011329630715199905
927.0, 0.001049294117552077
928.0, 0.0009381090210729267
929.0, 0.0010285316663985699
930.0, 0.0010973962522232415
931.0, 0.0010865575100705628
932.0, 0.0010097537492638577
933.0, 0.0010255664562292808
934.0, 0.0009596841797647692
935.0, 0.0008941159163612158
936.0, 0.0009042972734870026
937.0, 0.0008437968053627272
938.0, 0.000738700475553096
939.0, 0.0006644657735482875
940.0, 0.0006056152517229262
941.0, 0.0004603218442317547
942.0, 0.00029093020613332943
943.0, 0.0001862861892591106
944.0, 8.308842552121421e-05
945.0, 5.750621159225944e-05
946.0, 1.8308672279180128e-05
947.0, 5.0701695041718245e-05
948.0, 9.599597856056813e-06
949.0, 1.1458775006083729e-05
950.0, 2.581805582545849e-05
951.0, 3.9120248468288226e-05
952.0, 0.00014700549344027306
953.0, 0.00027531556341280446
954.0, 0.00047578806582539325
955.0, 0.0007654861038923281
956.0, 0.0010905579247530361
957.0, 0.0016322560365103335
958.0, 0.002335972236276069
959.0, 0.0030296386350193707
960.0, 0.003710148124031127
961.0, 0.004537959490187587
962.0, 0.005543689400844747
963.0, 0.006682612071581701
964.0, 0.007867657704135849
965.0, 0.009351882552214487
966.0, 0.011109297519788449
967.0, 0.013100422013347981
968.0, 0.015375277741968504
969.0, 0.017875662332012026
970.0, 0.01994267553956098
971.0, 0.01913407994629644
972.0, 0.014202519718077834
973.0, 0.008914634165706859
974.0, 0.005462825927130694
975.0, 0.003480412672055828
976.0, 0.0023254290610677177
977.0, 0.0016889629105292083
978.0, 0.0012612233309288606
979.0, 0.00100253925127715
980.0, 0.0008327495589391978
981.0, 0.0006195760542124926
982.0, 0.0005475210710089858
983.0, 0.0005195656272554617
984.0, 0.0004516929037437118
985.0, 0.0003975545673794138
986.0, 0.0003795315893259442
987.0, 0.00033782929939009696
988.0, 0.00037623668680420423
989.0, 0.0002913762151877152
990.0, 0.0003102203515523336
991.0, 0.0002683500629525632
992.0, 0.0002592755318382163
993.0, 0.00028214382646046154
994.0, 0.0002322958086788322
995.0, 0.0002522162590321452
996.0, 0.0002906186213859993
997.0, 0.0002574287540341663
998.0, 0.0001894927401567969
999.0, 0.00016956026810736776
1000.0, 0.0001694833114515611
1001.0, 0.0001497564037881573
1002.0, 0.0001326342113470298
1003.0, 0.00012617439307513811
1004.0, 6.277293207955257e-05
1005.0, 1.3782874158230127e-05
1006.0, 3.412873262249959e-05
1007.0, 5.531170651630566e-05
1008.0, 4.6595429494220086e-05
1009.0, 4.659434680960959e-05
1010.0, 0.00012119799439393696
1011.0, 9.542499856273205e-05
1012.0, 8.483863700353178e-05
1013.0, 8.873275973396223e-05
1014.0, 1.1761193460463938e-06
1015.0, 9.10701354926721e-06
1016.0, 8.455920832027111e-05
1017.0, 9.150702725166438e-05
1018.0, 8.118396179959073e-05
1019.0, 5.901422564602381e-05
1020.0, 6.715774294849696e-06
1021.0, 1.2337979348300888e-05
1022.0, 1.5524586279271417e-05
1023.0, 2.5499667888683193e-05
1024.0, 3.7331428364716385e-05
1025.0, 5.950363131106631e-06
1026.0, 8.731003444075029e-06
1027.0, 3.470355326547653e-05
1028.0, 8.400205664116188e-05
1029.0, 0.00011054243303807512
1030.0, 0.0001660693840014193
1031.0, 0.00013235628243030197
1032.0, 0.00011311819297213619
1033.0, 0.0002395337617376007
1034.0, 0.0003064131381629503
1035.0, 0.00033508655350418667
1036.0, 0.0002738921364183263
1037.0, 0.0001962107356855518
1038.0, 0.00024382563379620172
1039.0, 0.00033274704337110634
1040.0, 0.00034121180000780757
1041.0, 0.0004175568957918252
1042.0, 0.0004119746708369611
1043.0, 0.0004730633445079471
1044.0, 0.0005038751817791772
1045.0, 0.0005533418874625574
1046.0, 0.000657769220317221
1047.0, 0.0007363540832959316
1048.0, 0.0007702028439638705
1049.0, 0.0007787852662230205
1050.0, 0.0007130309577517934
1051.0, 0.0006882125045679172
1052.0, 0.0006767762126595664
1053.0, 0.0006965146440356707
1054.0, 0.0007247706740568067
1055.0, 0.0007628997635633379
1056.0, 0.0008008268111713513
1057.0, 0.000807498115791704
1058.0, 0.0008036740142117042
1059.0, 0.0007407556048665142
1060.0, 0.0008436597366459418
1061.0, 0.000771052540029919
1062.0, 0.0007663563319095912
1063.0, 0.0008253347599935094
1064.0, 0.0008054398972650924
1065.0, 0.0007980857038141434
1066.0, 0.0008784439797208662
1067.0, 0.0008614824425222017
1068.0, 0.0008762522229359602
1069.0, 0.001009545106204123
1070.0, 0.0010375229660155453
1071.0, 0.0010201252906241315
1072.0, 0.0010936155262709847
1073.0, 0.001115186216616893
1074.0, 0.0011004142382504119
1075.0, 0.0011363635351539958
1076.0, 0.0011561525026368054
1077.0, 0.0012009340509820205
1078.0, 0.0012198697288117446
1079.0, 0.0013533189176441307
1080.0, 0.001422406841383349
1081.0, 0.0014246748552229195
1082.0, 0.0015462246211471295
1083.0, 0.001738428602341007
1084.0, 0.0017951543802087013
1085.0, 0.001744990303589382
1086.0, 0.0018212698088271432
1087.0, 0.0018918339561843406
1088.0, 0.0018516138288165807
1089.0, 0.001746228556739108
1090.0, 0.0017457145268056698
1091.0, 0.0017146327284718876
1092.0, 0.001622310925548549
1093.0, 0.0016729284131384984
1094.0, 0.0017475402442038786
1095.0, 0.0016771132941717345
1096.0, 0.0017314029269419858
1097.0, 0.0017557062567274773
1098.0, 0.0016028758986230292
1099.0, 0.0015920941693155577
1100.0, 0.0016809749350630645
1101.0, 0.0016926960382138106
1102.0, 0.0016646376605278757
1103.0, 0.0016587041725259818
1104.0, 0.0016441010937087663
1105.0, 0.001614770492709176
1106.0, 0.0016107557369641338
1107.0, 0.001597307198311606
1108.0, 0.0016489258269969
1109.0, 0.0015580572367787304
1110.0, 0.0015683708091473465
1111.0, 0.0016288873411754883
1112.0, 0.001652052142475467
1113.0, 0.0016682502339144165
1114.0, 0.0015960618123739578
1115.0, 0.0015330232865976054
1116.0, 0.0016779267604411906
1117.0, 0.0016112828994997207
1118.0, 0.0016831874698864558
1119.0, 0.0018043966038442628
1120.0, 0.0017162793036975762
1121.0, 0.0016667622199237804
1122.0, 0.0016714967269221275
1123.0, 0.0016959273094754655
1124.0, 0.0017646054222713173
1125.0, 0.0017739884350297418
1126.0, 0.0016850969308392224
1127.0, 0.0017579251242089834
1128.0, 0.0017323667259023358
1129.0, 0.001718885052703268
1130.0, 0.0017888077796080109
1131.0, 0.0016852886818217046
1132.0, 0.0015931524416629022
1133.0, 0.0016470646736057525
1134.0, 0.0016191488586163821
1135.0, 0.0014784586634559436
1136.0, 0.001385222163880095
1137.0, 0.001330051152069592
1138.0, 0.001339628425709375
1139.0, 0.0012220213107763628
1140.0, 0.0011049874073623027
1141.0, 0.0011399286144639126
1142.0, 0.0010599896671090075
1143.0, 0.0009576841401468112
1144.0, 0.0009527752290570122
1145.0, 0.0009114733846201566
1146.0, 0.0008267286566346183
1147.0, 0.0008025937226549736
1148.0, 0.0007620688545612736
1149.0, 0.0007241072880553935
1150.0, 0.000653445728272726
1151.0, 0.0005899669611331012
1152.0, 0.0006805306915901757
1153.0, 0.0006445446789268783
1154.0, 0.000566617971615743
1155.0, 0.0005081677704320788
1156.0, 0.0005191430542134657
1157.0, 0.0005032748100019882
1158.0, 0.0003928776699057473
1159.0, 0.0003535393617199059
1160.0, 0.00023213854997120798
1161.0, 0.0002922316736344686
1162.0, 0.0002666177379317007
1163.0, 0.0003258171455805719
1164.0, 0.00019222134127259443
1165.0, 0.00020248847213481168
1166.0, 0.0002378687618480811
1167.0, 0.0001425525912656626
1168.0, 9.41257886004104e-05
1169.0, 0.00013429178569750462
1170.0, 7.623761724252668e-05
1171.0, 2.5026164609937793e-05
1172.0, 9.997692171690865e-05
1173.0, 7.845451880984183e-06
1174.0, 1.8886646759108246e-05
1175.0, 6.253264538486185e-05
1176.0, 1.0431488497629064e-05
1177.0, 6.008956877346331e-06
1178.0, 3.2619485725183925e-05
1179.0, 5.2434556442802364e-05
1180.0, 4.990426405780839e-05
1181.0, 2.6311098395368824e-05
1182.0, 0.00011439571112714308
1183.0, 8.757220048712943e-05
1184.0, 1.9163565422253437e-05
1185.0, 3.1216100564065885e-05
1186.0, 5.880023703674543e-05
1187.0, 1.482605108975587e-05
1188.0, 3.3331844361826704e-05
1189.0, 3.7598925266853304e-05
1190.0, 3.1038812264797744e-05
1191.0, 5.936530314571788e-05
1192.0, 3.238957629940166e-05
1193.0, 4.5045399440914366e-05
1194.0, 5.3932331768532776e-05
1195.0, 5.2799003612697056e-05
1196.0, 8.042697795473662e-05
1197.0, 0.00013497193478926198
1198.0, 9.371893515912292e-05
1199.0, 6.889865972811422e-05
1200.0, 0.0001600821192392961
1201.0, 0.00020970006358013638
1202.0, 0.00017780462128884602
1203.0, 0.00018399619038577417
1204.0, 0.00023593469650111208
1205.0, 0.0002759207923888856
1206.0, 0.00031170629322546596
1207.0, 0.00021981474161994526
1208.0, 0.00031061957004543933
1209.0, 0.000310945859433398
1210.0, 0.00032611160136014156
1211.0, 0.00039277875707313166
1212.0, 0.0004343571239838481
1213.0, 0.00040814591678563515
1214.0, 0.00036127150012768485
1215.0, 0.00039454179568468203
1216.0, 0.0004375225815391668
1217.0, 0.0003789060108768813
1218.0, 0.00040604132192221355
1219.0, 0.0004240393821187629
1220.0, 0.0004305087398117666
1221.0, 0.0004921504823192312
1222.0, 0.0004610715009804129
1223.0, 0.0004508828595168218
1224.0, 0.0005215467355272123
1225.0, 0.000544286383988899
1226.0, 0.0005366691120893142
1227.0, 0.0005450461550650228
1228.0, 0.000564930373818144
1229.0, 0.0006085428042165016
1230.0, 0.000639051646761074
1231.0, 0.0005745911178539285
1232.0, 0.0005680461525715085
1233.0, 0.0005811963041749121
1234.0, 0.0005361235461639539
1235.0, 0.0005181410754029571
1236.0, 0.0005039109347759774
1237.0, 0.00047978710343372016
1238.0, 0.00045188760135400326
1239.0, 0.0003760802563938859
1240.0, 0.0003138726396054594
1241.0, 0.00028192014192275443
1242.0, 0.00027285909727141144
1243.0, 0.0002928289039045388
1244.0, 0.00017713276049321014
1245.0, 0.00019261555169845394
1246.0, 0.0001274573489479434
1247.0, 2.45001032552784e-05
1248.0, 7.873984818659195e-05
1249.0, 0.00011196615999807487
1250.0, 0.00012000093952007025
1251.0, 9.505033812162757e-05
1252.0, 2.0123136917057468e-05
1253.0, 4.626163863913938e-05
1254.0, 2.9141409210089334e-05
1255.0, 2.9170653885907636e-05
1256.0, 2.662229494534132e-05
1257.0, 1.5442358994179916e-05
1258.0, 2.494558160070931e-05
1259.0, 0.00013370333324754733
1260.0, 0.00010732180212353476
1261.0, 0.00011749637184584113
1262.0, 2.3631121682467055e-05
1263.0, 3.524359566071043e-05
1264.0, 7.072258184519844e-05
1265.0, 8.448380950329256e-05
1266.0, 0.000108512666029922
1267.0, 0.00014687396317863204
1268.0, 0.00017836285939266055
1269.0, 0.0001749872797619954
1270.0, 0.0001994178813713884
1271.0, 0.0002925103921166673
1272.0, 0.00021271753322139403
1273.0, 0.0002829104942242459
1274.0, 0.0003282502823266931
1275.0, 0.0003580177170597466
1276.0, 0.00030527676486156465
1277.0, 0.00026445033300791465
1278.0, 0.0002627750338249928
1279.0, 0.00028348942427823017
1280.0, 0.00027099000402408015
1281.0, 0.00020961978054626196
1282.0, 0.00020236577776241248
1283.0, 0.00021668020200636286
1284.0, 0.00024038491738477677
1285.0, 0.00023371462889701454
1286.0, 0.0002065895693929317
1287.0, 0.00019965919387286495
1288.0, 0.00020206285468414987
1289.0, 0.00017166992067877044
1290.0, 0.00016614747492467758
1291.0, 0.0001717469611936832
1292.0, 0.00011595908833101364
1293.0, 0.00012442284281450944
1294.0, 0.000158317075574572
1295.0, 0.00012911212516071677
1296.0, 5.041290550182927e-05
1297.0, 1.8847957747180555e-06
1298.0, 5.627588626690606e-06
1299, 0.0
1300, 0.0
1301, 0.0
1302, 0.0
1303, 0.0
1304, 0.0
1305, 0.0
1306, 0.0
1307, 0.0
1308, 0.0
1309, 0.0
1310, 0.0
1311, 0.0
1312, 0.0
1313, 0.0
1314, 0.0
1315, 0.0
1316, 0.0
1317, 0.0
1318, 0.0
1319, 0.0
1320, 0.0
1321, 0.0
1322, 0.0
1323, 0.0
1324, 0.0
1325, 0.0
1326, 0.0
1327, 0.0
1328, 0.0
1329, 0.0
1330, 0.0
1331, 0.0
1332, 0.0
1333, 0.0
1334, 0.0
1335, 0.0
1336, 0.0
1337, 0.0
1338, 0.0
1339, 0.0
1340, 0.0
1341, 0.0
1342, 0.0
1343, 0.0
1344, 0.0
1345, 0.0
1346, 0.0
1347, 0.0
1348, 0.0
1349, 0.0
1350, 0.0
1351, 0.0
1352, 0.0
1353, 0.0
1354, 0.0
1355, 0.0
1356, 0.0
1357, 0.0
1358, 0.0
1359, 0.0
1360, 0.0
1361, 0.0
1362, 0.0
1363, 0.0
1364, 0.0
1365, 0.0
1366, 0.0
1367, 0.0
1368, 0.0
1369, 0.0
1370, 0.0
1371, 0.0
1372, 0.0
1373, 0.0
1374, 0.0
1375, 0.0
1376, 0.0
1377, 0.0
1378, 0.0
1379, 0.0
1380, 0.0
1381, 0.0
1382, 0.0
1383, 0.0
1384, 0.0
1385, 0.0
1386, 0.0
1387, 0.0
1388, 0.0
1389, 0.0
1390, 0.0
1391, 0.0
1392, 0.0
1393, 0.0
1394, 0.0
1395, 0.0
1396, 0.0
1397, 0.0
1398, 0.0
1399, 0.0
1400, 0.0
1401, 0.0
1402, 0.0
1403, 0.0
1404, 0.0
1405, 0.0
1406, 0.0
1407, 0.0
1408, 0.0
1409, 0.0
1410, 0.0
1411, 0.0
1412, 0.0
1413, 0.0
1414, 0.0
1415, 0.0
1416, 0.0
1417, 0.0
1418, 0.0
1419, 0.0
1420, 0.0
1421, 0.0
1422, 0.0
1423, 0.0
1424, 0.0
1425, 0.0
1426, 0.0
1427, 0.0
1428, 0.0
1429, 0.0
1430, 0.0
1431, 0.0
1432, 0.0
1433, 0.0
1434, 0.0
1435, 0.0
1436, 0.0
1437, 0.0
1438, 0.0
1439, 0.0
1440, 0.0
1441, 0.0
1442, 0.0
1443, 0.0
1444, 0.0
1445, 0.0
1446, 0.0
1447, 0.0
1448, 0.0
1449, 0.0
1450, 0.0
1451, 0.0
1452, 0.0
1453, 0.0
1454, 0.0
1455, 0.0
1456, 0.0
1457, 0.0
1458, 0.0
1459, 0.0
1460, 0.0
1461, 0.0
1462, 0.0
1463, 0.0
1464, 0.0
1465, 0.0
1466, 0.0
1467, 0.0
1468, 0.0
1469, 0.0
1470, 0.0
1471, 0.0
1472, 0.0
1473, 0.0
1474, 0.0
1475, 0.0
1476, 0.0
1477, 0.0
1478, 0.0
1479, 0.0
1480, 0.0
1481, 0.0
1482, 0.0
1483, 0.0
1484, 0.0
1485, 0.0
1486, 0.0
1487, 0.0
1488, 0.0
1489, 0.0
1490, 0.0
1491, 0.0
1492, 0.0
1493, 0.0
1494, 0.0
1495, 0.0
1496, 0.0
1497, 0.0
1498, 0.0
1499, 0.0
1500, 0.0
1501, 0.0
1502, 0.0
1503, 0.0
1504, 0.0
1505, 0.0
1506, 0.0
1507, 0.0
1508, 0.0
1509, 0.0
1510, 0.0
1511, 0.0
1512, 0.0
1513, 0.0
1514, 0.0
1515, 0.0
1516, 0.0
1517, 0.0
1518, 0.0
1519, 0.0
1520, 0.0
1521, 0.0
1522, 0.0
1523, 0.0
1524, 0.0
1525, 0.0
1526, 0.0
1527, 0.0
1528, 0.0
1529, 0.0
1530, 0.0
1531, 0.0
1532, 0.0
1533, 0.0
1534, 0.0
1535, 0.0
1536, 0.0
1537, 0.0
1538, 0.0
1539, 0.0
1540, 0.0
1541, 0.0
1542, 0.0
1543, 0.0
1544, 0.0
1545, 0.0
1546, 0.0
1547, 0.0
1548, 0.0
1549, 0.0
1550, 0.0
1551, 0.0
1552, 0.0
1553, 0.0
1554, 0.0
1555, 0.0
1556, 0.0
1557, 0.0
1558, 0.0
1559, 0.0
1560, 0.0
1561, 0.0
1562, 0.0
1563, 0.0
1564, 0.0
1565, 0.0
1566, 0.0
1567, 0.0
1568, 0.0
1569, 0.0
1570, 0.0
1571, 0.0
1572, 0.0
1573, 0.0
1574, 0.0
1575, 0.0
1576, 0.0
1577, 0.0
1578, 0.0
1579, 0.0
1580, 0.0
1581, 0.0
1582, 0.0
1583, 0.0
1584, 0.0
1585, 0.0
1586, 0.0
1587, 0.0
1588, 0.0
1589, 0.0
1590, 0.0
1591, 0.0
1592, 0.0
1593, 0.0
1594, 0.0
1595, 0.0
1596, 0.0
1597, 0.0
1598, 0.0
1599, 0.0
