30, 0.0
31, 0.0
32, 0.0
33, 0.0
34, 0.0
35, 0.0
36, 0.0
37, 0.0
38, 0.0
39, 0.0
40, 0.0
41, 0.0
42, 0.0
43, 0.0
44, 0.0
45, 0.0
46, 0.0
47, 0.0
48, 0.0
49, 0.0
50, 0.0
51, 0.0
52, 0.0
53, 0.0
54, 0.0
55, 0.0
56, 0.0
57, 0.0
58, 0.0
59, 0.0
60, 0.0
61, 0.0
62, 0.0
63, 0.0
64, 0.0
65, 0.0
66, 0.0
67, 0.0
68, 0.0
69, 0.0
70, 0.0
71, 0.0
72, 0.0
73, 0.0
74, 0.0
75, 0.0
76, 0.0
77, 0.0
78, 0.0
79, 0.0
80, 0.0
81, 0.0
82, 0.0
83, 0.0
84, 0.0
85, 0.0
86, 0.0
87, 0.0
88, 0.0
89, 0.0
90, 0.0
91, 0.0
92, 0.0
93, 0.0
94, 0.0
95, 0.0
96, 0.0
97, 0.0
98, 0.0
99, 0.0
100, 0.0
101, 0.0
102, 0.0
103, 0.0
104, 0.0
105, 0.0
106, 0.0
107, 0.0
108, 0.0
109, 0.0
110, 0.0
111, 0.0
112, 0.0
113, 0.0
114, 0.0
115, 0.0
116, 0.0
117, 0.0
118, 0.0
119, 0.0
120, 0.0
121, 0.0
122, 0.0
123, 0.0
124, 0.0
125, 0.0
126, 0.0
127, 0.0
128, 0.0
129, 0.0
130, 0.0
131, 0.0
132, 0.0
133, 0.0
134, 0.0
135, 0.0
136, 0.0
137, 0.0
138, 0.0
139, 0.0
140, 0.0
141, 0.0
142, 0.0
143, 0.0
144, 0.0
145, 0.0
146, 0.0
147, 0.0
148, 0.0
149, 0.0
150, 0.0
151, 0.0
152, 0.0
153, 0.0
154, 0.0
155, 0.0
156, 0.0
157, 0.0
158, 0.0
159, 0.0
160, 0.0
161.0, 0.008164995324139949
162.0, 0.021562607304748228
163.0, 0.0005504372238912459
164.0, 0.004479511485433092
165.0, 0.013288330317393439
166.0, 0.017386390636400566
167.0, 0.019566615599750686
168.0, 0.026825000477032554
169.0, 0.032928316412884275
170.0, 0.035280748453574345
171.0, 0.03837074696446376
172.0, 0.050490754767238646
173.0, 0.058078883694112154
174.0, 0.059615813008125615
175.0, 0.06184019485288761
176.0, 0.06939732061624446
177.0, 0.06088636913008828
178.0, 0.05860555279863547
179.0, 0.06274275812105148
180.0, 0.06803908431574394
181.0, 0.08731849478297318
182.0, 0.08433771618520465
183.0, 0.08840281567929638
184.0, 0.11059011264305606
185.0, 0.11331864879206455
186.0, 0.13381891934908333
187.0, 0.15089904812684396
188.0, 0.15860511655914292
189.0, 0.16869680086427438
190.0, 0.1615648315750101
191.0, 0.14792922399449068
192.0, 0.13369110367782291
193.0, 0.12260460308514609
194.0, 0.11976470960936503
195.0, 0.11781709736788773
196.0, 0.10040551460874786
197.0, 0.07637526583348182
198.0, 0.07538517275993253
199.0, 0.05962326353740404
200.0, 0.05686786041874739
201.0, 0.059724417093416075
202.0, 0.047481120519796235
203.0, 0.05513706703931453
204.0, 0.0526887100108497
205.0, 0.04060276934707323
206.0, 0.03154067816557623
207.0, 0.032531611957390974
208.0, 0.03874798681912728
209.0, 0.04284834812299921
210.0, 0.04043825819089543
211.0, 0.033719292844335315
212.0, 0.042418240979549
213.0, 0.03986642934899822
214.0, 0.037213450754808516
215.0, 0.04291415012593665
216.0, 0.044780255298979874
217.0, 0.03536374844154561
218.0, 0.035773245742676985
219.0, 0.039212251017392286
220.0, 0.02677901147829998
221.0, 0.016527414744336867
222.0, 0.015503685437682343
223.0, 0.023241713453405546
224.0, 0.03027284476200377
225.0, 0.020214455420756953
226.0, 0.02059577580401411
227.0, 0.024916069807325976
228.0, 0.02500759673037809
229.0, 0.021935384641236087
230.0, 0.004108818443753685
231.0, 0.004515772313353294
232.0, 0.016642702813210588
233.0, 0.02343328067163447
234.0, 0.017992064707910753
235.0, 0.019098880848933974
236.0, 0.023229504543317188
237.0, 0.01997725239159186
238.0, 0.006715677114046604
239.0, 0.018575743555642506
240.0, 0.01790227629319803
241.0, 0.01899679306607864
242.0, 0.030378578811185417
243.0, 0.018055716921584867
244.0, 0.021790469518305114
245.0, 0.013751758346551386
246.0, 0.002310683209162348
247.0, 0.0010236536193808962
248.0, 0.004355050890722997
249.0, 0.0043253393964869866
250.0, 0.0016688888027991122
251.0, 0.006135898893354538
252.0, 0.009119951633537815
253.0, 0.0063761391847708794
254.0, 0.007832214766411088
255.0, 0.00704262436848273
256.0, 0.0010265258210036233
257.0, 0.0021372296605443658
258.0, 0.00017553722567459015
259.0, 0.004809789984203072
260.0, 0.011896543404193195
261.0, 0.007829457460914057
262.0, 0.010079510182094043
263.0, 0.005416478289782752
264.0, 0.022608129323194
265.0, 0.03612798222191457
266.0, 0.013466849445088006
267.0, 0.0028525167522599525
268.0, 0.002774291093258184
269.0, 0.011893298814182097
270.0, 0.028370995278384107
271.0, 0.009052320308130756
272.0, 0.00801479413700645
273.0, 0.023894008050493458
274.0, 0.03206122649193604
275.0, 0.010461897223863367
276.0, 0.01312499779711378
277.0, 0.009239745408540242
278.0, 0.00563726002327929
279.0, 0.015357691834284135
280.0, 0.01608078589050423
281.0, 0.0030121000724462298
282.0, 0.003329448176623782
283.0, 0.004656468056881601
284.0, 0.011689110742265842
285.0, 0.00156979642130677
286.0, 0.004342745158604949
287.0, 0.009081793528106251
288.0, 0.015873969608520184
289.0, 0.013165126789400013
290.0, 0.0025511521059515332
291.0, 0.007065947850881711
292.0, 0.008616667555163573
293.0, 0.0035903219000093874
294.0, 0.004852589851488303
295.0, 0.0066894802487247095
296.0, 0.020083691317156666
297.0, 0.020300821762139373
298.0, 0.004976712706957197
299.0, 0.0009118215812857473
300.0, 0.003316601138626865
301.0, 0.015842159344724452
302.0, 0.037240800888969534
303.0, 0.02487558233565473
304.0, 0.02195167615302361
305.0, 0.039573639813494536
306.0, 0.0411767475202288
307.0, 0.026939807773723744
308.0, 0.03664952372632226
309.0, 0.04980124227934945
310.0, 0.05320410284144184
311.0, 0.04911281112293965
312.0, 0.04239660338293094
313.0, 0.03954654331365205
314.0, 0.05957728421493429
315.0, 0.062171337643478895
316.0, 0.05988666531062205
317.0, 0.07798642556536442
318.0, 0.08665629950808529
319.0, 0.08224975507120232
320.0, 0.08401824453680623
321.0, 0.09303324324446076
322.0, 0.09879374517318547
323.0, 0.1098860048272092
324.0, 0.13214081886610557
325.0, 0.13158539081268616
326.0, 0.11817605805130411
327.0, 0.12648149529477717
328.0, 0.1312690744181691
329.0, 0.1260411791916734
330.0, 0.13133581002521988
331.0, 0.14976317732735764
332.0, 0.16158602224418517
333.0, 0.1527832713805885
334.0, 0.1544893020218671
335.0, 0.1563062651384603
336.0, 0.14968506500848328
337.0, 0.1475976168579203
338.0, 0.15692382731731314
339.0, 0.16638855330827926
340.0, 0.16843509202578905
341.0, 0.163477662056548
342.0, 0.1577676317165867
343.0, 0.137344551598249
344.0, 0.1394654239921333
345.0, 0.154368274154975
346.0, 0.16084034410883222
347.0, 0.16486849960383473
348.0, 0.1526059636721235
349.0, 0.1389599453212449
350.0, 0.13017778777240283
351.0, 0.12364523401856671
352.0, 0.11332756121943756
353.0, 0.1191329979153382
354.0, 0.1259665922007033
355.0, 0.12896978850101137
356.0, 0.13118073923806528
357.0, 0.12897007022063417
358.0, 0.11606623110044406
359.0, 0.11646653724901092
360.0, 0.12271487807672195
361.0, 0.11795527408903261
362.0, 0.1153085521911185
363.0, 0.11004497940341323
364.0, 0.11686763835528291
365.0, 0.1251763501664199
366.0, 0.12685377559047328
367.0, 0.14596814620392218
368.0, 0.14974570108451554
369.0, 0.149667873883388
370.0, 0.15129643275854787
371.0, 0.1563965115869895
372.0, 0.17599798782556098
373.0, 0.1661170327919305
374.0, 0.15775995306172647
375.0, 0.16531270794622524
376.0, 0.18210987804873577
377.0, 0.18240719218204113
378.0, 0.17206793548575933
379.0, 0.17951103183134123
380.0, 0.1927459130336584
381.0, 0.1844630865378836
382.0, 0.17794046375200887
383.0, 0.18114699572364698
384.0, 0.1716430395376714
385.0, 0.16132111194684523
386.0, 0.17078215328955057
387.0, 0.17130752134879318
388.0, 0.16429685658778864
389.0, 0.15583566768388904
390.0, 0.1499768112468236
391.0, 0.15026018042500142
392.0, 0.15870496923583136
393.0, 0.14344718450522603
394.0, 0.13597945866720926
395.0, 0.12912042408558724
396.0, 0.11304976000229772
397.0, 0.10199568460340143
398.0, 0.1088041069609731
399.0, 0.11076687708997313
400.0, 0.1078665719356221
401.0, 0.10620860977453007
402.0, 0.10625081509673329
403.0, 0.09668426917004085
404.0, 0.10207130281509787
405.0, 0.09425744224804578
406.0, 0.07351187657406041
407.0, 0.08322488728677178
408.0, 0.09614545939637405
409.0, 0.08701688140241814
410.0, 0.07479468631273993
411.0, 0.07806935579603591
412.0, 0.09110525612074377
413.0, 0.0825262430123507
414.0, 0.0635694430216498
415.0, 0.059314566433592626
416.0, 0.06559402893225706
417.0, 0.06165824590619089
418.0, 0.04392536420055864
419.0, 0.030540613331310324
420.0, 0.02777595235466483
421.0, 0.030294172103025967
422.0, 0.02851536528479193
423.0, 0.024794366442130147
424.0, 0.031929593924732845
425.0, 0.027275049874982797
426.0, 0.015297545790442875
427.0, 0.010168230607298684
428.0, 0.0052703102864076696
429.0, 0.009646395493223997
430.0, 0.011004712478190362
431.0, 0.012758040607306502
432.0, 0.007950030067723565
433.0, 0.014032723006618923
434.0, 0.004580802501202323
435.0, 0.0019296641792257378
436.0, 0.0051770030841892896
437.0, 0.005602034653101672
438.0, 0.0041779892860655775
439.0, 0.008140549611988747
440.0, 0.0031870572501177183
441.0, 0.005832380327965286
442.0, 0.0054538690610125146
443.0, 0.00478086152231022
444.0, 0.0037183828968292013
445.0, 0.001491042381932288
446.0, 0.0023704640905261795
447.0, 0.005141726273941873
448.0, 0.007550100813396797
449.0, 0.011104605523372653
450.0, 0.0024849680566885377
451.0, 0.0070968163209235696
452.0, 0.00602205307991104
453.0, 0.0037299012772045084
454.0, 0.0053484333783427075
455.0, 0.01673459758126839
456.0, 0.0024121011445593947
457.0, 0.006161093997598737
458.0, 0.0010668503241213476
459.0, 0.00645530934804729
460.0, 0.0015846397625569845
461.0, 0.006188777343467962
462.0, 0.005617160657195095
463.0, 0.004929456111159576
464.0, 0.006858841490785274
465.0, 0.00331332479678362
466.0, 0.007618142075058562
467.0, 0.005415493262438923
468.0, 0.004464689316753441
469.0, 0.009696055427962896
470.0, 0.01518182714768576
471.0, 0.006399298548176513
472.0, 0.010657719288871777
473.0, 0.01754123824842746
474.0, 0.019308007598877394
475.0, 0.016365029288715208
476.0, 0.01699258073307887
477.0, 0.017565866478596825
478.0, 0.010446198360887464
479.0, 0.01053284150649128
480.0, 0.013871814069457882
481.0, 0.009240221383886128
482.0, 0.02237825116479213
483.0, 0.021794832117161513
484.0, 0.014829561275422327
485.0, 0.021277787561022825
486.0, 0.03536937574846371
487.0, 0.02846158124019166
488.0, 0.016140610281037148
489.0, 0.021976320384210067
490.0, 0.0323538966549279
491.0, 0.026938432503146818
492.0, 0.012342050107510948
493.0, 0.021562669073927898
494.0, 0.017850134964661816
495.0, 0.017546894805476342
496.0, 0.025498765218152298
497.0, 0.024265035995925964
498.0, 0.01093365441605538
499.0, 0.025561157615212615
500.0, 0.0285798817322598
501.0, 0.024269688006559344
502.0, 0.025090919713595405
503.0, 0.034840368483500285
504.0, 0.04570310518122662
505.0, 0.05086503143226025
506.0, 0.049363093631085465
507.0, 0.04968746365300003
508.0, 0.04991957906814108
509.0, 0.0454401624556754
510.0, 0.06591591879716639
511.0, 0.06724288559507739
512.0, 0.07373883669990783
513.0, 0.08732616228816255
514.0, 0.08772552755541332
515.0, 0.06784097128066092
516.0, 0.0704600633490238
517.0, 0.07096340468814018
518.0, 0.07430692137310504
519.0, 0.07026534982069337
520.0, 0.05450756064008016
521.0, 0.06128045383234278
522.0, 0.05438361279271298
523.0, 0.02995444531408594
524.0, 0.0316598971626263
525.0, 0.055632990135180416
526.0, 0.056350877516162814
527.0, 0.07040865751613487
528.0, 0.05873123052286765
529.0, 0.05369133161179543
530.0, 0.06293417384406563
531.0, 0.07080442631927855
532.0, 0.06742471875202294
533.0, 0.07744068964550903
534.0, 0.08603513023226081
535.0, 0.10085463336922308
536.0, 0.11381414850872218
537.0, 0.11315939072456027
538.0, 0.10411571772666693
539.0, 0.10464450883501412
540.0, 0.12092233168322739
541.0, 0.12673688867853172
542.0, 0.1269280764560971
543.0, 0.139899271236651
544.0, 0.1426043523447268
545.0, 0.1498386885847986
546.0, 0.13357877029582219
547.0, 0.13709216750256645
548.0, 0.1533413073339063
549.0, 0.14502431135665736
550.0, 0.17118171866485096
551.0, 0.17362960493766813
552.0, 0.1759976380004214
553.0, 0.17734179084709067
554.0, 0.17687848593838637
555.0, 0.18664194287637975
556.0, 0.18813119564180641
557.0, 0.19859567013618246
558.0, 0.1928057668487398
559.0, 0.19213875187558668
560.0, 0.1971945086125657
561.0, 0.1788266460994968
562.0, 0.17493947623832506
563.0, 0.17194323894719515
564.0, 0.16359934802297701
565.0, 0.1593329364902618
566.0, 0.16470493387006452
567.0, 0.16687943333670832
568.0, 0.15188769455116682
569.0, 0.14534353854704338
570.0, 0.148838683040356
571.0, 0.15239758362971892
572.0, 0.1456123000237824
573.0, 0.1285311678463196
574.0, 0.1212818525594554
575.0, 0.11153596597819891
576.0, 0.11298624085247373
577.0, 0.12145764799255353
578.0, 0.12388184165646621
579.0, 0.1159277599828306
580.0, 0.10621029634816896
581.0, 0.09043824243599666
582.0, 0.09337705834089263
583.0, 0.10711357745191825
584.0, 0.10899019573774218
585.0, 0.09293285595785353
586.0, 0.06625622288396354
587.0, 0.08758689685183542
588.0, 0.09774963364269071
589.0, 0.09625355126575671
590.0, 0.09878674497996374
591.0, 0.09234152586317276
592.0, 0.08289797011251598
593.0, 0.08515848556152404
594.0, 0.07555634209522748
595.0, 0.07097506973568261
596.0, 0.07492142530672688
597.0, 0.06235461306839673
598.0, 0.06510165782555352
599.0, 0.056278986634684405
600.0, 0.05243579576398095
601.0, 0.052755817209196296
602.0, 0.047526258372430255
603.0, 0.03534035103104317
604.0, 0.024628433337787886
605.0, 0.025289833295090526
606.0, 0.024377363233366783
607.0, 0.03350163011351885
608.0, 0.03430759923679219
609.0, 0.007336722165438916
610.0, 0.010724082212785466
611.0, 0.011755739639527807
612.0, 0.0037428357218651513
613.0, 0.00728946062714996
614.0, 0.015934356326692333
615.0, 0.009842948414764453
616.0, 0.008926207269339936
617.0, 0.005551558387496531
618.0, 0.0016442697371150746
619.0, 0.004507547676283477
620.0, 0.004129717766231724
621.0, 0.0031093500657058465
622.0, 0.0043026750116387045
623.0, 0.006752425187424443
624.0, 0.010959514004380017
625.0, 0.006406060431582227
626.0, 0.0012853213626548609
627.0, 0.0027109673418401785
628.0, 0.0028154920266260436
629.0, 0.01534395968746325
630.0, 0.0024595002416678002
631.0, 0.006067090648139721
632.0, 0.01044959385706179
633.0, 0.0014200378315317713
634.0, 0.013358087885150593
635.0, 0.0045389101883304955
636.0, 0.0009763052890417209
637.0, 0.0021686679340838884
638.0, 0.007994743367137713
639.0, 0.006983088201760485
640.0, 0.0033255959155745396
641.0, 0.011200516622199874
642.0, 0.013774859484679507
643.0, 0.0317599222463471
644.0, 0.036285859498128015
645.0, 0.035273080290967686
646.0, 0.039887757482886026
647.0, 0.042523748094632996
648.0, 0.0371093336292738
649.0, 0.06545593379316791
650.0, 0.055756039113756296
651.0, 0.051327854574397175
652.0, 0.05363645660239934
653.0, 0.05710361308302029
654.0, 0.08002189509550776
655.0, 0.08823247334404193
656.0, 0.09135465793533547
657.0, 0.09281956208122821
658.0, 0.10562411233067438
659.0, 0.1266269889270852
660.0, 0.14073558017357007
661.0, 0.14574460375315162
662.0, 0.15476951670515468
663.0, 0.17656198559906686
664.0, 0.1919299014258281
665.0, 0.22267587948262688
666.0, 0.26613902437091475
667.0, 0.2884339878756386
668.0, 0.33922601893401233
669.0, 0.3843589226496573
670.0, 0.41670239417868576
671.0, 0.46051566091824797
672.0, 0.5170514214790994
673.0, 0.5777533606700239
674.0, 0.6482839133461322
675.0, 0.7095517151127178
676.0, 0.7794886029705029
677.0, 0.8480950100949576
678.0, 0.9091941666714674
679.0, 0.9616179830665383
680.0, 0.996917596511524
681.0, 0.9895095065166407
682.0, 0.9492806627900696
683.0, 0.9085372878233581
684.0, 0.8501836615345845
685.0, 0.7679149748002371
686.0, 0.6776554567251872
687.0, 0.5937323655329966
688.0, 0.5193987171006962
689.0, 0.46910950572271753
690.0, 0.39468669107309334
691.0, 0.33163198428218627
692.0, 0.2952060170008535
693.0, 0.26600744296657475
694.0, 0.23235312228794483
695.0, 0.1965339168908191
696.0, 0.1730972376839216
697.0, 0.1406257542246892
698.0, 0.14439870424140788
699.0, 0.1457820668732202
700.0, 0.10754277341778701
701.0, 0.09590741078844656
702.0, 0.09829707633443388
703.0, 0.08936429889405398
704.0, 0.09251989174979204
705.0, 0.08596944736893193
706.0, 0.07070059158442264
707.0, 0.07131009182794458
708.0, 0.08275235928477248
709.0, 0.06679340574712324
710.0, 0.06557388924172107
711.0, 0.06101692773781018
712.0, 0.06256818411372995
713.0, 0.059050957511041655
714.0, 0.04427858304928311
715.0, 0.04952333216873585
716.0, 0.05648733748807504
717.0, 0.04267230726828786
718.0, 0.04368775416289355
719.0, 0.04703102533250959
720.0, 0.044213837181219226
721.0, 0.0328571842310366
722.0, 0.012871857276951669
723.0, 0.03805754959721595
724.0, 0.04707584683149796
725.0, 0.018820777732236574
726.0, 0.011571442297817914
727.0, 0.02926118798595887
728.0, 0.03469193952260832
729.0, 0.030329117267918634
730.0, 0.04404913997749096
731.0, 0.03190020816112905
732.0, 0.031556885347855744
733.0, 0.0352868004820373
734.0, 0.03115310668844746
735.0, 0.025200241905452683
736.0, 0.02278658825919039
737.0, 0.02873463024105162
738.0, 0.03946502699181703
739.0, 0.030952949992913287
740.0, 0.014969967457994773
741.0, 0.011391478727697038
742.0, 0.020619648599143097
743.0, 0.022319463292991993
744.0, 0.014530062298744683
745.0, 0.019109089155275854
746.0, 0.01584133760402564
747.0, 0.014613654207082513
748.0, 0.01544878194794098
749.0, 0.013099640665843876
750.0, 0.014529159418170267
751.0, 0.0286427833967886
752.0, 0.012131518545211613
753.0, 0.0075152390084030326
754.0, 0.0009952305812309856
755.0, 0.003268376292143543
756.0, 0.0010911693350832917
757.0, 0.0015032475522571006
758.0, 0.005464179958047145
759.0, 0.003133605322020429
760.0, 0.019770632367710716
761.0, 0.006995740272473018
762.0, 0.003023476344890331
763.0, 0.004429147943655129
764.0, 0.012174740844642734
765.0, 0.012961980288915695
766.0, 0.007274789762232219
767.0, 0.005271076306020415
768.0, 0.005231565653746886
769.0, 0.016350054819069457
770.0, 0.009871281243341015
771.0, 0.0020672791639290236
772.0, 0.012008999209066293
773.0, 0.015641150153568227
774.0, 0.012724394664985017
775.0, 0.017749385333725606
776.0, 0.010833917178859802
777.0, 0.003457026846290099
778.0, 0.00407253603021046
779.0, 0.01686584790965305
780.0, 0.017511111682721955
781.0, 0.01097035765784344
782.0, 0.020637259864706253
783.0, 0.013539580470012795
784.0, 0.004073515513157477
785.0, 0.013492970290872546
786.0, 0.01417700935878301
787.0, 0.0025178380447264527
788.0, 0.0012339411954836394
789.0, 0.0014934493250274065
790.0, 0.019126978965885867
791.0, 0.021753361612818295
792.0, 0.013210673243734528
793.0, 0.004225874979364048
794.0, 0.00703577164911621
795.0, 0.010479822838109385
796.0, 0.008187213061408245
797.0, 0.011198306234633729
798.0, 0.009461879272726903
799.0, 0.0011795079372302268
800.0, 0.002646671479753946
801.0, 0.011512471201402044
802.0, 0.012449647050410202
803.0, 0.003142603043085598
804.0, 0.006467004298012006
805.0, 0.013344141679503688
806.0, 0.023910469561272876
807.0, 0.009705120819497056
808.0, 0.0068359385393067
809.0, 0.016030504491246735
810.0, 0.01582899760353325
811.0, 0.008527058934699228
812.0, 0.020657128564410755
813.0, 0.03125667559696546
814.0, 0.021549028724416722
815.0, 0.012295209630667244
816.0, 0.011270571947888946
817.0, 0.019086625052412157
818.0, 0.02560429784810576
819.0, 0.021854487482957197
820.0, 0.014309274477408622
821.0, 0.0012152611911617956
822.0, 0.03208508303599769
823.0, 0.02358885226477011
824.0, 0.01677768260429212
825.0, 0.025642194331038686
826.0, 0.026354606060129803
827.0, 0.015443150475130058
828.0, 0.015954583831084043
829.0, 0.019951237944694947
830.0, 0.01683339630353953
831.0, 0.016671112217427314
832.0, 0.026455138795102067
833.0, 0.023259424458775612
834.0, 0.014012963241359738
835.0, 0.016835983244814275
836.0, 0.007799105387492785
837.0, 0.018932831741757923
838.0, 0.011484147304428802
839.0, 0.018353122488803764
840.0, 0.01690226336603198
841.0, 0.014264700870830706
842.0, 0.02253120921143565
843.0, 0.025096927635609598
844.0, 0.014070264939586944
845.0, 0.015831388403636817
846.0, 0.01734906301961718
847.0, 0.02411291130480207
848.0, 0.03571990513785572
849.0, 0.023142461522819822
850.0, 0.018300759766330943
851.0, 0.030131460052879255
852.0, 0.025743992899675352
853.0, 0.017638220084654904
854.0, 0.02346666577284296
855.0, 0.016105989485016698
856.0, 0.01523462125342508
857.0, 0.01942111329052115
858.0, 0.03186243519343115
859.0, 0.039494825484874485
860.0, 0.02258279295343764
861.0, 0.0023763156115559096
862.0, 0.008369398643777393
863.0, 0.014415609640979998
864.0, 0.009997810878456644
865.0, 0.02292896836473388
866.0, 0.025721604475355923
867.0, 0.023209708086876817
868.0, 0.02212734430642742
869.0, 0.026743923105636423
870.0, 0.01631689327290361
871.0, 0.023072740451425672
872.0, 0.028270504964347812
873.0, 0.030563511173761555
874.0, 0.026873309872713174
875.0, 0.02220209284426146
876.0, 0.02082746692542702
877.0, 0.029559766084015934
878.0, 0.04110370304253377
879.0, 0.024581313359327537
880.0, 0.029402158934905376
881.0, 0.03411957354239685
882.0, 0.024902947152754106
883.0, 0.030742020304753374
884.0, 0.04113527631882452
885.0, 0.03722870356974899
886.0, 0.03151937383912781
887.0, 0.03471401964815331
888.0, 0.04117521561648483
889.0, 0.04446787040911736
890.0, 0.026356148064977103
891.0, 0.035090066375553834
892.0, 0.03797946248784037
893.0, 0.03373196374508591
894.0, 0.021637640870618906
895.0, 0.012698655130132797
896.0, 0.03155377413692039
897.0, 0.04659388798062233
898.0, 0.03633746270977944
899.0, 0.03897846788559797
900.0, 0.04155761868074458
901.0, 0.041907335524329674
902.0, 0.04342110438300732
903.0, 0.04524915374844173
904.0, 0.046894694359518284
905.0, 0.04378652603840742
906.0, 0.038314453161850046
907.0, 0.037270161244536984
908.0, 0.03626480803354423
909.0, 0.03475817925999579
910.0, 0.035493637527187254
911.0, 0.0339829150204379
912.0, 0.043774744489445426
913.0, 0.05742311242298292
914.0, 0.05458994990476392
915.0, 0.04962091225008454
916.0, 0.048072173749138344
917.0, 0.059024289835823016
918.0, 0.04644207248652165
919.0, 0.04197925504051135
920.0, 0.04388911386007741
921.0, 0.04327300377786086
922.0, 0.034244203917696885
923.0, 0.024670774390309874
924.0, 0.03573476210805802
925.0, 0.02581538900333119
926.0, 0.030325986598741677
927.0, 0.01632976615680209
928.0, 0.016599344978373242
929.0, 0.018436820761703946
930.0, 0.021795292673592752
931.0, 0.030618919307589917
932.0, 0.027307751692939346
933.0, 0.015095337362096665
934.0, 0.027284917116201516
935.0, 0.021455039114786807
936.0, 0.01617128465031768
937.0, 0.012211557388566394
938.0, 0.020315084136129966
939.0, 0.01910028732465556
940.0, 0.012266192637079005
941.0, 0.005800451240056066
942.0, 0.0015638397762185348
943.0, 0.007897341394929511
944.0, 0.00924012419956347
945.0, 0.003970526085276329
946.0, 0.001845379466642192
947.0, 0.005581010563926558
948.0, 0.0035829745454119656
949.0, 0.00713893136547577
950.0, 0.004218029968431442
951.0, 0.0061683415813828845
952.0, 0.0023330071904111224
953.0, 0.004131785670794616
954.0, 0.01527556867299568
955.0, 0.010966666782920145
956.0, 0.002690781116150548
957.0, 0.006379106740035914
958.0, 0.01574608657011876
959.0, 0.005352584604205267
960.0, 0.004062986098731502
961.0, 0.0008531217466454287
962.0, 0.0011241144220406906
963.0, 0.0012400614234047164
964.0, 0.002674392042119436
965.0, 0.004237059951526224
966.0, 0.010074638076287275
967.0, 0.007232029392865367
968.0, 0.005079369968781198
969.0, 0.011271640066594854
970.0, 0.01459717752815871
971.0, 0.004738961770481238
972.0, 0.0036717976533080293
973.0, 0.015344294773983125
974.0, 0.006801250771599488
975.0, 0.0297299301351972
976.0, 0.018690682167566024
977.0, 0.02277239421534197
978.0, 0.035544102291463965
979.0, 0.04749508445552142
980.0, 0.031700375524601865
981.0, 0.026381181401528724
982.0, 0.038346949904191296
983.0, 0.03606983556028738
984.0, 0.030922487038900857
985.0, 0.04258870694236171
986.0, 0.05275750448319925
987.0, 0.0444161093691686
988.0, 0.06053973924661993
989.0, 0.07818893686999376
990.0, 0.0861374035753823
991.0, 0.08391401451719013
992.0, 0.09707975622676701
993.0, 0.10871877604746011
994.0, 0.09943540273756588
995.0, 0.1143540031800457
996.0, 0.13536989674535707
997.0, 0.14747840425665318
998.0, 0.14337928206440842
999.0, 0.1716144897634669
1000.0, 0.17937425076118857
1001.0, 0.19610747855265248
1002.0, 0.21300055220662992
1003.0, 0.2278063067391097
1004.0, 0.24209963864463568
1005.0, 0.2508307936161374
1006.0, 0.25928081547964466
1007.0, 0.26356712688864303
1008.0, 0.27770993806124944
1009.0, 0.2792428195153189
1010.0, 0.2921780379230534
1011.0, 0.311734623182566
1012.0, 0.3100240409033782
1013.0, 0.3222676565276221
1014.0, 0.3249969747556807
1015.0, 0.3190374590506558
1016.0, 0.32905078777058094
1017.0, 0.3279102386206374
1018.0, 0.33425278203357717
1019.0, 0.34655716292240696
1020.0, 0.34934609784323783
1021.0, 0.34277228214223016
1022.0, 0.3340613591251196
1023.0, 0.31619838579796367
1024.0, 0.3127617655801005
1025.0, 0.32026706622666673
1026.0, 0.31180693892942374
1027.0, 0.2931358305060107
1028.0, 0.2828430769969308
1029.0, 0.26282471038631716
1030.0, 0.26059452588425913
1031.0, 0.2526855786571887
1032.0, 0.23957475446947882
1033.0, 0.21424626739107172
1034.0, 0.1861511098749256
1035.0, 0.1884115408416706
1036.0, 0.19351511693984352
1037.0, 0.17515746222383582
1038.0, 0.1568170223722428
1039.0, 0.14755101838040685
1040.0, 0.14211028342053636
1041.0, 0.13799367977541602
1042.0, 0.12937246950139328
1043.0, 0.12074649079093522
1044.0, 0.11871834756968733
1045.0, 0.11527805942275748
1046.0, 0.10170197713586625
1047.0, 0.10189491351667244
1048.0, 0.09406532100398189
1049.0, 0.08709946787883772
1050.0, 0.08508838507954886
1051.0, 0.08595780418102174
1052.0, 0.08872536462975218
1053.0, 0.08252637616201423
1054.0, 0.07593843789695767
1055.0, 0.06860381764520451
1056.0, 0.07632957896839972
1057.0, 0.07052709217890785
1058.0, 0.06269476862532912
1059.0, 0.07088664080591357
1060.0, 0.05897348974652043
1061.0, 0.06329116076775715
1062.0, 0.060063317631714505
1063.0, 0.047760302984918034
1064.0, 0.0521077399749991
1065.0, 0.050399430899848816
1066.0, 0.038424290038385774
1067.0, 0.03669595959860908
1068.0, 0.03279730373360967
1069.0, 0.04590676714788828
1070.0, 0.030114157993401586
1071.0, 0.031019878891828785
1072.0, 0.033982377184415276
1073.0, 0.03178517370830293
1074.0, 0.019106140291358258
1075.0, 0.02118586556318359
1076.0, 0.03092856698146674
1077.0, 0.024704648590652745
1078.0, 0.01699723884128558
1079.0, 0.013438478088947643
1080.0, 0.007846213562839748
1081.0, 0.019281191326312067
1082.0, 0.03272491091414584
1083.0, 0.03292607256611786
1084.0, 0.01764814251849088
1085.0, 0.01599160516922612
1086.0, 0.018257394177231285
1087.0, 0.006708122676939452
1088.0, 0.009273238788207593
1089.0, 0.011749427665277536
1090.0, 0.009910777348712435
1091.0, 0.015521948619227894
1092.0, 0.007313789264841375
1093.0, 0.004750602796989291
1094.0, 0.000760022327033311
1095.0, 0.0008557168645440697
1096.0, 0.0028826239943569674
1097.0, 0.020169797607569876
1098.0, 0.011627576768493691
1099.0, 0.00531848796111371
1100.0, 0.0068008805218667985
1101.0, 0.017119216408092542
1102.0, 0.015554734281181476
1103.0, 0.014631678131424488
1104.0, 0.004829271001176333
1105.0, 0.0019628457239985395
1106.0, 0.010977780029028926
1107.0, 0.008145562223491344
1108.0, 0.012934753051805997
1109.0, 0.016500387755334175
1110.0, 0.023393005681393048
1111.0, 0.004066242306609092
1112.0, 0.012621274618243373
1113.0, 0.003271748652958631
1114.0, 0.0041992773388359215
1115.0, 0.007422014815427328
1116.0, 0.007556991890953307
1117.0, 0.0009329142409667582
1118.0, 0.0016933608722701245
1119.0, 0.00124204448006915
1120.0, 0.0034604814941933747
1121.0, 0.011919599269109135
1122.0, 0.0026412757706588018
1123.0, 0.003521722827902774
1124.0, 0.011780521017684141
1125.0, 0.014783767874244031
1126.0, 0.011615068289434287
1127.0, 0.02123735578889414
1128.0, 0.018675857252402017
1129.0, 0.0126180289211539
1130.0, 0.004943263195754447
1131.0, 0.003117278510132911
1132.0, 0.0068621433188046695
1133.0, 0.014850123471801995
1134.0, 0.005898341963890101
1135.0, 0.009119625188634677
1136.0, 0.014374648576180026
1137.0, 0.010100587201062496
1138.0, 0.013083971893773498
1139.0, 0.019764625500791
1140.0, 0.013677121639643647
1141.0, 0.007408014821618658
1142.0, 0.005735682816064652
1143.0, 0.013497643085038216
1144.0, 0.03131463848103945
1145.0, 0.021681479094933297
1146.0, 0.005120108642865642
1147.0, 0.004191414528773108
1148.0, 0.008271681736539102
1149.0, 0.009967710160399273
1150.0, 0.013003945813395272
1151.0, 0.011818032362061871
1152.0, 0.008599894327427856
1153.0, 0.007351050507375115
1154.0, 0.008401305203175273
1155.0, 0.004040256612751993
1156.0, 0.00414092209248622
1157.0, 0.016673158283764273
1158.0, 0.014146303071037054
1159.0, 0.006565638761197964
1160.0, 0.012901135352666087
1161.0, 0.012586841165610194
1162.0, 0.0015627970041995325
1163.0, 0.009355532009246718
1164.0, 0.007533647999495305
1165.0, 0.0058771327889850945
1166.0, 0.019850112237209137
1167.0, 0.018967861315065955
1168.0, 0.004897160924103309
1169.0, 0.017690153118699082
1170.0, 0.016662849125699312
1171.0, 0.006997184353515776
1172.0, 0.00017421931016952405
1173.0, 0.004526538161526724
1174.0, 0.015680050900896778
1175.0, 0.0185026185884375
1176.0, 0.017269768333527374
1177.0, 0.027901506226372757
1178.0, 0.009432089488870955
1179.0, 0.013129458311524976
1180.0, 0.007055970033430871
1181.0, 0.02319120212559689
1182.0, 0.03004458956688251
1183.0, 0.023105882949812803
1184.0, 0.01961906099072995
1185.0, 0.01683992960616232
1186.0, 0.01632872256206119
1187.0, 0.029435125772610947
1188.0, 0.013012179778029773
1189.0, 0.02155664996415409
1190.0, 0.028487144457958923
1191.0, 0.025520276135432687
1192.0, 0.024367977475462987
1193.0, 0.02476956292223015
1194.0, 0.02632033894605441
1195.0, 0.023327725052552897
1196.0, 0.01137667667446374
1197.0, 0.011519048792606262
1198.0, 0.018225611780863293
1199.0, 0.014811334848518912
1200.0, 0.03264658513969967
1201.0, 0.03986736477055354
1202.0, 0.02751317359994852
1203.0, 0.021407114934508944
1204.0, 0.01623194301204327
1205.0, 0.01478824457828234
1206.0, 0.013885009652197987
1207.0, 0.02700428530954768
1208.0, 0.01664055069009219
1209.0, 0.01726574264879182
1210.0, 0.01728241177638452
1211.0, 0.03925730091690098
1212.0, 0.023714149880042182
1213.0, 0.02396948094671673
1214.0, 0.016444108892882052
1215.0, 0.014829464643209432
1216.0, 0.023282485481916023
1217.0, 0.029611220005514582
1218.0, 0.025411097907968687
1219.0, 0.020905270733279153
1220.0, 0.02421362682057111
1221.0, 0.022837227871830536
1222.0, 0.020083970314321443
1223.0, 0.017973323619949407
1224.0, 0.019676501807378084
1225.0, 0.02764002892920649
1226.0, 0.015129102545038258
1227.0, 0.00898650647521801
1228.0, 0.0252962935290134
1229.0, 0.029454245247322347
1230.0, 0.02078870513377366
1231.0, 0.018378874943771457
1232.0, 0.026525899564187508
1233.0, 0.0042684274180293654
1234.0, 0.0024662231826904223
1235.0, 0.011596822419900014
1236.0, 0.011132690596158054
1237.0, 0.024200237285155343
1238.0, 0.019807348208915627
1239.0, 0.007345546432941383
1240.0, 0.013216967704055987
1241.0, 0.006638612789061927
1242.0, 0.003454107686353164
1243.0, 0.009423989318097264
1244.0, 0.008020244166410388
1245.0, 0.008576376328220486
1246.0, 0.030760523771087345
1247.0, 0.0310145908635572
1248.0, 0.013896625658576633
1249.0, 0.03213424954779297
1250.0, 0.028345819833346844
1251.0, 0.02399749965564327
1252.0, 0.022240487583406677
1253.0, 0.022355797519001474
1254.0, 0.023403418033411953
1255.0, 0.016577548833021125
1256.0, 0.010986061905893133
1257.0, 0.01652338413904507
1258.0, 0.014996817504435366
1259.0, 0.013001330962111984
1260.0, 0.009196205256180062
1261.0, 0.00940282100075917
1262.0, 0.01031112766774225
1263.0, 0.015290703344737191
1264.0, 0.0036649631842099756
1265.0, 0.010786412054420647
1266.0, 0.017323116057888496
1267.0, 0.007243141656631738
1268.0, 0.009773777909839524
1269.0, 0.0294443008020015
1270.0, 0.030907320831535235
1271.0, 0.01385542621243348
1272.0, 0.009523248326044441
1273.0, 0.012427160688111023
1274.0, 0.012201900064246552
1275.0, 0.02370761314835054
1276.0, 0.018512207477906967
1277.0, 0.014913254080600694
1278.0, 0.019541376926264037
1279.0, 0.012070133780926768
1280.0, 0.002466270549712748
1281.0, 0.00988103170937087
1282.0, 0.01891961131986145
1283.0, 0.005916975625105419
1284.0, 0.008624109102638321
1285.0, 0.0032561582729855763
1286, 0.0
1287, 0.0
1288, 0.0
1289, 0.0
1290, 0.0
1291, 0.0
1292, 0.0
1293, 0.0
1294, 0.0
1295, 0.0
1296, 0.0
1297, 0.0
1298, 0.0
1299, 0.0
1300, 0.0
1301, 0.0
1302, 0.0
1303, 0.0
1304, 0.0
1305, 0.0
1306, 0.0
1307, 0.0
1308, 0.0
1309, 0.0
1310, 0.0
1311, 0.0
1312, 0.0
1313, 0.0
1314, 0.0
1315, 0.0
1316, 0.0
1317, 0.0
1318, 0.0
1319, 0.0
1320, 0.0
1321, 0.0
1322, 0.0
1323, 0.0
1324, 0.0
1325, 0.0
1326, 0.0
1327, 0.0
1328, 0.0
1329, 0.0
1330, 0.0
1331, 0.0
1332, 0.0
1333, 0.0
1334, 0.0
1335, 0.0
1336, 0.0
1337, 0.0
1338, 0.0
1339, 0.0
1340, 0.0
1341, 0.0
1342, 0.0
1343, 0.0
1344, 0.0
1345, 0.0
1346, 0.0
1347, 0.0
1348, 0.0
1349, 0.0
1350, 0.0
1351, 0.0
1352, 0.0
1353, 0.0
1354, 0.0
1355, 0.0
1356, 0.0
1357, 0.0
1358, 0.0
1359, 0.0
1360, 0.0
1361, 0.0
1362, 0.0
1363, 0.0
1364, 0.0
1365, 0.0
1366, 0.0
1367, 0.0
1368, 0.0
1369, 0.0
1370, 0.0
1371, 0.0
1372, 0.0
1373, 0.0
1374, 0.0
1375, 0.0
1376, 0.0
1377, 0.0
1378, 0.0
1379, 0.0
1380, 0.0
1381, 0.0
1382, 0.0
1383, 0.0
1384, 0.0
1385, 0.0
1386, 0.0
1387, 0.0
1388, 0.0
1389, 0.0
1390, 0.0
1391, 0.0
1392, 0.0
1393, 0.0
1394, 0.0
1395, 0.0
1396, 0.0
1397, 0.0
1398, 0.0
1399, 0.0
1400, 0.0
1401, 0.0
1402, 0.0
1403, 0.0
1404, 0.0
1405, 0.0
1406, 0.0
1407, 0.0
1408, 0.0
1409, 0.0
1410, 0.0
1411, 0.0
1412, 0.0
1413, 0.0
1414, 0.0
1415, 0.0
1416, 0.0
1417, 0.0
1418, 0.0
1419, 0.0
1420, 0.0
1421, 0.0
1422, 0.0
1423, 0.0
1424, 0.0
1425, 0.0
1426, 0.0
1427, 0.0
1428, 0.0
1429, 0.0
1430, 0.0
1431, 0.0
1432, 0.0
1433, 0.0
1434, 0.0
1435, 0.0
1436, 0.0
1437, 0.0
1438, 0.0
1439, 0.0
1440, 0.0
1441, 0.0
1442, 0.0
1443, 0.0
1444, 0.0
1445, 0.0
1446, 0.0
1447, 0.0
1448, 0.0
1449, 0.0
1450, 0.0
1451, 0.0
1452, 0.0
1453, 0.0
1454, 0.0
1455, 0.0
1456, 0.0
1457, 0.0
1458, 0.0
1459, 0.0
1460, 0.0
1461, 0.0
1462, 0.0
1463, 0.0
1464, 0.0
1465, 0.0
1466, 0.0
1467, 0.0
1468, 0.0
1469, 0.0
1470, 0.0
1471, 0.0
1472, 0.0
1473, 0.0
1474, 0.0
1475, 0.0
1476, 0.0
1477, 0.0
1478, 0.0
1479, 0.0
1480, 0.0
1481, 0.0
1482, 0.0
1483, 0.0
1484, 0.0
1485, 0.0
1486, 0.0
1487, 0.0
1488, 0.0
1489, 0.0
1490, 0.0
1491, 0.0
1492, 0.0
1493, 0.0
1494, 0.0
1495, 0.0
1496, 0.0
1497, 0.0
1498, 0.0
1499, 0.0
1500, 0.0
1501, 0.0
1502, 0.0
1503, 0.0
1504, 0.0
1505, 0.0
1506, 0.0
1507, 0.0
1508, 0.0
1509, 0.0
1510, 0.0
1511, 0.0
1512, 0.0
1513, 0.0
1514, 0.0
1515, 0.0
1516, 0.0
1517, 0.0
1518, 0.0
1519, 0.0
1520, 0.0
1521, 0.0
1522, 0.0
1523, 0.0
1524, 0.0
1525, 0.0
1526, 0.0
1527, 0.0
1528, 0.0
1529, 0.0
1530, 0.0
1531, 0.0
1532, 0.0
1533, 0.0
1534, 0.0
1535, 0.0
1536, 0.0
1537, 0.0
1538, 0.0
1539, 0.0
1540, 0.0
1541, 0.0
1542, 0.0
1543, 0.0
1544, 0.0
1545, 0.0
1546, 0.0
1547, 0.0
1548, 0.0
1549, 0.0
1550, 0.0
1551, 0.0
1552, 0.0
1553, 0.0
1554, 0.0
1555, 0.0
1556, 0.0
1557, 0.0
1558, 0.0
1559, 0.0
1560, 0.0
1561, 0.0
1562, 0.0
1563, 0.0
1564, 0.0
1565, 0.0
1566, 0.0
1567, 0.0
1568, 0.0
1569, 0.0
1570, 0.0
1571, 0.0
1572, 0.0
1573, 0.0
1574, 0.0
1575, 0.0
1576, 0.0
1577, 0.0
1578, 0.0
1579, 0.0
1580, 0.0
1581, 0.0
1582, 0.0
1583, 0.0
1584, 0.0
1585, 0.0
1586, 0.0
1587, 0.0
1588, 0.0
1589, 0.0
1590, 0.0
1591, 0.0
1592, 0.0
1593, 0.0
1594, 0.0
1595, 0.0
1596, 0.0
1597, 0.0
1598, 0.0
1599, 0.0
