30, 0.0
31, 0.0
32, 0.0
33, 0.0
34, 0.0
35, 0.0
36, 0.0
37, 0.0
38, 0.0
39, 0.0
40, 0.0
41, 0.0
42, 0.0
43, 0.0
44, 0.0
45, 0.0
46, 0.0
47, 0.0
48, 0.0
49, 0.0
50, 0.0
51, 0.0
52, 0.0
53, 0.0
54, 0.0
55, 0.0
56, 0.0
57, 0.0
58, 0.0
59, 0.0
60, 0.0
61, 0.0
62, 0.0
63, 0.0
64, 0.0
65, 0.0
66, 0.0
67, 0.0
68, 0.0
69, 0.0
70, 0.0
71, 0.0
72, 0.0
73, 0.0
74, 0.0
75, 0.0
76, 0.0
77, 0.0
78, 0.0
79, 0.0
80, 0.0
81, 0.0
82, 0.0
83, 0.0
84, 0.0
85, 0.0
86, 0.0
87, 0.0
88, 0.0
89, 0.0
90, 0.0
91, 0.0
92, 0.0
93, 0.0
94, 0.0
95, 0.0
96, 0.0
97, 0.0
98, 0.0
99, 0.0
100, 0.0
101, 0.0
102, 0.0
103, 0.0
104, 0.0
105, 0.0
106, 0.0
107, 0.0
108, 0.0
109, 0.0
110, 0.0
111, 0.0
112, 0.0
113, 0.0
114, 0.0
115, 0.0
116.0, 0.0026095869094508385
117.0, 0.0004560241224965395
118.0, 0.0005679204614517303
119.0, 0.0001709720404731478
120.0, 0.0005294417425991563
121.0, 0.0009051689038567947
122.0, 0.001970653375647439
123.0, 0.002629283028576168
124.0, 0.003285461631895806
125.0, 0.004620359166742456
126.0, 0.007158871539747152
127.0, 0.011370629068622266
128.0, 0.017055167350273476
129.0, 0.02540377956230065
130.0, 0.03767463511542421
131.0, 0.04982814190737451
132.0, 0.0633881204358944
133.0, 0.07660267203986842
134.0, 0.08488559390135458
135.0, 0.09333647685094248
136.0, 0.09998207925106994
137.0, 0.10690256588993659
138.0, 0.11558054982284029
139.0, 0.12225100292019596
140.0, 0.13029607537548477
141.0, 0.14073774669900352
142.0, 0.15270166998335347
143.0, 0.16416198234831605
144.0, 0.18092092498783088
145.0, 0.2011394996039043
146.0, 0.22325571596027138
147.0, 0.2456399438471116
148.0, 0.26484381162150256
149.0, 0.27970283536647966
150.0, 0.28774446144915805
151.0, 0.28755409403925236
152.0, 0.28059171795517285
153.0, 0.2659852319662054
154.0, 0.24662650748708126
155.0, 0.22851795670063071
156.0, 0.21954995521912482
157.0, 0.215001780134604
158.0, 0.21585596337770388
159.0, 0.22191661460846607
160.0, 0.2328028663462594
161.0, 0.2463341530577455
162.0, 0.2613429263621445
163.0, 0.2771584548012018
164.0, 0.2941126961805479
165.0, 0.3119174735664009
166.0, 0.3334051621805427
167.0, 0.3553441151304009
168.0, 0.3769332116191052
169.0, 0.399935675968732
170.0, 0.41908441558211923
171.0, 0.4388027537841789
172.0, 0.45885695872200033
173.0, 0.47467581363236383
174.0, 0.48234340066911124
175.0, 0.48740979262504047
176.0, 0.4863202703112211
177.0, 0.47761033845686324
178.0, 0.46686123905646854
179.0, 0.4507955736816068
180.0, 0.4308491803490074
181.0, 0.4082805464390808
182.0, 0.38348606113201067
183.0, 0.3575409555562524
184.0, 0.33505874873778935
185.0, 0.3119177519071261
186.0, 0.2846658894356446
187.0, 0.25958960621714183
188.0, 0.23198880896552446
189.0, 0.2048849538927254
190.0, 0.17892550661975504
191.0, 0.15022653116805196
192.0, 0.1266859487871437
193.0, 0.10386870716300071
194.0, 0.08216003651049446
195.0, 0.06495939257435973
196.0, 0.05085518748290738
197.0, 0.03840354670339331
198.0, 0.027569482021332224
199.0, 0.018459777487363493
200.0, 0.010791999889056965
201.0, 0.0061020675842087336
202.0, 0.001897630882774894
203.0, 0.0029926408608877504
204.0, 0.007432721845935948
205.0, 0.009066253274559066
206.0, 0.010209295582088912
207.0, 0.010565899859567221
208.0, 0.008781947051270568
209.0, 0.004060066941044351
210.0, 0.0008215544842172509
211.0, 0.0062277283328116976
212.0, 0.014096623714307996
213.0, 0.02671117958767626
214.0, 0.039708496473276365
215.0, 0.05853024732752785
216.0, 0.07683515185534212
217.0, 0.08807921293590225
218.0, 0.09816447959600313
219.0, 0.10772860886497078
220.0, 0.11589543756913549
221.0, 0.12452256423640172
222.0, 0.13735862306484542
223.0, 0.15329302354417665
224.0, 0.169530269095185
225.0, 0.18947007500301746
226.0, 0.2161500327864132
227.0, 0.24303023464881396
228.0, 0.2733889877066697
229.0, 0.30853251605661103
230.0, 0.3474733317781854
231.0, 0.38636799251384357
232.0, 0.4208681535147579
233.0, 0.45108691344062257
234.0, 0.4705296868023533
235.0, 0.4733822157379454
236.0, 0.46306091880336236
237.0, 0.43590520623088436
238.0, 0.39839118050323663
239.0, 0.3559601679743021
240.0, 0.31178049720641593
241.0, 0.2702434148358578
242.0, 0.23249159107808337
243.0, 0.2000758949595956
244.0, 0.17272904718116455
245.0, 0.14743699075039685
246.0, 0.1272768324944637
247.0, 0.11111259787161563
248.0, 0.09817572087743842
249.0, 0.08897817996452037
250.0, 0.08420220083733719
251.0, 0.0818279383389009
252.0, 0.08097952690993619
253.0, 0.08145170721906496
254.0, 0.08437829590782107
255.0, 0.09008892699279077
256.0, 0.09629273213668686
257.0, 0.10242076763364871
258.0, 0.10930480604627488
259.0, 0.11724051458954429
260.0, 0.12711335072507735
261.0, 0.13877671823517052
262.0, 0.15147992808193053
263.0, 0.1643792353834199
264.0, 0.1762126864529221
265.0, 0.1901481971462422
266.0, 0.20543158176001208
267.0, 0.21981780782115545
268.0, 0.2323716894174342
269.0, 0.24381513769282478
270.0, 0.2562438066073598
271.0, 0.2684339154479225
272.0, 0.2773664990363656
273.0, 0.2871854150523381
274.0, 0.2987322360825107
275.0, 0.3115737212876384
276.0, 0.32463581804010344
277.0, 0.3362187505900868
278.0, 0.34997329681501044
279.0, 0.3611343608092214
280.0, 0.3666132826541269
281.0, 0.3635297600576213
282.0, 0.34621219300483613
283.0, 0.3191708726258351
284.0, 0.28456506070548815
285.0, 0.24563374431329288
286.0, 0.2064202960173013
287.0, 0.16874015755556562
288.0, 0.13418398888216787
289.0, 0.10360515286031138
290.0, 0.07789419907829032
291.0, 0.059138448497611906
292.0, 0.04284427272429666
293.0, 0.029665624623311636
294.0, 0.02031482714444083
295.0, 0.013990350564025533
296.0, 0.007494472075769136
297.0, 0.0034025357483240754
298.0, 0.0007117124310618519
299.0, 0.002787608801852621
300.0, 0.005556049334434445
301.0, 0.005596428191073949
302.0, 0.0061966974058307485
303.0, 0.0069698192348291365
304.0, 0.00683261283611396
305.0, 0.006305868535490086
306.0, 0.006598393560807398
307.0, 0.005218990038220717
308.0, 0.0033598762220160487
309.0, 0.0025032005771610214
310.0, 0.0006747263114261157
311.0, 0.00272143878297387
312.0, 0.005247931986264867
313.0, 0.008889494070871872
314.0, 0.013654897730449887
315.0, 0.016998878675522733
316.0, 0.019883554432530082
317.0, 0.023791980471358373
318.0, 0.028953652874727624
319.0, 0.03447321299059969
320.0, 0.03938929457628077
321.0, 0.04227366943782241
322.0, 0.04330664662865027
323.0, 0.043639762770182285
324.0, 0.044997483223702575
325.0, 0.04584310154413633
326.0, 0.04479822714450138
327.0, 0.04247611859720088
328.0, 0.04003337180095908
329.0, 0.037604746945666484
330.0, 0.033345325573158204
331.0, 0.031052601736851832
332.0, 0.031185359546770944
333.0, 0.03155337391331887
334.0, 0.02859943947340134
335.0, 0.02777579260200424
336.0, 0.02694707535088837
337.0, 0.02498615015772823
338.0, 0.02385095149901653
339.0, 0.021211718216258408
340.0, 0.020610776646547917
341.0, 0.021362884015145765
342.0, 0.0219015774480866
343.0, 0.02234492023702996
344.0, 0.022635606975239697
345.0, 0.023960298037428926
346.0, 0.025465568117830167
347.0, 0.02591405090645017
348.0, 0.02544523325326472
349.0, 0.0273307623271725
350.0, 0.028109409498733803
351.0, 0.028169433662258516
352.0, 0.02923933990505575
353.0, 0.029440977880116025
354.0, 0.029932511753758058
355.0, 0.030709098864076488
356.0, 0.03152620405498302
357.0, 0.031987973952910344
358.0, 0.031057925464547644
359.0, 0.03145754534011985
360.0, 0.031800228748370574
361.0, 0.03184560399754576
362.0, 0.03221515833691313
363.0, 0.031650279004921573
364.0, 0.0317814880988033
365.0, 0.03336281640997522
366.0, 0.03493793084308016
367.0, 0.034494694272778646
368.0, 0.036033523358106834
369.0, 0.039009671550444505
370.0, 0.04092919484025431
371.0, 0.040834425080474246
372.0, 0.03936680357470234
373.0, 0.0390105545539087
374.0, 0.03620902760641417
375.0, 0.03293425612723879
376.0, 0.0297802156366771
377.0, 0.024000427140382207
378.0, 0.02064632570270805
379.0, 0.01780381942145208
380.0, 0.014047079778856828
381.0, 0.010561786863590342
382.0, 0.009834180570221987
383.0, 0.009731274000440679
384.0, 0.009155959592602328
385.0, 0.009126808880656253
386.0, 0.010419716183017628
387.0, 0.012204512056652163
388.0, 0.012990949113177828
389.0, 0.015064627746627823
390.0, 0.017879930004623658
391.0, 0.020173138661699702
392.0, 0.022199968326475028
393.0, 0.025102417706698573
394.0, 0.027828527836194314
395.0, 0.029381504622784355
396.0, 0.030088647723472164
397.0, 0.03142540088766092
398.0, 0.03391573471237873
399.0, 0.034128784630463524
400.0, 0.03427076922620779
401.0, 0.03638732142594196
402.0, 0.03907696393928403
403.0, 0.03859587313438742
404.0, 0.037851353748535536
405.0, 0.03702950405870265
406.0, 0.036086979296257204
407.0, 0.03621056429031591
408.0, 0.03168087557203386
409.0, 0.028052779504148778
410.0, 0.025811660654079787
411.0, 0.022695177046607617
412.0, 0.017619189978245228
413.0, 0.01369639008468
414.0, 0.010318337833873209
415.0, 0.006715272086359569
416.0, 0.004246376985755502
417.0, 0.005307882082614997
418.0, 0.0025093279212860834
419.0, 0.00046145246352439194
420.0, 0.0002563937640228429
421.0, 0.000964150364871629
422.0, 0.0021728121984681444
423.0, 0.0041996317116095045
424.0, 0.004925766440527495
425.0, 0.0042286363385829594
426.0, 0.0029859027899943177
427.0, 0.002297794779180521
428.0, 0.00131487380312183
429.0, 0.00035316006810744816
430.0, 0.0014688773551814703
431.0, 0.003947789222096992
432.0, 0.0061037027248256786
433.0, 0.006485065352491658
434.0, 0.00902478216198069
435.0, 0.013004954890248221
436.0, 0.0168546828299902
437.0, 0.020234475739791636
438.0, 0.02339686007481231
439.0, 0.027855989741453736
440.0, 0.03298877865480667
441.0, 0.03793598768423639
442.0, 0.04273483759756777
443.0, 0.04901030674106741
444.0, 0.055036854928667
445.0, 0.06027624655668018
446.0, 0.0649805332674116
447.0, 0.0699193717024012
448.0, 0.07651735098647472
449.0, 0.08256986410939433
450.0, 0.08953095914699626
451.0, 0.09704875002929977
452.0, 0.10421538472208737
453.0, 0.11090019435931743
454.0, 0.11906684393689643
455.0, 0.12726951682871468
456.0, 0.1348861167351245
457.0, 0.14230863486551892
458.0, 0.15088805919542508
459.0, 0.16074791627879337
460.0, 0.16627992225689
461.0, 0.16847385202370957
462.0, 0.1703207010682654
463.0, 0.17239693318267546
464.0, 0.17194962629422533
465.0, 0.16884157039008732
466.0, 0.16114578624800346
467.0, 0.15085008473377565
468.0, 0.1415332008679501
469.0, 0.1299388988410382
470.0, 0.11585672885326581
471.0, 0.10338941936619998
472.0, 0.09261145333729214
473.0, 0.08177533688745085
474.0, 0.07242120571619852
475.0, 0.06391436732722455
476.0, 0.05648402989918391
477.0, 0.0506569493143095
478.0, 0.04623047705338423
479.0, 0.04208277639080908
480.0, 0.03937781683068443
481.0, 0.03513099256965524
482.0, 0.031163509378578855
483.0, 0.028793103271498324
484.0, 0.026839581040034595
485.0, 0.023518632156019535
486.0, 0.022256012884141165
487.0, 0.020410910921719087
488.0, 0.016758810055343056
489.0, 0.013256322111133664
490.0, 0.012941580397037744
491.0, 0.012401104844107422
492.0, 0.010421838919690493
493.0, 0.008104870852383813
494.0, 0.006659120398961966
495.0, 0.005751364564069335
496.0, 0.004800578716885972
497.0, 0.003334952809089365
498.0, 0.0021186825846422398
499.0, 0.001721053257632441
500.0, 0.0017944063119431236
501.0, 0.0017327074873282405
502.0, 0.0007265671349426638
503.0, 0.0003135393947868965
504.0, 0.0011257347396787232
505.0, 0.0022016499120858773
506.0, 0.0012707207646542882
507.0, 0.0010256635105589656
508.0, 0.0012932069222971894
509.0, 0.0001642632934770537
510.0, 0.0008700572764316957
511.0, 0.0009488750428529507
512.0, 0.002173111379461897
513.0, 0.001623257829652835
514.0, 0.0024138171177450767
515.0, 0.004250445705732246
516.0, 0.0037718916407227733
517.0, 0.00426808345869405
518.0, 0.0056825349768334955
519.0, 0.007577068962621319
520.0, 0.00868697702708922
521.0, 0.008827078678142607
522.0, 0.010480443384896084
523.0, 0.011365436872197788
524.0, 0.013043680566835199
525.0, 0.014366620207143606
526.0, 0.015016841450282896
527.0, 0.016172329047386975
528.0, 0.01679485352378385
529.0, 0.017735353278497495
530.0, 0.018382055061593624
531.0, 0.01777153883955205
532.0, 0.016556879689017687
533.0, 0.01778617247708242
534.0, 0.018712011217073072
535.0, 0.017454090073408153
536.0, 0.01703667840807648
537.0, 0.01807043061850886
538.0, 0.017130810664759494
539.0, 0.015285383033126923
540.0, 0.014974690180012955
541.0, 0.015315378921003346
542.0, 0.015430851108192208
543.0, 0.015282431422873801
544.0, 0.014874914979233527
545.0, 0.014610203893605931
546.0, 0.013963515975331211
547.0, 0.013862383102413656
548.0, 0.014250627175347579
549.0, 0.01390446657704748
550.0, 0.013569261081335833
551.0, 0.012935958846214844
552.0, 0.012345868351219159
553.0, 0.011730343667002431
554.0, 0.010536323760992308
555.0, 0.008589371878104117
556.0, 0.008305689734653553
557.0, 0.008804130459350407
558.0, 0.008623194765186014
559.0, 0.007244751904617191
560.0, 0.005378333957905985
561.0, 0.005194630471875536
562.0, 0.004389770370112305
563.0, 0.0024852628868872054
564.0, 0.001256542020251569
565.0, 0.0008721435691320653
566.0, 0.0012860785788299462
567.0, 0.001465848376478339
568.0, 0.002310610954722869
569.0, 0.002850086758584449
570.0, 0.002836888375250402
571.0, 0.0035553285363863407
572.0, 0.004994316192205992
573.0, 0.0038738080417070214
574.0, 0.004377668883481103
575.0, 0.00507210024158006
576.0, 0.00463485375028948
577.0, 0.0040725052748029735
578.0, 0.005136807378506327
579.0, 0.004720687664714684
580.0, 0.004677523407464087
581.0, 0.004194094429054336
582.0, 0.0028197999195492492
583.0, 0.0026574575421633006
584.0, 0.0009989543767237215
585.0, 0.00018476018339358202
586.0, 0.0002242768328813457
587.0, 0.00036210682993054953
588.0, 0.0016377154252189858
589.0, 0.00410206818171265
590.0, 0.003969673142736207
591.0, 0.006467928758983808
592.0, 0.009013804511182694
593.0, 0.010387218618175577
594.0, 0.012626645511383091
595.0, 0.014375339994589982
596.0, 0.016854806700809872
597.0, 0.019447459080388932
598.0, 0.02282824565945837
599.0, 0.026384264961753317
600.0, 0.02817657883557748
601.0, 0.029893248834975374
602.0, 0.03295593900025424
603.0, 0.03523460650553362
604.0, 0.03775381132411652
605.0, 0.04115373230905283
606.0, 0.0430541967008239
607.0, 0.04486211627357855
608.0, 0.047818661381380294
609.0, 0.05003123199613984
610.0, 0.05272612351251655
611.0, 0.05660397375892172
612.0, 0.05833449962741996
613.0, 0.06002621236841708
614.0, 0.06153783692020366
615.0, 0.0633013838232183
616.0, 0.06529080082467942
617.0, 0.06718280641944782
618.0, 0.06878594941941794
619.0, 0.06898486409363493
620.0, 0.06975891660210777
621.0, 0.07088348614292536
622.0, 0.07258907755844984
623.0, 0.07477886072375055
624.0, 0.07435973976059532
625.0, 0.07783501455462695
626.0, 0.07810136769464594
627.0, 0.080272803969646
628.0, 0.08459259501563832
629.0, 0.08535635499853175
630.0, 0.08733851756076381
631.0, 0.09052198535895271
632.0, 0.09384672183406796
633.0, 0.09672943791151294
634.0, 0.09935563542456921
635.0, 0.10233025242015924
636.0, 0.10642684759487842
637.0, 0.10939158999426955
638.0, 0.11144275846668945
639.0, 0.1136514101368894
640.0, 0.11691575918393379
641.0, 0.12088349317111668
642.0, 0.12385504474828832
643.0, 0.12662999008432974
644.0, 0.1273540804089294
645.0, 0.12774119302533277
646.0, 0.12872434957308523
647.0, 0.12885152021658167
648.0, 0.12796967360198955
649.0, 0.12783626834282585
650.0, 0.12806673151121467
651.0, 0.12599713624181702
652.0, 0.12254295982604545
653.0, 0.12117005829497891
654.0, 0.12082730561008923
655.0, 0.12021114750355932
656.0, 0.12105895852932295
657.0, 0.1234586393758137
658.0, 0.12666611572742523
659.0, 0.1304402669933948
660.0, 0.13655460014018847
661.0, 0.14526895121361885
662.0, 0.1550235922868286
663.0, 0.1681453700138058
664.0, 0.18491320291474353
665.0, 0.20376461657276923
666.0, 0.2264644422565942
667.0, 0.2503242218246233
668.0, 0.27852641731524314
669.0, 0.3108578718421556
670.0, 0.34677856484773767
671.0, 0.3864518970229932
672.0, 0.4284671672912081
673.0, 0.47534451663289257
674.0, 0.5233623395341698
675.0, 0.5727507179802273
676.0, 0.6255775333593746
677.0, 0.6815164220042814
678.0, 0.7360437196060373
679.0, 0.7876087873155391
680.0, 0.8392041874295415
681.0, 0.8858403750332645
682.0, 0.9268196856877075
683.0, 0.9623393189903986
684.0, 0.9874336260336604
685.0, 0.9990895712818504
686.0, 0.9953068663297311
687.0, 0.978260680433986
688.0, 0.9480028408898605
689.0, 0.9066489814630556
690.0, 0.8590211965914221
691.0, 0.8023893628193013
692.0, 0.7387575831797413
693.0, 0.673819334859516
694.0, 0.612427735069835
695.0, 0.5554792483063542
696.0, 0.5010651726328651
697.0, 0.44918117691696
698.0, 0.4036068773060051
699.0, 0.36459868440876847
700.0, 0.32782668884715377
701.0, 0.29400504263916516
702.0, 0.265207068375311
703.0, 0.23788485355003358
704.0, 0.21417730888870676
705.0, 0.19303320077835381
706.0, 0.17443874040577098
707.0, 0.15732222454435837
708.0, 0.14125996115058814
709.0, 0.1277768131114822
710.0, 0.11603130962113911
711.0, 0.10445497584937675
712.0, 0.09609642314344088
713.0, 0.08757702191874818
714.0, 0.07744611961415644
715.0, 0.0696486474292654
716.0, 0.06434916274616882
717.0, 0.05682826569927845
718.0, 0.051095751633833376
719.0, 0.0463113276176199
720.0, 0.041266503738905586
721.0, 0.03623696411299325
722.0, 0.03118276245158136
723.0, 0.027285477543183015
724.0, 0.02354516824164196
725.0, 0.02169232910596248
726.0, 0.01931819595664556
727.0, 0.015488322822176447
728.0, 0.013485854239291061
729.0, 0.010936335796157999
730.0, 0.009756362246845686
731.0, 0.007288430798203901
732.0, 0.00428998107860996
733.0, 0.0025427829319407415
734.0, 0.001946739635476669
735.0, 0.0005687954537049299
736.0, 0.0006055139816214157
737.0, 0.0004101035636712427
738.0, 0.0016085221571653997
739.0, 0.0026628264721736674
740.0, 0.0022358172418098705
741.0, 0.0026386436918334343
742.0, 0.002441327991210893
743.0, 0.002649358925950707
744.0, 0.003185333689742374
745.0, 0.003504713153320692
746.0, 0.00398167731305997
747.0, 0.004586836486324376
748.0, 0.0038003824481677123
749.0, 0.003741644490606635
750.0, 0.002295661041195903
751.0, 0.0019500343625301825
752.0, 0.002705508439905495
753.0, 0.002763044303090327
754.0, 0.0014370070928716638
755.0, 0.001635190881162199
756.0, 0.0037951473399802046
757.0, 0.0026125560720980214
758.0, 0.0016198835537279167
759.0, 0.001463924294914956
760.0, 0.0002784254607134139
761.0, 0.00035124351202069765
762.0, 0.0011469446420241975
763.0, 0.0010712537278373254
764.0, 0.00029145017362456585
765.0, 3.4957978833696704e-05
766.0, 0.0004343879593685108
767.0, 0.001732852747543738
768.0, 0.0022841248784616405
769.0, 0.0023715869911920887
770.0, 0.0019204501837079768
771.0, 0.001722066104879079
772.0, 0.001954431028706303
773.0, 0.0028582707003806506
774.0, 0.004332599639998569
775.0, 0.0038574328232996854
776.0, 0.004314971752810029
777.0, 0.0042366291411154505
778.0, 0.005092788675158329
779.0, 0.005425071099853625
780.0, 0.0042522586418274125
781.0, 0.004340489604207123
782.0, 0.00558761806519706
783.0, 0.005582244575788987
784.0, 0.006856673195207345
785.0, 0.007052218338259239
786.0, 0.006574279529303385
787.0, 0.007379329467153934
788.0, 0.008014689144527357
789.0, 0.008600308163471067
790.0, 0.009335930098323205
791.0, 0.009077843005570884
792.0, 0.008719536539801396
793.0, 0.00938441827462517
794.0, 0.01009052922874761
795.0, 0.00864840557277316
796.0, 0.009258760545879725
797.0, 0.00995025852026653
798.0, 0.010411319158372373
799.0, 0.009280519101939435
800.0, 0.0082208575765672
801.0, 0.009083108307525175
802.0, 0.009002356898298746
803.0, 0.010578353502397133
804.0, 0.009490298129937737
805.0, 0.007778710737608333
806.0, 0.007882699488607304
807.0, 0.008759917947254734
808.0, 0.00829766512291797
809.0, 0.0075985238721500885
810.0, 0.006859321145282498
811.0, 0.007219582012192058
812.0, 0.00636771762018849
813.0, 0.005158322283485406
814.0, 0.005104680309104372
815.0, 0.005872542355234523
816.0, 0.005322142694325758
817.0, 0.005679124895799319
818.0, 0.006148688430972291
819.0, 0.005396249057545736
820.0, 0.005396693414777159
821.0, 0.006125051598650535
822.0, 0.005885691194224599
823.0, 0.006842887442207775
824.0, 0.008033307131093407
825.0, 0.008064533993093535
826.0, 0.00704965462567892
827.0, 0.006831090595673041
828.0, 0.007248682234968913
829.0, 0.007184210292395157
830.0, 0.007327759433338041
831.0, 0.008083070836114155
832.0, 0.008281472249224434
833.0, 0.009260417929316596
834.0, 0.009718365000716891
835.0, 0.009810061044292221
836.0, 0.01077355034614458
837.0, 0.01178422282001203
838.0, 0.012567536077301282
839.0, 0.012585103229080888
840.0, 0.013728548827384848
841.0, 0.014369234920393102
842.0, 0.01532028548260033
843.0, 0.017152332147286602
844.0, 0.01787689092857167
845.0, 0.019476065273977133
846.0, 0.019340823508944113
847.0, 0.020401041831173132
848.0, 0.021569041564787207
849.0, 0.02270212584861826
850.0, 0.023981977214955878
851.0, 0.025234285544251823
852.0, 0.027937297116846223
853.0, 0.02912881667732465
854.0, 0.03154326541283256
855.0, 0.032637124739147684
856.0, 0.033677222554427316
857.0, 0.03567114249548564
858.0, 0.037987784564259906
859.0, 0.04092213278839834
860.0, 0.04208198935279151
861.0, 0.04463235507741287
862.0, 0.048145438640726464
863.0, 0.051477926731695996
864.0, 0.05450111537851175
865.0, 0.057634704245837776
866.0, 0.06093378808086059
867.0, 0.06414757316045037
868.0, 0.06828131510093474
869.0, 0.07260713542010445
870.0, 0.07703539809117621
871.0, 0.08114414084550017
872.0, 0.08504479504731091
873.0, 0.08890073036724912
874.0, 0.09165086269568685
875.0, 0.0931985870871796
876.0, 0.09506537853379746
877.0, 0.09684841452981446
878.0, 0.09777585796846334
879.0, 0.09776405658873069
880.0, 0.09697363862465568
881.0, 0.09513778544977618
882.0, 0.09204876282787024
883.0, 0.09051071289483292
884.0, 0.08724738891419888
885.0, 0.08220093524750205
886.0, 0.0775061254709966
887.0, 0.07357496755927272
888.0, 0.06920822919675838
889.0, 0.06541813053847843
890.0, 0.062441401130683104
891.0, 0.058032563694943376
892.0, 0.05439716644238878
893.0, 0.05105105072454798
894.0, 0.04756759226818819
895.0, 0.044481741422154025
896.0, 0.04205477892144434
897.0, 0.03971736851416752
898.0, 0.036912499114483736
899.0, 0.034314056096724485
900.0, 0.032339853231333274
901.0, 0.030891836373575902
902.0, 0.029352573240481464
903.0, 0.02709165350781368
904.0, 0.024638948762109005
905.0, 0.023697810179533672
906.0, 0.02100492773209113
907.0, 0.01978108687103388
908.0, 0.018182629319747273
909.0, 0.015595738952152726
910.0, 0.013799981077340201
911.0, 0.01368381169465188
912.0, 0.013449742922744215
913.0, 0.012534639455759384
914.0, 0.010744126044431038
915.0, 0.008791048983107069
916.0, 0.007490143792349382
917.0, 0.007321968236815
918.0, 0.007285526077268313
919.0, 0.006345933994179581
920.0, 0.005592287103807151
921.0, 0.005030198322204696
922.0, 0.004473030218764797
923.0, 0.004319336935858593
924.0, 0.0034460144258634147
925.0, 0.002820187165607226
926.0, 0.0026276553224552426
927.0, 0.0018663742467427125
928.0, 0.0016696176425094517
929.0, 0.0007490545135525574
930.0, 0.0009646515387669721
931.0, 0.0007166325615616138
932.0, 0.0004717534116218509
933.0, 0.0005247169960146507
934.0, 0.0005384103708071394
935.0, 0.0005541634353687841
936.0, 0.0005865203574193428
937.0, 3.953836718447812e-05
938.0, 0.0010051018637458357
939.0, 0.0021409791170738527
940.0, 0.0013282461845140609
941.0, 0.0006730243837819225
942.0, 0.0010899116334000766
943.0, 0.0008461516741600635
944.0, 0.0008540445916671921
945.0, 0.00040704330364122046
946.0, 0.001360936140352127
947.0, 0.0008360379001587307
948.0, 0.0005424936720532667
949.0, 0.00017827822695478724
950.0, 6.510156133029233e-05
951.0, 0.000731154565207046
952.0, 0.00022178370353019127
953.0, 0.0007861018462692055
954.0, 0.0002309593585551994
955.0, 0.0006837902164907316
956.0, 0.0005983525107719273
957.0, 0.00014143855327013215
958.0, 0.0001168270480935993
959.0, 0.0003793891667596782
960.0, 0.0002732808920004914
961.0, 0.00016333030723386107
962.0, 0.00020040646963551465
963.0, 0.0004996080964668628
964.0, 0.0005408860149197359
965.0, 0.0005948389836405636
966.0, 0.0006665518556567293
967.0, 0.0009351510858214858
968.0, 0.0017554927148115593
969.0, 0.001241994748321069
970.0, 0.0004731888086372346
971.0, 0.0009248463794164862
972.0, 0.0014773125947147641
973.0, 0.001616210264983981
974.0, 0.0016902157516447056
975.0, 0.0019023997031386698
976.0, 0.0021489581661025153
977.0, 0.0024421962921640445
978.0, 0.0028252984779733423
979.0, 0.002281895064865502
980.0, 0.0022896402732064873
981.0, 0.00248753475271747
982.0, 0.002957136820962679
983.0, 0.00364311817444579
984.0, 0.0038389214238994944
985.0, 0.0034459767326829394
986.0, 0.0036098374486368497
987.0, 0.0034966495629702886
988.0, 0.004335452985770155
989.0, 0.004283141064448892
990.0, 0.004335439713112553
991.0, 0.00463429971043593
992.0, 0.004613683602724911
993.0, 0.004470070122713034
994.0, 0.004416321275553799
995.0, 0.003776473831880131
996.0, 0.00638288226962996
997.0, 0.005413844662855837
998.0, 0.005007752816577907
999.0, 0.005314048067991991
1000.0, 0.00554141225613823
1001.0, 0.006030850978016027
1002.0, 0.0067760619901706025
1003.0, 0.00752532704431719
1004.0, 0.00635902438469125
1005.0, 0.00658243512288892
1006.0, 0.007254783352813489
1007.0, 0.008051184146624856
1008.0, 0.009532403594009699
1009.0, 0.010155397964770073
1010.0, 0.010026722722148575
1011.0, 0.010867426279657307
1012.0, 0.011363386813377159
1013.0, 0.012731981951185467
1014.0, 0.01297256596411736
1015.0, 0.013985273795015914
1016.0, 0.014259634536693676
1017.0, 0.013853840745795026
1018.0, 0.014635929370106295
1019.0, 0.016003349933027683
1020.0, 0.01586127537669432
1021.0, 0.015721251034305807
1022.0, 0.0154022445560139
1023.0, 0.016150656077957907
1024.0, 0.01606555581937438
1025.0, 0.015121739420359584
1026.0, 0.014634804389093713
1027.0, 0.014453829853773815
1028.0, 0.014395905838004656
1029.0, 0.01467545830168932
1030.0, 0.014049280885648694
1031.0, 0.012938625059798469
1032.0, 0.013478888007066252
1033.0, 0.012012391990176209
1034.0, 0.01154976224861929
1035.0, 0.010869434689320895
1036.0, 0.0102689037429004
1037.0, 0.009980368878034714
1038.0, 0.008902596238155978
1039.0, 0.008849003007059578
1040.0, 0.009232976440854211
1041.0, 0.007168916394570956
1042.0, 0.007135788750883288
1043.0, 0.0072132201058232575
1044.0, 0.006610667095914192
1045.0, 0.005466221838015426
1046.0, 0.004750094694649749
1047.0, 0.004953045967118898
1048.0, 0.005140721736198874
1049.0, 0.005846641821843444
1050.0, 0.004373316885093421
1051.0, 0.00437268563688455
1052.0, 0.004345264853267705
1053.0, 0.0037033471757492832
1054.0, 0.003151308596261117
1055.0, 0.003214887245575139
1056.0, 0.0035632624652248146
1057.0, 0.0039587719785831275
1058.0, 0.004731027215346832
1059.0, 0.004216489549317781
1060.0, 0.003750910887040787
1061.0, 0.0029599307269111263
1062.0, 0.0026180751599672565
1063.0, 0.002599571213515462
1064.0, 0.0030852235082162818
1065.0, 0.0034895750810827364
1066.0, 0.00299321323457082
1067.0, 0.0023739475220245164
1068.0, 0.0021760612590110426
1069.0, 0.0018967997398306713
1070.0, 0.0028255084074795354
1071.0, 0.001948840532975324
1072.0, 0.0017710602401178283
1073.0, 0.0019453189317702874
1074.0, 0.0020723350684602724
1075.0, 0.0018290707429329588
1076.0, 0.0012473231153081403
1077.0, 0.002164902002550892
1078.0, 0.0018226587252300455
1079.0, 0.0014050167713269232
1080.0, 0.0011339938148654859
1081.0, 0.0006486685063398948
1082.0, 0.0005487720158532659
1083.0, 0.0006920513571530785
1084.0, 0.0013373971184751417
1085.0, 0.001952743886082317
1086.0, 0.0012347040858665629
1087.0, 0.00030486669549996143
1088.0, 0.0011426329004631773
1089.0, 0.0009140158687010165
1090.0, 0.000663048615910339
1091.0, 0.0008060714383298309
1092.0, 0.0005997508683824308
1093.0, 0.00037683110645416357
1094.0, 0.00023330024005770847
1095.0, 0.00028292286799116875
1096.0, 0.0008592175817175696
1097.0, 0.0011231375148154704
1098.0, 0.0009449537585538472
1099.0, 0.00010403268673427399
1100.0, 0.0008503919005973077
1101.0, 0.000792100800330029
1102.0, 0.0008443074568867581
1103.0, 0.0003802426527253919
1104.0, 0.00037633108535023034
1105.0, 0.0003211880341278976
1106.0, 0.0008484205076635358
1107.0, 0.0007921372010341381
1108.0, 0.0001300856480940848
1109.0, 0.00048793694791526187
1110.0, 0.00026013814534560283
1111.0, 0.0004865903996099704
1112.0, 0.00011597614112629381
1113.0, 0.00014103765110557305
1114.0, 0.0007613720855934995
1115.0, 0.000636585752118128
1116.0, 6.968617287430639e-05
1117.0, 8.972385660894661e-05
1118.0, 0.0004506067917547586
1119.0, 0.0004828609413934806
1120.0, 0.0003427003398372368
1121.0, 0.0002936183960392726
1122.0, 0.000994911238543365
1123.0, 0.0008118130931649433
1124.0, 6.044936451058979e-05
1125.0, 0.0002950421163890964
1126.0, 0.00018073867263025637
1127.0, 0.00018864215658622444
1128.0, 0.0003799502055460342
1129.0, 0.0002041961979136681
1130.0, 0.00021184796775170585
1131.0, 0.0010127174249929712
1132.0, 0.0009453362122382288
1133.0, 0.0008413005320229856
1134.0, 0.0009006218257450652
1135.0, 0.0006215752732732541
1136.0, 0.0008423877121810829
1137.0, 0.0013610881399235943
1138.0, 0.0007200588925949648
1139.0, 5.6736973289793046e-05
1140.0, 0.00035409865251338345
1141.0, 0.00024620106709161794
1142.0, 0.0005559331859809601
1143.0, 0.00010494812779490882
1144.0, 0.00012069261243095715
1145.0, 0.0003896955152765322
1146.0, 0.0007198296673756071
1147.0, 0.0005621332353840564
1148.0, 0.0004181508391289638
1149.0, 0.0003764929917769273
1150.0, 0.0005302760335390639
1151.0, 0.0013457372084121329
1152.0, 0.0002090356446662396
1153.0, 0.0004516069437552271
1154.0, 0.0003735947017819751
1155.0, 0.00018045806792007986
1156.0, 7.424851641091392e-05
1157.0, 0.0010049079380585963
1158.0, 0.0010695563309367027
1159.0, 0.00019629961071453744
1160.0, 0.0006111734944856446
1161.0, 0.0009047135947380456
1162.0, 0.000792517452634629
1163.0, 0.00120855054536515
1164.0, 0.0017893042677969693
1165.0, 0.0010210649942747239
1166.0, 0.0006859723386815258
1167.0, 0.0007135773190005157
1168.0, 0.0005136336574506207
1169.0, 0.0008310954244560621
1170.0, 0.001055378532070092
1171.0, 0.000366658440232249
1172.0, 0.0012021349738463188
1173.0, 0.0013005258475918724
1174.0, 0.0020619732713965376
1175.0, 0.0012185835051554495
1176.0, 0.0009891991903263207
1177.0, 0.0008299047175739768
1178.0, 0.000632294578841678
1179.0, 0.0010648157536240633
1180.0, 0.0014207673111742611
1181.0, 0.001740265902172978
1182.0, 0.0016449258762731692
1183.0, 0.0007530321833808183
1184.0, 0.0015861479786810778
1185.0, 0.0004820595437061033
1186.0, 0.00038287854322736556
1187.0, 0.0006020472317399509
1188.0, 0.0006717408660612775
1189.0, 0.0012788194902408022
1190.0, 0.0016646452925720427
1191.0, 0.0013725494658476279
1192.0, 0.00103997207133005
1193.0, 0.0012955152184200944
1194.0, 0.0012012552791851937
1195.0, 0.000254828516749011
1196.0, 0.0011153924411330778
1197.0, 0.0013786707253970979
1198.0, 0.0013188192791422505
1199.0, 0.0007597999265136496
1200.0, 0.00022093552652215575
1201.0, 0.0002065814793455063
1202.0, 0.0006535241353374553
1203.0, 0.0014180046499606882
1204.0, 0.0012047709495258848
1205.0, 0.0004332974341144472
1206.0, 0.0006835563206578289
1207.0, 0.0010661794230496357
1208.0, 0.0009117401065728091
1209.0, 0.0014797253781565721
1210.0, 0.0006547421414123488
1211.0, 0.000702947907473751
1212.0, 0.0010405512089518621
1213.0, 0.0003456197760078461
1214.0, 7.662155151473736e-05
1215.0, 0.00032589785198635583
1216.0, 0.0006027795743213354
1217.0, 0.0007606729184838762
1218.0, 0.0010708395576845883
1219.0, 0.0014168804002538224
1220.0, 0.0017137614032393918
1221.0, 0.0012148826191091993
1222.0, 0.001467339417078838
1223.0, 0.0019134407488525776
1224.0, 0.0013453897319854443
1225.0, 0.0012189423620088378
1226.0, 0.0005732265239879601
1227.0, 5.5883484346257396e-05
1228.0, 0.0005774701285738696
1229.0, 0.001510555265010683
1230.0, 0.0011938527994220073
1231.0, 0.0002859061150381652
1232.0, 0.00035782405582146363
1233.0, 1.738876717068645e-05
1234, 0.0
1235, 0.0
1236, 0.0
1237, 0.0
1238, 0.0
1239, 0.0
1240, 0.0
1241, 0.0
1242, 0.0
1243, 0.0
1244, 0.0
1245, 0.0
1246, 0.0
1247, 0.0
1248, 0.0
1249, 0.0
1250, 0.0
1251, 0.0
1252, 0.0
1253, 0.0
1254, 0.0
1255, 0.0
1256, 0.0
1257, 0.0
1258, 0.0
1259, 0.0
1260, 0.0
1261, 0.0
1262, 0.0
1263, 0.0
1264, 0.0
1265, 0.0
1266, 0.0
1267, 0.0
1268, 0.0
1269, 0.0
1270, 0.0
1271, 0.0
1272, 0.0
1273, 0.0
1274, 0.0
1275, 0.0
1276, 0.0
1277, 0.0
1278, 0.0
1279, 0.0
1280, 0.0
1281, 0.0
1282, 0.0
1283, 0.0
1284, 0.0
1285, 0.0
1286, 0.0
1287, 0.0
1288, 0.0
1289, 0.0
1290, 0.0
1291, 0.0
1292, 0.0
1293, 0.0
1294, 0.0
1295, 0.0
1296, 0.0
1297, 0.0
1298, 0.0
1299, 0.0
1300, 0.0
1301, 0.0
1302, 0.0
1303, 0.0
1304, 0.0
1305, 0.0
1306, 0.0
1307, 0.0
1308, 0.0
1309, 0.0
1310, 0.0
1311, 0.0
1312, 0.0
1313, 0.0
1314, 0.0
1315, 0.0
1316, 0.0
1317, 0.0
1318, 0.0
1319, 0.0
1320, 0.0
1321, 0.0
1322, 0.0
1323, 0.0
1324, 0.0
1325, 0.0
1326, 0.0
1327, 0.0
1328, 0.0
1329, 0.0
1330, 0.0
1331, 0.0
1332, 0.0
1333, 0.0
1334, 0.0
1335, 0.0
1336, 0.0
1337, 0.0
1338, 0.0
1339, 0.0
1340, 0.0
1341, 0.0
1342, 0.0
1343, 0.0
1344, 0.0
1345, 0.0
1346, 0.0
1347, 0.0
1348, 0.0
1349, 0.0
1350, 0.0
1351, 0.0
1352, 0.0
1353, 0.0
1354, 0.0
1355, 0.0
1356, 0.0
1357, 0.0
1358, 0.0
1359, 0.0
1360, 0.0
1361, 0.0
1362, 0.0
1363, 0.0
1364, 0.0
1365, 0.0
1366, 0.0
1367, 0.0
1368, 0.0
1369, 0.0
1370, 0.0
1371, 0.0
1372, 0.0
1373, 0.0
1374, 0.0
1375, 0.0
1376, 0.0
1377, 0.0
1378, 0.0
1379, 0.0
1380, 0.0
1381, 0.0
1382, 0.0
1383, 0.0
1384, 0.0
1385, 0.0
1386, 0.0
1387, 0.0
1388, 0.0
1389, 0.0
1390, 0.0
1391, 0.0
1392, 0.0
1393, 0.0
1394, 0.0
1395, 0.0
1396, 0.0
1397, 0.0
1398, 0.0
1399, 0.0
1400, 0.0
1401, 0.0
1402, 0.0
1403, 0.0
1404, 0.0
1405, 0.0
1406, 0.0
1407, 0.0
1408, 0.0
1409, 0.0
1410, 0.0
1411, 0.0
1412, 0.0
1413, 0.0
1414, 0.0
1415, 0.0
1416, 0.0
1417, 0.0
1418, 0.0
1419, 0.0
1420, 0.0
1421, 0.0
1422, 0.0
1423, 0.0
1424, 0.0
1425, 0.0
1426, 0.0
1427, 0.0
1428, 0.0
1429, 0.0
1430, 0.0
1431, 0.0
1432, 0.0
1433, 0.0
1434, 0.0
1435, 0.0
1436, 0.0
1437, 0.0
1438, 0.0
1439, 0.0
1440, 0.0
1441, 0.0
1442, 0.0
1443, 0.0
1444, 0.0
1445, 0.0
1446, 0.0
1447, 0.0
1448, 0.0
1449, 0.0
1450, 0.0
1451, 0.0
1452, 0.0
1453, 0.0
1454, 0.0
1455, 0.0
1456, 0.0
1457, 0.0
1458, 0.0
1459, 0.0
1460, 0.0
1461, 0.0
1462, 0.0
1463, 0.0
1464, 0.0
1465, 0.0
1466, 0.0
1467, 0.0
1468, 0.0
1469, 0.0
1470, 0.0
1471, 0.0
1472, 0.0
1473, 0.0
1474, 0.0
1475, 0.0
1476, 0.0
1477, 0.0
1478, 0.0
1479, 0.0
1480, 0.0
1481, 0.0
1482, 0.0
1483, 0.0
1484, 0.0
1485, 0.0
1486, 0.0
1487, 0.0
1488, 0.0
1489, 0.0
1490, 0.0
1491, 0.0
1492, 0.0
1493, 0.0
1494, 0.0
1495, 0.0
1496, 0.0
1497, 0.0
1498, 0.0
1499, 0.0
1500, 0.0
1501, 0.0
1502, 0.0
1503, 0.0
1504, 0.0
1505, 0.0
1506, 0.0
1507, 0.0
1508, 0.0
1509, 0.0
1510, 0.0
1511, 0.0
1512, 0.0
1513, 0.0
1514, 0.0
1515, 0.0
1516, 0.0
1517, 0.0
1518, 0.0
1519, 0.0
1520, 0.0
1521, 0.0
1522, 0.0
1523, 0.0
1524, 0.0
1525, 0.0
1526, 0.0
1527, 0.0
1528, 0.0
1529, 0.0
1530, 0.0
1531, 0.0
1532, 0.0
1533, 0.0
1534, 0.0
1535, 0.0
1536, 0.0
1537, 0.0
1538, 0.0
1539, 0.0
1540, 0.0
1541, 0.0
1542, 0.0
1543, 0.0
1544, 0.0
1545, 0.0
1546, 0.0
1547, 0.0
1548, 0.0
1549, 0.0
1550, 0.0
1551, 0.0
1552, 0.0
1553, 0.0
1554, 0.0
1555, 0.0
1556, 0.0
1557, 0.0
1558, 0.0
1559, 0.0
1560, 0.0
1561, 0.0
1562, 0.0
1563, 0.0
1564, 0.0
1565, 0.0
1566, 0.0
1567, 0.0
1568, 0.0
1569, 0.0
1570, 0.0
1571, 0.0
1572, 0.0
1573, 0.0
1574, 0.0
1575, 0.0
1576, 0.0
1577, 0.0
1578, 0.0
1579, 0.0
1580, 0.0
1581, 0.0
1582, 0.0
1583, 0.0
1584, 0.0
1585, 0.0
1586, 0.0
1587, 0.0
1588, 0.0
1589, 0.0
1590, 0.0
1591, 0.0
1592, 0.0
1593, 0.0
1594, 0.0
1595, 0.0
1596, 0.0
1597, 0.0
1598, 0.0
1599, 0.0
