30, 0.0
31, 0.0
32, 0.0
33, 0.0
34, 0.0
35, 0.0
36, 0.0
37, 0.0
38, 0.0
39, 0.0
40, 0.0
41, 0.0
42, 0.0
43, 0.0
44, 0.0
45, 0.0
46, 0.0
47, 0.0
48, 0.0
49, 0.0
50, 0.0
51, 0.0
52, 0.0
53, 0.0
54, 0.0
55, 0.0
56, 0.0
57, 0.0
58, 0.0
59, 0.0
60, 0.0
61, 0.0
62, 0.0
63, 0.0
64, 0.0
65, 0.0
66, 0.0
67, 0.0
68, 0.0
69, 0.0
70, 0.0
71, 0.0
72, 0.0
73, 0.0
74, 0.0
75, 0.0
76, 0.0
77, 0.0
78, 0.0
79, 0.0
80, 0.0
81, 0.0
82, 0.0
83, 0.0
84, 0.0
85, 0.0
86, 0.0
87, 0.0
88, 0.0
89, 0.0
90, 0.0
91, 0.0
92, 0.0
93, 0.0
94, 0.0
95, 0.0
96, 0.0
97, 0.0
98, 0.0
99, 0.0
100, 0.0
101, 0.0
102, 0.0
103, 0.0
104, 0.0
105, 0.0
106, 0.0
107, 0.0
108, 0.0
109, 0.0
110, 0.0
111, 0.0
112, 0.0
113, 0.0
114, 0.0
115, 0.0
116, 0.0
117, 0.0
118, 0.0
119, 0.0
120, 0.0
121, 0.0
122, 0.0
123, 0.0
124, 0.0
125, 0.0
126, 0.0
127, 0.0
128, 0.0
129, 0.0
130, 0.0
131, 0.0
132, 0.0
133, 0.0
134, 0.0
135, 0.0
136, 0.0
137, 0.0
138, 0.0
139, 0.0
140, 0.0
141, 0.0
142, 0.0
143, 0.0
144, 0.0
145, 0.0
146, 0.0
147, 0.0
148, 0.0
149, 0.0
150, 0.0
151, 0.0
152, 0.0
153, 0.0
154, 0.0
155, 0.0
156, 0.0
157, 0.0
158, 0.0
159, 0.0
160, 0.0
161, 0.0
162, 0.0
163, 0.0
164, 0.0
165, 0.0
166, 0.0
167, 0.0
168, 0.0
169, 0.0
170, 0.0
171, 0.0
172, 0.0
173, 0.0
174, 0.0
175, 0.0
176, 0.0
177, 0.0
178, 0.0
179, 0.0
180, 0.0
181, 0.0
182, 0.0
183, 0.0
184, 0.0
185, 0.0
186, 0.0
187, 0.0
188, 0.0
189, 0.0
190, 0.0
191, 0.0
192, 0.0
193, 0.0
194, 0.0
195.0, 0.00011445179432089352
196.0, 0.003044422125125044
197.0, 0.01184455715656496
198.0, 0.01989742444593208
199.0, 0.028087727981571227
200.0, 0.033680276729891795
201.0, 0.036610716250040656
202.0, 0.03950886589832661
203.0, 0.039029656802490216
204.0, 0.03150410619331052
205.0, 0.023780265626017365
206.0, 0.024941898920457617
207.0, 0.029692196469324653
208.0, 0.029936470684071598
209.0, 0.030468907693020405
210.0, 0.03541374469617206
211.0, 0.03847371664547509
212.0, 0.038786399459608455
213.0, 0.048165681023181944
214.0, 0.053810264804802756
215.0, 0.04852617758669007
216.0, 0.04770462051108947
217.0, 0.04820270139754011
218.0, 0.04338458330354154
219.0, 0.03329895944122222
220.0, 0.03669732234406365
221.0, 0.029940622227456765
222.0, 0.02380217976320169
223.0, 0.019182693794341725
224.0, 0.010353185707699164
225.0, 0.005996372077736082
226.0, 0.010720666243977411
227.0, 0.010519107166243196
228.0, 0.001201818562321684
229.0, 0.0012787028295226498
230.0, 0.0016867500558231672
231.0, 0.0019041495365098322
232.0, 0.008212296327115592
233.0, 0.009670410484802926
234.0, 0.0024502636209444337
235.0, 0.00190433460392045
236.0, 0.002521853436869622
237.0, 0.008671024543656905
238.0, 0.011014703263358586
239.0, 0.002250650093690527
240.0, 0.004843117959963501
241.0, 0.010012148591537939
242.0, 0.0005734154977350036
243.0, 0.0015584472059653688
244.0, 0.0036090990787618514
245.0, 0.005241226675661345
246.0, 0.005067680882519784
247.0, 0.006629229721036036
248.0, 0.0026778737096522336
249.0, 0.0001953445781067651
250.0, 0.0010659457760493346
251.0, 0.003991389900767816
252.0, 0.010622585166539451
253.0, 0.014766845840002709
254.0, 0.014062037298839893
255.0, 0.01186118969006873
256.0, 0.014831284161595229
257.0, 0.019203843642506036
258.0, 0.02345673971944086
259.0, 0.027732286836600506
260.0, 0.033068267895472875
261.0, 0.04072493761469551
262.0, 0.04287692784325186
263.0, 0.0484607949685499
264.0, 0.05755171967409171
265.0, 0.062030008662787385
266.0, 0.07027106977872143
267.0, 0.0748857403614343
268.0, 0.07864140553906865
269.0, 0.08451483601579121
270.0, 0.08872368982274066
271.0, 0.09322315097536898
272.0, 0.09888847241301968
273.0, 0.09894152896548492
274.0, 0.0895182643390778
275.0, 0.08965091700783182
276.0, 0.09585355489725293
277.0, 0.10109131401803814
278.0, 0.10482929676214979
279.0, 0.1123351337821824
280.0, 0.12194505613310352
281.0, 0.1265376331222531
282.0, 0.13110357014549054
283.0, 0.1399631630670688
284.0, 0.14582702598478248
285.0, 0.15880505238834425
286.0, 0.17196483946853094
287.0, 0.18283129798052178
288.0, 0.19453594442148558
289.0, 0.20990944200790698
290.0, 0.23173230864543404
291.0, 0.25100547352258157
292.0, 0.26615476359691104
293.0, 0.2870983065449713
294.0, 0.30975057449469606
295.0, 0.32365225051047175
296.0, 0.33850544183640074
297.0, 0.3628589200441845
298.0, 0.3829267477427112
299.0, 0.4083377036863833
300.0, 0.4355398336876502
301.0, 0.4661354556799017
302.0, 0.506211371890852
303.0, 0.5452313329696721
304.0, 0.5938726910355141
305.0, 0.6472503448990053
306.0, 0.698008477621425
307.0, 0.7417067230277752
308.0, 0.7833038559989753
309.0, 0.8165255666802101
310.0, 0.8380022792600198
311.0, 0.8439860571914543
312.0, 0.8306114301057053
313.0, 0.8158413121342293
314.0, 0.791283563060023
315.0, 0.7608867191803511
316.0, 0.7312980230860594
317.0, 0.6919838014231064
318.0, 0.6705012245501362
319.0, 0.6605094261831108
320.0, 0.6577032808963138
321.0, 0.6653181898356899
322.0, 0.682390530087909
323.0, 0.7103069819798762
324.0, 0.7406159461668421
325.0, 0.7665677454256365
326.0, 0.7833215527977598
327.0, 0.7647529562058389
328.0, 0.7187696053387636
329.0, 0.6566998081494407
330.0, 0.5821382079503067
331.0, 0.48098922588538495
332.0, 0.40784418324254434
333.0, 0.33913610892925283
334.0, 0.27571192558429036
335.0, 0.2301083968267366
336.0, 0.18910914252895814
337.0, 0.1647592448830386
338.0, 0.14283976312417312
339.0, 0.12167504134854258
340.0, 0.111311322498622
341.0, 0.10571100684554485
342.0, 0.09827189258830359
343.0, 0.09022446701195716
344.0, 0.08426615965713463
345.0, 0.08156549412874457
346.0, 0.08326761749105081
347.0, 0.08016298205610745
348.0, 0.07508817527441917
349.0, 0.07034770966646726
350.0, 0.06065254645342181
351.0, 0.042143680108362565
352.0, 0.03350016049548766
353.0, 0.02805054973483327
354.0, 0.018064426443480577
355.0, 0.0136372507170573
356.0, 0.0023340219305669828
357.0, 0.005940654086717694
358.0, 0.0044151211721611405
359.0, 0.0010337863049162729
360.0, 0.008396208040991383
361.0, 0.005423477876939682
362.0, 0.0005953818419841583
363.0, 0.007011051278872752
364.0, 0.0152364814449578
365.0, 0.021242624589277614
366.0, 0.027513138575942436
367.0, 0.028072135369390617
368.0, 0.02675458027337169
369.0, 0.031545112813097256
370.0, 0.03776674434714334
371.0, 0.04481513847519505
372.0, 0.050808542753580634
373.0, 0.055617583662663346
374.0, 0.05949462649204021
375.0, 0.06823319485948037
376.0, 0.07452422674524564
377.0, 0.08418360000945588
378.0, 0.1004773225874348
379.0, 0.11970279832103521
380.0, 0.1363570111872258
381.0, 0.13917491103199095
382.0, 0.13634456834595696
383.0, 0.12998582984305546
384.0, 0.1125997575067476
385.0, 0.08670663331986898
386.0, 0.07221192714568389
387.0, 0.05510971385024049
388.0, 0.031335353955986085
389.0, 0.018028714392222832
390.0, 0.008719607737359967
391.0, 0.007607190833466214
392.0, 0.011449825825248465
393.0, 0.012087697023292073
394.0, 0.005546867174555118
395.0, 0.01119561567741528
396.0, 0.014995036979024686
397.0, 0.01575801962588653
398.0, 0.019641411646591347
399.0, 0.03119882390587683
400.0, 0.03142030351333801
401.0, 0.036864710329386666
402.0, 0.044575786603151986
403.0, 0.04851427261170232
404.0, 0.047227601188546395
405.0, 0.05851066186451246
406.0, 0.058588578934515564
407.0, 0.06256981681734608
408.0, 0.07477169293675402
409.0, 0.07214779069080794
410.0, 0.06630993217822066
411.0, 0.05984433130126866
412.0, 0.0480152494263748
413.0, 0.035634404546099924
414.0, 0.03409285746488185
415.0, 0.026493593675693122
416.0, 0.014440442223260267
417.0, 0.0030328781937221244
418.0, 0.004107623877492034
419.0, 0.0014538215664137994
420.0, 0.0005084188437293059
421.0, 0.003997969259234667
422.0, 0.005642621038800824
423.0, 0.001957844975600482
424.0, 0.0016742475612592303
425.0, 0.0016862969894570997
426.0, 0.00035629879252753135
427.0, 0.001957344598681499
428.0, 0.004691647373613291
429.0, 0.003078466664262619
430.0, 0.005821366990808497
431.0, 0.0037275292181286183
432.0, 0.0016826409868115747
433.0, 0.003090370595936665
434.0, 0.006504979139901891
435.0, 0.010638256330668304
436.0, 0.010430706595050038
437.0, 0.0021060299008867976
438.0, 0.004430956702191072
439.0, 0.00045951511505336947
440.0, 0.007589904572175427
441.0, 0.008826178093514278
442.0, 0.010699952406176175
443.0, 0.013989730148669265
444.0, 0.014870177236644097
445.0, 0.014670514846146582
446.0, 0.026683296090898503
447.0, 0.02701954797623617
448.0, 0.020510373045880975
449.0, 0.02264271279000939
450.0, 0.03367573961296354
451.0, 0.036700795014158134
452.0, 0.04780787544735373
453.0, 0.05577334818784603
454.0, 0.05375197829389875
455.0, 0.05936200875609813
456.0, 0.0715539185333997
457.0, 0.0702672827995006
458.0, 0.07146403452194947
459.0, 0.08650328737681022
460.0, 0.10345241118596239
461.0, 0.10767903579460626
462.0, 0.11799084883128372
463.0, 0.12792058705176937
464.0, 0.13608774729844172
465.0, 0.14790525517905317
466.0, 0.14995883571517463
467.0, 0.16509657065045547
468.0, 0.17664309328105965
469.0, 0.17800743484505555
470.0, 0.17434358506629552
471.0, 0.17691043118763516
472.0, 0.1722416585550753
473.0, 0.16977335730673643
474.0, 0.17449473211522298
475.0, 0.1827652511110694
476.0, 0.18826270406760331
477.0, 0.20691270765749203
478.0, 0.22460520980133764
479.0, 0.2392926268874301
480.0, 0.26053202779985507
481.0, 0.29575642955406456
482.0, 0.32421189192093774
483.0, 0.35811406261917106
484.0, 0.39748341593620024
485.0, 0.4407500253386948
486.0, 0.48883707540423227
487.0, 0.5449203112595794
488.0, 0.6110251776396546
489.0, 0.6834049164875207
490.0, 0.7536266532742245
491.0, 0.8135964002250198
492.0, 0.8622896547232423
493.0, 0.8714286502026916
494.0, 0.8450125203869582
495.0, 0.7879459565265466
496.0, 0.7156808695567789
497.0, 0.662771622096804
498.0, 0.622600380807126
499.0, 0.60099127186704
500.0, 0.5938093415505098
501.0, 0.6015607894629827
502.0, 0.6280734875252023
503.0, 0.6582611623265123
504.0, 0.689893426288299
505.0, 0.7284846573723538
506.0, 0.7718548536296023
507.0, 0.8164836471434368
508.0, 0.8640464896951537
509.0, 0.9020123195779846
510.0, 0.9418143654429895
511.0, 0.9719885238882413
512.0, 0.9876511620459574
513.0, 0.9995573277069784
514.0, 0.9868792104770718
515.0, 0.9609354730259456
516.0, 0.9170204674498459
517.0, 0.8598205959862472
518.0, 0.7948442505588702
519.0, 0.7017851582021403
520.0, 0.6180613086682832
521.0, 0.5548841087116496
522.0, 0.49444013012800525
523.0, 0.4297806497619322
524.0, 0.3846925568995669
525.0, 0.3258235317793034
526.0, 0.288716246722328
527.0, 0.25369715244956415
528.0, 0.21564170178178255
529.0, 0.19249990594319266
530.0, 0.1671998062113495
531.0, 0.14440704248350364
532.0, 0.12515723118249672
533.0, 0.11153144388129194
534.0, 0.10106232630582038
535.0, 0.08209077356874153
536.0, 0.08530631354747764
537.0, 0.07672049873672517
538.0, 0.06471030494277236
539.0, 0.05479116833450641
540.0, 0.04319614282021359
541.0, 0.04424007734480614
542.0, 0.037033714364101286
543.0, 0.025216062007266216
544.0, 0.017792053887949088
545.0, 0.015079414048206343
546.0, 0.009772598253967027
547.0, 0.006434702119237035
548.0, 0.002022607087807368
549.0, 0.0014664487801851686
550.0, 0.0026959728586563405
551.0, 0.0012535447397673827
552.0, 0.002184563236877145
553.0, 0.0008206952074170111
554.0, 0.0011430419248862262
555.0, 0.001300135260214553
556.0, 0.002340481034738217
557.0, 0.004650221339994889
558.0, 0.0038058081620726825
559.0, 0.008394357295486017
560.0, 0.00720512297289565
561.0, 0.0030054929581911018
562.0, 0.004453753520926198
563.0, 0.002068262982325885
564.0, 0.009648812710840723
565.0, 0.010522517124386177
566.0, 0.012562674162268493
567.0, 0.020639773749689314
568.0, 0.025602745394320045
569.0, 0.022706817983051495
570.0, 0.03226183809094142
571.0, 0.0413501532146472
572.0, 0.047249218079612285
573.0, 0.05559650352409769
574.0, 0.06284686707705023
575.0, 0.0701272421835133
576.0, 0.07846001357784467
577.0, 0.08994925888646316
578.0, 0.10706132161040319
579.0, 0.13003006145773943
580.0, 0.14563733815467317
581.0, 0.15452255323599645
582.0, 0.16764824374637582
583.0, 0.18862355157901614
584.0, 0.2124436965180332
585.0, 0.23331456240226245
586.0, 0.25087496981284463
587.0, 0.26940236629160336
588.0, 0.2850014981094985
589.0, 0.30098786016359375
590.0, 0.3164050424447816
591.0, 0.314965689220553
592.0, 0.30594556143168417
593.0, 0.2848229874081937
594.0, 0.2650411781969639
595.0, 0.24681180321398516
596.0, 0.2218992000501845
597.0, 0.20088460163840127
598.0, 0.1824586125934633
599.0, 0.15866491627289395
600.0, 0.13396867619263844
601.0, 0.11578728130641999
602.0, 0.10544028137001012
603.0, 0.0910006178053081
604.0, 0.08717791474815026
605.0, 0.07811926459475664
606.0, 0.06946003679684422
607.0, 0.06512645504926476
608.0, 0.05538035079978767
609.0, 0.047984747867391674
610.0, 0.04434599311744347
611.0, 0.036727897052969694
612.0, 0.02929037073850032
613.0, 0.024453213231377675
614.0, 0.014681858002030984
615.0, 0.012683291350274453
616.0, 0.004748277874130371
617.0, 0.005165480431766933
618.0, 0.004027650417646344
619.0, 0.006082757996598527
620.0, 0.01087248137529561
621.0, 0.009469558234196351
622.0, 0.001765770692000154
623.0, 0.0026941993300603493
624.0, 0.012154281844093808
625.0, 0.014878004491150785
626.0, 0.010304300710129917
627.0, 0.010414542086555172
628.0, 0.015818430924888167
629.0, 0.01675364970137889
630.0, 0.009787460596964387
631.0, 0.0025542511460580532
632.0, 0.005941095882395271
633.0, 0.00398824149020292
634.0, 0.0016863032735125664
635.0, 0.001819905514093218
636.0, 0.0013392396866368959
637.0, 0.004402310170223076
638.0, 0.004282907787667762
639.0, 0.004309879890897031
640.0, 0.013744955340453776
641.0, 0.017297665432712973
642.0, 0.014784777954044282
643.0, 0.010927825757070068
644.0, 0.0104691077603887
645.0, 0.009613383203240301
646.0, 0.011750751592544814
647.0, 0.013301185207896677
648.0, 0.011516343560945637
649.0, 0.00766568669575299
650.0, 0.005535650005066199
651.0, 0.0092080670639193
652.0, 0.009542760683562891
653.0, 0.008319388502869703
654.0, 0.01439432330032521
655.0, 0.025366677242753998
656.0, 0.01870642951160647
657.0, 0.02568723855269677
658.0, 0.03054034136617421
659.0, 0.03459163610005103
660.0, 0.04110799249984673
661.0, 0.05002437688798729
662.0, 0.06146234917487004
663.0, 0.06963388585849357
664.0, 0.07884001471767321
665.0, 0.07725795288552557
666.0, 0.0764634260795845
667.0, 0.0914295842053394
668.0, 0.10242225191393066
669.0, 0.09572355299529307
670.0, 0.10207240429369462
671.0, 0.11431472198939857
672.0, 0.11993895391182066
673.0, 0.11563545403447635
674.0, 0.10532086534837597
675.0, 0.09342628267001842
676.0, 0.09120878274303378
677.0, 0.08286993842861942
678.0, 0.06890510135187784
679.0, 0.057685283720484315
680.0, 0.047562793150309216
681.0, 0.03564055256063503
682.0, 0.03351793458652892
683.0, 0.0222151172315106
684.0, 0.01304228722258976
685.0, 0.01174562318208004
686.0, 0.0015449962831770973
687.0, 0.000917072306641849
688.0, 0.00023134618536602635
689.0, 0.001738527707987753
690.0, 0.005616717713462475
691.0, 0.00975901065631194
692.0, 0.015298067408810137
693.0, 0.02041855706888074
694.0, 0.01880089433367628
695.0, 0.02317328688439661
696.0, 0.01797521123574899
697.0, 0.00917799080407426
698.0, 0.015655469490382178
699.0, 0.01816891655405628
700.0, 0.021841242640448788
701.0, 0.022471836639461167
702.0, 0.024701150064855473
703.0, 0.029425910882139777
704.0, 0.03333580346889775
705.0, 0.03723652632290169
706.0, 0.03930630210564312
707.0, 0.036141508738388034
708.0, 0.03626345768203685
709.0, 0.04206400480628653
710.0, 0.04900535223286903
711.0, 0.05070064893361092
712.0, 0.042903282763101104
713.0, 0.03673281343327876
714.0, 0.03745957198328805
715.0, 0.040294374751335
716.0, 0.03910112724399098
717.0, 0.03341311363782511
718.0, 0.03080539672866071
719.0, 0.03261023672734596
720.0, 0.019088086124569303
721.0, 0.013621138329671777
722.0, 0.016680986844190716
723.0, 0.01524420226986526
724.0, 0.015453951695574899
725.0, 0.01634387953823489
726.0, 0.014283073139254001
727.0, 0.005353565395561116
728.0, 0.002920097868058337
729.0, 0.0035962944527371185
730.0, 0.0015243230992543614
731.0, 0.007721162916943607
732.0, 0.0037584319488708695
733.0, 0.0026074803045717317
734.0, 0.001597384073782882
735.0, 0.008205164127221224
736.0, 0.01243182463513838
737.0, 0.01089939150222594
738.0, 0.016002181416340806
739.0, 0.009680256558837929
740.0, 0.0037861750874095125
741.0, 0.005993586141788862
742.0, 0.009186801541758056
743.0, 0.003661541682215961
744.0, 0.004131565214986665
745.0, 0.007638729076889261
746.0, 0.004576539075602562
747.0, 0.001829333287604672
748.0, 0.003874448076712822
749.0, 0.004282222626260777
750.0, 0.0031768516449576013
751.0, 0.001406080307518457
752.0, 0.0047753418030818204
753.0, 0.0005891653665393076
754.0, 0.004880147315805791
755.0, 0.010379190453183652
756.0, 0.0021934034460939253
757.0, 0.004501926982998769
758.0, 0.0010786345302441216
759.0, 0.004665895830737671
760.0, 0.0023620477290675905
761.0, 0.0023531225702998412
762.0, 0.009964744056478958
763.0, 0.009806767518293841
764.0, 0.014016514219604459
765.0, 0.019385239277305212
766.0, 0.02122519334316038
767.0, 0.024036997613681933
768.0, 0.024192862536776442
769.0, 0.02098881451424385
770.0, 0.02701939499105971
771.0, 0.015222469252861023
772.0, 0.009704436584652197
773.0, 0.0076700229383430815
774.0, 0.00946877808657978
775.0, 0.012251476001884958
776.0, 0.009455458455198264
777.0, 0.008314398442449735
778.0, 0.0130025073154352
779.0, 0.013791280908730764
780.0, 0.01611119693016829
781.0, 0.01884883038184784
782.0, 0.02285257021450639
783.0, 0.031943274338233886
784.0, 0.027818622013156418
785.0, 0.022136688560690506
786.0, 0.02167986568518426
787.0, 0.018839786049226627
788.0, 0.015808578108280874
789.0, 0.01315201859160487
790.0, 0.0031633255757365294
791.0, 0.0035430557591676114
792.0, 0.006961432113161107
793.0, 0.0023383737494184873
794.0, 0.006165723452690218
795.0, 0.008594701211788043
796.0, 0.016633280662802664
797.0, 0.01399834768583713
798.0, 0.014196971570205172
799.0, 0.010198944237097638
800.0, 0.012889956713647807
801.0, 0.01277525021387021
802.0, 0.010654952618896265
803.0, 0.015119590184433781
804.0, 0.020132536425159372
805.0, 0.019414078144707674
806.0, 0.021235022141313186
807.0, 0.026517340982368413
808.0, 0.030488446968464995
809.0, 0.03316833570827108
810.0, 0.038578544801785984
811.0, 0.04629129460621149
812.0, 0.042209977839274604
813.0, 0.040189429523431686
814.0, 0.0425819887259296
815.0, 0.04595229365411311
816.0, 0.0421712321334926
817.0, 0.03458856971313121
818.0, 0.03902594804955677
819.0, 0.040075180414924645
820.0, 0.030901354869859256
821.0, 0.02162532334766548
822.0, 0.020457666444446868
823.0, 0.02442202048626234
824.0, 0.02864304899427903
825.0, 0.03402622812012789
826.0, 0.017262168087483452
827.0, 0.011165945981927319
828.0, 0.015697407855474004
829.0, 0.019322427179104516
830.0, 0.014088786506173229
831.0, 0.008854595413727429
832.0, 0.018001217478035837
833.0, 0.008723990553511762
834.0, 0.010409182202106232
835.0, 0.0142517278170049
836.0, 0.013799303797607361
837.0, 0.01695988022050271
838.0, 0.024753862362937744
839.0, 0.0225736263839699
840.0, 0.014472534453294746
841.0, 0.012568711980058605
842.0, 0.023580608514938314
843.0, 0.022132401800370127
844.0, 0.020462718587977147
845.0, 0.026411756208009084
846.0, 0.02188508204538739
847.0, 0.012271962669975559
848.0, 0.0137074705440027
849.0, 0.0074400895509378895
850.0, 0.005298564386789468
851.0, 0.0031422205787742965
852.0, 0.005290824031900813
853.0, 0.001137207011129216
854.0, 0.00263448125718729
855.0, 0.0020452007341762984
856.0, 0.010814043780192973
857.0, 0.01481899317768489
858.0, 0.022960464363231493
859.0, 0.027563939803299478
860.0, 0.01910007946503606
861.0, 0.017270295632616464
862.0, 0.021806925104119242
863.0, 0.013509978077293079
864.0, 0.009223619476904376
865.0, 0.01670396283166741
866.0, 0.022589092371324223
867.0, 0.01594953778016609
868.0, 0.011751536683677812
869.0, 0.028053071185543798
870.0, 0.016546970876454653
871.0, 0.01663905194022112
872.0, 0.020605027835914776
873.0, 0.022851175258659855
874.0, 0.018886071508262273
875.0, 0.009557821456776668
876.0, 0.008375409413405834
877.0, 0.012873402140598268
878.0, 0.010400836708067277
879.0, 0.0032380250212745206
880.0, 0.0055524231776474175
881.0, 0.0027023885521469102
882.0, 0.004619461286943872
883.0, 0.0015245173334051728
884.0, 0.014208366307750723
885.0, 0.016757462598097714
886.0, 0.019527805997883785
887.0, 0.013847473534508228
888.0, 0.007847614302181397
889.0, 0.006925387561021754
890.0, 0.007312515115236706
891.0, 0.007225661234443469
892.0, 0.007610407427195722
893.0, 0.001912026332849235
894.0, 0.005756421975365805
895.0, 0.007213279050675551
896.0, 0.0030187939159015123
897.0, 0.008337738571156415
898.0, 0.021852741206561343
899.0, 0.012506708512816666
900.0, 0.008841095669056637
901.0, 0.011170709661336362
902.0, 0.017765590565970747
903.0, 0.02072787605736564
904.0, 0.019904274441367078
905.0, 0.017832210888701374
906.0, 0.01407308150357933
907.0, 0.012764399761182753
908.0, 0.014876397731989233
909.0, 0.011550431471765054
910.0, 0.006122630547494249
911.0, 0.008354697276427955
912.0, 0.014739372688980528
913.0, 0.016704684129824836
914.0, 0.014929929441803248
915.0, 0.017041223687374544
916.0, 0.01075791656312525
917.0, 0.021091141885354173
918.0, 0.025692696100492393
919.0, 0.023132551503024523
920.0, 0.027036881116057232
921.0, 0.03306689389292315
922.0, 0.02892451709859479
923.0, 0.0367884186164011
924.0, 0.025240533452930113
925.0, 0.035913537343080525
926.0, 0.03910547910553779
927.0, 0.027528294373277824
928.0, 0.021930474985985975
929.0, 0.026212449805325742
930.0, 0.020297862811031592
931.0, 0.025080998430754845
932.0, 0.02420965875066638
933.0, 0.027980331405485354
934.0, 0.01940033978965079
935.0, 0.015472668440287747
936.0, 0.024309900242186006
937.0, 0.027966236808044814
938.0, 0.022913941602784635
939.0, 0.029950949895864346
940.0, 0.029288165155958796
941.0, 0.028715883233386853
942.0, 0.039443538882327246
943.0, 0.04625933579617549
944.0, 0.049393399959008724
945.0, 0.05889890504709938
946.0, 0.06356600466632072
947.0, 0.06280668523208856
948.0, 0.06302707759645691
949.0, 0.05259845186783521
950.0, 0.04683756041611039
951.0, 0.04091011959054395
952.0, 0.03179871327780531
953.0, 0.025497518873962125
954.0, 0.023221538210555233
955.0, 0.02094008446116194
956.0, 0.013986714834906504
957.0, 0.009018354675230423
958.0, 0.010106739296391913
959.0, 0.006668458205675021
960.0, 0.0009594653767411658
961.0, 0.000376911202775151
962.0, 0.001205509902649686
963.0, 0.0002659331354579345
964.0, 0.0044738319920531455
965.0, 0.000978935283912078
966.0, 0.0014187705679914752
967.0, 0.00845700495214767
968.0, 0.010253027823570444
969.0, 0.00521961856074839
970.0, 0.003970965602099903
971.0, 0.00963683931129961
972.0, 0.00991301102526479
973.0, 0.0020803610910183484
974.0, 0.0014159390786522641
975.0, 0.003365930796192041
976.0, 0.003554596776834437
977.0, 0.0054145205263181635
978.0, 0.010097322874790272
979.0, 0.003301163878360369
980.0, 0.015326274475973869
981.0, 0.006810554511449412
982.0, 0.022955989558184228
983.0, 0.022906621709194896
984.0, 0.015767994706481242
985.0, 0.013165956100232938
986.0, 0.012275523073178666
987.0, 0.012291440700295909
988.0, 0.01661594177042092
989.0, 0.016858701438169567
990.0, 0.02105103528081089
991.0, 0.015894418404121355
992.0, 0.027092533860359827
993.0, 0.029833697227224145
994.0, 0.026763093707001865
995.0, 0.03325685518338247
996.0, 0.03904794901929715
997.0, 0.039605012256685466
998.0, 0.04252271751835512
999.0, 0.05254201016372664
1000.0, 0.06482432225396899
1001.0, 0.060721153875167445
1002.0, 0.05148681625487213
1003.0, 0.05422525834711567
1004.0, 0.059803101161912724
1005.0, 0.05728850640155348
1006.0, 0.06723857390006197
1007.0, 0.07998931487029348
1008.0, 0.0862782769202421
1009.0, 0.091777270365302
1010.0, 0.10003966304301434
1011.0, 0.10711401481524206
1012.0, 0.11539634702321613
1013.0, 0.12554104064524135
1014.0, 0.12852446493460948
1015.0, 0.13415733155613047
1016.0, 0.1481105409952718
1017.0, 0.15450696473796194
1018.0, 0.1659149882743189
1019.0, 0.1704566891005596
1020.0, 0.1760727729720502
1021.0, 0.1857877197416338
1022.0, 0.1932268350118768
1023.0, 0.19698470040514607
1024.0, 0.1806962372380421
1025.0, 0.17756774282170504
1026.0, 0.16454924658400116
1027.0, 0.1412322875893739
1028.0, 0.12527232326259014
1029.0, 0.10812243708416465
1030.0, 0.09190134120567599
1031.0, 0.08377363509700292
1032.0, 0.06907417808393727
1033.0, 0.05282360461624984
1034.0, 0.041810258954704124
1035.0, 0.02685707908643978
1036.0, 0.02786452997290154
1037.0, 0.027806626721155907
1038.0, 0.020048719666078203
1039.0, 0.016921444896092073
1040.0, 0.01567270382478194
1041.0, 0.0015932154219454044
1042.0, 0.0010574703733912162
1043.0, 0.006691180227137678
1044.0, 0.005254014134539525
1045.0, 0.00473308965495703
1046.0, 0.00675554418432694
1047.0, 0.0029323753259813405
1048.0, 0.0021654173847450034
1049.0, 0.005893095526424506
1050.0, 0.0026848943497196336
1051.0, 0.002438971873638297
1052.0, 0.0027115899204371097
1053.0, 0.011547845108513258
1054.0, 0.0032957550596878302
1055.0, 0.002942161166748425
1056.0, 0.009513291852529814
1057.0, 0.011248246173027781
1058.0, 0.01361777287386721
1059.0, 0.018953114273834986
1060.0, 0.024240372802894386
1061.0, 0.02713862866421465
1062.0, 0.02737128416637206
1063.0, 0.03222249448354582
1064.0, 0.03938542389900507
1065.0, 0.050810535936035746
1066.0, 0.06496521225143564
1067.0, 0.0692003087116127
1068.0, 0.06595415073234503
1069.0, 0.07664623470107343
1070.0, 0.09593321421009615
1071.0, 0.10366870175963856
1072.0, 0.11833585944353318
1073.0, 0.12967501117341274
1074.0, 0.1272539614725341
1075.0, 0.12780993827856713
1076.0, 0.12382325738280486
1077.0, 0.1215695568411626
1078.0, 0.12530753790778398
1079.0, 0.11915521087850561
1080.0, 0.11745995331700686
1081.0, 0.10797800748327328
1082.0, 0.11106832345236337
1083.0, 0.10724003980236337
1084.0, 0.09287431884657844
1085.0, 0.09025362033972648
1086.0, 0.09167408378362928
1087.0, 0.09197652106307662
1088.0, 0.09667216012913787
1089.0, 0.0977020156754744
1090.0, 0.09980172946620104
1091.0, 0.10048709395187955
1092.0, 0.09983201273030179
1093.0, 0.101063145028322
1094.0, 0.10719053004306076
1095.0, 0.11576613426036056
1096.0, 0.11939111464895673
1097.0, 0.1174068750605325
1098.0, 0.11483546552879685
1099.0, 0.11468802255327995
1100.0, 0.12312766277441076
1101.0, 0.13426888463830966
1102.0, 0.14423606676618478
1103.0, 0.1480034419202496
1104.0, 0.1455786250358477
1105.0, 0.13690961358537146
1106.0, 0.13040357800044902
1107.0, 0.12568557880104467
1108.0, 0.11585172863072626
1109.0, 0.10328490832509378
1110.0, 0.09113225832952225
1111.0, 0.07892212071290551
1112.0, 0.06964344270335622
1113.0, 0.06416907696662132
1114.0, 0.0513619037044392
1115.0, 0.04173761521404489
1116.0, 0.035136204526244545
1117.0, 0.02414605794892595
1118.0, 0.015148653779963673
1119.0, 0.01429689279392931
1120.0, 0.01026717095098013
1121.0, 0.013851054008385134
1122.0, 0.014277808861672672
1123.0, 0.013923920188276926
1124.0, 0.00906546954345795
1125.0, 0.012828562206489692
1126.0, 0.014899627061862595
1127.0, 0.016073078661584347
1128.0, 0.012325145006008849
1129.0, 0.00288130014447618
1130.0, 0.00224801535847253
1131.0, 0.009736853090808956
1132.0, 0.009213811479089964
1133.0, 0.007554922256767743
1134.0, 0.005890281677857513
1135.0, 0.008861878102650118
1136.0, 0.0030568773599733137
1137.0, 0.0027434916618199333
1138.0, 0.005105215740060204
1139.0, 0.00609036085152449
1140.0, 0.007236160211938842
1141.0, 0.002373828374240495
1142.0, 0.004636238808037661
1143.0, 0.009380373344639162
1144.0, 0.006476530703399062
1145.0, 0.00413871121392293
1146.0, 0.00767441140760643
1147.0, 0.009252034485323002
1148.0, 0.011054994661380763
1149.0, 0.012288244310108857
1150.0, 0.007391575372833473
1151.0, 0.006274509426324129
1152.0, 0.008354430202677083
1153.0, 0.005016254122224799
1154.0, 0.0037820088238813467
1155.0, 0.007328686836290597
1156.0, 0.0009437632185965075
1157.0, 0.00034623465605082576
1158.0, 0.0018739142973121787
1159.0, 0.004249363889556794
1160.0, 0.0020861344674024947
1161.0, 0.001756317850639286
1162.0, 0.003119234179595618
1163.0, 0.0063497399031584535
1164.0, 0.01282876969393821
1165.0, 0.012699578844000173
1166.0, 0.017157409969706435
1167.0, 0.005378347569262919
1168.0, 0.0095744856380921
1169.0, 0.007748370696445161
1170.0, 0.007637375037313782
1171.0, 0.005259759778625592
1172.0, 0.005290517060732737
1173.0, 0.008092906968361225
1174.0, 0.003860184644736981
1175.0, 0.007491863374000447
1176.0, 0.009305018866638126
1177.0, 0.00901291026479459
1178.0, 0.00831256881786304
1179.0, 0.0019316180325787157
1180.0, 0.0062384069313706535
1181.0, 0.006563854249705538
1182.0, 0.005918823732126088
1183.0, 0.014052534437036222
1184.0, 0.020937736380370452
1185.0, 0.010855551505311579
1186.0, 0.003518095400313498
1187.0, 0.0008884328403189088
1188.0, 0.003136752878645648
1189.0, 0.001752420237507822
1190.0, 0.009413428070060938
1191.0, 0.0034520412110899514
1192.0, 0.0015400364469199993
1193.0, 0.0019697396219949107
1194.0, 0.007226764705605076
1195.0, 0.012967265272564633
1196.0, 0.011177728932099272
1197.0, 0.012326051687666973
1198.0, 0.010388238745646417
1199.0, 0.011551717756226003
1200.0, 0.012138550597714768
1201.0, 0.008865800244059389
1202.0, 0.0040175232792520315
1203.0, 0.004970735052458185
1204.0, 0.00782018974074358
1205.0, 0.005593974518072877
1206.0, 0.0007644543786708358
1207.0, 0.00777488082827686
1208.0, 0.01663494933360394
1209.0, 0.008940808065021514
1210.0, 0.002029387731483697
1211.0, 0.0036695082410575838
1212.0, 0.006605823652945809
1213.0, 0.009457305212748448
1214.0, 0.010724120015305004
1215.0, 0.01562616546054283
1216.0, 0.021346495125965773
1217.0, 0.022275397883439994
1218.0, 0.03398642507130199
1219.0, 0.038646984967331724
1220.0, 0.030089869561689582
1221.0, 0.027610775202508275
1222.0, 0.02916145550214912
1223.0, 0.021814250114171867
1224.0, 0.02039259329345194
1225.0, 0.014038419526460658
1226.0, 0.02545084134719332
1227.0, 0.016736243402278417
1228.0, 0.022883333767122142
1229.0, 0.02161623743579995
1230.0, 0.018563003576312364
1231.0, 0.017301980029490772
1232.0, 0.011971032081187044
1233.0, 0.010581300390900168
1234.0, 0.017905154301569512
1235.0, 0.0212314772916003
1236.0, 0.014295223842031711
1237.0, 0.01158609853669728
1238.0, 0.0025298038901442194
1239.0, 0.0038092491347425984
1240.0, 0.008694469579510162
1241.0, 0.003377976668282807
1242.0, 0.003168661597136237
1243.0, 0.011082461728730461
1244.0, 0.009441607886128979
1245.0, 0.008396486086422069
1246.0, 0.016077791220501396
1247.0, 0.02515359123461579
1248.0, 0.024870954605978535
1249.0, 0.021573560115108574
1250.0, 0.019873623605984752
1251.0, 0.017444249339231832
1252.0, 0.015071703577059677
1253.0, 0.012444594661635238
1254.0, 0.01955325323684688
1255.0, 0.008979286348323614
1256.0, 0.006558798298772419
1257.0, 0.0057809022602627125
1258.0, 0.003431432645918561
1259.0, 0.004355122828159426
1260.0, 0.00785015175616921
1261.0, 0.013518426196827632
1262.0, 0.018310494156146086
1263.0, 0.01430054723842565
1264.0, 0.014897214215141907
1265.0, 0.02477919279095389
1266.0, 0.014382110424839212
1267.0, 0.00461027791735772
1268.0, 0.007496604478640029
1269.0, 0.007626948140055171
1270.0, 0.01029133858298207
1271.0, 0.018579463460630444
1272.0, 0.019997491388352336
1273.0, 0.016605702553194268
1274.0, 0.010188178647593653
1275.0, 0.0027961762378546293
1276.0, 0.004772800938271035
1277.0, 0.009283705899835779
1278.0, 0.00018114805529272963
1279.0, 0.0036438768007109137
1280.0, 0.006873766497079579
1281, 0.0
1282, 0.0
1283, 0.0
1284, 0.0
1285, 0.0
1286, 0.0
1287, 0.0
1288, 0.0
1289, 0.0
1290, 0.0
1291, 0.0
1292, 0.0
1293, 0.0
1294, 0.0
1295, 0.0
1296, 0.0
1297, 0.0
1298, 0.0
1299, 0.0
1300, 0.0
1301, 0.0
1302, 0.0
1303, 0.0
1304, 0.0
1305, 0.0
1306, 0.0
1307, 0.0
1308, 0.0
1309, 0.0
1310, 0.0
1311, 0.0
1312, 0.0
1313, 0.0
1314, 0.0
1315, 0.0
1316, 0.0
1317, 0.0
1318, 0.0
1319, 0.0
1320, 0.0
1321, 0.0
1322, 0.0
1323, 0.0
1324, 0.0
1325, 0.0
1326, 0.0
1327, 0.0
1328, 0.0
1329, 0.0
1330, 0.0
1331, 0.0
1332, 0.0
1333, 0.0
1334, 0.0
1335, 0.0
1336, 0.0
1337, 0.0
1338, 0.0
1339, 0.0
1340, 0.0
1341, 0.0
1342, 0.0
1343, 0.0
1344, 0.0
1345, 0.0
1346, 0.0
1347, 0.0
1348, 0.0
1349, 0.0
1350, 0.0
1351, 0.0
1352, 0.0
1353, 0.0
1354, 0.0
1355, 0.0
1356, 0.0
1357, 0.0
1358, 0.0
1359, 0.0
1360, 0.0
1361, 0.0
1362, 0.0
1363, 0.0
1364, 0.0
1365, 0.0
1366, 0.0
1367, 0.0
1368, 0.0
1369, 0.0
1370, 0.0
1371, 0.0
1372, 0.0
1373, 0.0
1374, 0.0
1375, 0.0
1376, 0.0
1377, 0.0
1378, 0.0
1379, 0.0
1380, 0.0
1381, 0.0
1382, 0.0
1383, 0.0
1384, 0.0
1385, 0.0
1386, 0.0
1387, 0.0
1388, 0.0
1389, 0.0
1390, 0.0
1391, 0.0
1392, 0.0
1393, 0.0
1394, 0.0
1395, 0.0
1396, 0.0
1397, 0.0
1398, 0.0
1399, 0.0
1400, 0.0
1401, 0.0
1402, 0.0
1403, 0.0
1404, 0.0
1405, 0.0
1406, 0.0
1407, 0.0
1408, 0.0
1409, 0.0
1410, 0.0
1411, 0.0
1412, 0.0
1413, 0.0
1414, 0.0
1415, 0.0
1416, 0.0
1417, 0.0
1418, 0.0
1419, 0.0
1420, 0.0
1421, 0.0
1422, 0.0
1423, 0.0
1424, 0.0
1425, 0.0
1426, 0.0
1427, 0.0
1428, 0.0
1429, 0.0
1430, 0.0
1431, 0.0
1432, 0.0
1433, 0.0
1434, 0.0
1435, 0.0
1436, 0.0
1437, 0.0
1438, 0.0
1439, 0.0
1440, 0.0
1441, 0.0
1442, 0.0
1443, 0.0
1444, 0.0
1445, 0.0
1446, 0.0
1447, 0.0
1448, 0.0
1449, 0.0
1450, 0.0
1451, 0.0
1452, 0.0
1453, 0.0
1454, 0.0
1455, 0.0
1456, 0.0
1457, 0.0
1458, 0.0
1459, 0.0
1460, 0.0
1461, 0.0
1462, 0.0
1463, 0.0
1464, 0.0
1465, 0.0
1466, 0.0
1467, 0.0
1468, 0.0
1469, 0.0
1470, 0.0
1471, 0.0
1472, 0.0
1473, 0.0
1474, 0.0
1475, 0.0
1476, 0.0
1477, 0.0
1478, 0.0
1479, 0.0
1480, 0.0
1481, 0.0
1482, 0.0
1483, 0.0
1484, 0.0
1485, 0.0
1486, 0.0
1487, 0.0
1488, 0.0
1489, 0.0
1490, 0.0
1491, 0.0
1492, 0.0
1493, 0.0
1494, 0.0
1495, 0.0
1496, 0.0
1497, 0.0
1498, 0.0
1499, 0.0
1500, 0.0
1501, 0.0
1502, 0.0
1503, 0.0
1504, 0.0
1505, 0.0
1506, 0.0
1507, 0.0
1508, 0.0
1509, 0.0
1510, 0.0
1511, 0.0
1512, 0.0
1513, 0.0
1514, 0.0
1515, 0.0
1516, 0.0
1517, 0.0
1518, 0.0
1519, 0.0
1520, 0.0
1521, 0.0
1522, 0.0
1523, 0.0
1524, 0.0
1525, 0.0
1526, 0.0
1527, 0.0
1528, 0.0
1529, 0.0
1530, 0.0
1531, 0.0
1532, 0.0
1533, 0.0
1534, 0.0
1535, 0.0
1536, 0.0
1537, 0.0
1538, 0.0
1539, 0.0
1540, 0.0
1541, 0.0
1542, 0.0
1543, 0.0
1544, 0.0
1545, 0.0
1546, 0.0
1547, 0.0
1548, 0.0
1549, 0.0
1550, 0.0
1551, 0.0
1552, 0.0
1553, 0.0
1554, 0.0
1555, 0.0
1556, 0.0
1557, 0.0
1558, 0.0
1559, 0.0
1560, 0.0
1561, 0.0
1562, 0.0
1563, 0.0
1564, 0.0
1565, 0.0
1566, 0.0
1567, 0.0
1568, 0.0
1569, 0.0
1570, 0.0
1571, 0.0
1572, 0.0
1573, 0.0
1574, 0.0
1575, 0.0
1576, 0.0
1577, 0.0
1578, 0.0
1579, 0.0
1580, 0.0
1581, 0.0
1582, 0.0
1583, 0.0
1584, 0.0
1585, 0.0
1586, 0.0
1587, 0.0
1588, 0.0
1589, 0.0
1590, 0.0
1591, 0.0
1592, 0.0
1593, 0.0
1594, 0.0
1595, 0.0
1596, 0.0
1597, 0.0
1598, 0.0
1599, 0.0
