30, 0.0
31, 0.0
32, 0.0
33, 0.0
34, 0.0
35, 0.0
36, 0.0
37, 0.0
38, 0.0
39, 0.0
40, 0.0
41, 0.0
42, 0.0
43, 0.0
44, 0.0
45, 0.0
46, 0.0
47, 0.0
48, 0.0
49, 0.0
50, 0.0
51, 0.0
52, 0.0
53, 0.0
54, 0.0
55, 0.0
56, 0.0
57, 0.0
58, 0.0
59, 0.0
60, 0.0
61, 0.0
62, 0.0
63, 0.0
64, 0.0
65, 0.0
66, 0.0
67, 0.0
68, 0.0
69, 0.0
70, 0.0
71, 0.0
72, 0.0
73, 0.0
74, 0.0
75, 0.0
76, 0.0
77, 0.0
78, 0.0
79, 0.0
80, 0.0
81, 0.0
82, 0.0
83, 0.0
84, 0.0
85, 0.0
86, 0.0
87, 0.0
88, 0.0
89, 0.0
90, 0.0
91, 0.0
92, 0.0
93, 0.0
94, 0.0
95, 0.0
96, 0.0
97, 0.0
98, 0.0
99, 0.0
100, 0.0
101, 0.0
102, 0.0
103, 0.0
104, 0.0
105, 0.0
106, 0.0
107, 0.0
108, 0.0
109, 0.0
110, 0.0
111, 0.0
112, 0.0
113, 0.0
114, 0.0
115, 0.0
116, 0.0
117, 0.0
118, 0.0
119, 0.0
120, 0.0
121, 0.0
122, 0.0
123, 0.0
124, 0.0
125, 0.0
126, 0.0
127, 0.0
128, 0.0
129, 0.0
130, 0.0
131, 0.0
132, 0.0
133, 0.0
134, 0.0
135, 0.0
136, 0.0
137, 0.0
138, 0.0
139, 0.0
140, 0.0
141, 0.0
142, 0.0
143, 0.0
144, 0.0
145, 0.0
146, 0.0
147, 0.0
148, 0.0
149, 0.0
150, 0.0
151, 0.0
152, 0.0
153, 0.0
154, 0.0
155, 0.0
156, 0.0
157, 0.0
158, 0.0
159, 0.0
160, 0.0
161.0, 0.001069257347344092
162.0, 0.005816028212530189
163.0, 0.0036065006021761678
164.0, 0.0036844274816075617
165.0, 0.006894814255428913
166.0, 0.016817019129279298
167.0, 0.019704797252829063
168.0, 0.02071712225997358
169.0, 0.026590227436923203
170.0, 0.036372634714244234
171.0, 0.04979638165963858
172.0, 0.06449430173925383
173.0, 0.07600604546740454
174.0, 0.07893291859453563
175.0, 0.08693389447309881
176.0, 0.09202864517985464
177.0, 0.10084909138395852
178.0, 0.1242187736509773
179.0, 0.1413614525198801
180.0, 0.15376166556458018
181.0, 0.1734162156486728
182.0, 0.19905381449324333
183.0, 0.20664947308055995
184.0, 0.20736866894548608
185.0, 0.21207517667909362
186.0, 0.21791171230076592
187.0, 0.2158051508450795
188.0, 0.2065801061055568
189.0, 0.19238843829571772
190.0, 0.16329800284655657
191.0, 0.13362087260825617
192.0, 0.1350295407641863
193.0, 0.11900930149454499
194.0, 0.09518800724704836
195.0, 0.07098156889233484
196.0, 0.0484598660868179
197.0, 0.03658547503171397
198.0, 0.03702803855700046
199.0, 0.026544206978474268
200.0, 0.010696099932499406
201.0, 0.023543105777315436
202.0, 0.020581970210971925
203.0, 0.014220743242857228
204.0, 0.017050585942996598
205.0, 0.033885368050995915
206.0, 0.04709171765243638
207.0, 0.05326995165008018
208.0, 0.06406257567264886
209.0, 0.07991350239069861
210.0, 0.08957846463393229
211.0, 0.11181513054851122
212.0, 0.1448345715697181
213.0, 0.17878449623023548
214.0, 0.21083461827623223
215.0, 0.2492497074327062
216.0, 0.2706927336992597
217.0, 0.2987365647075823
218.0, 0.3342880781957424
219.0, 0.36407296311047804
220.0, 0.4050063732754707
221.0, 0.4461892439031316
222.0, 0.4841111509787101
223.0, 0.5216265678587895
224.0, 0.5628458491481396
225.0, 0.6134217156629479
226.0, 0.6655462893375649
227.0, 0.7089448393497676
228.0, 0.7425955159484933
229.0, 0.7909113037479268
230.0, 0.8377884912310507
231.0, 0.8726889467368597
232.0, 0.9013559424461612
233.0, 0.9377600428023992
234.0, 0.9575207798462527
235.0, 0.9826848253236923
236.0, 0.999605730699721
237.0, 0.9991495592901507
238.0, 0.9989383268860206
239.0, 0.9901002826048444
240.0, 0.9789796715381965
241.0, 0.9703831648143333
242.0, 0.9590329929730886
243.0, 0.9267131460186717
244.0, 0.9084918382337492
245.0, 0.8916164880801809
246.0, 0.8767725743928972
247.0, 0.8766096669453116
248.0, 0.8733261347971405
249.0, 0.8519528106614607
250.0, 0.8477324209132739
251.0, 0.8704374733571559
252.0, 0.8847121313991599
253.0, 0.8948008606160129
254.0, 0.9085362571699801
255.0, 0.9168014026472789
256.0, 0.9116117219305024
257.0, 0.8982236717499452
258.0, 0.897669905126044
259.0, 0.8782474639858585
260.0, 0.8425067583816366
261.0, 0.8072434495092086
262.0, 0.765818606534281
263.0, 0.7044338287069853
264.0, 0.6423452713482972
265.0, 0.5893690203985006
266.0, 0.5427148613210451
267.0, 0.49831535801309457
268.0, 0.4505988899848984
269.0, 0.4097455643483726
270.0, 0.3804640782818011
271.0, 0.35710967753239076
272.0, 0.32102845727059337
273.0, 0.2945916918018884
274.0, 0.27850280952315115
275.0, 0.26264052295314855
276.0, 0.23734762365788223
277.0, 0.20970302652207637
278.0, 0.20009595218228357
279.0, 0.1932094523602448
280.0, 0.16945957596750552
281.0, 0.1530260714458194
282.0, 0.1407034895997093
283.0, 0.1217992647236861
284.0, 0.10414816401527742
285.0, 0.09632107797601502
286.0, 0.0869258876232457
287.0, 0.07685748319624851
288.0, 0.0680321551207171
289.0, 0.06084364847219156
290.0, 0.054419902457771986
291.0, 0.05638665094153743
292.0, 0.04961178707904717
293.0, 0.04639449307960601
294.0, 0.043345380905315485
295.0, 0.04305976243239133
296.0, 0.04063315085751156
297.0, 0.03970484171567772
298.0, 0.03579573112158171
299.0, 0.029100029954596575
300.0, 0.020332595269702297
301.0, 0.020995310679699345
302.0, 0.023439572838850297
303.0, 0.019596830430892
304.0, 0.014045061305682567
305.0, 0.019472479153558483
306.0, 0.018218908247287342
307.0, 0.005477301284801542
308.0, 0.0005822376446081175
309.0, 0.007161318948645454
310.0, 0.003375736212764277
311.0, 0.004431705716464767
312.0, 0.000958206388258242
313.0, 0.005281863875041379
314.0, 0.0066427966051321955
315.0, 0.0024589079436749157
316.0, 0.005511516493147194
317.0, 0.0055236245267407166
318.0, 0.0056296957399631945
319.0, 0.011619382132522357
320.0, 0.01538412836245662
321.0, 0.016852412360394007
322.0, 0.01243085058407674
323.0, 0.0069535336201582325
324.0, 0.004614305915005773
325.0, 0.0025719120923332166
326.0, 0.0002899520368274138
327.0, 0.0005897723740496311
328.0, 0.0006955697420803759
329.0, 0.0031941451609558157
330.0, 0.004842355305407427
331.0, 0.0011282152791513738
332.0, 0.0003593510807987463
333.0, 0.001517958307163863
334.0, 0.004613628728361126
335.0, 0.009992253448515362
336.0, 0.007060591445696548
337.0, 0.010028855613547284
338.0, 0.014166043542171934
339.0, 0.016118615324943134
340.0, 0.02216420013252654
341.0, 0.011829119752479026
342.0, 0.008377912256604956
343.0, 0.015256956475696328
344.0, 0.024493015207813544
345.0, 0.027687722761603358
346.0, 0.018344965484697284
347.0, 0.028118638972520378
348.0, 0.03475644768158976
349.0, 0.027730456228865878
350.0, 0.02651489990505845
351.0, 0.027263515477855868
352.0, 0.02234852076164196
353.0, 0.022136128249740383
354.0, 0.027613766169060697
355.0, 0.026402319587590078
356.0, 0.03168235324785694
357.0, 0.026980963874051272
358.0, 0.027389589633680864
359.0, 0.03468795189566625
360.0, 0.035215764538519434
361.0, 0.040894584751889
362.0, 0.034218787788858965
363.0, 0.028592647024428673
364.0, 0.03195044462656799
365.0, 0.04073404108313923
366.0, 0.039164696518321426
367.0, 0.03818876973557779
368.0, 0.040697918465058366
369.0, 0.04144846084729933
370.0, 0.03588189991096115
371.0, 0.03780069763633287
372.0, 0.04086062667974107
373.0, 0.04359710342392178
374.0, 0.04039046804968425
375.0, 0.03476502215581863
376.0, 0.039038000195478116
377.0, 0.03420792301621044
378.0, 0.029400264373158336
379.0, 0.02396614699015399
380.0, 0.01833816885877381
381.0, 0.020026636713530933
382.0, 0.02370956518027585
383.0, 0.024278193009544338
384.0, 0.020933112341323674
385.0, 0.019039832017645513
386.0, 0.022508406038715498
387.0, 0.017437413332651842
388.0, 0.015798318930955308
389.0, 0.01969544051911142
390.0, 0.0215923983616945
391.0, 0.018770171310974085
392.0, 0.019290323737917642
393.0, 0.013772034486127153
394.0, 0.010174000117403282
395.0, 0.013073837135811523
396.0, 0.017559968471515423
397.0, 0.013806652201364662
398.0, 0.010638689275932705
399.0, 0.013472348383411267
400.0, 0.013896678242065034
401.0, 0.009968134859381443
402.0, 0.008851659972829194
403.0, 0.006163806536207164
404.0, 0.011064412044529423
405.0, 0.01121282642608136
406.0, 0.00931311012096152
407.0, 0.012413237204380203
408.0, 0.00959683565455032
409.0, 0.008540012467204278
410.0, 0.010760289244592458
411.0, 0.010093726047771383
412.0, 0.007219078869441713
413.0, 0.011675059069158963
414.0, 0.012615844559558822
415.0, 0.006259841726249354
416.0, 0.0046517295072395414
417.0, 0.0082854002297601
418.0, 0.007398530111905962
419.0, 0.009845209238061496
420.0, 0.008739437577639567
421.0, 0.002952387346562729
422.0, 0.002687048525619078
423.0, 0.007681838646317891
424.0, 0.0017465293887453206
425.0, 0.0012415040312458209
426.0, 0.0038545545863172635
427.0, 0.005552953206737516
428.0, 0.006018242106790467
429.0, 0.0050473342213404535
430.0, 0.0011993451295788551
431.0, 0.0025617085624832277
432.0, 0.008439576808494269
433.0, 0.00867575964690711
434.0, 0.0024211367681581564
435.0, 0.0010306174384332716
436.0, 0.003725553885889273
437.0, 0.008370257723807464
438.0, 0.008309444770094924
439.0, 0.004854650625103243
440.0, 0.005594410112316339
441.0, 0.0018152117562389239
442.0, 0.009587181671613711
443.0, 0.008316909536784914
444.0, 0.0019314395966004692
445.0, 0.00531816594875642
446.0, 0.00570355636729973
447.0, 0.0016141626784311192
448.0, 0.004735228635218854
449.0, 0.007675668950032732
450.0, 0.003970874131399541
451.0, 0.0004579981262282566
452.0, 0.0023305814923705107
453.0, 0.001201735333030179
454.0, 0.0015902611833102768
455.0, 0.00590716877290428
456.0, 0.006131390230803829
457.0, 0.0005410313606658527
458.0, 0.003480045343517751
459.0, 0.004509348044772921
460.0, 0.0045904140033493235
461.0, 0.005339626640952163
462.0, 0.004840740548597483
463.0, 0.0027660771795554153
464.0, 0.003045437144703977
465.0, 0.0015503623203950807
466.0, 0.0006287878844759981
467.0, 0.003309945906904912
468.0, 0.0075157096261996405
469.0, 0.007703150193850837
470.0, 0.0073415682287899416
471.0, 0.005527762680946851
472.0, 0.00425044529819624
473.0, 0.005200061298494093
474.0, 0.001962521856566809
475.0, 0.0061590058950692405
476.0, 0.008635625126952201
477.0, 0.008195864518116313
478.0, 0.0065182382588165255
479.0, 0.00398281448068047
480.0, 0.0001951857833425282
481.0, 0.008311601975865652
482.0, 0.005784612719546109
483.0, 0.0022411550751168016
484.0, 0.005175031871606818
485.0, 0.0032563667338095814
486.0, 0.007529759425968126
487.0, 0.004709969464021831
488.0, 0.003570523855812484
489.0, 0.004716117007728002
490.0, 0.004076002256955237
491.0, 0.002799999854626834
492.0, 0.00021588282097553913
493.0, 0.006755287230122989
494.0, 0.00942431463914542
495.0, 0.004346259745980689
496.0, 0.00047432900682990356
497.0, 0.00845258331723272
498.0, 0.008503604369033557
499.0, 0.004748644922828931
500.0, 0.006658137560321293
501.0, 0.008955172978458196
502.0, 0.002259128555643567
503.0, 0.0030469510424460046
504.0, 0.010538460855218028
505.0, 0.01486434839973353
506.0, 0.014167495752238085
507.0, 0.011032991328574644
508.0, 0.00839777180430043
509.0, 0.00876018642698141
510.0, 0.014788758149242322
511.0, 0.013149810325316043
512.0, 0.00994853729129555
513.0, 0.010315225798676473
514.0, 0.012266094221115926
515.0, 0.012446766603902497
516.0, 0.008443248307773044
517.0, 0.014379631942247876
518.0, 0.016062804025711978
519.0, 0.01370975911390463
520.0, 0.021982125604788703
521.0, 0.016776844275367925
522.0, 0.01093181592020236
523.0, 0.012509063139587568
524.0, 0.0187947734761553
525.0, 0.021289238089726322
526.0, 0.017786833697673077
527.0, 0.020259107834607576
528.0, 0.01659627302573476
529.0, 0.015180051624678883
530.0, 0.013802297414346389
531.0, 0.016856399353843754
532.0, 0.015824384834620068
533.0, 0.018301665318341098
534.0, 0.01742128294076502
535.0, 0.013500001508128261
536.0, 0.015832918880289107
537.0, 0.01719854230065177
538.0, 0.01544888129144005
539.0, 0.01407812804697784
540.0, 0.017180419074523248
541.0, 0.017988990168484185
542.0, 0.013852410931120059
543.0, 0.011827997268815772
544.0, 0.015635789390738945
545.0, 0.005478122871609764
546.0, 0.005927221944929586
547.0, 0.010261044159369197
548.0, 0.010474754944036786
549.0, 0.01010536970784003
550.0, 0.014249568146193084
551.0, 0.014649592228725453
552.0, 0.013606969676373523
553.0, 0.014052072511267947
554.0, 0.010054140214263664
555.0, 0.0035541404415733984
556.0, 0.002431334226760112
557.0, 0.007050168379355648
558.0, 0.00825993529800156
559.0, 0.01198874060965007
560.0, 0.011561788906118534
561.0, 0.009040958055225345
562.0, 0.010351639083715182
563.0, 0.006347423315693862
564.0, 0.0055302929706915775
565.0, 0.002582427404513395
566.0, 0.005039381077567105
567.0, 0.005937248351196979
568.0, 0.0018562748336807104
569.0, 0.005603572134821808
570.0, 0.0018232248088375488
571.0, 0.004224043321583365
572.0, 0.0030459564007068243
573.0, 0.0019918494693286055
574.0, 0.0027550684331912444
575.0, 0.002200816899190485
576.0, 0.0010989900634906598
577.0, 0.0024640073258255504
578.0, 0.0020272894231456403
579.0, 0.0035402784843193737
580.0, 0.004467128902879047
581.0, 0.0037766430244658296
582.0, 0.00576309276229719
583.0, 0.0034638965319160955
584.0, 0.007874776112129292
585.0, 0.005148099789352859
586.0, 0.000640149515043752
587.0, 0.0038379765601989336
588.0, 0.004840178665042765
589.0, 0.0029749855931178264
590.0, 0.0057071829262374954
591.0, 0.003961263898888741
592.0, 0.005167750508451751
593.0, 0.008241079538308525
594.0, 0.002980166922727973
595.0, 0.0014290267994301132
596.0, 0.005930411476880319
597.0, 0.0014878814704115454
598.0, 0.0032917410658880905
599.0, 0.009979403924705062
600.0, 0.00896134852330633
601.0, 0.0029648460748647127
602.0, 0.0004075408108805806
603.0, 0.010378388486146611
604.0, 0.005960270504593981
605.0, 0.002693644271951072
606.0, 0.004641223885657117
607.0, 0.0019991958853959476
608.0, 0.002981530860382854
609.0, 0.00684031123474784
610.0, 0.0077679902247976065
611.0, 0.00800801205196261
612.0, 0.0066902282207083755
613.0, 0.0031996768586438147
614.0, 0.0018839012649844683
615.0, 0.006616213083671951
616.0, 0.005191301324536023
617.0, 0.0030234847233282774
618.0, 0.0035358864610648007
619.0, 0.00650897832911742
620.0, 0.009123765338357681
621.0, 0.004703389228109664
622.0, 0.009283104597815587
623.0, 0.011516443626635103
624.0, 0.010008018593229239
625.0, 0.0060941612940889
626.0, 0.00283540093095174
627.0, 0.0030652033182625034
628.0, 0.00442652081470565
629.0, 0.004096407846726629
630.0, 0.0039947871423885875
631.0, 0.003660218339863181
632.0, 0.004756707216827703
633.0, 0.006701529076045448
634.0, 0.004264463804822554
635.0, 0.007584428107405923
636.0, 0.01254835259527435
637.0, 0.010293179540135077
638.0, 0.00996811528019248
639.0, 0.012191910183374283
640.0, 0.008632816260503233
641.0, 0.003351893072068537
642.0, 0.0039330359197744915
643.0, 0.004328964454684177
644.0, 0.0033942166164362985
645.0, 0.004107330631013319
646.0, 0.0055311655749218525
647.0, 0.006158083285835664
648.0, 0.008385868885444578
649.0, 0.0040256119772877075
650.0, 0.005599706167943507
651.0, 0.008058102684533148
652.0, 0.008636681742804094
653.0, 0.009536538164840066
654.0, 0.01028442241499045
655.0, 0.004443442644504712
656.0, 0.0020743138206461864
657.0, 0.0017238337861483898
658.0, 0.0023606011471212765
659.0, 0.0052472872849405345
660.0, 0.0035224045836712205
661.0, 0.003831286415388401
662.0, 0.008272593856765804
663.0, 0.006087621874522595
664.0, 0.008329581826532739
665.0, 0.006593074147277715
666.0, 0.0022525758773958514
667.0, 0.002986266164011275
668.0, 0.006453200506032893
669.0, 0.00675889832565842
670.0, 0.0056279813978087
671.0, 0.004677756921026434
672.0, 0.0036346346154189535
673.0, 0.0036856441955642957
674.0, 0.004221594352789026
675.0, 0.0040818606752392045
676.0, 0.006833495016300082
677.0, 0.0005328052309059825
678.0, 0.005855324113829425
679.0, 0.003116121765099028
680.0, 0.000832276622668268
681.0, 0.004536468360495956
682.0, 0.005722206875438085
683.0, 0.005721481534849163
684.0, 0.0015600520510962964
685.0, 0.011784698057164734
686.0, 0.006474621533473569
687.0, 0.0010351949335055699
688.0, 0.0029391822782999944
689.0, 0.002659435155573188
690.0, 0.007144137645463136
691.0, 0.008113310456581526
692.0, 0.008985116884069881
693.0, 0.00811821349639618
694.0, 0.00477042744140726
695.0, 0.0031867749336478833
696.0, 0.00519807901541767
697.0, 0.004699309444243767
698.0, 0.0037709779827477577
699.0, 0.0032326909709135773
700.0, 0.00674321657286748
701.0, 0.011055803416705286
702.0, 0.011983383255532665
703.0, 0.006313306709830991
704.0, 0.0028539811785494446
705.0, 0.007364022186515476
706.0, 0.012652173594386982
707.0, 0.008810246158032291
708.0, 0.0076535370238137185
709.0, 0.010882664505982072
710.0, 0.007864885718588125
711.0, 0.0015708442990932277
712.0, 0.010331307891566171
713.0, 0.003329725934115505
714.0, 0.007712827345043699
715.0, 0.005353636411595525
716.0, 0.004511497758972169
717.0, 0.008306042394946552
718.0, 0.008518741270446049
719.0, 0.004207490796474471
720.0, 0.00922087147886341
721.0, 0.009302024804721556
722.0, 0.006884371008707545
723.0, 0.007401337813272315
724.0, 0.010901371466313028
725.0, 0.011676585690731612
726.0, 0.010210425433845007
727.0, 0.014472056655849485
728.0, 0.010575627506436485
729.0, 0.007319778713123497
730.0, 0.005455738605398294
731.0, 0.008010651007355823
732.0, 0.007214235793111024
733.0, 0.0027878356777611972
734.0, 0.006612113858043465
735.0, 0.009954438157605407
736.0, 0.00979244220205592
737.0, 0.00840534451082436
738.0, 0.011970608067235888
739.0, 0.012537908452978693
740.0, 0.006704497469828352
741.0, 0.012256382746931112
742.0, 0.006320236187110341
743.0, 0.007649192141871524
744.0, 0.009661150127362838
745.0, 0.008227966463055366
746.0, 0.009548597806341845
747.0, 0.0070842971220371215
748.0, 0.0057989450898387205
749.0, 0.009696357940688873
750.0, 0.007564474622686074
751.0, 0.005274704727495818
752.0, 0.004437454059378141
753.0, 0.005536930914134102
754.0, 0.005725901824406201
755.0, 0.006609947631777854
756.0, 0.010177201879780825
757.0, 0.013461780244012305
758.0, 0.009634913736615581
759.0, 0.010575895792444941
760.0, 0.01165586239469062
761.0, 0.0034243710248007017
762.0, 0.0009517727950147216
763.0, 0.006149985779052152
764.0, 0.007493446752190182
765.0, 0.0033871022390043223
766.0, 0.007801218415442723
767.0, 0.0018272631523340525
768.0, 0.001758802020720297
769.0, 0.004586708623357679
770.0, 0.0006829526504057071
771.0, 0.0007095498362596873
772.0, 0.005034801150377109
773.0, 0.008517899110487961
774.0, 0.006824329166055093
775.0, 0.012502083821538636
776.0, 0.007234012981603309
777.0, 0.004209512237589057
778.0, 0.009526459484578483
779.0, 0.009437973533851552
780.0, 0.004271978434683132
781.0, 0.003903047094382084
782.0, 0.006578997871196014
783.0, 0.008571681227983081
784.0, 0.0037766536241977816
785.0, 0.007710337215816683
786.0, 0.011756360345747079
787.0, 0.01340132000468745
788.0, 0.00905873003541355
789.0, 0.0037888185216749166
790.0, 0.008317325988316169
791.0, 0.011569217243850745
792.0, 0.008317216896954378
793.0, 0.006089205244184601
794.0, 0.009538546594899435
795.0, 0.007965110850053452
796.0, 0.00325980566992206
797.0, 0.004527681558940143
798.0, 0.00891359329839051
799.0, 0.002343068153364808
800.0, 0.0019433808201802345
801.0, 0.0012403757779147354
802.0, 0.0005490780729727001
803.0, 0.0044723575735597645
804.0, 0.005506049024290345
805.0, 0.0014815265901643654
806.0, 0.0020821387340978124
807.0, 0.009791882647862273
808.0, 0.0064405400901524105
809.0, 0.009867012292983132
810.0, 0.006095557746429475
811.0, 0.005361916201395508
812.0, 0.007782512584040256
813.0, 0.006656887526689673
814.0, 0.005662348210850017
815.0, 0.008358995557387068
816.0, 0.0014561981085652043
817.0, 0.002813865244495376
818.0, 0.007225092907126953
819.0, 0.006868842670353632
820.0, 0.004287986201209112
821.0, 0.008355744235691315
822.0, 0.00936038954460942
823.0, 0.003291597070777407
824.0, 0.004139606179100892
825.0, 0.007120887681392544
826.0, 0.004987196995290038
827.0, 0.0057411589241055305
828.0, 0.002589055390262539
829.0, 0.0062075802587806105
830.0, 0.004620527862340798
831.0, 0.0014747487526481128
832.0, 0.0069839649463120075
833.0, 0.009721145953308401
834.0, 0.005992661117216068
835.0, 0.0035757812025511374
836.0, 0.00489159307508421
837.0, 0.0035356604972510285
838.0, 0.004202749408301171
839.0, 0.00822551651852282
840.0, 0.009999151993581016
841.0, 0.007213074613173093
842.0, 0.005060402369665077
843.0, 0.003341328212237407
844.0, 0.004954974984524631
845.0, 0.0012536729421469028
846.0, 0.001598366468609205
847.0, 0.008624268414895437
848.0, 0.009346344678909092
849.0, 0.005892984763121166
850.0, 0.004637159155933739
851.0, 0.003471219861769061
852.0, 0.0029181944949783576
853.0, 0.010967484156721068
854.0, 0.0069968269264845916
855.0, 0.0056477753289162665
856.0, 0.006387600268720413
857.0, 0.007591634980218818
858.0, 0.0076157144069584565
859.0, 0.005909539639230931
860.0, 0.005518772893050223
861.0, 0.00914893173482284
862.0, 0.009831649463779873
863.0, 0.0023801184876079207
864.0, 0.0002884199548791445
865.0, 0.0032360197308840526
866.0, 0.0011771478550723837
867.0, 0.0041578177990226894
868.0, 0.008687013425201336
869.0, 0.0064899591349898925
870.0, 0.007766522907170173
871.0, 0.008060867535920732
872.0, 0.0034943975031656934
873.0, 0.0062032021863037265
874.0, 0.004542898740393501
875.0, 0.004372203898835898
876.0, 0.0029011979939827333
877.0, 0.005000639868266112
878.0, 0.00742189922625688
879.0, 0.001065342397811245
880.0, 0.0017255181086927574
881.0, 0.012266249215392913
882.0, 0.005315603763956187
883.0, 0.00783036983078455
884.0, 0.0043940517429860325
885.0, 0.004878249750170497
886.0, 0.007161312427876235
887.0, 0.003483920595672584
888.0, 0.003906472564760085
889.0, 0.011517539087498535
890.0, 0.008116443089921363
891.0, 0.003563303131029409
892.0, 0.0012310868014320513
893.0, 0.009948595843948315
894.0, 0.007403036624670048
895.0, 0.002545200418388508
896.0, 0.01028483954988533
897.0, 0.0028676788172524413
898.0, 0.0027579769313891577
899.0, 0.0032601593984909133
900.0, 0.006439939695324179
901.0, 0.007480042228979077
902.0, 0.009970346184469195
903.0, 0.007545483409476021
904.0, 0.006441604760392294
905.0, 0.008823285842965038
906.0, 0.010198731168556852
907.0, 0.00950535554851537
908.0, 0.008739737253949302
909.0, 0.006743863881314626
910.0, 0.006043016264817398
911.0, 0.004858982566040812
912.0, 0.0035992869140636374
913.0, 0.006463731699460539
914.0, 0.003445469967293547
915.0, 0.007116546367933213
916.0, 0.011093300951109733
917.0, 0.005184637160841818
918.0, 0.0003907016774603734
919.0, 0.0026737244237230984
920.0, 0.004920109874232598
921.0, 0.007124727432958212
922.0, 0.003059278490345907
923.0, 0.003028172041200741
924.0, 0.0030787594521420156
925.0, 0.006791572333952285
926.0, 0.004844280301994671
927.0, 0.010568911347117878
928.0, 0.010178370732016096
929.0, 0.0037589070301785677
930.0, 0.007486384386989967
931.0, 0.00570829777491925
932.0, 0.00938526939670196
933.0, 0.008207017044477965
934.0, 0.010258872385273942
935.0, 0.009776661977635938
936.0, 0.0072763063807494924
937.0, 0.0023466488654131095
938.0, 0.0065555220326591656
939.0, 0.012194645231485704
940.0, 0.008017825992150852
941.0, 0.003964319942806098
942.0, 0.0031979230167729694
943.0, 0.0020517594311429835
944.0, 0.009294707974930328
945.0, 0.011946147884224979
946.0, 0.006033132805670487
947.0, 0.00688131500055682
948.0, 0.0078023485004509105
949.0, 0.010383043328937457
950.0, 0.011538372539775405
951.0, 0.006997146291765073
952.0, 0.010084916472663493
953.0, 0.012930876168335145
954.0, 0.0007435123739024012
955.0, 0.011416175303153281
956.0, 0.007780450768414033
957.0, 0.0002614729069877898
958.0, 0.002564358028786926
959.0, 0.01052607995876861
960.0, 0.010398011344684816
961.0, 0.007068910396902178
962.0, 0.009258897989029685
963.0, 0.011239196133371251
964.0, 0.007959206713110577
965.0, 0.006219936040256088
966.0, 0.007442621407559944
967.0, 0.0025035384738926443
968.0, 0.004585510543023607
969.0, 0.0042924936684115966
970.0, 0.005059686921388591
971.0, 0.011993824658548062
972.0, 0.01155724436928625
973.0, 0.011356119811013546
974.0, 0.014311634375264629
975.0, 0.009114571163997536
976.0, 0.010565462246050768
977.0, 0.00986072201108113
978.0, 0.00541710203970225
979.0, 0.009435209321686492
980.0, 0.010800998354851486
981.0, 0.008333730910004486
982.0, 0.007694357808034702
983.0, 0.012293636735042945
984.0, 0.017321344766245778
985.0, 0.01576812510806987
986.0, 0.009464973493703554
987.0, 0.006302261434489421
988.0, 0.006902172385703272
989.0, 0.004607634990881626
990.0, 0.004489008082861715
991.0, 0.006325554324111024
992.0, 0.0015743474855170689
993.0, 0.0029802553575413522
994.0, 0.004999564662151043
995.0, 0.007721856899279231
996.0, 0.010482035963525661
997.0, 0.010635486998800042
998.0, 0.010113459090860286
999.0, 0.016963162938206197
1000.0, 0.01582843445666409
1001.0, 0.009953924132290523
1002.0, 0.01521879984078602
1003.0, 0.012241746913336076
1004.0, 0.00898870888023286
1005.0, 0.008117955263025611
1006.0, 0.014921642939343557
1007.0, 0.015168919368518172
1008.0, 0.009932572608148966
1009.0, 0.012092246610296734
1010.0, 0.01825193327276595
1011.0, 0.014970930538247804
1012.0, 0.0055791587929925075
1013.0, 0.004425419372665837
1014.0, 0.00972267225817283
1015.0, 0.004666720797775072
1016.0, 0.012398362875942058
1017.0, 0.006477518491427988
1018.0, 0.0050306907665958415
1019.0, 0.009525701556037356
1020.0, 0.008315288364274344
1021.0, 0.007672399465037703
1022.0, 0.002311336653189659
1023.0, 0.0019620638490475545
1024.0, 0.001466183425794228
1025.0, 0.0030870262053055214
1026.0, 0.0029544847761614943
1027.0, 0.011853806944363646
1028.0, 0.007061480574857312
1029.0, 0.0067846925671783305
1030.0, 0.016776765321154657
1031.0, 0.010745566289525407
1032.0, 0.0028978166372035435
1033.0, 0.003625850904591784
1034.0, 0.004320408648092976
1035.0, 0.007172324345246978
1036.0, 0.013651403951061167
1037.0, 0.011726857242403766
1038.0, 0.008229922747941374
1039.0, 0.008552981347887142
1040.0, 0.008672729003841998
1041.0, 0.01136951079731129
1042.0, 0.014882431559219296
1043.0, 0.006318188650599151
1044.0, 0.011051861905283747
1045.0, 0.010085490752664739
1046.0, 0.012001763385860542
1047.0, 0.0048373864990674835
1048.0, 0.008756064850806567
1049.0, 0.01759171904226424
1050.0, 0.014955733567792909
1051.0, 0.008313317944271991
1052.0, 0.010124187388103351
1053.0, 0.01733838352211834
1054.0, 0.015190784905310221
1055.0, 0.012912918750653705
1056.0, 0.009109808240355947
1057.0, 0.005384493705391156
1058.0, 0.013832238128121448
1059.0, 0.016661271285303102
1060.0, 0.008460315622771485
1061.0, 0.010424044233645395
1062.0, 0.01337244810208028
1063.0, 0.005938960926848168
1064.0, 0.005811632942681108
1065.0, 0.010785640064836696
1066.0, 0.00816555982112801
1067.0, 0.008454592493422175
1068.0, 0.01617895054696409
1069.0, 0.016646455817203337
1070.0, 0.012571638202433634
1071.0, 0.012150755371299055
1072.0, 0.011266730037141284
1073.0, 0.005572236992861175
1074.0, 0.01096986284440576
1075.0, 0.006625772836256023
1076.0, 0.006539787626202453
1077.0, 0.009701284560005071
1078.0, 0.007863659359257563
1079.0, 0.01175589185975581
1080.0, 0.012404568957113822
1081.0, 0.014389278804474125
1082.0, 0.012572456613904487
1083.0, 0.01457930329142342
1084.0, 0.013736505538936516
1085.0, 0.007874790782968755
1086.0, 0.004502679368951941
1087.0, 0.0024679112398836097
1088.0, 0.00847640325427119
1089.0, 0.011074465287701389
1090.0, 0.005788472433196332
1091.0, 0.0008793927170937833
1092.0, 0.00903717061876853
1093.0, 0.006789693232322589
1094.0, 0.006324328544972931
1095.0, 0.005815579207712221
1096.0, 0.0020090567081042787
1097.0, 0.004874089125212391
1098.0, 0.00993684189687232
1099.0, 0.0071825123364083815
1100.0, 0.007379894549895995
1101.0, 0.007958054895526102
1102.0, 0.0006016670627321117
1103.0, 0.005292434089716744
1104.0, 0.006602565972235631
1105.0, 0.009007278618949928
1106.0, 0.014186366379127324
1107.0, 0.007898475188567318
1108.0, 0.005198325329088127
1109.0, 0.0031006935496551663
1110.0, 0.008895810746361196
1111.0, 0.013059516322952873
1112.0, 0.016186599865528943
1113.0, 0.013098277178826945
1114.0, 0.005698875857808485
1115.0, 0.0036598256367115843
1116.0, 0.009380541479020071
1117.0, 0.007591429129281077
1118.0, 0.010031398443397822
1119.0, 0.011356904944508849
1120.0, 0.0034470048393231032
1121.0, 0.0033560108402541917
1122.0, 0.007467733463034939
1123.0, 0.003950064811716397
1124.0, 0.0059310420654324165
1125.0, 0.00849719707502245
1126.0, 0.007547786969354214
1127.0, 0.005646405204652491
1128.0, 0.003838194980960588
1129.0, 0.003124640871935387
1130.0, 0.007310332918196207
1131.0, 0.004719108772900896
1132.0, 0.005220206013129232
1133.0, 0.010024666690224159
1134.0, 0.008114882427222239
1135.0, 0.004681639161064716
1136.0, 0.0028148277342446297
1137.0, 0.0077365448703763445
1138.0, 0.006462029626173846
1139.0, 0.007426020331001367
1140.0, 0.0012233002964303
1141.0, 0.001768767437293429
1142.0, 0.01173075493750703
1143.0, 0.008794175350117043
1144.0, 0.011235578059204682
1145.0, 0.002920085935779124
1146.0, 0.009501043849697861
1147.0, 0.008516483779323975
1148.0, 0.0056363773582720125
1149.0, 0.005870654615734791
1150.0, 0.005487210563678466
1151.0, 0.0026167433226730896
1152.0, 0.0011997947027080052
1153.0, 0.005908009385757573
1154.0, 0.008028329445064868
1155.0, 0.003744924412194439
1156.0, 0.00715209389139184
1157.0, 0.012704346050865963
1158.0, 0.009560097121427125
1159.0, 0.0015636034094693126
1160.0, 0.00496797188032232
1161.0, 0.0012870494845557143
1162.0, 0.001427051278389336
1163.0, 0.005644236334876389
1164.0, 0.007333389059006824
1165.0, 0.005788400652947633
1166.0, 0.006664584888187772
1167.0, 0.007043353172142739
1168.0, 0.0034309711510875983
1169.0, 0.009344939444564439
1170.0, 0.008808596158070423
1171.0, 0.008528760824018138
1172.0, 0.006304652474131729
1173.0, 0.007378285987556462
1174.0, 0.00650614223365405
1175.0, 0.006927563030788845
1176.0, 0.0146352590676604
1177.0, 0.010991864761571749
1178.0, 0.005103250676785126
1179.0, 0.003975182222795121
1180.0, 0.009543599048841424
1181.0, 0.004680671767964604
1182.0, 0.00761901679137094
1183.0, 0.004894886567904974
1184.0, 0.006051761757826927
1185.0, 0.009626300288639774
1186.0, 0.008716739847054195
1187.0, 0.005494968566756786
1188.0, 0.0053384495991983475
1189.0, 0.0042274499557887375
1190.0, 0.009520953385914311
1191.0, 0.011812687300740112
1192.0, 0.0071205420017570326
1193.0, 0.0050533185984294356
1194.0, 0.008368692953879684
1195.0, 0.010548695440466237
1196.0, 0.009535489202320967
1197.0, 0.006797881499911013
1198.0, 0.004534106030897695
1199.0, 0.004887352673082381
1200.0, 0.006105713333811466
1201.0, 0.006864710222064648
1202.0, 0.004554463419776206
1203.0, 0.001576461990694188
1204.0, 0.002190395827894323
1205.0, 0.0007482510309362955
1206.0, 0.0009716187718721836
1207.0, 0.0012278574031217176
1208.0, 0.008375499763458956
1209.0, 0.01086413002286597
1210.0, 0.008109002124560248
1211.0, 0.013792874726355408
1212.0, 0.0023510026536686457
1213.0, 0.002865856647865741
1214.0, 0.004712943619563079
1215.0, 0.0053075836231787485
1216.0, 0.008215652684225761
1217.0, 0.012374824053309206
1218.0, 0.012575384335512228
1219.0, 0.012677365319596552
1220.0, 0.0088294540698297
1221.0, 0.006765172124150212
1222.0, 0.006751935207271265
1223.0, 0.0071396114315225865
1224.0, 0.009417213768123937
1225.0, 0.004478800726874463
1226.0, 0.004047794235840025
1227.0, 0.004247021605387508
1228.0, 0.002627599533013604
1229.0, 0.005453131105947612
1230, 0.0
1231, 0.0
1232, 0.0
1233, 0.0
1234, 0.0
1235, 0.0
1236, 0.0
1237, 0.0
1238, 0.0
1239, 0.0
1240, 0.0
1241, 0.0
1242, 0.0
1243, 0.0
1244, 0.0
1245, 0.0
1246, 0.0
1247, 0.0
1248, 0.0
1249, 0.0
1250, 0.0
1251, 0.0
1252, 0.0
1253, 0.0
1254, 0.0
1255, 0.0
1256, 0.0
1257, 0.0
1258, 0.0
1259, 0.0
1260, 0.0
1261, 0.0
1262, 0.0
1263, 0.0
1264, 0.0
1265, 0.0
1266, 0.0
1267, 0.0
1268, 0.0
1269, 0.0
1270, 0.0
1271, 0.0
1272, 0.0
1273, 0.0
1274, 0.0
1275, 0.0
1276, 0.0
1277, 0.0
1278, 0.0
1279, 0.0
1280, 0.0
1281, 0.0
1282, 0.0
1283, 0.0
1284, 0.0
1285, 0.0
1286, 0.0
1287, 0.0
1288, 0.0
1289, 0.0
1290, 0.0
1291, 0.0
1292, 0.0
1293, 0.0
1294, 0.0
1295, 0.0
1296, 0.0
1297, 0.0
1298, 0.0
1299, 0.0
1300, 0.0
1301, 0.0
1302, 0.0
1303, 0.0
1304, 0.0
1305, 0.0
1306, 0.0
1307, 0.0
1308, 0.0
1309, 0.0
1310, 0.0
1311, 0.0
1312, 0.0
1313, 0.0
1314, 0.0
1315, 0.0
1316, 0.0
1317, 0.0
1318, 0.0
1319, 0.0
1320, 0.0
1321, 0.0
1322, 0.0
1323, 0.0
1324, 0.0
1325, 0.0
1326, 0.0
1327, 0.0
1328, 0.0
1329, 0.0
1330, 0.0
1331, 0.0
1332, 0.0
1333, 0.0
1334, 0.0
1335, 0.0
1336, 0.0
1337, 0.0
1338, 0.0
1339, 0.0
1340, 0.0
1341, 0.0
1342, 0.0
1343, 0.0
1344, 0.0
1345, 0.0
1346, 0.0
1347, 0.0
1348, 0.0
1349, 0.0
1350, 0.0
1351, 0.0
1352, 0.0
1353, 0.0
1354, 0.0
1355, 0.0
1356, 0.0
1357, 0.0
1358, 0.0
1359, 0.0
1360, 0.0
1361, 0.0
1362, 0.0
1363, 0.0
1364, 0.0
1365, 0.0
1366, 0.0
1367, 0.0
1368, 0.0
1369, 0.0
1370, 0.0
1371, 0.0
1372, 0.0
1373, 0.0
1374, 0.0
1375, 0.0
1376, 0.0
1377, 0.0
1378, 0.0
1379, 0.0
1380, 0.0
1381, 0.0
1382, 0.0
1383, 0.0
1384, 0.0
1385, 0.0
1386, 0.0
1387, 0.0
1388, 0.0
1389, 0.0
1390, 0.0
1391, 0.0
1392, 0.0
1393, 0.0
1394, 0.0
1395, 0.0
1396, 0.0
1397, 0.0
1398, 0.0
1399, 0.0
1400, 0.0
1401, 0.0
1402, 0.0
1403, 0.0
1404, 0.0
1405, 0.0
1406, 0.0
1407, 0.0
1408, 0.0
1409, 0.0
1410, 0.0
1411, 0.0
1412, 0.0
1413, 0.0
1414, 0.0
1415, 0.0
1416, 0.0
1417, 0.0
1418, 0.0
1419, 0.0
1420, 0.0
1421, 0.0
1422, 0.0
1423, 0.0
1424, 0.0
1425, 0.0
1426, 0.0
1427, 0.0
1428, 0.0
1429, 0.0
1430, 0.0
1431, 0.0
1432, 0.0
1433, 0.0
1434, 0.0
1435, 0.0
1436, 0.0
1437, 0.0
1438, 0.0
1439, 0.0
1440, 0.0
1441, 0.0
1442, 0.0
1443, 0.0
1444, 0.0
1445, 0.0
1446, 0.0
1447, 0.0
1448, 0.0
1449, 0.0
1450, 0.0
1451, 0.0
1452, 0.0
1453, 0.0
1454, 0.0
1455, 0.0
1456, 0.0
1457, 0.0
1458, 0.0
1459, 0.0
1460, 0.0
1461, 0.0
1462, 0.0
1463, 0.0
1464, 0.0
1465, 0.0
1466, 0.0
1467, 0.0
1468, 0.0
1469, 0.0
1470, 0.0
1471, 0.0
1472, 0.0
1473, 0.0
1474, 0.0
1475, 0.0
1476, 0.0
1477, 0.0
1478, 0.0
1479, 0.0
1480, 0.0
1481, 0.0
1482, 0.0
1483, 0.0
1484, 0.0
1485, 0.0
1486, 0.0
1487, 0.0
1488, 0.0
1489, 0.0
1490, 0.0
1491, 0.0
1492, 0.0
1493, 0.0
1494, 0.0
1495, 0.0
1496, 0.0
1497, 0.0
1498, 0.0
1499, 0.0
1500, 0.0
1501, 0.0
1502, 0.0
1503, 0.0
1504, 0.0
1505, 0.0
1506, 0.0
1507, 0.0
1508, 0.0
1509, 0.0
1510, 0.0
1511, 0.0
1512, 0.0
1513, 0.0
1514, 0.0
1515, 0.0
1516, 0.0
1517, 0.0
1518, 0.0
1519, 0.0
1520, 0.0
1521, 0.0
1522, 0.0
1523, 0.0
1524, 0.0
1525, 0.0
1526, 0.0
1527, 0.0
1528, 0.0
1529, 0.0
1530, 0.0
1531, 0.0
1532, 0.0
1533, 0.0
1534, 0.0
1535, 0.0
1536, 0.0
1537, 0.0
1538, 0.0
1539, 0.0
1540, 0.0
1541, 0.0
1542, 0.0
1543, 0.0
1544, 0.0
1545, 0.0
1546, 0.0
1547, 0.0
1548, 0.0
1549, 0.0
1550, 0.0
1551, 0.0
1552, 0.0
1553, 0.0
1554, 0.0
1555, 0.0
1556, 0.0
1557, 0.0
1558, 0.0
1559, 0.0
1560, 0.0
1561, 0.0
1562, 0.0
1563, 0.0
1564, 0.0
1565, 0.0
1566, 0.0
1567, 0.0
1568, 0.0
1569, 0.0
1570, 0.0
1571, 0.0
1572, 0.0
1573, 0.0
1574, 0.0
1575, 0.0
1576, 0.0
1577, 0.0
1578, 0.0
1579, 0.0
1580, 0.0
1581, 0.0
1582, 0.0
1583, 0.0
1584, 0.0
1585, 0.0
1586, 0.0
1587, 0.0
1588, 0.0
1589, 0.0
1590, 0.0
1591, 0.0
1592, 0.0
1593, 0.0
1594, 0.0
1595, 0.0
1596, 0.0
1597, 0.0
1598, 0.0
1599, 0.0
