30, 0.0
31, 0.0
32, 0.0
33, 0.0
34, 0.0
35, 0.0
36, 0.0
37, 0.0
38, 0.0
39, 0.0
40, 0.0
41, 0.0
42, 0.0
43, 0.0
44, 0.0
45, 0.0
46, 0.0
47, 0.0
48, 0.0
49, 0.0
50, 0.0
51, 0.0
52, 0.0
53, 0.0
54, 0.0
55, 0.0
56, 0.0
57, 0.0
58, 0.0
59, 0.0
60, 0.0
61, 0.0
62, 0.0
63, 0.0
64, 0.0
65, 0.0
66, 0.0
67, 0.0
68, 0.0
69, 0.0
70, 0.0
71, 0.0
72, 0.0
73, 0.0
74, 0.0
75, 0.0
76, 0.0
77, 0.0
78, 0.0
79, 0.0
80, 0.0
81, 0.0
82, 0.0
83, 0.0
84, 0.0
85, 0.0
86, 0.0
87, 0.0
88, 0.0
89, 0.0
90, 0.0
91, 0.0
92, 0.0
93, 0.0
94, 0.0
95, 0.0
96, 0.0
97, 0.0
98, 0.0
99, 0.0
100, 0.0
101, 0.0
102, 0.0
103, 0.0
104, 0.0
105, 0.0
106, 0.0
107, 0.0
108, 0.0
109, 0.0
110, 0.0
111, 0.0
112, 0.0
113, 0.0
114, 0.0
115, 0.0
116, 0.0
117, 0.0
118, 0.0
119, 0.0
120, 0.0
121, 0.0
122, 0.0
123, 0.0
124, 0.0
125, 0.0
126, 0.0
127, 0.0
128, 0.0
129, 0.0
130, 0.0
131, 0.0
132, 0.0
133, 0.0
134, 0.0
135, 0.0
136, 0.0
137, 0.0
138, 0.0
139, 0.0
140, 0.0
141, 0.0
142, 0.0
143, 0.0
144, 0.0
145, 0.0
146, 0.0
147, 0.0
148, 0.0
149, 0.0
150, 0.0
151, 0.0
152, 0.0
153, 0.0
154, 0.0
155, 0.0
156, 0.0
157, 0.0
158, 0.0
159, 0.0
160, 0.0
161, 0.0
162, 0.0
163, 0.0
164, 0.0
165, 0.0
166, 0.0
167, 0.0
168, 0.0
169, 0.0
170, 0.0
171, 0.0
172, 0.0
173, 0.0
174, 0.0
175, 0.0
176, 0.0
177, 0.0
178, 0.0
179, 0.0
180, 0.0
181, 0.0
182, 0.0
183, 0.0
184, 0.0
185, 0.0
186, 0.0
187, 0.0
188, 0.0
189, 0.0
190, 0.0
191, 0.0
192, 0.0
193, 0.0
194, 0.0
195, 0.0
196, 0.0
197, 0.0
198, 0.0
199, 0.0
200, 0.0
201, 0.0
202, 0.0
203, 0.0
204, 0.0
205, 0.0
206, 0.0
207, 0.0
208, 0.0
209, 0.0
210, 0.0
211, 0.0
212, 0.0
213, 0.0
214, 0.0
215, 0.0
216, 0.0
217, 0.0
218, 0.0
219, 0.0
220, 0.0
221, 0.0
222, 0.0
223, 0.0
224, 0.0
225, 0.0
226, 0.0
227, 0.0
228, 0.0
229, 0.0
230, 0.0
231, 0.0
232, 0.0
233, 0.0
234, 0.0
235, 0.0
236, 0.0
237, 0.0
238, 0.0
239, 0.0
240, 0.0
241, 0.0
242, 0.0
243, 0.0
244, 0.0
245, 0.0
246, 0.0
247, 0.0
248, 0.0
249, 0.0
250, 0.0
251, 0.0
252, 0.0
253, 0.0
254, 0.0
255, 0.0
256, 0.0
257, 0.0
258, 0.0
259, 0.0
260, 0.0
261, 0.0
262, 0.0
263, 0.0
264, 0.0
265, 0.0
266, 0.0
267, 0.0
268, 0.0
269, 0.0
270, 0.0
271, 0.0
272, 0.0
273, 0.0
274, 0.0
275, 0.0
276, 0.0
277, 0.0
278, 0.0
279, 0.0
280, 0.0
281, 0.0
282, 0.0
283, 0.0
284, 0.0
285, 0.0
286, 0.0
287, 0.0
288, 0.0
289, 0.0
290, 0.0
291, 0.0
292, 0.0
293, 0.0
294, 0.0
295, 0.0
296, 0.0
297, 0.0
298, 0.0
299, 0.0
300, 0.0
301, 0.0
302, 0.0
303, 0.0
304, 0.0
305, 0.0
306, 0.0
307, 0.0
308.0, 0.007914704510779379
309.0, 0.007712412238311638
310.0, 0.005242487070088984
311.0, 0.007839702275718246
312.0, 0.01419860011677648
313.0, 0.021703631056794917
314.0, 0.01082167502174576
315.0, 0.010242680602801472
316.0, 0.02063512705932686
317.0, 0.026945620475460102
318.0, 0.006595130716654386
319.0, 0.011512760899226888
320.0, 0.03427817532438282
321.0, 0.07690469199353753
322.0, 0.08303261584718069
323.0, 0.027376924323781016
324.0, 0.07219408278754304
325.0, 0.07003303590356062
326.0, 0.05950597226798337
327.0, 0.050847308961989024
328.0, 0.04577621425831925
329.0, 0.0459226827852728
330.0, 0.07530321158160576
331.0, 0.05399659670057169
332.0, 0.04709896736950572
333.0, 0.03743903398653234
334.0, 0.03490304429886816
335.0, 0.06245792695954583
336.0, 0.05919076557427459
337.0, 0.06960234449641567
338.0, 0.07315127602670062
339.0, 0.07507659854137858
340.0, 0.08204982235363872
341.0, 0.09465385865045262
342.0, 0.08798516044320127
343.0, 0.0919595100388079
344.0, 0.09422711137898064
345.0, 0.09582887751274004
346.0, 0.10435811652238315
347.0, 0.12555810069158996
348.0, 0.11177785895797877
349.0, 0.11503450052531418
350.0, 0.12351916360281359
351.0, 0.11796834084818174
352.0, 0.10837846428373211
353.0, 0.13162352320856477
354.0, 0.12146516520142765
355.0, 0.11099953356146229
356.0, 0.11452966920638846
357.0, 0.11368667789644944
358.0, 0.10022085810857888
359.0, 0.09045037356116631
360.0, 0.11491877541444004
361.0, 0.12146592702739595
362.0, 0.12532654864649137
363.0, 0.11364578619162496
364.0, 0.09065722420701844
365.0, 0.08797435751331824
366.0, 0.08693328088476683
367.0, 0.08956817256615592
368.0, 0.10019815576904939
369.0, 0.1079250314499812
370.0, 0.10732450970792469
371.0, 0.10568373798469338
372.0, 0.10556287307420477
373.0, 0.10412049605354708
374.0, 0.09886828023022684
375.0, 0.0965350473850537
376.0, 0.10160643892526046
377.0, 0.11070098438199666
378.0, 0.1024620808151428
379.0, 0.11094461915064954
380.0, 0.11766366604296943
381.0, 0.12740896426761827
382.0, 0.14004992142595457
383.0, 0.1443192527683794
384.0, 0.14532135892663403
385.0, 0.15373242087128997
386.0, 0.16372203716761094
387.0, 0.16655998847581682
388.0, 0.16316200772569228
389.0, 0.16622461089018584
390.0, 0.18954828674787524
391.0, 0.20550609140225837
392.0, 0.21510444520137376
393.0, 0.20675226031282298
394.0, 0.19455640837077307
395.0, 0.2092532207500722
396.0, 0.20932083185899686
397.0, 0.19530097993910622
398.0, 0.1879753489879184
399.0, 0.19460686043214157
400.0, 0.20280475467284176
401.0, 0.19234117898869896
402.0, 0.18022014922446572
403.0, 0.19355502855539042
404.0, 0.20289952435381975
405.0, 0.20578905202309652
406.0, 0.1943442483452374
407.0, 0.16795467117212728
408.0, 0.17634723348204162
409.0, 0.1692852300560634
410.0, 0.16089462869947502
411.0, 0.15959582592183436
412.0, 0.15200062869718867
413.0, 0.12691932885046425
414.0, 0.11769040189731123
415.0, 0.10813742410486989
416.0, 0.11913880380302323
417.0, 0.1393421255108023
418.0, 0.13647104282002678
419.0, 0.10295101568675925
420.0, 0.10109294002906492
421.0, 0.07302970325622071
422.0, 0.09274320261325111
423.0, 0.08694476337560472
424.0, 0.0721194292382186
425.0, 0.07010799751383415
426.0, 0.056344616556937635
427.0, 0.06805622510840612
428.0, 0.0625404975408406
429.0, 0.05562143379057706
430.0, 0.053450147841286565
431.0, 0.05250994794712832
432.0, 0.04236597642985697
433.0, 0.023699324755993432
434.0, 0.01133959240875447
435.0, 0.004707198632493852
436.0, 0.011018321810002247
437.0, 0.01739666296896426
438.0, 0.005109849820621365
439.0, 0.013168776339123094
440.0, 0.00606000386795675
441.0, 0.021318030734907584
442.0, 0.021798348382765086
443.0, 0.010667961625366354
444.0, 0.009259616903937597
445.0, 0.0028327329001990383
446.0, 0.01739181611785881
447.0, 0.022901709084232145
448.0, 0.012853939795032196
449.0, 0.008618829965920304
450.0, 0.017349571317723897
451.0, 0.0036314565430123334
452.0, 0.001359882840485018
453.0, 0.004104129567446549
454.0, 0.006769649857582718
455.0, 0.007566487932971068
456.0, 0.008412873559278063
457.0, 0.012682830047616615
458.0, 0.011842166600012983
459.0, 0.01792493204565446
460.0, 0.019343337840376965
461.0, 0.017055561066042377
462.0, 0.018096252541077436
463.0, 0.0280361102591013
464.0, 0.03733467875326961
465.0, 0.04391658279695811
466.0, 0.06014743416315548
467.0, 0.07293333762909225
468.0, 0.07907593966653804
469.0, 0.08463776731174455
470.0, 0.10038003623036543
471.0, 0.10754691030996132
472.0, 0.1154619694302028
473.0, 0.11731688492882006
474.0, 0.11219872842128714
475.0, 0.10509065910667797
476.0, 0.10563020887975025
477.0, 0.12517167165835444
478.0, 0.1386641169951307
479.0, 0.1465374379456152
480.0, 0.16245079592968642
481.0, 0.17652130375371367
482.0, 0.17166050165767172
483.0, 0.1616544972020143
484.0, 0.17540449733511845
485.0, 0.19216654274404354
486.0, 0.19564920040198017
487.0, 0.19543083975871706
488.0, 0.2022683341933613
489.0, 0.21144766951565488
490.0, 0.21630061667521205
491.0, 0.21885797151807307
492.0, 0.22286946045593253
493.0, 0.2236174571222706
494.0, 0.22518723701209264
495.0, 0.23461043578721366
496.0, 0.23662573628516576
497.0, 0.23821003454206718
498.0, 0.24782379176891353
499.0, 0.2533678786151039
500.0, 0.26166803231936014
501.0, 0.2693636030593655
502.0, 0.24591808910083376
503.0, 0.26536987759254843
504.0, 0.25272784488625816
505.0, 0.2581459435398316
506.0, 0.2588616097732338
507.0, 0.2641784632605394
508.0, 0.30100644718242064
509.0, 0.2847836810841603
510.0, 0.29274453116099863
511.0, 0.2957660970103487
512.0, 0.2969848691915401
513.0, 0.30794713450963973
514.0, 0.3241752349905508
515.0, 0.3140473837925936
516.0, 0.322313502091185
517.0, 0.33329622122322616
518.0, 0.35235811599624245
519.0, 0.3582284789182509
520.0, 0.34680652322525
521.0, 0.3369140258281944
522.0, 0.3530920897914951
523.0, 0.3702829065382894
524.0, 0.3767759938575451
525.0, 0.3806229992031529
526.0, 0.393868853489646
527.0, 0.4063589375841928
528.0, 0.3858283464611592
529.0, 0.41722616253965833
530.0, 0.4263844740031677
531.0, 0.41995734301268034
532.0, 0.42139681359446324
533.0, 0.421718780622913
534.0, 0.40672052464474434
535.0, 0.4184473825899142
536.0, 0.41713405722485974
537.0, 0.40310048219077865
538.0, 0.4074328477274213
539.0, 0.4027017028162137
540.0, 0.38168769360747545
541.0, 0.3785317841868998
542.0, 0.39419517685312816
543.0, 0.38282394791896196
544.0, 0.4029535362633873
545.0, 0.3959124026076895
546.0, 0.37427734469295276
547.0, 0.3593689230511505
548.0, 0.3143764256961015
549.0, 0.3221121457936445
550.0, 0.3093633578513602
551.0, 0.3166640693900209
552.0, 0.3043321422820909
553.0, 0.27172565596509524
554.0, 0.2548220084453933
555.0, 0.26214643042435504
556.0, 0.2741961362254459
557.0, 0.2516919675375928
558.0, 0.2421515539332638
559.0, 0.22092842170183008
560.0, 0.1926402676106113
561.0, 0.20121167517180577
562.0, 0.18415331658159978
563.0, 0.15586547331555783
564.0, 0.17288818198742467
565.0, 0.16271733645991834
566.0, 0.16380085758403579
567.0, 0.17907796647110621
568.0, 0.10077285896992999
569.0, 0.1358858438062876
570.0, 0.12980871965894739
571.0, 0.12378297587557986
572.0, 0.10342702852985536
573.0, 0.07713357239249455
574.0, 0.06305505178934631
575.0, 0.056391396876151016
576.0, 0.03980856615382241
577.0, 0.046257355861514984
578.0, 0.050165969951206923
579.0, 0.040077207136677374
580.0, 0.02353497687424733
581.0, 0.019245078639650928
582.0, 0.0380595079687282
583.0, 0.010285011128891096
584.0, 0.004025746544988049
585.0, 0.02494251246435071
586.0, 0.02885748043056875
587.0, 0.014522544846417533
588.0, 0.019610420449189817
589.0, 0.008603788653425277
590.0, 0.01687311554418479
591.0, 0.0071667626571838595
592.0, 0.013230054588467184
593.0, 0.015615770903235203
594.0, 0.005530112272669821
595.0, 0.006761771580168995
596.0, 0.0173977707724846
597.0, 0.015378848259428972
598.0, 0.007744405667774565
599.0, 0.004584678011680826
600.0, 0.017628586766081287
601.0, 0.029329846641795578
602.0, 0.0054312360647350896
603.0, 0.03673251123634135
604.0, 0.0338640359400924
605.0, 0.028881453458101183
606.0, 0.030794866995348648
607.0, 0.043302893147226844
608.0, 0.056454701285441555
609.0, 0.05054622517907271
610.0, 0.047684107337908566
611.0, 0.06377797357485707
612.0, 0.06381803947388785
613.0, 0.07492251714743861
614.0, 0.07647573415874276
615.0, 0.05387095187347611
616.0, 0.04332687960198475
617.0, 0.06412636861172935
618.0, 0.07788602951297018
619.0, 0.07541866257969117
620.0, 0.09676444721253753
621.0, 0.10919548300785034
622.0, 0.08558508349454412
623.0, 0.06981793237831098
624.0, 0.07148517018290933
625.0, 0.09789082685895953
626.0, 0.09696342881324992
627.0, 0.09372390175621112
628.0, 0.09490493737121086
629.0, 0.09471705101761128
630.0, 0.09346183449461423
631.0, 0.11180233509203098
632.0, 0.12727966482352882
633.0, 0.1470990668364743
634.0, 0.15475753031105982
635.0, 0.16189411929490705
636.0, 0.1752943043494296
637.0, 0.18002363020475273
638.0, 0.20574222528913833
639.0, 0.18503722189369087
640.0, 0.1985309574584875
641.0, 0.2071858273873319
642.0, 0.21154772572620575
643.0, 0.2294743070989931
644.0, 0.26246548941842107
645.0, 0.2722029234824093
646.0, 0.3096775502135011
647.0, 0.31307888709081594
648.0, 0.33468036519243005
649.0, 0.36334494617636176
650.0, 0.39507909400438146
651.0, 0.44490817821501955
652.0, 0.4483963584302439
653.0, 0.5100813043537159
654.0, 0.5417603820732214
655.0, 0.5724056457621559
656.0, 0.6128798436276621
657.0, 0.6562880440646974
658.0, 0.6947680221866618
659.0, 0.747082997093597
660.0, 0.8019032887275286
661.0, 0.8336357011007216
662.0, 0.8529418842006904
663.0, 0.8866097316138777
664.0, 0.9357579212994998
665.0, 0.9787774207125718
666.0, 0.9992460647560176
667.0, 0.9847473100640575
668.0, 0.978478160115832
669.0, 0.9734558868967146
670.0, 0.9620163782153831
671.0, 0.940613204206767
672.0, 0.9110935690826095
673.0, 0.8788937458257245
674.0, 0.8450835551948408
675.0, 0.820932747095671
676.0, 0.8566167161206841
677.0, 0.8346017483635879
678.0, 0.7833292738353601
679.0, 0.7485864499509538
680.0, 0.7020426003628422
681.0, 0.6491758783740216
682.0, 0.6312526710561533
683.0, 0.6304864065066305
684.0, 0.6207727179485951
685.0, 0.6092386060252081
686.0, 0.597972310012464
687.0, 0.5825218112698768
688.0, 0.5830891507055042
689.0, 0.6109670922288747
690.0, 0.6332034444929623
691.0, 0.6335256931740165
692.0, 0.6033713847284465
693.0, 0.5894482831386053
694.0, 0.618682299949533
695.0, 0.627637231630148
696.0, 0.6200511827865063
697.0, 0.6455877353416798
698.0, 0.6470192910428418
699.0, 0.6461724913298444
700.0, 0.6679873495810934
701.0, 0.7115324178370621
702.0, 0.7411696855623416
703.0, 0.701990374603547
704.0, 0.7264058749523059
705.0, 0.7316931396325275
706.0, 0.7145826542529952
707.0, 0.7211805930147366
708.0, 0.7512474092890445
709.0, 0.7685675378157785
710.0, 0.7663684233690871
711.0, 0.7513661829907862
712.0, 0.750955273335112
713.0, 0.7372757230412283
714.0, 0.7269691738256489
715.0, 0.7320345034586481
716.0, 0.7402190320088046
717.0, 0.733035119164306
718.0, 0.759978527992733
719.0, 0.7239988128655026
720.0, 0.6895374583005945
721.0, 0.6641845238790782
722.0, 0.6576106552849543
723.0, 0.6477908374489717
724.0, 0.6224118646290101
725.0, 0.6269474031132926
726.0, 0.5758322144676484
727.0, 0.5934124292433229
728.0, 0.5765569871281355
729.0, 0.5669137973022743
730.0, 0.55472342110324
731.0, 0.5368116096512482
732.0, 0.5414002699098618
733.0, 0.5502950615848085
734.0, 0.5245132809958182
735.0, 0.5143588519493152
736.0, 0.5172642091724351
737.0, 0.5170547288473993
738.0, 0.5259387280034753
739.0, 0.5418453757421613
740.0, 0.5236255099071602
741.0, 0.5501480618133987
742.0, 0.5464636866900716
743.0, 0.5637439596979092
744.0, 0.5647321151772671
745.0, 0.5497599246051829
746.0, 0.5473308268904337
747.0, 0.5734252941363764
748.0, 0.5907664317945771
749.0, 0.5873314254009995
750.0, 0.6005193074197349
751.0, 0.59833651477701
752.0, 0.597159462587276
753.0, 0.6163151566643814
754.0, 0.6396877216060886
755.0, 0.6338262212239434
756.0, 0.6354992336618227
757.0, 0.648962224706371
758.0, 0.6479046732844821
759.0, 0.6508257020764178
760.0, 0.6505137524479416
761.0, 0.6409733396471414
762.0, 0.6309668047948511
763.0, 0.6358226596829523
764.0, 0.6332107236244451
765.0, 0.6224567905378308
766.0, 0.5839341497886277
767.0, 0.5698821113056469
768.0, 0.5592448170534846
769.0, 0.5407169034728877
770.0, 0.5278921545367218
771.0, 0.5276587700508015
772.0, 0.4887862403914166
773.0, 0.49168588935878055
774.0, 0.4818258314525558
775.0, 0.4742297882060929
776.0, 0.46011045780948273
777.0, 0.44000844117877314
778.0, 0.42726891510483567
779.0, 0.42659912475059225
780.0, 0.41736625730935384
781.0, 0.3939777700674113
782.0, 0.38563513166650787
783.0, 0.3579214480315392
784.0, 0.3342843417106462
785.0, 0.33040147437150125
786.0, 0.3284419958674123
787.0, 0.30679820667746716
788.0, 0.30255229532240013
789.0, 0.29147492721645796
790.0, 0.2536441764828494
791.0, 0.2325601647344092
792.0, 0.21799504709007012
793.0, 0.1938895863910222
794.0, 0.16789987845298446
795.0, 0.15828525496483892
796.0, 0.14189167680946949
797.0, 0.1347359891751602
798.0, 0.12510495893394802
799.0, 0.1142856758123043
800.0, 0.10783749142597115
801.0, 0.09826501202382056
802.0, 0.08135853509049432
803.0, 0.07975320858700509
804.0, 0.05835104586596601
805.0, 0.03846566226300445
806.0, 0.03912713305648026
807.0, 0.03357520421146387
808.0, 0.021478492859082772
809.0, 0.016461278621232023
810.0, 0.01788343713976582
811.0, 0.0018670423061133172
812.0, 0.0048254999208743885
813.0, 0.0018376701059611225
814.0, 0.0035875015814611937
815.0, 0.010052372554148916
816.0, 0.010410142966562693
817.0, 0.011373579086687926
818.0, 0.020808319889922596
819.0, 0.022850291403146997
820.0, 0.014249430896209572
821.0, 0.01401128726700284
822.0, 0.014197783333595743
823.0, 0.010423774154066775
824.0, 0.006317928953498158
825.0, 0.008022890819979983
826.0, 0.012983304503312148
827.0, 0.010932416947478365
828.0, 0.011281927070168717
829.0, 0.007757921613233789
830.0, 0.016789368512830045
831.0, 0.014578254433424125
832.0, 0.01147472089350201
833.0, 0.021499954627784014
834.0, 0.031285352374699336
835.0, 0.01574990571966809
836.0, 0.0025663029024312846
837.0, 0.012416998084265437
838.0, 0.02757437565104208
839.0, 0.01111445837655672
840.0, 0.0011221849006389833
841.0, 0.017035337199823194
842.0, 0.028397671228059092
843.0, 0.009386070438424213
844.0, 0.008902992048825283
845.0, 0.0163411965676759
846.0, 0.01316510961286277
847.0, 0.008371080715130897
848.0, 0.006776811236642512
849.0, 0.006311234872157095
850.0, 0.015659782608638536
851.0, 0.026002856979531898
852.0, 0.011864877800392045
853.0, 0.034220483697664957
854.0, 0.03951739610589118
855.0, 0.05187528981742831
856.0, 0.05215856280524516
857.0, 0.04127071989206514
858.0, 0.028132160709813288
859.0, 0.015056134879417265
860.0, 0.004156806649519431
861.0, 0.016016661620245957
862.0, 0.03870331022126445
863.0, 0.05463017028943622
864.0, 0.06124723304548665
865.0, 0.09987073185493636
866.0, 0.09264062667453576
867.0, 0.06011925832579011
868.0, 0.060542706793101184
869.0, 0.06596685678413848
870.0, 0.11453671767118913
871.0, 0.08833384116352064
872.0, 0.08924881526497001
873.0, 0.10086412716734
874.0, 0.11188415180577553
875.0, 0.11035130565234205
876.0, 0.10233870611809608
877.0, 0.09971585283035451
878.0, 0.09348317737432052
879.0, 0.12963156469688336
880.0, 0.10370477671378873
881.0, 0.12634528182082985
882.0, 0.13645413865368847
883.0, 0.1365327191009258
884.0, 0.13997750658668157
885.0, 0.14020524255409977
886.0, 0.1254493256316963
887.0, 0.12162594888592741
888.0, 0.12142823536758579
889.0, 0.1180365201845115
890.0, 0.12248183715454627
891.0, 0.12835420203557033
892.0, 0.1330223452299283
893.0, 0.14452930174664305
894.0, 0.1590094946098364
895.0, 0.15644983561839004
896.0, 0.16618984079659396
897.0, 0.14819163772317334
898.0, 0.17013295588548716
899.0, 0.16549732497219005
900.0, 0.17977980869962815
901.0, 0.18540602946447968
902.0, 0.185586427134408
903.0, 0.2014522627934696
904.0, 0.18902007420166944
905.0, 0.1982633425586303
906.0, 0.20203352990428683
907.0, 0.1972347509656721
908.0, 0.20399989082237102
909.0, 0.20286309117356366
910.0, 0.20399603691124868
911.0, 0.20890896558488325
912.0, 0.20283171212359227
913.0, 0.19777712484197318
914.0, 0.23310846287826104
915.0, 0.22846327756921236
916.0, 0.24001385733160474
917.0, 0.2333453232968808
918.0, 0.23024286392736149
919.0, 0.25295770144338947
920.0, 0.2677256932997859
921.0, 0.24990799204108374
922.0, 0.2734540303178655
923.0, 0.2732464327770454
924.0, 0.26200002792324084
925.0, 0.2683290146955625
926.0, 0.27314192728159836
927.0, 0.26850159055475675
928.0, 0.27564548485573453
929.0, 0.28553658779163577
930.0, 0.2726378804524873
931.0, 0.2666072969519263
932.0, 0.29700352902088384
933.0, 0.30983873971297465
934.0, 0.2980791017930053
935.0, 0.2882119792747184
936.0, 0.294595167966033
937.0, 0.30497565827941475
938.0, 0.30754346186948756
939.0, 0.30836405722974436
940.0, 0.31806059945557413
941.0, 0.3161215401475732
942.0, 0.3107245103368767
943.0, 0.31234957947691827
944.0, 0.3003879933092009
945.0, 0.29767462766067665
946.0, 0.30412444341392225
947.0, 0.3013877769252923
948.0, 0.28765138806965374
949.0, 0.2869784099718061
950.0, 0.2956588971146054
951.0, 0.2856844629240557
952.0, 0.27620049784502587
953.0, 0.2701783489093488
954.0, 0.2638008340221499
955.0, 0.2692237341291714
956.0, 0.2582418588640354
957.0, 0.23602152752087413
958.0, 0.25062192054405574
959.0, 0.25774851836559337
960.0, 0.2574545049975331
961.0, 0.2238334851450122
962.0, 0.2268004788950668
963.0, 0.2230856704087852
964.0, 0.214527730023306
965.0, 0.21758150089217276
966.0, 0.2154493587106501
967.0, 0.19778170277978874
968.0, 0.2098813306085365
969.0, 0.20609079748612533
970.0, 0.21538898466748857
971.0, 0.1791472617030328
972.0, 0.19338489015516525
973.0, 0.208177957954249
974.0, 0.20715527341413648
975.0, 0.1910947364976892
976.0, 0.1812172643917301
977.0, 0.19679299565481348
978.0, 0.18598437168583357
979.0, 0.2070436581345685
980.0, 0.20470388442525486
981.0, 0.2089463837900587
982.0, 0.2256888426852592
983.0, 0.2277075576570776
984.0, 0.21810052727798945
985.0, 0.2117221291970584
986.0, 0.21013507668540862
987.0, 0.2095734630223862
988.0, 0.22476959337386385
989.0, 0.22723358996563503
990.0, 0.2490709331867928
991.0, 0.2378123795199264
992.0, 0.24718814519656176
993.0, 0.2630076162235824
994.0, 0.24982134273853634
995.0, 0.22814680279024202
996.0, 0.24101853716090063
997.0, 0.2567640361269078
998.0, 0.2842789162789302
999.0, 0.3000562217480014
1000.0, 0.28788442061372843
1001.0, 0.30444624177023444
1002.0, 0.3291861898051688
1003.0, 0.3331808216817522
1004.0, 0.33811607064389215
1005.0, 0.3496129747656688
1006.0, 0.3423114283418875
1007.0, 0.3631552341380979
1008.0, 0.40562815526841006
1009.0, 0.36703808043180763
1010.0, 0.39236074602383253
1011.0, 0.4080242349077758
1012.0, 0.40018902540918816
1013.0, 0.4050252869874872
1014.0, 0.4233765853502763
1015.0, 0.4339321338096017
1016.0, 0.431300974332525
1017.0, 0.40726986013983646
1018.0, 0.42203163862596427
1019.0, 0.4193001025724493
1020.0, 0.4159271272315606
1021.0, 0.4053919075770954
1022.0, 0.3953368454694568
1023.0, 0.37670801281079525
1024.0, 0.37041821690319743
1025.0, 0.3701252385247879
1026.0, 0.3512896626300082
1027.0, 0.38164007085339163
1028.0, 0.33625448073536124
1029.0, 0.31655905393924816
1030.0, 0.3194336185770725
1031.0, 0.34469741075799626
1032.0, 0.34170972829400004
1033.0, 0.33877876535035145
1034.0, 0.33179233519000234
1035.0, 0.32096350640875354
1036.0, 0.32645711121524906
1037.0, 0.30758846905449455
1038.0, 0.2968511942265071
1039.0, 0.29325566490608923
1040.0, 0.29353430740389114
1041.0, 0.2843453258130593
1042.0, 0.2802223889072009
1043.0, 0.2676327235439368
1044.0, 0.26644075246007426
1045.0, 0.28283557594674635
1046.0, 0.28271919396696327
1047.0, 0.2554729493005339
1048.0, 0.268054787410115
1049.0, 0.28107228887980085
1050.0, 0.28719343720125595
1051.0, 0.29587921758142943
1052.0, 0.27706212770250255
1053.0, 0.2664709436027217
1054.0, 0.26316862353422577
1055.0, 0.2606644527564066
1056.0, 0.2622781008210782
1057.0, 0.26542555169765636
1058.0, 0.2709738319032108
1059.0, 0.2877124443840019
1060.0, 0.28562806312727373
1061.0, 0.27543064908111803
1062.0, 0.2461252522927123
1063.0, 0.24450642362164574
1064.0, 0.25858949052902147
1065.0, 0.2571133610690276
1066.0, 0.25007462895976207
1067.0, 0.2594731729150242
1068.0, 0.2609895344974315
1069.0, 0.2509664542273188
1070.0, 0.2543724569374344
1071.0, 0.2360330670795016
1072.0, 0.22449483609302334
1073.0, 0.22686377344864278
1074.0, 0.2255135454731473
1075.0, 0.23307894496432266
1076.0, 0.23552248646736676
1077.0, 0.22924689311309296
1078.0, 0.2324457403557348
1079.0, 0.2147849602993819
1080.0, 0.1735112331616351
1081.0, 0.16758871426838007
1082.0, 0.16868167806014533
1083.0, 0.16025639982263057
1084.0, 0.15125085036122302
1085.0, 0.1341195609353028
1086.0, 0.13033961460906981
1087.0, 0.13933538727143022
1088.0, 0.131113467025438
1089.0, 0.10914480834076601
1090.0, 0.12750168772446943
1091.0, 0.1323161120970527
1092.0, 0.12057321624454788
1093.0, 0.12860779050458473
1094.0, 0.11831210539629163
1095.0, 0.12442605992762551
1096.0, 0.12030534512927371
1097.0, 0.11160699806313562
1098.0, 0.0992499583655391
1099.0, 0.08538232914376315
1100.0, 0.08992203673656829
1101.0, 0.10167397771632974
1102.0, 0.08199635818674816
1103.0, 0.08133098448727945
1104.0, 0.06153507007731723
1105.0, 0.0676562969107602
1106.0, 0.10808080938153042
1107.0, 0.09763904109512661
1108.0, 0.08601426964722306
1109.0, 0.08770879242156122
1110.0, 0.07626310992407272
1111.0, 0.06018789538371047
1112.0, 0.04815607834587882
1113.0, 0.05773406346105566
1114.0, 0.07162672464306355
1115.0, 0.07171962598370893
1116.0, 0.05985090032533764
1117.0, 0.06865635874826188
1118.0, 0.06798682419587138
1119.0, 0.053546845383522106
1120.0, 0.057074503382987855
1121.0, 0.06908394600949372
1122.0, 0.07033665644090754
1123.0, 0.07991582632551313
1124.0, 0.046944271872940785
1125.0, 0.049158314302714695
1126.0, 0.052480155492763816
1127.0, 0.050522254020097586
1128.0, 0.03233759983762956
1129.0, 0.041448807761073944
1130.0, 0.05840923530482052
1131.0, 0.042724160135807675
1132.0, 0.02845714558665258
1133.0, 0.041557559024040236
1134.0, 0.04406413419939601
1135.0, 0.03928416773661985
1136.0, 0.045189420377248025
1137.0, 0.033306656254735494
1138.0, 0.04681508420856717
1139.0, 0.04016890147909071
1140.0, 0.03551812549188704
1141.0, 0.022288887930883055
1142.0, 0.008375417412222532
1143.0, 0.004932015505780279
1144.0, 0.021450937972673337
1145.0, 0.045133726354470834
1146.0, 0.044285744508384864
1147.0, 0.021615022171111994
1148.0, 0.006874128659216206
1149.0, 0.04361897828477482
1150.0, 0.032984757157129854
1151.0, 0.029186554389748074
1152.0, 0.0199366759425525
1153.0, 0.007790586459431306
1154.0, 0.016654047912332427
1155.0, 0.016304223025203134
1156.0, 0.007040394985258194
1157.0, 0.008986650438060503
1158.0, 0.009114846496522392
1159.0, 0.026205694878468817
1160.0, 0.016483237861779392
1161.0, 0.01131698578347476
1162.0, 0.034117003374617955
1163.0, 0.02582979191821013
1164.0, 0.03604525648138268
1165.0, 0.04222878947015247
1166.0, 0.02427945131713469
1167.0, 0.016191224524945747
1168.0, 0.02229581048442022
1169.0, 0.021730321405723455
1170.0, 0.02001236530731447
1171.0, 0.01665801991590928
1172.0, 0.010119175389913696
1173.0, 0.009275630970093297
1174.0, 0.0042910536769848965
1175.0, 0.004605656180520782
1176.0, 0.0032217317952019007
1177.0, 0.005513207905056342
1178.0, 0.007925683256852485
1179.0, 0.007717128719670566
1180.0, 0.009566657543561093
1181.0, 0.010304007205666944
1182.0, 0.004444604968699044
1183.0, 0.001877007942714112
1184.0, 0.003976805975272425
1185.0, 0.007426775481127228
1186.0, 0.0051082369318514054
1187.0, 0.001753369067504309
1188.0, 0.0016705582408663407
1189.0, 0.00990332023721038
1190.0, 0.007132196000910642
1191.0, 0.004725190968105203
1192.0, 0.006918039875769928
1193.0, 0.0170285334117782
1194.0, 0.023851516931005123
1195.0, 0.010844380263945614
1196.0, 0.004210763800396115
1197.0, 0.01860742240175685
1198.0, 0.02221847571785062
1199.0, 0.03200516820287418
1200.0, 0.01569800480022173
1201.0, 0.0066065163980395525
1202.0, 0.007664113739116882
1203.0, 0.010844542283222484
1204.0, 0.01593630709141382
1205.0, 0.0162786664759606
1206.0, 0.015897823480795388
1207.0, 0.019841995636675394
1208.0, 0.02022213639602307
1209.0, 0.01861950997393278
1210.0, 0.019019456678165996
1211.0, 0.019232771334342855
1212.0, 0.005062614872965615
1213.0, 0.0006945649974317834
1214.0, 0.0029916062581704294
1215.0, 0.004457380283321199
1216.0, 0.005554565402445735
1217.0, 0.013046469916757088
1218.0, 0.011091384892858071
1219.0, 0.0067747750599698705
1220.0, 0.0116148109830577
1221.0, 0.014056156074061625
1222.0, 0.011603414383193612
1223.0, 0.0015574249577957053
1224.0, 0.005869901282192759
1225.0, 0.009511952418142098
1226.0, 0.021227732779079744
1227.0, 0.011261705946809506
1228.0, 0.004736154847612141
1229.0, 0.005430851954407553
1230.0, 0.003216080620679057
1231.0, 0.004286506722287954
1232.0, 0.0039089693247647914
1233.0, 0.0019247603819115397
1234.0, 0.0031296137230504054
1235.0, 0.01075989901996796
1236.0, 0.03656942854584161
1237.0, 0.023108555976149456
1238.0, 0.037252053914501246
1239.0, 0.004165483459119053
1240.0, 0.028219607556855514
1241.0, 0.02541819556288461
1242.0, 0.01711142248148302
1243.0, 0.005699288504980301
1244.0, 0.004223447669424714
1245.0, 0.00980672232847894
1246.0, 0.013802277110404647
1247.0, 0.012297046007758898
1248.0, 0.010037842139967655
1249.0, 0.013517062256391045
1250.0, 0.012079113508982477
1251.0, 0.0045337059257281485
1252.0, 0.0044465409796957504
1253.0, 0.013405634311150372
1254.0, 0.0030031161015310597
1255.0, 0.0152769932288751
1256.0, 0.00831269358800383
1257.0, 0.014262454740281897
1258.0, 0.02132364967391632
1259.0, 0.015743909677715953
1260.0, 0.010839421159443667
1261.0, 0.010107385566363938
1262.0, 0.013963598752544635
1263.0, 0.031138236859161426
1264.0, 0.03987292283894551
1265.0, 0.03686792151578665
1266.0, 0.006413818094156904
1267.0, 0.018370394911401675
1268.0, 0.012394089293761845
1269.0, 0.005542526436046981
1270.0, 0.019868947067245075
1271.0, 0.011252625847146577
1272.0, 0.010630859963546922
1273.0, 0.012723042350834834
1274.0, 0.016843425429365125
1275.0, 0.016025768036251786
1276.0, 0.007960508539107224
1277.0, 0.00934324983843971
1278.0, 0.020238897618303327
1279.0, 0.02064541924321182
1280.0, 0.010639501015831271
1281.0, 0.017893816880554712
1282.0, 0.0012876689966350545
1283.0, 0.025368216607752632
1284.0, 0.014721519998142689
1285.0, 0.010909752688026695
1286.0, 0.004683352709172082
1287.0, 0.028979428364015052
1288.0, 0.02591837961010341
1289.0, 0.03129787237192613
1290.0, 0.04989096849197599
1291.0, 0.04780239684515017
1292.0, 0.04839162154646729
1293.0, 0.061922878397766015
1294.0, 0.055156133095830596
1295.0, 0.03883356104537701
1296.0, 0.023265192819869104
1297.0, 0.0302481371591775
1298.0, 0.044107811556393386
1299.0, 0.0305629742963239
1300.0, 0.046167475856860984
1301.0, 0.059679142516343445
1302.0, 0.06487266189432236
1303.0, 0.04464076755064937
1304.0, 0.03870305812866655
1305.0, 0.04224024560369139
1306.0, 0.03661931665250262
1307.0, 0.040262790528528394
1308.0, 0.044996312612434926
1309.0, 0.02899632559302023
1310.0, 0.04464475186379669
1311.0, 0.04601586962265475
1312.0, 0.054061345143918964
1313.0, 0.04450666567006235
1314.0, 0.04032834568124875
1315.0, 0.05328069639761408
1316.0, 0.05925709461494455
1317.0, 0.051193082225841555
1318.0, 0.05416952383326027
1319.0, 0.03892891918744693
1320.0, 0.02981622501785172
1321.0, 0.041916009329891285
1322.0, 0.04682465678924519
1323.0, 0.0430731412901561
1324.0, 0.05032742324675504
1325.0, 0.04318246983784444
1326.0, 0.020134727272872115
1327.0, 0.03638317023506009
1328.0, 0.025885854950737752
1329.0, 0.044590662688529764
1330.0, 0.04277960266497485
1331.0, 0.04295973041675142
1332.0, 0.030748992884351945
1333.0, 0.02399737049681796
1334.0, 0.03998283500917109
1335.0, 0.0362017699206496
1336.0, 0.042776278129480885
1337.0, 0.03014768542136369
1338.0, 0.01046211692183975
1339.0, 0.007662042437229193
1340.0, 0.017036924593103395
1341.0, 0.032966445196460796
1342.0, 0.013751228784141733
1343.0, 0.03245461944562057
1344.0, 0.027222562419684147
1345.0, 0.022676579740091074
1346.0, 0.04311978198576516
1347.0, 0.035387488377082985
1348.0, 0.0536885622223814
1349.0, 0.04588384762647355
1350.0, 0.021057758532202965
1351.0, 0.025863181911982055
1352.0, 0.013061880378565954
1353.0, 0.019980745394014805
1354.0, 0.045306738819046316
1355.0, 0.054272186095646685
1356.0, 0.04183647020933254
1357.0, 0.018976311341116756
1358.0, 0.018539451035790636
1359.0, 0.05024866885681249
1360.0, 0.029863665610179075
1361.0, 0.03631355743518284
1362.0, 0.02846722618010209
1363.0, 0.02394285094615038
1364.0, 0.014535210884589868
1365.0, 0.016542759984226805
1366.0, 0.013756054496774424
1367.0, 0.019764708288266302
1368.0, 0.019394701512703155
1369.0, 0.019759274618418015
1370.0, 0.034543075224140095
1371.0, 0.03841196017924703
1372.0, 0.03818435290047564
1373.0, 0.04452903945752051
1374.0, 0.047729924691043576
1375.0, 0.04212599681843104
1376.0, 0.03566059948679291
1377.0, 0.035364950086597666
1378.0, 0.03320963430800689
1379.0, 0.02829184663073131
1380.0, 0.039591359488297256
1381.0, 0.03573616960967937
1382.0, 0.03967660109625756
1383.0, 0.022171248644641945
1384.0, 0.0261033127183423
1385.0, 0.023023369662813074
1386.0, 0.027118418629085088
1387.0, 0.0389150096805686
1388.0, 0.046202147408088395
1389.0, 0.035187851316067345
1390.0, 0.01269048812847811
1391.0, 0.010189040379097222
1392.0, 0.01987714851020144
1393.0, 0.026304992402275854
1394.0, 0.027146549416353964
1395.0, 0.01796243901164821
1396.0, 0.016948941147948475
1397.0, 0.03467734406599677
1398.0, 0.048784450825640716
1399.0, 0.007859815675184133
1400.0, 0.036167742150163516
1401.0, 0.09282532617157815
1402.0, 0.04433229949703653
1403.0, 0.032423428171317485
1404.0, 0.02532653122858612
1405.0, 0.039839683264099326
1406.0, 0.045788344630075486
1407.0, 0.04482801077860947
1408.0, 0.048019749749663485
1409.0, 0.04387725583273806
1410.0, 0.030232736694376806
1411.0, 0.022096630317602988
1412.0, 0.026945659374177432
1413.0, 0.023555668561677262
1414.0, 0.014083623764502192
1415.0, 0.025281247748666445
1416.0, 0.027872522456514753
1417.0, 0.00781942548316282
1418.0, 0.033658353688890454
1419.0, 0.04195460721737039
1420.0, 0.021994088817309892
1421.0, 0.006666951693869419
1422.0, 0.005293992212333367
1423.0, 0.03653206399334132
1424.0, 0.022586332352923136
1425.0, 0.044140036725330636
1426.0, 0.024801499143005265
1427.0, 0.02475731501240911
1428.0, 0.030824766765289488
1429.0, 0.02464345586435885
1430.0, 0.022953116484856675
1431.0, 0.03474636068018183
1432.0, 0.02881371552932632
1433.0, 0.02012851960914454
1434.0, 0.048476246139343745
1435.0, 0.058105050117091946
1436.0, 0.01755753873905656
1437.0, 0.01253013178059649
1438.0, 0.02861480867494048
1439.0, 0.017120178687302572
1440.0, 0.03246181093792623
1441.0, 0.028246089582514452
1442.0, 0.047380571852156474
1443.0, 0.04166974931851682
1444.0, 0.07076765633028788
1445.0, 0.026761785412303236
1446.0, 0.02048900215368837
1447.0, 0.007482849281671469
1448.0, 0.015407686112028142
1449.0, 0.026533534687912294
1450.0, 0.03219580357566886
1451.0, 0.03779757418080378
1452.0, 0.04335963190906626
1453.0, 0.03998205794341579
1454.0, 0.032322074815071024
1455.0, 0.03443084117691381
1456.0, 0.04075329379614477
1457.0, 0.0238802390173535
1458.0, 0.012318799104814742
1459.0, 0.03346144417240106
1460.0, 0.030844634186645722
1461.0, 0.018285956839623474
1462.0, 0.030940863106490468
1463.0, 0.011441101296953613
1464.0, 0.02113649205875797
1465.0, 0.06722841219950984
1466.0, 0.07046855369438863
1467.0, 0.03767837775136276
1468.0, 0.042162061624935646
1469.0, 0.011021618217338106
1470.0, 0.014058223293526777
1471.0, 0.03390166459149806
1472.0, 0.02271943550196629
1473.0, 0.015099127808416987
1474.0, 0.02248072237362546
1475.0, 0.030131715480241485
1476.0, 0.036646345522482915
1477.0, 0.027006590162610783
1478.0, 0.029072034675093932
1479.0, 0.031155118558806167
1480.0, 0.016584691067033603
1481.0, 0.027913858010279523
1482.0, 0.04273510840988115
1483.0, 0.018440976975917935
1484.0, 0.012396766266144995
1485.0, 0.03505452279884061
1486.0, 0.02792452767044237
1487.0, 0.013235737597488645
1488.0, 0.037786959400144454
1489.0, 0.012085579313676249
1490.0, 0.022926963834239367
1491.0, 0.04342563064309307
1492.0, 0.05473939534556564
1493.0, 0.056762583395571456
1494.0, 0.023340031003240908
1495.0, 0.03577683547876582
1496.0, 0.03140644906080301
1497.0, 0.02522699205791544
1498.0, 0.04174334749808925
1499.0, 0.02166655907580703
1500.0, 0.03137597752882496
1501.0, 0.03648921363967177
1502.0, 0.04325105084626741
1503.0, 0.03955973133808714
1504.0, 0.03344694977485148
1505.0, 0.04100433662198438
1506.0, 0.0500430741421638
1507.0, 0.04578968598629968
1508.0, 0.044757509820570474
1509.0, 0.03651311601549504
1510.0, 0.022167796934255996
1511.0, 0.03296620717424905
1512.0, 0.04165434617980583
1513.0, 0.03754308759305602
1514.0, 0.045307774799088055
1515.0, 0.038071415071258344
1516.0, 0.01762717655385114
1517.0, 0.040167743142403546
1518.0, 0.03518784774152339
1519.0, 0.037978448528864936
1520.0, 0.0441103249943362
1521.0, 0.029034831930030203
1522.0, 0.04189306825306637
1523.0, 0.04360333807232623
1524.0, 0.01507319177246308
1525.0, 0.006145688193678953
1526.0, 0.0029197871785724017
1527.0, 0.02481040556742841
1528.0, 0.03519430312025464
1529.0, 0.038165751879403124
1530.0, 0.03665735130171711
1531.0, 0.031839622120443535
1532.0, 0.0227410157180511
1533.0, 0.008145649030739792
1534.0, 0.010425771304662976
1535.0, 0.014418567885528456
1536.0, 0.02442056916332221
1537.0, 0.014993372409298275
1538.0, 0.011597856272921127
1539.0, 0.028288045158020993
1540.0, 0.03638536817860748
1541.0, 0.02371266830676599
1542.0, 0.009554279501683605
1543.0, 0.01635042252874604
1544.0, 0.011084225126754593
1545.0, 0.01357039782399223
1546.0, 0.020604792773344198
1547.0, 0.0053806326961816
1548.0, 0.020092233360032328
1549.0, 0.0214498365816298
1550.0, 0.027963961861507177
1551.0, 0.019442532963653093
1552.0, 0.018039262209315707
1553.0, 0.03268421196713609
1554.0, 0.0368702193434692
1555.0, 0.02554850756252497
1556.0, 0.03578781669860663
1557.0, 0.007190342895775725
1558.0, 0.01144442187131073
1559.0, 0.03019894393992334
1560.0, 0.02225247680107094
1561.0, 0.030386547614092513
1562.0, 0.0340896706161706
1563.0, 0.007132874589491106
1564.0, 0.023355631351027577
1565.0, 0.03145843700381181
1566.0, 0.012483286416978975
1567.0, 0.023405843441412583
1568.0, 0.015154996161458845
1569.0, 0.002644033448308756
1570.0, 8.499519827740273e-06
1571, 0.0
1572, 0.0
1573, 0.0
1574, 0.0
1575, 0.0
1576, 0.0
1577, 0.0
1578, 0.0
1579, 0.0
1580, 0.0
1581, 0.0
1582, 0.0
1583, 0.0
1584, 0.0
1585, 0.0
1586, 0.0
1587, 0.0
1588, 0.0
1589, 0.0
1590, 0.0
1591, 0.0
1592, 0.0
1593, 0.0
1594, 0.0
1595, 0.0
1596, 0.0
1597, 0.0
1598, 0.0
1599, 0.0
