30, 0.0
31, 0.0
32, 0.0
33, 0.0
34, 0.0
35, 0.0
36, 0.0
37, 0.0
38, 0.0
39, 0.0
40, 0.0
41, 0.0
42, 0.0
43, 0.0
44, 0.0
45, 0.0
46, 0.0
47, 0.0
48, 0.0
49, 0.0
50, 0.0
51, 0.0
52, 0.0
53, 0.0
54, 0.0
55, 0.0
56, 0.0
57, 0.0
58, 0.0
59, 0.0
60, 0.0
61, 0.0
62, 0.0
63, 0.0
64, 0.0
65, 0.0
66, 0.0
67, 0.0
68, 0.0
69, 0.0
70, 0.0
71, 0.0
72, 0.0
73, 0.0
74, 0.0
75, 0.0
76, 0.0
77, 0.0
78, 0.0
79, 0.0
80, 0.0
81, 0.0
82, 0.0
83, 0.0
84, 0.0
85, 0.0
86, 0.0
87, 0.0
88, 0.0
89, 0.0
90, 0.0
91, 0.0
92, 0.0
93, 0.0
94, 0.0
95, 0.0
96, 0.0
97, 0.0
98, 0.0
99, 0.0
100, 0.0
101, 0.0
102, 0.0
103, 0.0
104, 0.0
105, 0.0
106, 0.0
107, 0.0
108, 0.0
109, 0.0
110, 0.0
111, 0.0
112, 0.0
113, 0.0
114, 0.0
115, 0.0
116, 0.0
117, 0.0
118, 0.0
119, 0.0
120, 0.0
121, 0.0
122, 0.0
123, 0.0
124, 0.0
125, 0.0
126, 0.0
127, 0.0
128, 0.0
129, 0.0
130, 0.0
131, 0.0
132, 0.0
133, 0.0
134, 0.0
135, 0.0
136, 0.0
137, 0.0
138, 0.0
139, 0.0
140, 0.0
141, 0.0
142, 0.0
143, 0.0
144, 0.0
145, 0.0
146, 0.0
147, 0.0
148, 0.0
149, 0.0
150, 0.0
151, 0.0
152, 0.0
153, 0.0
154, 0.0
155, 0.0
156, 0.0
157, 0.0
158, 0.0
159, 0.0
160, 0.0
161, 0.0
162, 0.0
163, 0.0
164, 0.0
165, 0.0
166, 0.0
167, 0.0
168, 0.0
169, 0.0
170, 0.0
171, 0.0
172, 0.0
173, 0.0
174, 0.0
175, 0.0
176, 0.0
177, 0.0
178, 0.0
179, 0.0
180, 0.0
181, 0.0
182, 0.0
183, 0.0
184, 0.0
185, 0.0
186, 0.0
187, 0.0
188, 0.0
189, 0.0
190, 0.0
191, 0.0
192, 0.0
193, 0.0
194, 0.0
195, 0.0
196, 0.0
197, 0.0
198, 0.0
199, 0.0
200, 0.0
201, 0.0
202, 0.0
203, 0.0
204, 0.0
205, 0.0
206, 0.0
207, 0.0
208, 0.0
209, 0.0
210, 0.0
211, 0.0
212, 0.0
213, 0.0
214, 0.0
215, 0.0
216, 0.0
217, 0.0
218, 0.0
219, 0.0
220, 0.0
221, 0.0
222, 0.0
223, 0.0
224, 0.0
225, 0.0
226, 0.0
227, 0.0
228, 0.0
229, 0.0
230, 0.0
231.0, 0.0016672410053065172
232.0, 0.008681773187442099
233.0, 0.011325838338968885
234.0, 0.004721753455323998
235.0, 0.020021393894759067
236.0, 0.036328131961625404
237.0, 0.023624095605790006
238.0, 0.005221438496677888
239.0, 0.03340859221516179
240.0, 0.0314694877646263
241.0, 0.03598117009366236
242.0, 0.05173137762299464
243.0, 0.047459984358722174
244.0, 0.04855449036936766
245.0, 0.022272418247480764
246.0, 0.024061242746861243
247.0, 0.02817419761512905
248.0, 0.013033234648591241
249.0, 0.008609529576221773
250.0, 0.029713978086537224
251.0, 0.014065576691447014
252.0, 0.011721875741986333
253.0, 0.02079523788210065
254.0, 0.018227223088532734
255.0, 0.025896480421573755
256.0, 0.013775395187887219
257.0, 0.020029772447416595
258.0, 0.037044279192414126
259.0, 0.059707137707484675
260.0, 0.088145765761722
261.0, 0.08029999345450302
262.0, 0.112222981563387
263.0, 0.09531717978688334
264.0, 0.0711838892658884
265.0, 0.0782427823107656
266.0, 0.0771482183975029
267.0, 0.08465331859801213
268.0, 0.08996291655904526
269.0, 0.08839117017722806
270.0, 0.09764725718447824
271.0, 0.12669136253373386
272.0, 0.1109766867475046
273.0, 0.11344557206866382
274.0, 0.10310203501580163
275.0, 0.09094609053815768
276.0, 0.07769318309376044
277.0, 0.05892887351497464
278.0, 0.09129896503456428
279.0, 0.07754274134648538
280.0, 0.08537434366568598
281.0, 0.06497483552376224
282.0, 0.020460320542953075
283.0, 0.056596164638714176
284.0, 0.04514401934471429
285.0, 0.047830673857776715
286.0, 0.04275504830527335
287.0, 0.033609721042348516
288.0, 0.03005768186700826
289.0, 0.03260149513863099
290.0, 0.02424362394712574
291.0, 0.027710476332525956
292.0, 0.034936777075615405
293.0, 0.036814328350765674
294.0, 0.03350100830577969
295.0, 0.05967646519622555
296.0, 0.04463192151204631
297.0, 0.0317844849045191
298.0, 0.015972917522942658
299.0, 0.006996026825232327
300.0, 0.023925666490680092
301.0, 0.04083496698317545
302.0, 0.021532901844598832
303.0, 0.011190428194172703
304.0, 0.012194002827482852
305.0, 0.016420086140543914
306.0, 0.015312016103482338
307.0, 0.0353057415812006
308.0, 0.03208546958196568
309.0, 0.031098052039232976
310.0, 0.02282077450633125
311.0, 0.004785359259247717
312.0, 0.0019684847372372473
313.0, 0.014801865492102368
314.0, 0.015243451528701263
315.0, 0.01828247774794531
316.0, 0.015113236401140828
317.0, 0.0016912980800319788
318.0, 0.006808018372329946
319.0, 0.01525070948146381
320.0, 0.024465208130938984
321.0, 0.01926513333691058
322.0, 0.01766020660792427
323.0, 0.03344826549208441
324.0, 0.011704082339463281
325.0, 0.007008861870815972
326.0, 0.03195839148552659
327.0, 0.03064139938847136
328.0, 0.010236302048044623
329.0, 0.013629311522290702
330.0, 0.03719050875890176
331.0, 0.02711943395991174
332.0, 0.03638716190745331
333.0, 0.03561530683196595
334.0, 0.02808920919406985
335.0, 0.03998944240421626
336.0, 0.03730909978683737
337.0, 0.06810898113136044
338.0, 0.05153956152204671
339.0, 0.04616765628057084
340.0, 0.06354043236237268
341.0, 0.060214271789523724
342.0, 0.06742043488956952
343.0, 0.07750022346619587
344.0, 0.08039247089241813
345.0, 0.08102867957529433
346.0, 0.08190228248972825
347.0, 0.07965242320154259
348.0, 0.06985842989354696
349.0, 0.07425699049358143
350.0, 0.06031187304063651
351.0, 0.05013474378542867
352.0, 0.053803792987092904
353.0, 0.05431911009615267
354.0, 0.0558647957777762
355.0, 0.055647504433330115
356.0, 0.06007643238466439
357.0, 0.06199409299588494
358.0, 0.0689102166249443
359.0, 0.10200922642735478
360.0, 0.07660633459482638
361.0, 0.09504931215040544
362.0, 0.11790242037708418
363.0, 0.10397753145872371
364.0, 0.07722555595321554
365.0, 0.12918237270970534
366.0, 0.1253551320548164
367.0, 0.14976359595082092
368.0, 0.14898923628039323
369.0, 0.15694321947603582
370.0, 0.18059663486750407
371.0, 0.17108438522156147
372.0, 0.2145261502072757
373.0, 0.20951846349284514
374.0, 0.213848836709242
375.0, 0.22013596951096387
376.0, 0.22872353347266108
377.0, 0.26591665414967447
378.0, 0.29896436149877675
379.0, 0.33139798088307376
380.0, 0.33671559215394303
381.0, 0.3431085546832623
382.0, 0.3596537129189532
383.0, 0.3610458419326074
384.0, 0.38801273576271694
385.0, 0.3978446703274517
386.0, 0.40682593583036863
387.0, 0.4166702803015828
388.0, 0.43328619175316996
389.0, 0.46268042783423136
390.0, 0.4461383146599179
391.0, 0.44825683002177447
392.0, 0.4474223681258773
393.0, 0.4326113596612113
394.0, 0.41548308802197054
395.0, 0.4168512987737387
396.0, 0.3813319498123497
397.0, 0.3659392187687278
398.0, 0.3563518809814814
399.0, 0.3361303654400467
400.0, 0.3094810145015489
401.0, 0.2925520551709464
402.0, 0.26516159485165686
403.0, 0.2444707926252126
404.0, 0.23971783367795635
405.0, 0.22642461014185478
406.0, 0.20043110368856784
407.0, 0.17511762706358902
408.0, 0.15678436648614652
409.0, 0.11711403885851274
410.0, 0.1394636262023127
411.0, 0.1531217161065567
412.0, 0.139971148167241
413.0, 0.12285417418436965
414.0, 0.11895007255525401
415.0, 0.10207249995289494
416.0, 0.07920378721187912
417.0, 0.06762551089208013
418.0, 0.06063097797988035
419.0, 0.047847511157353244
420.0, 0.038456082965565075
421.0, 0.044876963178218036
422.0, 0.022763668397855295
423.0, 0.029603276368999436
424.0, 0.04332666067270447
425.0, 0.036278904595428596
426.0, 0.0233415853707274
427.0, 0.0033434604298099736
428.0, 0.004672943828481397
429.0, 0.014474644891049495
430.0, 0.018823297762103914
431.0, 0.0181349325295524
432.0, 0.025425432302044033
433.0, 0.010121426876572087
434.0, 0.018549586725510984
435.0, 0.018915090786166367
436.0, 0.01152413025953498
437.0, 0.0071802726368179835
438.0, 0.015952066512095672
439.0, 0.02653898601121604
440.0, 0.013711403725149944
441.0, 0.006066156248346074
442.0, 0.009138523578880045
443.0, 0.017180102984436108
444.0, 0.021189883965783488
445.0, 0.02038825060911762
446.0, 0.011792618572253152
447.0, 0.015243350104141904
448.0, 0.010122679097788814
449.0, 0.006026546196781902
450.0, 0.011878354877004378
451.0, 0.011339425745875532
452.0, 0.005233665919762992
453.0, 0.017304857191787447
454.0, 0.016512808984556475
455.0, 0.021020653008789587
456.0, 0.029792881216810937
457.0, 0.013761183969756409
458.0, 0.015965378757585195
459.0, 0.031859419542110155
460.0, 0.02218588070807521
461.0, 0.011178891865940834
462.0, 0.006949728788241321
463.0, 0.0024172589188550687
464.0, 0.008821006624265859
465.0, 0.013305510842695122
466.0, 0.01892263145605175
467.0, 0.031030852717469415
468.0, 0.04053188438425784
469.0, 0.04035686705658601
470.0, 0.041147005816956655
471.0, 0.0501181520572725
472.0, 0.04376259323712733
473.0, 0.05361176157342223
474.0, 0.06016723602381638
475.0, 0.04910000372731028
476.0, 0.033154393228538824
477.0, 0.04515694881874088
478.0, 0.051178156807093124
479.0, 0.04980762770887886
480.0, 0.05685130192487227
481.0, 0.05803775390071815
482.0, 0.037193972580216665
483.0, 0.037029965686466465
484.0, 0.05354277114650066
485.0, 0.076400250625527
486.0, 0.0759593184546726
487.0, 0.0797509777264445
488.0, 0.10887107788360072
489.0, 0.13597388824929393
490.0, 0.11652535200263218
491.0, 0.14985487958307447
492.0, 0.15433344661010737
493.0, 0.16099920564850104
494.0, 0.18191863147220533
495.0, 0.20357076032125299
496.0, 0.25337135564990265
497.0, 0.22105973875078447
498.0, 0.24790258610552868
499.0, 0.2667654562977653
500.0, 0.2688449164885323
501.0, 0.27779178630718904
502.0, 0.3066296972170659
503.0, 0.29052766453890716
504.0, 0.3135735214031249
505.0, 0.34440466803973613
506.0, 0.3623582936756682
507.0, 0.3611125758583191
508.0, 0.3513700758104539
509.0, 0.36303167524433844
510.0, 0.33684898067318114
511.0, 0.3547193095723674
512.0, 0.34613797035164545
513.0, 0.3319731439001817
514.0, 0.3332019486317248
515.0, 0.2916747549604741
516.0, 0.2840118939516978
517.0, 0.2885055404005966
518.0, 0.2775372079669267
519.0, 0.2568619627320872
520.0, 0.24202001827833575
521.0, 0.23870690964213004
522.0, 0.2128333025464207
523.0, 0.23250590849533942
524.0, 0.2332634091332976
525.0, 0.2259127687607227
526.0, 0.20955854871317817
527.0, 0.18953357339749202
528.0, 0.1856760443417938
529.0, 0.17782793324871923
530.0, 0.20525602096955875
531.0, 0.17963109560622004
532.0, 0.16823312590140807
533.0, 0.1713516272109011
534.0, 0.1521170942667759
535.0, 0.1623707107019377
536.0, 0.1488778603177577
537.0, 0.16405128657928797
538.0, 0.1455420556115987
539.0, 0.11362816372563812
540.0, 0.10721618922814749
541.0, 0.13190255206582557
542.0, 0.09149220344196812
543.0, 0.12620293490100712
544.0, 0.12376453383909487
545.0, 0.112596009421566
546.0, 0.11481040519706577
547.0, 0.11894217245144184
548.0, 0.08371790222830407
549.0, 0.1062147968846881
550.0, 0.10065759301136509
551.0, 0.07922216688236246
552.0, 0.07037231726743494
553.0, 0.06292151155433198
554.0, 0.03484811746891236
555.0, 0.032681802515969
556.0, 0.03860836786766873
557.0, 0.06418747388589491
558.0, 0.055880958735893216
559.0, 0.04582747108706153
560.0, 0.05706472264117746
561.0, 0.06694980328514345
562.0, 0.05212983942793249
563.0, 0.04685002445206342
564.0, 0.049291985451010566
565.0, 0.05468311054199517
566.0, 0.05463626661515884
567.0, 0.04879330494936926
568.0, 0.04897125496655303
569.0, 0.045762691839721335
570.0, 0.039045924356679945
571.0, 0.035637389389514655
572.0, 0.035673281975530685
573.0, 0.03307184947267553
574.0, 0.02947425268618386
575.0, 0.04638474329774466
576.0, 0.05475722091474025
577.0, 0.06509937929707627
578.0, 0.06542528884143028
579.0, 0.062246645427213226
580.0, 0.05544147690843192
581.0, 0.04167759739765657
582.0, 0.033459629793289015
583.0, 0.02690117985428139
584.0, 0.025445636863761514
585.0, 0.024788724734749367
586.0, 0.03029851712682001
587.0, 0.037054786912129184
588.0, 0.0363919554895011
589.0, 0.0537370555702148
590.0, 0.05720724001242205
591.0, 0.055264302700304656
592.0, 0.07399961326970135
593.0, 0.08248699072548331
594.0, 0.06970602360566293
595.0, 0.07402893628295398
596.0, 0.13035334985564762
597.0, 0.06816663503651436
598.0, 0.10830561343819818
599.0, 0.15880262333378117
600.0, 0.17622036771117228
601.0, 0.16730232319626961
602.0, 0.1630937990169848
603.0, 0.18443840559420732
604.0, 0.18625828440271378
605.0, 0.1934895142454604
606.0, 0.21444896529278815
607.0, 0.23095640019324007
608.0, 0.24392411840583644
609.0, 0.28885755270511293
610.0, 0.32871033398979177
611.0, 0.3186451989238709
612.0, 0.3517662393144751
613.0, 0.3727954273704731
614.0, 0.408455782142252
615.0, 0.48168641403357826
616.0, 0.5332147118270678
617.0, 0.5222278561079432
618.0, 0.5695751284262738
619.0, 0.5906685021464533
620.0, 0.6085363506045826
621.0, 0.6455907866914543
622.0, 0.6997579507361548
623.0, 0.7413180094294995
624.0, 0.7341317900147118
625.0, 0.7393061688525094
626.0, 0.8198173107596702
627.0, 0.8954109911985837
628.0, 0.9369412104706377
629.0, 0.9407329318897921
630.0, 0.9011703375661093
631.0, 0.9120737167728926
632.0, 0.9359772433236673
633.0, 0.9518219400185555
634.0, 0.930579752949817
635.0, 0.9071467454138973
636.0, 0.9035351855965529
637.0, 0.8845168530423625
638.0, 0.8678065673745343
639.0, 0.8595702133640672
640.0, 0.8379444735704851
641.0, 0.817018870415454
642.0, 0.8107786181576147
643.0, 0.8085743984137228
644.0, 0.7813017599285557
645.0, 0.7518209655789112
646.0, 0.7550620818269642
647.0, 0.7361459300253981
648.0, 0.6851805301888307
649.0, 0.6817615278524324
650.0, 0.7207937545359555
651.0, 0.7159598817220986
652.0, 0.7882785947394444
653.0, 0.7580456675649836
654.0, 0.7353407932030391
655.0, 0.7729019008700849
656.0, 0.7936162170217779
657.0, 0.7991270288571357
658.0, 0.8559699258149666
659.0, 0.872521754442244
660.0, 0.8196475205555572
661.0, 0.8892003855243835
662.0, 0.9335677896466033
663.0, 0.9425156717580079
664.0, 0.9433200399226429
665.0, 0.9533610221309958
666.0, 0.9642451140535587
667.0, 0.9608799555993942
668.0, 0.9908779542709826
669.0, 0.9879107613851057
670.0, 0.9848761682821464
671.0, 0.9810461430374401
672.0, 0.9612622896211762
673.0, 0.9398820112211947
674.0, 0.915165528925347
675.0, 0.9032269222823077
676.0, 0.879207918558208
677.0, 0.8775276715113707
678.0, 0.8692437129019391
679.0, 0.847512855884347
680.0, 0.8534882500469383
681.0, 0.8265684197417349
682.0, 0.7996081786009085
683.0, 0.811336891179768
684.0, 0.8051517890114427
685.0, 0.7708560280116927
686.0, 0.7316969341444122
687.0, 0.7143087827630197
688.0, 0.7102242658150641
689.0, 0.6243366516901603
690.0, 0.6078773878795802
691.0, 0.6108688849027366
692.0, 0.6084178151464902
693.0, 0.5757429522445496
694.0, 0.5255622074402636
695.0, 0.5262147543466521
696.0, 0.5389874383948691
697.0, 0.5591936727932374
698.0, 0.5122159801333337
699.0, 0.5110302682821075
700.0, 0.5118547715038368
701.0, 0.46212895965234096
702.0, 0.40860201072893654
703.0, 0.42933481060475664
704.0, 0.3949681042351457
705.0, 0.3840778736892213
706.0, 0.3725328785102481
707.0, 0.3710092794626573
708.0, 0.3685400198535656
709.0, 0.35373104719939746
710.0, 0.360346910266266
711.0, 0.3562320348664905
712.0, 0.348133386478238
713.0, 0.29890442210611307
714.0, 0.26416608785468604
715.0, 0.2622399332579861
716.0, 0.264637281222782
717.0, 0.2384317496717179
718.0, 0.23512419381184876
719.0, 0.2239668838028047
720.0, 0.21572799083446673
721.0, 0.20959185631351565
722.0, 0.20276982971128713
723.0, 0.1962781637257101
724.0, 0.18727699714104043
725.0, 0.16302457869992834
726.0, 0.15527057336218605
727.0, 0.18004634213070916
728.0, 0.1898748866348513
729.0, 0.14103981002669647
730.0, 0.10661230278568602
731.0, 0.12086625239334108
732.0, 0.12978630467434446
733.0, 0.1563122586101094
734.0, 0.11447578507763724
735.0, 0.12628638997038488
736.0, 0.10206995872543391
737.0, 0.10108508111148624
738.0, 0.13028811395849774
739.0, 0.14183933562236087
740.0, 0.1108270959392662
741.0, 0.08401159739270948
742.0, 0.0910752405192281
743.0, 0.07744032082266869
744.0, 0.07716517892826857
745.0, 0.07890230034389369
746.0, 0.08090134320575144
747.0, 0.08676326941747707
748.0, 0.06340553091637281
749.0, 0.10383930728591373
750.0, 0.07809275135619892
751.0, 0.05954050803837673
752.0, 0.08166803185151406
753.0, 0.08040816706717038
754.0, 0.05111638888641039
755.0, 0.06771081347007857
756.0, 0.058627317365968185
757.0, 0.07825181173828029
758.0, 0.06798128882210888
759.0, 0.054819791315702554
760.0, 0.038555464411967645
761.0, 0.05677806741636008
762.0, 0.09578388628268464
763.0, 0.06823195230897681
764.0, 0.057986834494324575
765.0, 0.07703970107432065
766.0, 0.06154310984474706
767.0, 0.04943487035774606
768.0, 0.04646950113670374
769.0, 0.045441938143662985
770.0, 0.045543638862341605
771.0, 0.05713943510882598
772.0, 0.06589372909568214
773.0, 0.04574688487270177
774.0, 0.04056019232215953
775.0, 0.061931940409790866
776.0, 0.09082461614705091
777.0, 0.10137952269584624
778.0, 0.07767825247539394
779.0, 0.02663761978173327
780.0, 0.01705615720988498
781.0, 0.040465374228876104
782.0, 0.05195838517562883
783.0, 0.056334751730988265
784.0, 0.051865437018150724
785.0, 0.04322252524429456
786.0, 0.040131688740863924
787.0, 0.042224984966457484
788.0, 0.03487228718247078
789.0, 0.04221854789170637
790.0, 0.02888561627512971
791.0, 0.03182177622753791
792.0, 0.0313922832750294
793.0, 0.03519774826366372
794.0, 0.05230036253989123
795.0, 0.011961220183364603
796.0, 0.01581194919698453
797.0, 0.010817167953560462
798.0, 0.006944216862885539
799.0, 0.009039860870917606
800.0, 0.011750003673375888
801.0, 0.010681565129563596
802.0, 0.008088610208358816
803.0, 0.012948794824559486
804.0, 0.052249317768909745
805.0, 0.08383108744568933
806.0, 0.058557751384357856
807.0, 0.034399715717803356
808.0, 0.03275702341770964
809.0, 0.0346299523617796
810.0, 0.02304781640031553
811.0, 0.019590159011396706
812.0, 0.007325305949949273
813.0, 0.023154121078104172
814.0, 0.017363702906657785
815.0, 0.021574132952280452
816.0, 0.024872002415645727
817.0, 0.018409707440087533
818.0, 0.011310629493015997
819.0, 0.015216586465001434
820.0, 0.017071001745240906
821.0, 0.012776867801702303
822.0, 0.0037528847183902875
823.0, 0.003143721691821666
824.0, 0.006222488764592732
825.0, 0.006935224957870324
826.0, 0.00510233524548736
827.0, 0.011730319411112113
828.0, 0.057437644099183234
829.0, 0.014467166273588412
830.0, 0.032624179151758324
831.0, 0.025233466427723752
832.0, 0.026259814821393637
833.0, 0.02467171337026573
834.0, 0.008562122094805539
835.0, 0.004327763080014207
836.0, 0.016595009595544934
837.0, 0.014330774655212956
838.0, 0.01072113243559236
839.0, 0.006624527702924427
840.0, 0.018274186069699296
841.0, 0.028912556339339108
842.0, 0.023266849767307446
843.0, 0.015893743805184615
844.0, 0.03566190998232706
845.0, 0.014439068927148885
846.0, 0.02314529018061232
847.0, 0.03271798686109352
848.0, 0.02308504514761557
849.0, 0.022318676406173514
850.0, 0.02609849368961669
851.0, 0.018725993565586893
852.0, 0.017916998388545588
853.0, 0.03591531582184273
854.0, 0.025703515678917762
855.0, 0.026907549876009355
856.0, 0.017658973026033017
857.0, 0.02597953913713273
858.0, 0.02345618003172304
859.0, 0.004367988792800979
860.0, 0.0028284571468812133
861.0, 0.003420652086466363
862.0, 0.006503136046812758
863.0, 0.00848562395342179
864.0, 0.011703275751875093
865.0, 0.014731988619711178
866.0, 0.013712799146818567
867.0, 0.011071697151958432
868.0, 0.009509741476042596
869.0, 0.01794037434098964
870.0, 0.09151393459951354
871.0, 0.027037364755158805
872.0, 0.05998120833916384
873.0, 0.05604317273035679
874.0, 0.04540244943639972
875.0, 0.04246380115531673
876.0, 0.034912676109003796
877.0, 0.018785141503506082
878.0, 0.01623976831356853
879.0, 0.02177960430092278
880.0, 0.02293367100022757
881.0, 0.036964883116080705
882.0, 0.03159764937967222
883.0, 0.03140024619016758
884.0, 0.028791563221271653
885.0, 0.01645494452837567
886.0, 0.022009167963681922
887.0, 0.04922582150869282
888.0, 0.029379571794570323
889.0, 0.02278312565025549
890.0, 0.023258974348364967
891.0, 0.015278360043011965
892.0, 0.03260705709269355
893.0, 0.05296827599373198
894.0, 0.04987186827127904
895.0, 0.06569860722567773
896.0, 0.07244911513858622
897.0, 0.05242269550344361
898.0, 0.03810115369795686
899.0, 0.032397306834199224
900.0, 0.03433435356360921
901.0, 0.03763429857374599
902.0, 0.04776302470883089
903.0, 0.06365315954199752
904.0, 0.060833009897864734
905.0, 0.06908987626585643
906.0, 0.07966200027401224
907.0, 0.0615193985097925
908.0, 0.07134401529929285
909.0, 0.07107513793959737
910.0, 0.07728723415645077
911.0, 0.08173052687246891
912.0, 0.06425412307378874
913.0, 0.0837281475754861
914.0, 0.1007762360365007
915.0, 0.09437574576216108
916.0, 0.07464126559413094
917.0, 0.08030136893206757
918.0, 0.08214983281083638
919.0, 0.06929251238775663
920.0, 0.05927097271098585
921.0, 0.06689156519589454
922.0, 0.07670679729718687
923.0, 0.07334588318028143
924.0, 0.10388671228788583
925.0, 0.12310205496116976
926.0, 0.11595699283067
927.0, 0.09950698145386064
928.0, 0.08362498664451241
929.0, 0.07706677422322979
930.0, 0.08602077232145505
931.0, 0.10093520128768309
932.0, 0.11810451841205259
933.0, 0.09679941282826084
934.0, 0.12903966306498324
935.0, 0.13580025387602915
936.0, 0.1657766907670922
937.0, 0.17564434377210636
938.0, 0.14623851679730726
939.0, 0.12179902177649746
940.0, 0.1181000590229503
941.0, 0.10538763419131629
942.0, 0.10150339249043251
943.0, 0.08566039158626522
944.0, 0.11032198900352355
945.0, 0.11633684976123501
946.0, 0.13394617190860456
947.0, 0.15340843862356873
948.0, 0.1586428140146172
949.0, 0.18860314663993577
950.0, 0.16323346083705512
951.0, 0.16576160554808764
952.0, 0.1912759324393464
953.0, 0.15007135852821132
954.0, 0.1591729996685396
955.0, 0.12953485746323934
956.0, 0.10725176335331707
957.0, 0.15112741734187932
958.0, 0.16794654688347538
959.0, 0.11883152917011426
960.0, 0.16031761494444188
961.0, 0.15509731017696346
962.0, 0.1693640254249787
963.0, 0.1855689017485398
964.0, 0.1935862461962347
965.0, 0.18003329284200048
966.0, 0.17302465553718407
967.0, 0.18585889000346267
968.0, 0.14950760095144872
969.0, 0.11653457103097441
970.0, 0.17785654563751524
971.0, 0.17936412497944298
972.0, 0.18914538778773554
973.0, 0.2077185540944906
974.0, 0.22181430268918323
975.0, 0.22385168625960972
976.0, 0.23432020797427994
977.0, 0.270665125143001
978.0, 0.27600230574738377
979.0, 0.311135143808734
980.0, 0.3534529349835679
981.0, 0.4007702116211493
982.0, 0.4249470878743824
983.0, 0.4125453288924228
984.0, 0.3992284125580737
985.0, 0.39920994400074505
986.0, 0.39643935691846693
987.0, 0.39406399669535275
988.0, 0.3863642869610145
989.0, 0.308121984399043
990.0, 0.3568633007859843
991.0, 0.3625021179852117
992.0, 0.3339302422728277
993.0, 0.3451566255534717
994.0, 0.3657003957380321
995.0, 0.3663856039087003
996.0, 0.37818347908216515
997.0, 0.38651957177478125
998.0, 0.417637248425649
999.0, 0.4079025133520004
1000.0, 0.4774891441297683
1001.0, 0.5063252588670752
1002.0, 0.5303746942050866
1003.0, 0.548932048845568
1004.0, 0.5661679760674475
1005.0, 0.5893181035566101
1006.0, 0.6081633453132181
1007.0, 0.6194431032075934
1008.0, 0.6343095384435449
1009.0, 0.6275216692078508
1010.0, 0.603101506012975
1011.0, 0.6017086426592372
1012.0, 0.6102002553152359
1013.0, 0.6492047647763394
1014.0, 0.6711968372694658
1015.0, 0.6413519918735083
1016.0, 0.6334638448421054
1017.0, 0.6919045373774114
1018.0, 0.581203051762542
1019.0, 0.6546420923682245
1020.0, 0.6956793144007817
1021.0, 0.7063798888952565
1022.0, 0.6166090152539
1023.0, 0.5796333136962747
1024.0, 0.574662808412202
1025.0, 0.5262745808741472
1026.0, 0.512233838618209
1027.0, 0.5261354432889043
1028.0, 0.5233115904271374
1029.0, 0.514205975468696
1030.0, 0.5144996171637228
1031.0, 0.4556623364932888
1032.0, 0.4450177143456528
1033.0, 0.4541356531403795
1034.0, 0.4130285699779546
1035.0, 0.35546094522544747
1036.0, 0.34824051061337497
1037.0, 0.3205788209592941
1038.0, 0.31860709992844755
1039.0, 0.34657445564820005
1040.0, 0.3195828026931007
1041.0, 0.30831875960786687
1042.0, 0.2889429428931633
1043.0, 0.28893777946286253
1044.0, 0.29129616501445627
1045.0, 0.27893836547732054
1046.0, 0.26975633830440293
1047.0, 0.2683366011419738
1048.0, 0.2492264923291908
1049.0, 0.2265806753805631
1050.0, 0.20377883095725963
1051.0, 0.24000120188013066
1052.0, 0.29229207682933744
1053.0, 0.27056325379889007
1054.0, 0.22350889386765407
1055.0, 0.23209094471320454
1056.0, 0.26040304535520264
1057.0, 0.23588842995012477
1058.0, 0.26386749898412526
1059.0, 0.24273288208236551
1060.0, 0.172143869798734
1061.0, 0.17050422139741706
1062.0, 0.19137485395704878
1063.0, 0.17177075850127616
1064.0, 0.1519923558972227
1065.0, 0.17891541401655178
1066.0, 0.20058799929253027
1067.0, 0.16991902468744918
1068.0, 0.16905843192120015
1069.0, 0.1826218808460043
1070.0, 0.1885694715359441
1071.0, 0.1868629582484718
1072.0, 0.15762284632744533
1073.0, 0.15559802123298047
1074.0, 0.15200904438019328
1075.0, 0.14266551882036985
1076.0, 0.1434802620659542
1077.0, 0.1414012515982332
1078.0, 0.12342668264216942
1079.0, 0.13341867726819612
1080.0, 0.1299517807607365
1081.0, 0.13360952216561042
1082.0, 0.12170031294902706
1083.0, 0.11332991472879654
1084.0, 0.11796936583253534
1085.0, 0.12079736409701428
1086.0, 0.11265435549819737
1087.0, 0.10649198844594358
1088.0, 0.0990046274486423
1089.0, 0.07700753341718843
1090.0, 0.07891593487774953
1091.0, 0.09037657086183623
1092.0, 0.0766426000025801
1093.0, 0.0801311210277706
1094.0, 0.07870565787469683
1095.0, 0.052672094866875234
1096.0, 0.05423190124364976
1097.0, 0.06201663660478596
1098.0, 0.04818621287386038
1099.0, 0.03717103030067823
1100.0, 0.0497034923454499
1101.0, 0.03952829305878528
1102.0, 0.010337894038487712
1103.0, 0.007629000908655602
1104.0, 0.003079543446553971
1105.0, 0.0032184216325751185
1106.0, 0.011029793834315179
1107.0, 0.011362456330451992
1108.0, 0.043966704616539315
1109.0, 0.06255025424613783
1110.0, 0.03637841168993151
1111.0, 0.026847003605750465
1112.0, 0.040688865253016855
1113.0, 0.0323847846891077
1114.0, 0.016295350751105882
1115.0, 0.05184128965139832
1116.0, 0.013151899329036546
1117.0, 0.04427194996438254
1118.0, 0.04468615938681904
1119.0, 0.021756875716135136
1120.0, 0.010575279224151026
1121.0, 0.012373517439896575
1122.0, 0.020022053260886415
1123.0, 0.03021721803168374
1124.0, 0.01722004965424131
1125.0, 0.026320679042666745
1126.0, 0.05040146379953153
1127.0, 0.009133405025092876
1128.0, 0.006484910102372864
1129.0, 0.009607916216642306
1130.0, 0.005059992042290112
1131.0, 0.006351620935252514
1132.0, 0.011202506277841388
1133.0, 0.013999926787078669
1134.0, 0.022772688999808544
1135.0, 0.0298174242004489
1136.0, 0.01866037974095662
1137.0, 0.045186965215144176
1138.0, 0.033110397803541344
1139.0, 0.019990536302661163
1140.0, 0.015257744775379781
1141.0, 0.01921707569715063
1142.0, 0.011525984855927367
1143.0, 0.006043907351590181
1144.0, 0.015650575132454384
1145.0, 0.021379507487657056
1146.0, 0.01606679605921174
1147.0, 0.034231829653645574
1148.0, 0.029959739851507523
1149.0, 0.0434109602558289
1150.0, 0.037143633694145785
1151.0, 0.018290458036607334
1152.0, 0.013676434649691566
1153.0, 0.033559447371287986
1154.0, 0.032353903610821765
1155.0, 0.015379945929437377
1156.0, 0.011228295845515724
1157.0, 0.025862306848926212
1158.0, 0.03888215901580906
1159.0, 0.019604753728200426
1160.0, 0.0252134209148745
1161.0, 0.023831557106316317
1162.0, 0.03062891449925979
1163.0, 0.03993301739006688
1164.0, 0.03418459855354264
1165.0, 0.03146680670272607
1166.0, 0.026665537332447052
1167.0, 0.020802169921130598
1168.0, 0.01539463480228768
1169.0, 0.007412258174854194
1170.0, 0.0008629539408754499
1171.0, 0.006904957114252765
1172.0, 0.029837936354594717
1173.0, 0.07951367410429143
1174.0, 0.025931073883790266
1175.0, 0.006000814123816841
1176.0, 0.03610040087506541
1177.0, 0.018465945647320584
1178.0, 0.024234025364946572
1179.0, 0.038211774321258433
1180.0, 0.029676986154135575
1181.0, 0.011302308648241843
1182.0, 0.005976124051825999
1183.0, 0.01793276997091894
1184.0, 0.0179517661555308
1185.0, 0.013407418033775393
1186.0, 0.0641398337384484
1187.0, 0.05762674729946008
1188.0, 0.07354890606252042
1189.0, 0.06969623061221014
1190.0, 0.06645100056304976
1191.0, 0.05438988171404309
1192.0, 0.02729323539002806
1193.0, 0.015175375567633119
1194.0, 0.02274315528723985
1195.0, 0.022890732109234268
1196.0, 0.03325150727595784
1197.0, 0.039841373069687935
1198.0, 0.04047554474352586
1199.0, 0.012401099762686413
1200.0, 0.05040410654247282
1201.0, 0.0819529828498805
1202.0, 0.0534302745206854
1203.0, 0.09234257733029172
1204.0, 0.08622419745784102
1205.0, 0.04723112594773761
1206.0, 0.04271985303734231
1207.0, 0.04770995137897921
1208.0, 0.040788173106543445
1209.0, 0.05389443522038697
1210.0, 0.04430530343075234
1211.0, 0.00525368187778813
1212.0, 0.052013419537964845
1213.0, 0.038924155284670775
1214.0, 0.055957732254248084
1215.0, 0.05438232748564637
1216.0, 0.08734053428474281
1217.0, 0.07822982516353187
1218.0, 0.06407092858683563
1219.0, 0.07199211767711039
1220.0, 0.06266740821812891
1221.0, 0.05965017153098862
1222.0, 0.09376412885771288
1223.0, 0.03810573083332535
1224.0, 0.029370328962939823
1225.0, 0.049149168149782964
1226.0, 0.059484985662114014
1227.0, 0.060233149205792834
1228.0, 0.04654773299866045
1229.0, 0.06442675565928485
1230.0, 0.06781401516718367
1231.0, 0.07380681220664286
1232.0, 0.1005547244543607
1233.0, 0.08329356485817468
1234.0, 0.04411228341763513
1235.0, 0.07890434890141988
1236.0, 0.06014705287405819
1237.0, 0.04330794893192476
1238.0, 0.05156101868021292
1239.0, 0.03395658645506526
1240.0, 0.04165178992335371
1241.0, 0.09109494145581214
1242.0, 0.1368142646193976
1243.0, 0.12366194177872385
1244.0, 0.13148401186930517
1245.0, 0.1284556622329989
1246.0, 0.11398533561850953
1247.0, 0.1257437945388245
1248.0, 0.1454417449691869
1249.0, 0.11433279566225096
1250.0, 0.026606409896100143
1251.0, 0.11015251474485366
1252.0, 0.06699432845195552
1253.0, 0.058724832928274816
1254.0, 0.11140346964383979
1255.0, 0.09309370526387048
1256.0, 0.10850486004932174
1257.0, 0.11402081909989355
1258.0, 0.11582701898737974
1259.0, 0.13387748570952904
1260.0, 0.1462446563321998
1261.0, 0.13253398911431807
1262.0, 0.1115550734401177
1263.0, 0.10370630371636705
1264.0, 0.09396068985373313
1265.0, 0.07184391946488485
1266.0, 0.09709804024258047
1267.0, 0.10339717613579366
1268.0, 0.10785549976815162
1269.0, 0.1473850465114597
1270.0, 0.1364748214161924
1271.0, 0.16569515966714812
1272.0, 0.15201723085872074
1273.0, 0.11223163747983073
1274.0, 0.11521144240018956
1275.0, 0.12102770152686923
1276.0, 0.10024225637863801
1277.0, 0.09783597622621049
1278.0, 0.10311668052639225
1279.0, 0.11573955363293979
1280.0, 0.18214775884913764
1281.0, 0.15915810740277414
1282.0, 0.18513237934877735
1283.0, 0.1637437991072261
1284.0, 0.13993810553748068
1285.0, 0.18937550292174593
1286.0, 0.1843778386960941
1287.0, 0.17914903720138828
1288.0, 0.1608592868845648
1289.0, 0.1483198188326044
1290.0, 0.17001621252555082
1291.0, 0.164678752680704
1292.0, 0.1326719050241983
1293.0, 0.17190353232549135
1294.0, 0.18357240540565367
1295.0, 0.16328843315772396
1296.0, 0.17167177620784993
1297.0, 0.20577697112808319
1298.0, 0.18602214170628098
1299.0, 0.20081253043342923
1300.0, 0.188230960878768
1301.0, 0.1575173970407618
1302.0, 0.15368075308477605
1303.0, 0.17741280663625975
1304.0, 0.18223819631114607
1305.0, 0.1727256020378554
1306.0, 0.18308321847188255
1307.0, 0.19833740004307088
1308.0, 0.2117035772122507
1309.0, 0.24923290482177213
1310.0, 0.2317877954652578
1311.0, 0.2498148261393263
1312.0, 0.24395972086683038
1313.0, 0.19974259264975142
1314.0, 0.17597368983303277
1315.0, 0.20387088100550754
1316.0, 0.24492341873630327
1317.0, 0.21261308104735643
1318.0, 0.15591774161491598
1319.0, 0.183366566796381
1320.0, 0.19131227312547994
1321.0, 0.21249052632656787
1322.0, 0.22542084347569566
1323.0, 0.2086066543125103
1324.0, 0.22519866679534797
1325.0, 0.17107844861821064
1326.0, 0.1855326365635021
1327.0, 0.22247771230172791
1328.0, 0.20882263308986698
1329.0, 0.23903894054763186
1330.0, 0.2893896640051511
1331.0, 0.2695636047917197
1332.0, 0.22237497114644256
1333.0, 0.24185266612693418
1334.0, 0.24021531911145055
1335.0, 0.23459557328693675
1336.0, 0.250919145252728
1337.0, 0.2785474945638646
1338.0, 0.2590152248392734
1339.0, 0.23023962568814182
1340.0, 0.24350762714952703
1341.0, 0.24339337544792514
1342.0, 0.24036972914679666
1343.0, 0.2081465813140132
1344.0, 0.21571965504322943
1345.0, 0.23373566703798002
1346.0, 0.2040062236010664
1347.0, 0.2367364969025771
1348.0, 0.2425111878278411
1349.0, 0.2715953388972236
1350.0, 0.2998772563602758
1351.0, 0.3078982310420655
1352.0, 0.31894861575066097
1353.0, 0.32127670787305573
1354.0, 0.2947709970909074
1355.0, 0.28027207238427115
1356.0, 0.2847573610894282
1357.0, 0.26457852776568147
1358.0, 0.25655109100424667
1359.0, 0.29151112778217864
1360.0, 0.25699151562932676
1361.0, 0.2523165936472858
1362.0, 0.2656283853195131
1363.0, 0.3198980791556008
1364.0, 0.33259411492096247
1365.0, 0.3312441640179242
1366.0, 0.24259776479559503
1367.0, 0.26561983536266215
1368.0, 0.2180075562128155
1369.0, 0.25962618569712803
1370.0, 0.28407229509087567
1371.0, 0.2905153450036247
1372.0, 0.30806869665052805
1373.0, 0.29932433019467314
1374.0, 0.265434756855728
1375.0, 0.24732787573437726
1376.0, 0.25199589394919947
1377.0, 0.27668478716140754
1378.0, 0.3067334524866707
1379.0, 0.3071834131382339
1380.0, 0.3209097511932455
1381.0, 0.3235044580680457
1382.0, 0.3100190276164969
1383.0, 0.29698353599171423
1384.0, 0.2538522846133943
1385.0, 0.25018717528730905
1386.0, 0.2065320639242616
1387.0, 0.22636488948305106
1388.0, 0.22235689876082734
1389.0, 0.2162256322514677
1390.0, 0.23907057107704427
1391.0, 0.25366441457895567
1392.0, 0.24021735369665537
1393.0, 0.2085996200560358
1394.0, 0.20446748578961074
1395.0, 0.21632787339904455
1396.0, 0.1760137103725129
1397.0, 0.17689211215066666
1398.0, 0.16807168151906898
1399.0, 0.17388734522548885
1400.0, 0.15151083072122692
1401.0, 0.1587320868051134
1402.0, 0.1639605270257974
1403.0, 0.1603334381551283
1404.0, 0.16407639000932261
1405.0, 0.16157121444269684
1406.0, 0.2018457297675138
1407.0, 0.19353619422147586
1408.0, 0.17148095803600996
1409.0, 0.1363813183356431
1410.0, 0.1471543683056486
1411.0, 0.18310885233204546
1412.0, 0.1707463423067592
1413.0, 0.13057090332111831
1414.0, 0.13669695597227774
1415.0, 0.16756017578512045
1416.0, 0.15996115495385702
1417.0, 0.159112281575959
1418.0, 0.16194334693359191
1419.0, 0.13519153884240745
1420.0, 0.15113506865343396
1421.0, 0.09714580513137545
1422.0, 0.11650331552496411
1423.0, 0.06564221674805737
1424.0, 0.1442092448822145
1425.0, 0.0884480224269536
1426.0, 0.09965751602720112
1427.0, 0.104992414347213
1428.0, 0.10991206351278386
1429.0, 0.1598717978657927
1430.0, 0.13477727843950021
1431.0, 0.1360845557437384
1432.0, 0.15598235763882848
1433.0, 0.13095614900490912
1434.0, 0.09687033257867857
1435.0, 0.07885119565590934
1436.0, 0.058925393187659755
1437.0, 0.04078045180819265
1438.0, 0.034163866741516696
1439.0, 0.02076425760432413
1440.0, 0.027387544670264406
1441.0, 0.03915860616874741
1442.0, 0.026258261122695886
1443.0, 0.12869328935162824
1444.0, 0.09491348290227158
1445.0, 0.08605921368648878
1446.0, 0.05936575962634068
1447.0, 0.046236515507285685
1448.0, 0.034317047247633424
1449.0, 0.026050390223191344
1450.0, 0.020428877635797926
1451.0, 0.013022345990105983
1452.0, 0.013165376250157828
1453.0, 0.025469356215671736
1454.0, 0.02955015099510281
1455.0, 0.03479995652283658
1456.0, 0.0358186624438981
1457.0, 0.03602055586138764
1458.0, 0.04115711360301197
1459.0, 0.04108917788135666
1460.0, 0.04323359974229717
1461.0, 0.026301388628226095
1462.0, 0.01487466089764912
1463.0, 0.030680391180785773
1464.0, 0.0120855662055359
1465.0, 0.019913150663797452
1466.0, 0.041602128613574645
1467.0, 0.01247714820874648
1468.0, 0.03670530205422433
1469.0, 0.008102071314559478
1470.0, 0.0460939636054255
1471.0, 0.00902712049697503
1472.0, 0.00563542753764386
1473.0, 0.0038520794121796455
1474.0, 0.015191707896178304
1475.0, 0.01972692117352899
1476.0, 0.01302353998417218
1477.0, 0.010997475583317292
1478.0, 0.025029799101032642
1479.0, 0.016929958342477472
1480.0, 0.011368839959114557
1481.0, 0.017111942022502963
1482.0, 0.02584345351292746
1483.0, 0.030412207872591194
1484.0, 0.01816634017049395
1485.0, 0.043034400399951975
1486.0, 0.0847458649448127
1487.0, 0.07263129702738234
1488.0, 0.01997364400516731
1489.0, 0.019535327780204552
1490.0, 0.009136540332819798
1491.0, 0.02683180457132499
1492.0, 0.029882034011491726
1493.0, 0.009623931271449206
1494.0, 0.012205028825645085
1495.0, 0.036692273927248956
1496.0, 0.05167808943533181
1497.0, 0.05787967244018126
1498.0, 0.05321960170114804
1499.0, 0.05755127199346631
1500.0, 0.05178252596968315
1501.0, 0.049137564193947166
1502.0, 0.050370347324932396
1503.0, 0.03741729353859226
1504.0, 0.04353898905274695
1505.0, 0.0531489752303732
1506.0, 0.026676718953263893
1507.0, 0.014849066849342833
1508.0, 0.0520680124601907
1509.0, 0.06584270757417389
1510.0, 0.05650023852983707
1511.0, 0.07297011344625653
1512.0, 0.06855170334251208
1513.0, 0.06993101820288451
1514.0, 0.10694556330682958
1515.0, 0.09049889278529691
1516.0, 0.04937884207378038
1517.0, 0.025614498731154654
1518.0, 0.08688273439136646
1519.0, 0.047927115859608536
1520.0, 0.06286857450085316
1521.0, 0.09110385322788415
1522.0, 0.07970634233012924
1523.0, 0.12973958146382567
1524.0, 0.04031612324729107
1525.0, 0.12951241383883538
1526.0, 0.07556027672398855
1527.0, 0.038680380434759624
1528.0, 0.06978517516703109
1529.0, 0.05306489502471084
1530.0, 0.050569201897555344
1531.0, 0.06883272191643053
1532.0, 0.0518318521743168
1533.0, 0.05483250992226429
1534.0, 0.0593261459186
1535.0, 0.061307388523588593
1536.0, 0.0763390761599806
1537.0, 0.09681325417647628
1538.0, 0.12193912839701741
1539.0, 0.08623860399848299
1540.0, 0.026899657096429677
1541.0, 0.037127044810933395
1542.0, 0.03958541181518871
1543.0, 0.024706923342744776
1544.0, 0.03964253779710354
1545.0, 0.023006298377271236
1546.0, 0.051273614624970834
1547.0, 0.08962652431349626
1548.0, 0.0583669265987027
1549.0, 0.0289728805440444
1550.0, 0.04866950652281849
1551.0, 0.046907468336636456
1552.0, 0.1287484127602003
1553.0, 0.056280351910998255
1554.0, 0.1279887010470911
1555.0, 0.15014627384566884
1556.0, 0.08882667236234669
1557.0, 0.07178454481385833
1558.0, 0.08198411947066801
1559.0, 0.028954413586910414
1560.0, 0.05475856200652564
1561.0, 0.04054022621437335
1562.0, 0.0798419331622814
1563.0, 0.01852769091704095
1564.0, 0.033231434593254075
1565.0, 0.01865878279238977
1566.0, 0.05957689175867055
1567.0, 0.042002509405542746
1568.0, 0.03296475200694598
1569.0, 0.025301799063049562
1570.0, 0.04193949151893121
1571.0, 0.02205608705362776
1572, 0.0
1573, 0.0
1574, 0.0
1575, 0.0
1576, 0.0
1577, 0.0
1578, 0.0
1579, 0.0
1580, 0.0
1581, 0.0
1582, 0.0
1583, 0.0
1584, 0.0
1585, 0.0
1586, 0.0
1587, 0.0
1588, 0.0
1589, 0.0
1590, 0.0
1591, 0.0
1592, 0.0
1593, 0.0
1594, 0.0
1595, 0.0
1596, 0.0
1597, 0.0
1598, 0.0
1599, 0.0
