30, 0.0
31, 0.0
32, 0.0
33, 0.0
34, 0.0
35, 0.0
36, 0.0
37, 0.0
38, 0.0
39, 0.0
40, 0.0
41, 0.0
42, 0.0
43, 0.0
44, 0.0
45, 0.0
46, 0.0
47, 0.0
48, 0.0
49, 0.0
50, 0.0
51, 0.0
52, 0.0
53, 0.0
54, 0.0
55, 0.0
56, 0.0
57, 0.0
58, 0.0
59, 0.0
60, 0.0
61, 0.0
62, 0.0
63, 0.0
64, 0.0
65, 0.0
66, 0.0
67, 0.0
68, 0.0
69, 0.0
70, 0.0
71, 0.0
72, 0.0
73, 0.0
74, 0.0
75, 0.0
76, 0.0
77, 0.0
78, 0.0
79, 0.0
80, 0.0
81, 0.0
82, 0.0
83, 0.0
84, 0.0
85, 0.0
86, 0.0
87, 0.0
88, 0.0
89, 0.0
90, 0.0
91, 0.0
92, 0.0
93, 0.0
94, 0.0
95, 0.0
96, 0.0
97, 0.0
98, 0.0
99, 0.0
100, 0.0
101, 0.0
102, 0.0
103, 0.0
104, 0.0
105, 0.0
106, 0.0
107, 0.0
108, 0.0
109, 0.0
110, 0.0
111, 0.0
112, 0.0
113, 0.0
114, 0.0
115, 0.0
116, 0.0
117, 0.0
118, 0.0
119, 0.0
120, 0.0
121, 0.0
122, 0.0
123, 0.0
124, 0.0
125, 0.0
126, 0.0
127, 0.0
128, 0.0
129, 0.0
130, 0.0
131, 0.0
132, 0.0
133, 0.0
134, 0.0
135, 0.0
136, 0.0
137, 0.0
138, 0.0
139, 0.0
140, 0.0
141, 0.0
142, 0.0
143, 0.0
144, 0.0
145.0, 3.0601331098550094e-05
146.0, 5.141238022180707e-05
147.0, 0.00042401665023618904
148.0, 0.00023093461896446922
149.0, 2.46104825920604e-05
150.0, 0.00018508342334702183
151.0, 0.0005782465535932728
152.0, 0.0002698829984030131
153.0, 0.00017165418956841723
154.0, 0.0004408115853316465
155.0, 0.0013566136496919914
156.0, 0.0005913006814221766
157.0, 0.0002046630225658688
158.0, 0.00017358685135788142
159.0, 0.0004806478933071343
160.0, 0.0011738138456970347
161.0, 0.0020751947165253914
162.0, 0.002753397536540548
163.0, 0.0034796973692913726
164.0, 0.004661145298166232
165.0, 0.006455378433894333
166.0, 0.007771763574695699
167.0, 0.00934439246404446
168.0, 0.011526985264881386
169.0, 0.013935791155089909
170.0, 0.016402047356173694
171.0, 0.01885170569543352
172.0, 0.02094778646843645
173.0, 0.022618783026837078
174.0, 0.024925362951361857
175.0, 0.027542099911818645
176.0, 0.030291812557416073
177.0, 0.033049189590196044
178.0, 0.03577467761416775
179.0, 0.03951448168248275
180.0, 0.04414871608971974
181.0, 0.048919178363943966
182.0, 0.053245618173614326
183.0, 0.05859162411753039
184.0, 0.06406159022289891
185.0, 0.06897911407663618
186.0, 0.07235486127826031
187.0, 0.07198898929922191
188.0, 0.06804505499719733
189.0, 0.06025313696100885
190.0, 0.04966298477489526
191.0, 0.038779810096522864
192.0, 0.02958010640069122
193.0, 0.022920383132920805
194.0, 0.018318078023917526
195.0, 0.014851556806265473
196.0, 0.011903855450851954
197.0, 0.010534987480983549
198.0, 0.009698149620521268
199.0, 0.008797007119786114
200.0, 0.008928858726072263
201.0, 0.009492878800126935
202.0, 0.009750987923008141
203.0, 0.009679117701948433
204.0, 0.010111906172924985
205.0, 0.011108674593141903
206.0, 0.01249682829095717
207.0, 0.01350066951593574
208.0, 0.013941760363469821
209.0, 0.015066090522545319
210.0, 0.01645436937249042
211.0, 0.017823673640062633
212.0, 0.01901651372853096
213.0, 0.02000598116463643
214.0, 0.02182656382060019
215.0, 0.02319713242225045
216.0, 0.0237222018739347
217.0, 0.023655535835988523
218.0, 0.023612168153037905
219.0, 0.023368531420960417
220.0, 0.022349584638599835
221.0, 0.02041723720930029
222.0, 0.017836902403000014
223.0, 0.015268831987056213
224.0, 0.013004050602211539
225.0, 0.010809150142333319
226.0, 0.008593748594323712
227.0, 0.007472176824470153
228.0, 0.006189344254594085
229.0, 0.004767133838531903
230.0, 0.0035682915718023584
231.0, 0.0028990079079396895
232.0, 0.0021662229452272625
233.0, 0.0011863060464060676
234.0, 0.0006945734114693018
235.0, 0.0008621180296653051
236.0, 0.0007322577055106624
237.0, 0.0006827014212361645
238.0, 0.0010521656325089843
239.0, 0.0016848048064846551
240.0, 0.0019464829521815942
241.0, 0.002066922002834808
242.0, 0.0023319819423131233
243.0, 0.0024039713260227834
244.0, 0.0021653452408353967
245.0, 0.002303248763881182
246.0, 0.0019035380204473233
247.0, 0.0015884229454107446
248.0, 0.0014155230937891166
249.0, 0.0009679846323339869
250.0, 0.000515408462770105
251.0, 0.00038519155084603085
252.0, 8.026319227943468e-05
253.0, 0.0006729101423007165
254.0, 0.0002681135342951344
255.0, 0.0003601304288139748
256.0, 0.00040568852886781323
257.0, 0.0004775654337825059
258.0, 0.000769836837337031
259.0, 0.00015004765944774706
260.0, 0.0004987036882627697
261.0, 0.0009554904630153275
262.0, 0.0012762507192982738
263.0, 0.0013787346553758564
264.0, 0.002075689127347294
265.0, 0.002777075153060048
266.0, 0.003458632250616679
267.0, 0.004210207451141602
268.0, 0.004596232916649983
269.0, 0.005022145685202716
270.0, 0.006002784663695898
271.0, 0.007088294532249309
272.0, 0.007404114050733563
273.0, 0.008077445276927338
274.0, 0.008710783969880438
275.0, 0.009313597832817024
276.0, 0.01004454761096281
277.0, 0.010906920181968798
278.0, 0.011217592563095324
279.0, 0.010862536108159087
280.0, 0.010226020428602883
281.0, 0.009653262707525204
282.0, 0.008796979803092051
283.0, 0.007896952096407672
284.0, 0.006781265704429774
285.0, 0.005720491398149409
286.0, 0.005281002953334161
287.0, 0.005266564855511926
288.0, 0.004754055526394199
289.0, 0.0042376474133215825
290.0, 0.0041556002039432405
291.0, 0.004047093645598827
292.0, 0.004016921328965035
293.0, 0.004412057898015996
294.0, 0.005048583212378082
295.0, 0.005511158866844524
296.0, 0.0056240447109201655
297.0, 0.006048202212542208
298.0, 0.006742388603989388
299.0, 0.007596103407225374
300.0, 0.00880849789444753
301.0, 0.010926399738228182
302.0, 0.012583022634663463
303.0, 0.014576266756500717
304.0, 0.017249238869365566
305.0, 0.019425711261632884
306.0, 0.021855439968760583
307.0, 0.024191215768179113
308.0, 0.026046901745848595
309.0, 0.027799595592204823
310.0, 0.03087437743016026
311.0, 0.03390033988864747
312.0, 0.03729999334536352
313.0, 0.04193449980613824
314.0, 0.048108079733803225
315.0, 0.05500066060761128
316.0, 0.06175460133407282
317.0, 0.06889207126549671
318.0, 0.0761412400811054
319.0, 0.08240505296790626
320.0, 0.08424442357018139
321.0, 0.0822137966132094
322.0, 0.0748453833597914
323.0, 0.06182556623213469
324.0, 0.04600940105571878
325.0, 0.03237755601695101
326.0, 0.023128637122977348
327.0, 0.01722060361254317
328.0, 0.012988018052058516
329.0, 0.010128915873190694
330.0, 0.008279104822881007
331.0, 0.006858890833372393
332.0, 0.005529567374437295
333.0, 0.004213605519820076
334.0, 0.00350044919996311
335.0, 0.00302067088535043
336.0, 0.0025452600417174114
337.0, 0.002058617011358252
338.0, 0.001718046572824875
339.0, 0.0016130733354041249
340.0, 0.0017216558624322416
341.0, 0.0011785145903979168
342.0, 0.00030261813002299893
343.0, 0.00043889845810167276
344.0, 0.00020150186854762096
345.0, 0.0002148217021421119
346.0, 0.0002992997887277337
347.0, 7.181371757176396e-05
348.0, 0.0002732160600705948
349.0, 0.00029744275010155636
350.0, 0.0003150766814760273
351.0, 0.00024511505754138416
352.0, 0.00020656125091532258
353.0, 0.000693893596638654
354.0, 0.0006302002228249848
355.0, 0.00045868101135528884
356.0, 0.00014759540826999313
357.0, 0.0001962732060281948
358.0, 0.0005915785373526458
359.0, 0.0003499436905160452
360.0, 1.0375614261320341e-05
361.0, 5.0068465507950894e-05
362.0, 9.161761166146101e-05
363.0, 0.000306232477156608
364.0, 0.00043172919673238364
365.0, 0.00043833631128133334
366.0, 0.0002591058235535552
367.0, 0.00010690878043994017
368.0, 0.00042997455330668363
369.0, 0.00012692106141140794
370.0, 0.00024164016339610675
371.0, 0.0009191227738908401
372.0, 0.0009713536380826219
373.0, 0.0009733710604215079
374.0, 0.001251624070951719
375.0, 0.001384314866349447
376.0, 0.0015163735759850046
377.0, 0.0022616241706555737
378.0, 0.0027767958783852854
379.0, 0.0030897493044369203
380.0, 0.0034143019582470874
381.0, 0.003866000342039027
382.0, 0.004368020295040378
383.0, 0.0046432519648253595
384.0, 0.005204560815916454
385.0, 0.005942367256173146
386.0, 0.006622101241270785
387.0, 0.007199033921608989
388.0, 0.007852268494289038
389.0, 0.00842422895815413
390.0, 0.00904009812470953
391.0, 0.009801972438655777
392.0, 0.010565964782562944
393.0, 0.010904569562921325
394.0, 0.011369783174297531
395.0, 0.011895440513352057
396.0, 0.01207798234074078
397.0, 0.011710833097829065
398.0, 0.012373100082761584
399.0, 0.0124923353880597
400.0, 0.012337251668611623
401.0, 0.012229034070204987
402.0, 0.011826524481646937
403.0, 0.010912179271681652
404.0, 0.009979320871576637
405.0, 0.00907807481524931
406.0, 0.00806954018834306
407.0, 0.00702686106259083
408.0, 0.0061973421895342475
409.0, 0.005180227571358989
410.0, 0.004404539657245031
411.0, 0.003968041715602175
412.0, 0.00355370216494434
413.0, 0.0032986594987225795
414.0, 0.0030674295653381344
415.0, 0.0029850168662351206
416.0, 0.0030761202124893893
417.0, 0.0034077668692076967
418.0, 0.003664607708762318
419.0, 0.004273872221671031
420.0, 0.00484689070853617
421.0, 0.0053477590471568415
422.0, 0.0060687422688862555
423.0, 0.006370721236757279
424.0, 0.007118223680388619
425.0, 0.00837035903063388
426.0, 0.00970010354410101
427.0, 0.010667440866902916
428.0, 0.011970813571108515
429.0, 0.013699561109730397
430.0, 0.015167903124487419
431.0, 0.01664473692943005
432.0, 0.018783423148449864
433.0, 0.020653677939462906
434.0, 0.023203741707493356
435.0, 0.025927158921937365
436.0, 0.028361713616793884
437.0, 0.030535072506486825
438.0, 0.03274329167656006
439.0, 0.03559133906507544
440.0, 0.03867772895854935
441.0, 0.04169510974762156
442.0, 0.0445052857930019
443.0, 0.04705790914627054
444.0, 0.049158007232206515
445.0, 0.05084443473007292
446.0, 0.05256081868099068
447.0, 0.05407642664305538
448.0, 0.05399319523764005
449.0, 0.05415536432692099
450.0, 0.05371524287498895
451.0, 0.05177494234281576
452.0, 0.04909767615781075
453.0, 0.047763405361741236
454.0, 0.04468226202139697
455.0, 0.04148334263344875
456.0, 0.038717286742857716
457.0, 0.03596257748420615
458.0, 0.0326249655151434
459.0, 0.02946520191311001
460.0, 0.02730425763550353
461.0, 0.025172896976477076
462.0, 0.023000877711972297
463.0, 0.021385108632361677
464.0, 0.01983194441424324
465.0, 0.017956812985315446
466.0, 0.016521852732832194
467.0, 0.01531585012828615
468.0, 0.013980332436656216
469.0, 0.013254927724084726
470.0, 0.01194211334977341
471.0, 0.010984736839413005
472.0, 0.010494146563661442
473.0, 0.009972523741011617
474.0, 0.009010355365795844
475.0, 0.008139310883103948
476.0, 0.007622335725744108
477.0, 0.006806071382053691
478.0, 0.005960574350667735
479.0, 0.0059507553105776975
480.0, 0.004951297108035664
481.0, 0.004412650589189425
482.0, 0.0040753939725814295
483.0, 0.003816394835117087
484.0, 0.0037816728303861017
485.0, 0.003339256863965703
486.0, 0.0029083898324039023
487.0, 0.002794799429330597
488.0, 0.002746810155531952
489.0, 0.0025712957477857967
490.0, 0.0026701228451393878
491.0, 0.0026306459423141183
492.0, 0.0024746643606101907
493.0, 0.002310263323677303
494.0, 0.0024452086189912423
495.0, 0.0029854194876169603
496.0, 0.0025930845702350027
497.0, 0.0022567620263976825
498.0, 0.002547890724608269
499.0, 0.0029147011604607194
500.0, 0.002629624905353483
501.0, 0.0025812915534174827
502.0, 0.0026599612515457245
503.0, 0.002370728087043856
504.0, 0.0019179797321224018
505.0, 0.00164017273105059
506.0, 0.001585489880458836
507.0, 0.0018011983869779388
508.0, 0.0014747969274846089
509.0, 0.0014037607350274818
510.0, 0.0017586092681936354
511.0, 0.0015628164461196025
512.0, 0.001505522598123083
513.0, 0.001609653717513718
514.0, 0.0014918757633411274
515.0, 0.0012964307392431228
516.0, 0.0011189182878464823
517.0, 0.0006056484037211303
518.0, 0.0007118615830301293
519.0, 0.0007242458977885169
520.0, 0.0007296590391367584
521.0, 0.0008223307303270014
522.0, 0.0006202132148696406
523.0, 0.0008012734382900958
524.0, 0.0007305269085358778
525.0, 0.0004536916299429048
526.0, 0.0003263251997912251
527.0, 0.0004238353126032633
528.0, 0.00017597167607899842
529.0, 6.980149101685785e-05
530.0, 5.010237399450703e-05
531.0, 3.36914702822087e-05
532.0, 0.00015962866486522433
533.0, 0.00019027167223764152
534.0, 0.00025368977974268934
535.0, 5.8285464339712556e-05
536.0, 0.00014212747676868966
537.0, 0.00017457470741350826
538.0, 0.0003312093057181344
539.0, 0.0005196916705215097
540.0, 0.00015088982219381504
541.0, 0.000102465184161525
542.0, 0.00029935712896378994
543.0, 0.0004861042853447626
544.0, 0.0004772108069353725
545.0, 0.0005654592358605923
546.0, 0.00044618449806560284
547.0, 0.00014129171692211346
548.0, 8.170122728879757e-05
549.0, 0.000435620016467146
550.0, 0.00012475232900793705
551.0, 0.00011542941233121828
552.0, 0.0004493729662875719
553.0, 0.0002726194129119598
554.0, 0.0003144171814302597
555.0, 8.092718433839766e-05
556.0, 0.00029456931639728083
557.0, 0.00011094965468092825
558.0, 0.00011667144101386275
559.0, 3.5595862865847174e-05
560.0, 0.0001374409747963572
561.0, 2.5111947452089505e-05
562.0, 9.408127106563543e-05
563.0, 4.554511419476985e-05
564.0, 0.00010205450698252489
565.0, 9.913138774456811e-05
566.0, 0.00024357097766763197
567.0, 8.459401580250008e-05
568.0, 5.7480536974915574e-05
569.0, 0.0002020471000130692
570.0, 0.00012440370556944958
571.0, 0.00031333346132817423
572.0, 0.0001390550885800432
573.0, 0.00021753668236843877
574.0, 0.00045528149678746596
575.0, 0.0006372240565727875
576.0, 0.0007681972611016545
577.0, 0.0006326452353215383
578.0, 0.00012187549805723935
579.0, 0.00038422682308444586
580.0, 0.0005410361401620135
581.0, 0.00044483914084372957
582.0, 0.0004358636155040185
583.0, 0.0006809774045881327
584.0, 0.0008617644336665324
585.0, 0.0010511527881231142
586.0, 0.0007187544330422039
587.0, 0.0006766915822477074
588.0, 0.0010076616735481057
589.0, 0.0003442378114984186
590.0, 0.0008796406022352894
591.0, 0.001114450395194226
592.0, 0.0013701579291893215
593.0, 0.0014529019951075753
594.0, 0.0012025973324519476
595.0, 0.001410514131220431
596.0, 0.0016151123304595366
597.0, 0.0014992401193040113
598.0, 0.001163835815392888
599.0, 0.0012412371218517677
600.0, 0.0017965252511639588
601.0, 0.001091163608421401
602.0, 0.0015941280711086565
603.0, 0.0015197231022587474
604.0, 0.0014524146608337648
605.0, 0.0017746670092381371
606.0, 0.0018296410322803758
607.0, 0.0015409006067524363
608.0, 0.0018367932214183704
609.0, 0.002174318564415228
610.0, 0.0023102960596567486
611.0, 0.0022828004821780013
612.0, 0.002178267873530081
613.0, 0.0028443128461120046
614.0, 0.0022875903910070964
615.0, 0.002528380433663903
616.0, 0.003177325584782725
617.0, 0.0031814965720113127
618.0, 0.002876207774123681
619.0, 0.0035098656069072393
620.0, 0.003226422148895723
621.0, 0.0029600274201906146
622.0, 0.0030633196524122303
623.0, 0.0031936140992637
624.0, 0.0033477609804699734
625.0, 0.003382442397780975
626.0, 0.0037761710535676187
627.0, 0.004116588320816087
628.0, 0.004140516885716405
629.0, 0.004018328065195875
630.0, 0.004176721720691304
631.0, 0.0038635403418349453
632.0, 0.0038076517096768694
633.0, 0.004004049340608787
634.0, 0.004123140147191991
635.0, 0.004146753749988437
636.0, 0.0044069939384700305
637.0, 0.0037902920843964727
638.0, 0.003971968904391677
639.0, 0.0046013637986343624
640.0, 0.004871791840181739
641.0, 0.004533597747418443
642.0, 0.004025615309654937
643.0, 0.00428201614395112
644.0, 0.004372650381734776
645.0, 0.004773818275199204
646.0, 0.0048026966630240935
647.0, 0.004020595822879522
648.0, 0.004694459890557699
649.0, 0.004343307634714973
650.0, 0.004286057063580054
651.0, 0.004257100702986839
652.0, 0.0042480924285304335
653.0, 0.004552401190273341
654.0, 0.004656437562386385
655.0, 0.004015012978203033
656.0, 0.004425640747145879
657.0, 0.0047387082198366735
658.0, 0.004549559228955092
659.0, 0.004293853739745182
660.0, 0.004361230583858294
661.0, 0.004326738108966474
662.0, 0.004472131881098469
663.0, 0.004413202065789581
664.0, 0.004169203469187668
665.0, 0.0039896243863718015
666.0, 0.003875597578904618
667.0, 0.0041011324797782635
668.0, 0.00418836715644588
669.0, 0.003992169125504931
670.0, 0.004032286346323145
671.0, 0.00423453213432469
672.0, 0.0036305728991816015
673.0, 0.003686873593270954
674.0, 0.00380370367248382
675.0, 0.0035710714548831263
676.0, 0.003568518332599103
677.0, 0.0037697396854439813
678.0, 0.003406521613192407
679.0, 0.003610059256078222
680.0, 0.0036613262031402975
681.0, 0.0034495210677757235
682.0, 0.003509854421405963
683.0, 0.003610749820427421
684.0, 0.0032909089793562267
685.0, 0.0038957605984316687
686.0, 0.003684779620785838
687.0, 0.0031653330915537513
688.0, 0.0028942052304910815
689.0, 0.0029160624686832204
690.0, 0.0029814262914071594
691.0, 0.002933691719396525
692.0, 0.0028904064710531243
693.0, 0.0027292555280761686
694.0, 0.0025454282806375112
695.0, 0.0024472355684509403
696.0, 0.002415058079868208
697.0, 0.0022181088145229403
698.0, 0.0020210214084980045
699.0, 0.0022325468465797743
700.0, 0.002440294198592189
701.0, 0.002055007080475027
702.0, 0.001483472451044829
703.0, 0.0017359208311102747
704.0, 0.0021359410549315443
705.0, 0.0019628836502650123
706.0, 0.0020012088826784117
707.0, 0.001997429707483223
708.0, 0.0017885493548380168
709.0, 0.0015744397761491874
710.0, 0.0010675249285412144
711.0, 0.001075862693819602
712.0, 0.0012866302377006428
713.0, 0.0014410880165407504
714.0, 0.0014395427327822557
715.0, 0.0012421076132410425
716.0, 0.0009722381457909477
717.0, 0.0013069458738950719
718.0, 0.0012350385166672198
719.0, 0.001113933334257456
720.0, 0.00102024991866386
721.0, 0.0009051515093409073
722.0, 0.0009058155152398815
723.0, 0.0006620534372059947
724.0, 0.0010010584665010786
725.0, 0.0006709023899304877
726.0, 0.00011324628537517841
727.0, 0.00016387705226435348
728.0, 0.00012300303208868588
729.0, 0.0002262295501827456
730.0, 0.00012670227516527156
731.0, 0.0001847348633483965
732.0, 8.653053680043578e-05
733.0, 0.0001020429765455929
734.0, 0.00021708616690329534
735.0, 0.0005562260626153292
736.0, 8.798784576079111e-05
737.0, 0.00015581068364608122
738.0, 0.00021911043311842725
739.0, 0.00044407765583895625
740.0, 0.0005653373520579682
741.0, 0.00043512200912410905
742.0, 0.0011963666695773854
743.0, 0.0007760774849792813
744.0, 0.0005295607991625123
745.0, 0.0004733500978977286
746.0, 0.00024931865222589417
747.0, 0.00024949769685403617
748.0, 0.0007814663305489552
749.0, 0.00015347141441105037
750.0, 7.331318625894479e-05
751.0, 0.00025385580471892137
752.0, 7.898789318433909e-05
753.0, 0.0005259959745699821
754.0, 0.0004966655350204393
755.0, 0.00040042891627642196
756.0, 0.0010327913691181038
757.0, 0.0015190112748817818
758.0, 0.0019086559308178245
759.0, 0.002278229422590568
760.0, 0.002856786954685485
761.0, 0.003829030819953395
762.0, 0.0046192894464545725
763.0, 0.005419969311792431
764.0, 0.005867952068056884
765.0, 0.00658175451640252
766.0, 0.007693066325628063
767.0, 0.008804915678663067
768.0, 0.009663007949076237
769.0, 0.011051095528135081
770.0, 0.012065187426390862
771.0, 0.013327924908031972
772.0, 0.014716757797756198
773.0, 0.016460471507494648
774.0, 0.01857805125445273
775.0, 0.02015039901659851
776.0, 0.02142271969121224
777.0, 0.023996694680810074
778.0, 0.026739999401238876
779.0, 0.029590210198720802
780.0, 0.03249113758151086
781.0, 0.035405377170961136
782.0, 0.039266663462949505
783.0, 0.04373518981359461
784.0, 0.04872434736087452
785.0, 0.0537228306521954
786.0, 0.06017000345432863
787.0, 0.06790319658490546
788.0, 0.07563975005200997
789.0, 0.08480194627494375
790.0, 0.09598312610443632
791.0, 0.10883789258110499
792.0, 0.12365574976588249
793.0, 0.14018925424192835
794.0, 0.15935108331343298
795.0, 0.18231444453532988
796.0, 0.20717834786994108
797.0, 0.23793378804111015
798.0, 0.2717513057066938
799.0, 0.3093044165581359
800.0, 0.3498145025188957
801.0, 0.39182899276196104
802.0, 0.43713633858934664
803.0, 0.4896090257562159
804.0, 0.5456715618493035
805.0, 0.6111701099123041
806.0, 0.6858730987812247
807.0, 0.7657211121281052
808.0, 0.8460195135915602
809.0, 0.9181553032921873
810.0, 0.9730610932249794
811.0, 0.9984045354189769
812.0, 0.9814459466689746
813.0, 0.9197314841616706
814.0, 0.8230455298234611
815.0, 0.7130925260357661
816.0, 0.6113558174903732
817.0, 0.5300507035897158
818.0, 0.47004930526039473
819.0, 0.4280500919976731
820.0, 0.3968917216242241
821.0, 0.37185389078023595
822.0, 0.34833492322281234
823.0, 0.3202866507269109
824.0, 0.2887812186349138
825.0, 0.25257296341549684
826.0, 0.21349289751248446
827.0, 0.17708437322019716
828.0, 0.14407585862776104
829.0, 0.1150856756437644
830.0, 0.09289734960518264
831.0, 0.07472483453960152
832.0, 0.06049765250581534
833.0, 0.04865930933216087
834.0, 0.03955342375139284
835.0, 0.03229631222109275
836.0, 0.026157558841178163
837.0, 0.02123840088454115
838.0, 0.017019514806677485
839.0, 0.013568481548536014
840.0, 0.010880719369909253
841.0, 0.008241775677962448
842.0, 0.00616311247160565
843.0, 0.004726463828179635
844.0, 0.003452162788334226
845.0, 0.002262628339936009
846.0, 0.0009307350133872614
847.0, 0.0002702093259733778
848.0, 4.309735984826735e-05
849.0, 0.000180262669511693
850.0, 0.00039641484911561765
851.0, 0.0005050120939835529
852.0, 0.00044398663823312526
853.0, 7.547731342175179e-05
854.0, 0.0006432297114249938
855.0, 0.0009082458830095795
856.0, 0.001435276073026258
857.0, 0.0018490880037041418
858.0, 0.0018191830325441428
859.0, 0.0021574442924136043
860.0, 0.003398170154112651
861.0, 0.0039715948418656616
862.0, 0.004995110432399893
863.0, 0.005940835573435363
864.0, 0.007315145166456199
865.0, 0.00885469689028567
866.0, 0.010183136085805173
867.0, 0.012408125860265202
868.0, 0.014299359797580784
869.0, 0.016913439628495713
870.0, 0.01919233559404557
871.0, 0.022168060038811204
872.0, 0.026061480478394097
873.0, 0.030108088451285455
874.0, 0.03408052401409792
875.0, 0.03844330209604848
876.0, 0.043038890467359106
877.0, 0.047197864468508065
878.0, 0.05235888446117093
879.0, 0.05749683713723575
880.0, 0.0619793827186031
881.0, 0.06605718654158321
882.0, 0.06866689743662098
883.0, 0.07108699926199565
884.0, 0.07290697158487833
885.0, 0.07188393564797287
886.0, 0.07028147763239614
887.0, 0.06839204574291567
888.0, 0.06537493324359495
889.0, 0.06192339429807122
890.0, 0.05851691410489975
891.0, 0.05390258880179658
892.0, 0.050004784215966304
893.0, 0.045862238461801284
894.0, 0.04117027568641469
895.0, 0.03687904848720169
896.0, 0.03307260869475852
897.0, 0.02866427426822354
898.0, 0.025149757238787505
899.0, 0.022541198752380354
900.0, 0.020627963204795145
901.0, 0.018320840872332517
902.0, 0.016428765885256175
903.0, 0.015587835046025896
904.0, 0.014826464873493459
905.0, 0.013314577301843914
906.0, 0.01190613303600997
907.0, 0.011410613706066315
908.0, 0.010767611418394598
909.0, 0.010205858044570722
910.0, 0.009760549951716333
911.0, 0.00890971262972512
912.0, 0.007820174909153491
913.0, 0.007937247801067346
914.0, 0.00717962745313903
915.0, 0.006324132504878084
916.0, 0.005768713189242028
917.0, 0.005239617603134335
918.0, 0.004747839381433703
919.0, 0.004125668998953147
920.0, 0.003099274667662081
921.0, 0.0023688332768338058
922.0, 0.0019792053299812528
923.0, 0.0017558364162168468
924.0, 0.0009644285197193997
925.0, 0.0005951272519521191
926.0, 0.0003221408695032221
927.0, 0.00024222902465649088
928.0, 0.00022505365214192292
929.0, 0.0005333667301166592
930.0, 0.00046164925044911046
931.0, 0.0006870057949621115
932.0, 0.0007103334328178029
933.0, 0.0005700843892786716
934.0, 0.0005707094729635665
935.0, 0.0006419122876456387
936.0, 0.0005619093054319913
937.0, 0.0004400591500083538
938.0, 0.0002625834865807504
939.0, 0.0002768653762002787
940.0, 0.0002820728722863248
941.0, 0.0002364923044313076
942.0, 0.00020710971671009288
943.0, 0.00028235958996843824
944.0, 0.0002473485497221186
945.0, 0.0002759422993903903
946.0, 0.00014078309293866475
947.0, 0.0003492222806065979
948.0, 0.00019456814406353172
949.0, 9.577422594270524e-05
950.0, 0.00019552751966035926
951.0, 3.889072977192351e-05
952.0, 0.00020592205393087977
953.0, 3.750651837115723e-05
954.0, 0.0006548469978933199
955.0, 0.0007152531204643351
956.0, 0.0005297335242965852
957.0, 0.0008357972966060483
958.0, 0.0010919660212147903
959.0, 0.0011531672682235916
960.0, 0.001632658775705629
961.0, 0.0021453269588850607
962.0, 0.0019424331495529832
963.0, 0.0016925889723493387
964.0, 0.0020146313949464486
965.0, 0.0022828062218126243
966.0, 0.002429626786529116
967.0, 0.002859628766386092
968.0, 0.0034987897203408017
969.0, 0.003836437847062762
970.0, 0.004418564318559736
971.0, 0.00548413942104403
972.0, 0.0061622262983818815
973.0, 0.007365034012165557
974.0, 0.008177582221594556
975.0, 0.009099430561323105
976.0, 0.010936804205223307
977.0, 0.012924027191932929
978.0, 0.014303334360213993
979.0, 0.016185210654012124
980.0, 0.017714846305291184
981.0, 0.0192144353210183
982.0, 0.02034261059995066
983.0, 0.02206231502198262
984.0, 0.023524132538496802
985.0, 0.02381470680910898
986.0, 0.024482311683638496
987.0, 0.02494584817787246
988.0, 0.025041294818664996
989.0, 0.024749515872324133
990.0, 0.024222457490235133
991.0, 0.0224028114334977
992.0, 0.020351774441734256
993.0, 0.01873751803970132
994.0, 0.01680924696579497
995.0, 0.014687855476386935
996.0, 0.01283437852677596
997.0, 0.010751230415666576
998.0, 0.009416860115185862
999.0, 0.008016632458634152
1000.0, 0.006946078938716614
1001.0, 0.006178537532173403
1002.0, 0.005178536607625415
1003.0, 0.004381043960254869
1004.0, 0.004446012229591169
1005.0, 0.003979737218961881
1006.0, 0.0037529001668549435
1007.0, 0.0037985220011607624
1008.0, 0.0034426075310548944
1009.0, 0.003622392927514595
1010.0, 0.00397296869672471
1011.0, 0.0038036034193970865
1012.0, 0.003920186649262706
1013.0, 0.0042310820895435
1014.0, 0.0051446676056612324
1015.0, 0.005676912841767939
1016.0, 0.006049692068852065
1017.0, 0.006393017889135538
1018.0, 0.007165687398339754
1019.0, 0.008162351258834428
1020.0, 0.009001878013381209
1021.0, 0.009910042330111916
1022.0, 0.010954415263972752
1023.0, 0.012415863230264583
1024.0, 0.013093830761203946
1025.0, 0.013385920967145037
1026.0, 0.014023793963751741
1027.0, 0.014413654958535322
1028.0, 0.014447690632433795
1029.0, 0.014227077126658686
1030.0, 0.013537148090210949
1031.0, 0.013288743772924081
1032.0, 0.013609004068764599
1033.0, 0.01339542125156702
1034.0, 0.01272148930124807
1035.0, 0.012262519565192219
1036.0, 0.011571549224937819
1037.0, 0.010527989442092793
1038.0, 0.009616644078777908
1039.0, 0.008869681222004717
1040.0, 0.007883518650490577
1041.0, 0.007110148377346478
1042.0, 0.006377581373534966
1043.0, 0.005851303168402442
1044.0, 0.005095819168100417
1045.0, 0.004566940261517535
1046.0, 0.004242003074894554
1047.0, 0.00390563232735527
1048.0, 0.003796424898034842
1049.0, 0.0038961094255455016
1050.0, 0.003446658366716738
1051.0, 0.0030701526794074127
1052.0, 0.002698995046126386
1053.0, 0.0026544894578386775
1054.0, 0.002335473172945806
1055.0, 0.0019959685426418263
1056.0, 0.0019166451310844062
1057.0, 0.0017276238337167711
1058.0, 0.0014183718170196126
1059.0, 0.0015593173160633432
1060.0, 0.0012907839055901482
1061.0, 0.0011417128358584248
1062.0, 0.0010115107772941492
1063.0, 0.0008250958368371503
1064.0, 0.0006781670528226976
1065.0, 0.0008078399232463116
1066.0, 0.0008642773753063886
1067.0, 0.000765552965899523
1068.0, 0.001105253090603939
1069.0, 0.0006257525433245631
1070.0, 0.000560200169130217
1071.0, 0.0008346837712557211
1072.0, 0.00016949204619292688
1073.0, 0.0003197219999524985
1074.0, 0.0003710822699569934
1075.0, 0.0001451311049857303
1076.0, 0.00021318723731955657
1077.0, 0.00029724973026941815
1078.0, 0.0007061799204912665
1079.0, 0.00018061957381770776
1080.0, 9.379210908318086e-05
1081.0, 0.00013285540594181304
1082.0, 0.00035577514357741516
1083.0, 0.00048652222158312704
1084.0, 0.000433354339991839
1085.0, 6.064333053988677e-05
1086.0, 0.0003219376283004045
1087.0, 0.00011651359561395037
1088.0, 0.0001615553156508371
1089.0, 9.506658657759844e-05
1090.0, 0.00011192522723411528
1091.0, 0.0004323177871585331
1092.0, 0.0002584588270516788
1093.0, 0.0001350192906616005
1094.0, 0.00011922025014734944
1095.0, 5.6598328168974094e-05
1096.0, 0.00010616988360490874
1097.0, 3.504938524953199e-05
1098.0, 0.0002646303579749279
1099.0, 0.0004047167280343889
1100.0, 0.00036187970897690893
1101.0, 9.246539383726054e-05
1102.0, 0.00012183878847037532
1103.0, 0.00029577965812609705
1104.0, 0.00021448635702513277
1105.0, 7.544782443700446e-05
1106.0, 0.0001963840136672813
1107.0, 0.0006763920283853598
1108.0, 0.00030473342150777173
1109.0, 0.0003921294428701294
1110.0, 0.0007160193525366862
1111.0, 0.000935893406750205
1112.0, 0.0005733843006651654
1113.0, 0.0004487016454211801
1114.0, 0.00026195298272759345
1115.0, 3.220498603144132e-05
1116.0, 5.4726371829574743e-05
1117.0, 0.000487044994880774
1118.0, 0.000575877049786968
1119.0, 0.00033124570746153974
1120.0, 0.0005575680420282377
1121.0, 0.00039976998718976853
1122.0, 0.0003657138616254007
1123.0, 0.00037099669702706796
1124.0, 0.00022193443626376076
1125.0, 0.0004103720881907887
1126.0, 0.00030827853259976035
1127.0, 0.00013309782986648395
1128.0, 0.0002534941216385273
1129.0, 0.0005134098637197915
1130.0, 0.00010802391414865213
1131.0, 0.00016432840616242793
1132.0, 7.471529986107615e-05
1133.0, 0.000338824622110519
1134.0, 0.0007216097410348088
1135.0, 0.0008020592535196893
1136.0, 0.00041949082480816026
1137.0, 0.0002514716357645625
1138.0, 0.00037536625793438807
1139.0, 0.0001460765565616618
1140.0, 9.72003078915768e-05
1141.0, 0.00012401936886190248
1142.0, 0.0003338445460874463
1143.0, 0.00010332655745217868
1144.0, 0.0001623686851387258
1145.0, 7.687876188512562e-05
1146.0, 0.00045285600116705193
1147.0, 0.0006322411981751452
1148.0, 0.000399949934461294
1149.0, 0.00016947754472154556
1150.0, 9.011474963725304e-05
1151.0, 5.0846441391781856e-05
1152.0, 0.00039291718939772836
1153.0, 0.0005121221354266584
1154.0, 0.0001592287540255429
1155.0, 0.0006088024357773126
1156.0, 0.0002407308780225049
1157.0, 0.0002141704101730031
1158.0, 0.0005508931959722716
1159.0, 0.0004710996850210861
1160.0, 0.000298892569776399
1161.0, 0.00026746930606831733
1162.0, 0.00043410063779940675
1163.0, 0.0004101982731736401
1164.0, 0.000529350090568359
1165.0, 0.00022324816825995068
1166.0, 0.0006108082845373818
1167.0, 0.0004211443305556807
1168.0, 0.0002046040803536057
1169.0, 0.00027305741406757927
1170.0, 0.00038875905155411674
1171.0, 0.00040391049292217156
1172.0, 0.0003290210693335677
1173.0, 0.00038861306400583476
1174.0, 0.0005580243373193263
1175.0, 0.0005490036969823284
1176.0, 0.0002065868244987635
1177.0, 0.00023296632462592594
1178.0, 3.28047693815e-05
1179.0, 0.00045403940435446316
1180.0, 0.00042229168112198643
1181.0, 0.00046409770492432156
1182.0, 0.0007233772139416847
1183.0, 0.0005029409110821067
1184.0, 0.0005440690805393936
1185.0, 0.0004662091318374861
1186.0, 0.0004444143890717637
1187.0, 0.0006668746944440198
1188.0, 0.00043489196932508533
1189.0, 0.00018355858015343845
1190.0, 0.00020700144943156757
1191.0, 5.658595628329266e-05
1192.0, 0.0003754538034444146
1193.0, 0.0004826937844471826
1194.0, 0.00014526560375904688
1195.0, 0.0004273320466961041
1196.0, 0.0007710553386980173
1197.0, 0.0005075579560864629
1198.0, 0.0006040568347749634
1199.0, 0.00047468003500539485
1200.0, 0.00026588516358189824
1201.0, 0.0003113792986580533
1202.0, 0.00014491839325420243
1203.0, 0.0001866856517419499
1204.0, 0.00010167111632815078
1205.0, 0.00015704245139232194
1206.0, 0.0002514946236047631
1207.0, 3.483020486039711e-05
1208.0, 4.1171341414418414e-05
1209.0, 0.00015733817002612412
1210.0, 0.0005811486061783971
1211.0, 0.0005176030148597281
1212.0, 0.0002836620900297019
1213.0, 0.00020018219895741928
1214.0, 0.0004212571412385388
1215.0, 0.0004489707339978043
1216.0, 0.00040215860988869056
1217.0, 0.0003932693408515725
1218.0, 0.0006759650220937324
1219.0, 0.0008414340305043366
1220.0, 0.00046955466088720787
1221.0, 0.0003916911628077115
1222.0, 0.0004564432440997427
1223.0, 0.00047828525438010114
1224.0, 0.00048890570465031
1225.0, 7.673948522524736e-05
1226.0, 0.00044957908893751173
1227.0, 0.0003765427206795712
1228.0, 0.00029614382949501197
1229.0, 0.00034630772414419493
1230.0, 0.0005461721793968584
1231.0, 0.0006454340812531731
1232.0, 0.0005226033755284152
1233.0, 0.000474214930387011
1234.0, 0.00033794983984073237
1235.0, 0.00024836734803340645
1236.0, 1.8186333383931235e-05
1237.0, 6.949903064554344e-05
1238.0, 0.0007194430301869042
1239.0, 0.0005832124576581548
1240.0, 0.0002232784092106001
1241.0, 0.0002482331840920877
1242.0, 0.0003948481505643298
1243.0, 0.0004392673585257507
1244.0, 0.00035624578915103184
1245.0, 5.8624448603739205e-05
1246.0, 0.00011059561080099758
1247.0, 0.0006690401531392879
1248.0, 0.0003582414037667764
1249.0, 0.00039322015458327495
1250.0, 0.000559649053054863
1251.0, 0.0005274745725721273
1252.0, 0.0003768665974302707
1253.0, 0.00036110601114552616
1254.0, 0.0001882208422633069
1255.0, 0.0001719400077160533
1256.0, 0.00020899256954099932
1257.0, 0.00024346296779174795
1258.0, 0.00017184589623144917
1259.0, 0.00026854972031186444
1260.0, 0.000599068247844637
1261.0, 0.00020503408023106354
1262.0, 0.00011270739787624544
1263.0, 0.0005175173533433386
1264.0, 0.0004174693948818785
1265.0, 7.908582331144448e-05
1266.0, 0.00037322850356800096
1267.0, 0.0005876495539996196
1268.0, 0.0005673346287179076
1269.0, 0.000627354660600999
1270.0, 0.0003890176352711369
1271.0, 0.000575194618612908
1272.0, 0.0009167941693243485
1273.0, 0.00042049370842262793
1274.0, 3.8685708995840444e-05
1275.0, 6.570659632487449e-05
1276.0, 0.0003688025737312892
1277.0, 0.0004435104495038895
1278.0, 0.0007976050688443311
1279.0, 0.00043541834740993895
1280.0, 0.0002171790938375615
1281.0, 0.0006482384885277346
1282.0, 0.0005902219702878294
1283.0, 0.000639305015332631
1284.0, 0.000561996556541123
1285.0, 0.0008028021706284355
1286.0, 0.0007238638776255313
1287.0, 0.000174907410954209
1288.0, 0.0003452741111834508
1289.0, 0.0006579681225867275
1290.0, 0.0007855703712748552
1291.0, 0.0005030248280579812
1292.0, 0.00039594203328703083
1293.0, 0.0003984876676605209
1294.0, 0.0003870473072005458
1295.0, 0.0005739286100727837
1296.0, 0.0005189622634286791
1297.0, 0.00033922985433259704
1298.0, 0.00018621104121901
1299.0, 0.0002337018658562253
1300.0, 0.0005338931811098186
1301.0, 0.000351612134442515
1302.0, 6.92494102951339e-06
1303.0, 8.409171147881735e-05
1304, 0.0
1305, 0.0
1306, 0.0
1307, 0.0
1308, 0.0
1309, 0.0
1310, 0.0
1311, 0.0
1312, 0.0
1313, 0.0
1314, 0.0
1315, 0.0
1316, 0.0
1317, 0.0
1318, 0.0
1319, 0.0
1320, 0.0
1321, 0.0
1322, 0.0
1323, 0.0
1324, 0.0
1325, 0.0
1326, 0.0
1327, 0.0
1328, 0.0
1329, 0.0
1330, 0.0
1331, 0.0
1332, 0.0
1333, 0.0
1334, 0.0
1335, 0.0
1336, 0.0
1337, 0.0
1338, 0.0
1339, 0.0
1340, 0.0
1341, 0.0
1342, 0.0
1343, 0.0
1344, 0.0
1345, 0.0
1346, 0.0
1347, 0.0
1348, 0.0
1349, 0.0
1350, 0.0
1351, 0.0
1352, 0.0
1353, 0.0
1354, 0.0
1355, 0.0
1356, 0.0
1357, 0.0
1358, 0.0
1359, 0.0
1360, 0.0
1361, 0.0
1362, 0.0
1363, 0.0
1364, 0.0
1365, 0.0
1366, 0.0
1367, 0.0
1368, 0.0
1369, 0.0
1370, 0.0
1371, 0.0
1372, 0.0
1373, 0.0
1374, 0.0
1375, 0.0
1376, 0.0
1377, 0.0
1378, 0.0
1379, 0.0
1380, 0.0
1381, 0.0
1382, 0.0
1383, 0.0
1384, 0.0
1385, 0.0
1386, 0.0
1387, 0.0
1388, 0.0
1389, 0.0
1390, 0.0
1391, 0.0
1392, 0.0
1393, 0.0
1394, 0.0
1395, 0.0
1396, 0.0
1397, 0.0
1398, 0.0
1399, 0.0
1400, 0.0
1401, 0.0
1402, 0.0
1403, 0.0
1404, 0.0
1405, 0.0
1406, 0.0
1407, 0.0
1408, 0.0
1409, 0.0
1410, 0.0
1411, 0.0
1412, 0.0
1413, 0.0
1414, 0.0
1415, 0.0
1416, 0.0
1417, 0.0
1418, 0.0
1419, 0.0
1420, 0.0
1421, 0.0
1422, 0.0
1423, 0.0
1424, 0.0
1425, 0.0
1426, 0.0
1427, 0.0
1428, 0.0
1429, 0.0
1430, 0.0
1431, 0.0
1432, 0.0
1433, 0.0
1434, 0.0
1435, 0.0
1436, 0.0
1437, 0.0
1438, 0.0
1439, 0.0
1440, 0.0
1441, 0.0
1442, 0.0
1443, 0.0
1444, 0.0
1445, 0.0
1446, 0.0
1447, 0.0
1448, 0.0
1449, 0.0
1450, 0.0
1451, 0.0
1452, 0.0
1453, 0.0
1454, 0.0
1455, 0.0
1456, 0.0
1457, 0.0
1458, 0.0
1459, 0.0
1460, 0.0
1461, 0.0
1462, 0.0
1463, 0.0
1464, 0.0
1465, 0.0
1466, 0.0
1467, 0.0
1468, 0.0
1469, 0.0
1470, 0.0
1471, 0.0
1472, 0.0
1473, 0.0
1474, 0.0
1475, 0.0
1476, 0.0
1477, 0.0
1478, 0.0
1479, 0.0
1480, 0.0
1481, 0.0
1482, 0.0
1483, 0.0
1484, 0.0
1485, 0.0
1486, 0.0
1487, 0.0
1488, 0.0
1489, 0.0
1490, 0.0
1491, 0.0
1492, 0.0
1493, 0.0
1494, 0.0
1495, 0.0
1496, 0.0
1497, 0.0
1498, 0.0
1499, 0.0
1500, 0.0
1501, 0.0
1502, 0.0
1503, 0.0
1504, 0.0
1505, 0.0
1506, 0.0
1507, 0.0
1508, 0.0
1509, 0.0
1510, 0.0
1511, 0.0
1512, 0.0
1513, 0.0
1514, 0.0
1515, 0.0
1516, 0.0
1517, 0.0
1518, 0.0
1519, 0.0
1520, 0.0
1521, 0.0
1522, 0.0
1523, 0.0
1524, 0.0
1525, 0.0
1526, 0.0
1527, 0.0
1528, 0.0
1529, 0.0
1530, 0.0
1531, 0.0
1532, 0.0
1533, 0.0
1534, 0.0
1535, 0.0
1536, 0.0
1537, 0.0
1538, 0.0
1539, 0.0
1540, 0.0
1541, 0.0
1542, 0.0
1543, 0.0
1544, 0.0
1545, 0.0
1546, 0.0
1547, 0.0
1548, 0.0
1549, 0.0
1550, 0.0
1551, 0.0
1552, 0.0
1553, 0.0
1554, 0.0
1555, 0.0
1556, 0.0
1557, 0.0
1558, 0.0
1559, 0.0
1560, 0.0
1561, 0.0
1562, 0.0
1563, 0.0
1564, 0.0
1565, 0.0
1566, 0.0
1567, 0.0
1568, 0.0
1569, 0.0
1570, 0.0
1571, 0.0
1572, 0.0
1573, 0.0
1574, 0.0
1575, 0.0
1576, 0.0
1577, 0.0
1578, 0.0
1579, 0.0
1580, 0.0
1581, 0.0
1582, 0.0
1583, 0.0
1584, 0.0
1585, 0.0
1586, 0.0
1587, 0.0
1588, 0.0
1589, 0.0
1590, 0.0
1591, 0.0
1592, 0.0
1593, 0.0
1594, 0.0
1595, 0.0
1596, 0.0
1597, 0.0
1598, 0.0
1599, 0.0
