30, 0.0
31, 0.0
32, 0.0
33, 0.0
34, 0.0
35, 0.0
36, 0.0
37, 0.0
38, 0.0
39, 0.0
40, 0.0
41, 0.0
42, 0.0
43, 0.0
44, 0.0
45, 0.0
46, 0.0
47, 0.0
48, 0.0
49, 0.0
50, 0.0
51, 0.0
52, 0.0
53, 0.0
54, 0.0
55, 0.0
56, 0.0
57, 0.0
58, 0.0
59, 0.0
60, 0.0
61, 0.0
62, 0.0
63, 0.0
64, 0.0
65, 0.0
66, 0.0
67, 0.0
68, 0.0
69, 0.0
70, 0.0
71, 0.0
72, 0.0
73, 0.0
74, 0.0
75, 0.0
76, 0.0
77, 0.0
78, 0.0
79, 0.0
80, 0.0
81, 0.0
82, 0.0
83, 0.0
84, 0.0
85, 0.0
86, 0.0
87, 0.0
88, 0.0
89, 0.0
90, 0.0
91, 0.0
92, 0.0
93, 0.0
94, 0.0
95, 0.0
96, 0.0
97, 0.0
98, 0.0
99, 0.0
100, 0.0
101, 0.0
102, 0.0
103, 0.0
104, 0.0
105, 0.0
106, 0.0
107, 0.0
108, 0.0
109, 0.0
110, 0.0
111, 0.0
112, 0.0
113, 0.0
114, 0.0
115, 0.0
116, 0.0
117, 0.0
118, 0.0
119, 0.0
120, 0.0
121, 0.0
122, 0.0
123, 0.0
124, 0.0
125, 0.0
126, 0.0
127, 0.0
128, 0.0
129, 0.0
130, 0.0
131, 0.0
132, 0.0
133, 0.0
134, 0.0
135, 0.0
136, 0.0
137, 0.0
138, 0.0
139, 0.0
140, 0.0
141, 0.0
142, 0.0
143, 0.0
144, 0.0
145, 0.0
146, 0.0
147, 0.0
148, 0.0
149, 0.0
150, 0.0
151, 0.0
152, 0.0
153, 0.0
154, 0.0
155, 0.0
156, 0.0
157, 0.0
158, 0.0
159, 0.0
160, 0.0
161, 0.0
162, 0.0
163, 0.0
164, 0.0
165, 0.0
166, 0.0
167.0, 0.004448151759570479
168.0, 0.00989185203798037
169.0, 0.01488617875200974
170.0, 0.03524565788255446
171.0, 0.020102760987402043
172.0, 0.004432850790307355
173.0, 0.00640835154925668
174.0, 0.010261054826748653
175.0, 0.004645960827798819
176.0, 0.023240576063170197
177.0, 0.046233221059817135
178.0, 0.04132184787449155
179.0, 0.03887421779134951
180.0, 0.037277320703151054
181.0, 0.040797601812558176
182.0, 0.03835696163218161
183.0, 0.01308525334493836
184.0, 0.01841972079130344
185.0, 0.03267723091255533
186.0, 0.03480153965785008
187.0, 0.04165188739702691
188.0, 0.052786046849884014
189.0, 0.0687260416582511
190.0, 0.07941379463050005
191.0, 0.07009119529688465
192.0, 0.0755910103334524
193.0, 0.06081970164218687
194.0, 0.041791265389394545
195.0, 0.03769586286046887
196.0, 0.03338262977000725
197.0, 0.0539411563285701
198.0, 0.04660990127341988
199.0, 0.02075194504444347
200.0, 0.025942481204650876
201.0, 0.03667153812806079
202.0, 0.022013659837004977
203.0, 0.0029958197796574474
204.0, 0.0025744053397796464
205.0, 0.008189274850396194
206.0, 0.00776817183475179
207.0, 0.013877597183391387
208.0, 0.005845661244142109
209.0, 0.02335745386450604
210.0, 0.010483754947325126
211.0, 0.007248060343567681
212.0, 0.018225083673713397
213.0, 0.026739155124723638
214.0, 0.004646660037394018
215.0, 0.022862611426377716
216.0, 0.01177388046017509
217.0, 0.015519247334501426
218.0, 0.012617276699861082
219.0, 0.004744567784012916
220.0, 0.01568603860065224
221.0, 0.03309556137435335
222.0, 0.013182533616822334
223.0, 0.045342607519297355
224.0, 0.055556497375286604
225.0, 0.041424058616025806
226.0, 0.038590519080213694
227.0, 0.039130013569983794
228.0, 0.060057859683159236
229.0, 0.08831037157744732
230.0, 0.09971251725142814
231.0, 0.07044735252230835
232.0, 0.06009418317554931
233.0, 0.07951776308694496
234.0, 0.11012338661135702
235.0, 0.12333998139412705
236.0, 0.12224367348532103
237.0, 0.14193491740915204
238.0, 0.14939134914767355
239.0, 0.13705084150966962
240.0, 0.16900940051028684
241.0, 0.17716491564967404
242.0, 0.18265597390688243
243.0, 0.19389681453778787
244.0, 0.19827470523688975
245.0, 0.19087480409159518
246.0, 0.20172484769930665
247.0, 0.20614790498954486
248.0, 0.19383448875831466
249.0, 0.21217538369034647
250.0, 0.24184459900003588
251.0, 0.24694045702853726
252.0, 0.23831056097439746
253.0, 0.26379665250703066
254.0, 0.23614130386635518
255.0, 0.22780537456321015
256.0, 0.2338927556333734
257.0, 0.22698774524023763
258.0, 0.21923086632234337
259.0, 0.21029193042412722
260.0, 0.20601732164379818
261.0, 0.1954996297930554
262.0, 0.16871879443346607
263.0, 0.1699334150907442
264.0, 0.16955765405090725
265.0, 0.1554977749850286
266.0, 0.14345800423849178
267.0, 0.14982006782862764
268.0, 0.1368138271612858
269.0, 0.12825042450281468
270.0, 0.12068809822849451
271.0, 0.1017707684146405
272.0, 0.11174945621795915
273.0, 0.12511998661641197
274.0, 0.12234837673448003
275.0, 0.10608298053456386
276.0, 0.103240588277763
277.0, 0.11321997295224867
278.0, 0.11273444919861265
279.0, 0.10832053668810959
280.0, 0.11943462350310811
281.0, 0.10778992626159144
282.0, 0.10786266569216339
283.0, 0.11698492634432446
284.0, 0.12434889315716895
285.0, 0.12184835248576838
286.0, 0.12760700000310618
287.0, 0.13750791289073228
288.0, 0.13584753816580822
289.0, 0.1231943687852027
290.0, 0.13327944254857874
291.0, 0.15086512499705457
292.0, 0.14415238386516196
293.0, 0.12705070846688332
294.0, 0.1276291547085663
295.0, 0.10980822084213451
296.0, 0.09963700816345798
297.0, 0.10156940742728966
298.0, 0.106749428552695
299.0, 0.10560140701571812
300.0, 0.10078409485098182
301.0, 0.12747248975526004
302.0, 0.16663618187803447
303.0, 0.18757038989488353
304.0, 0.19300866185676183
305.0, 0.18591755534447788
306.0, 0.18693166323048657
307.0, 0.20045668259005864
308.0, 0.2143549742494044
309.0, 0.22261253754072083
310.0, 0.23060498009461786
311.0, 0.2444917460608465
312.0, 0.26391440706228514
313.0, 0.2767556499650912
314.0, 0.3046784448535564
315.0, 0.318971344039318
316.0, 0.32640889626682135
317.0, 0.3470691096419654
318.0, 0.36034153078423725
319.0, 0.3785353181781591
320.0, 0.39829614406531744
321.0, 0.42210100396186373
322.0, 0.4535850657469031
323.0, 0.4744605592638725
324.0, 0.4806656250683588
325.0, 0.5027071003211974
326.0, 0.5395005165659528
327.0, 0.5607994800523441
328.0, 0.5986352006402315
329.0, 0.6332778546716615
330.0, 0.6811120659899935
331.0, 0.739460932493002
332.0, 0.7433113391610854
333.0, 0.7941691395379967
334.0, 0.8520743416029718
335.0, 0.8985137320621961
336.0, 0.9385473267080536
337.0, 0.976418808988073
338.0, 0.9972392239267366
339.0, 0.9914035163292431
340.0, 0.9737599913887213
341.0, 0.9663286835184652
342.0, 0.9409912257589595
343.0, 0.9000221549563967
344.0, 0.8488253844271572
345.0, 0.806679917929083
346.0, 0.7860980048267836
347.0, 0.6719065168220871
348.0, 0.5908031872820841
349.0, 0.5458696484193445
350.0, 0.49095710335481985
351.0, 0.3967592837545814
352.0, 0.3153229863566297
353.0, 0.25195537102907767
354.0, 0.19903549483290633
355.0, 0.15660119699819963
356.0, 0.140017713785119
357.0, 0.10621788661992904
358.0, 0.07365802149217407
359.0, 0.05228319397293204
360.0, 0.041585838470399136
361.0, 0.050013441704997275
362.0, 0.03689923272973691
363.0, 0.02372312174173476
364.0, 0.008984205553373571
365.0, 0.015246891740524356
366.0, 0.008366703173814423
367.0, 0.006789665381145495
368.0, 0.0031684256583111243
369.0, 0.002510873104445142
370.0, 0.016539405086460297
371.0, 0.0074669114211741265
372.0, 0.0031054277706340744
373.0, 0.012884485405119049
374.0, 0.03494453106337251
375.0, 0.012363320316438192
376.0, 0.0017778845017061245
377.0, 0.0019741791629035743
378.0, 0.001947525168734723
379.0, 0.0066042537469305895
380.0, 0.009431094789703923
381.0, 0.012375301632333835
382.0, 0.013646819039491017
383.0, 0.010556827123188393
384.0, 0.011205288670363637
385.0, 0.02782124170347568
386.0, 0.03203487622205599
387.0, 0.04694893177970245
388.0, 0.06399671893822617
389.0, 0.06932475548574732
390.0, 0.06733646756989856
391.0, 0.08473636656049975
392.0, 0.08751402724360013
393.0, 0.0973727203001587
394.0, 0.11705672371856957
395.0, 0.10504128643926607
396.0, 0.10865906618563435
397.0, 0.13705132438660705
398.0, 0.1545213322292554
399.0, 0.15880221441592948
400.0, 0.18112128234851768
401.0, 0.18173321415022606
402.0, 0.2005940926719324
403.0, 0.21935905798450284
404.0, 0.22561781003020712
405.0, 0.23222436408434824
406.0, 0.24362737438566798
407.0, 0.27586735276249275
408.0, 0.2880933191844257
409.0, 0.2825084876744023
410.0, 0.29862365732322566
411.0, 0.2845236757158142
412.0, 0.2710417093100891
413.0, 0.2461855361634375
414.0, 0.21198787432264574
415.0, 0.19288759525917265
416.0, 0.1453608815174883
417.0, 0.11079516709363733
418.0, 0.08632110804999545
419.0, 0.06364219274521643
420.0, 0.045204550422351844
421.0, 0.04171186354919548
422.0, 0.02980455126292943
423.0, 0.023188197531155155
424.0, 0.02570933467542924
425.0, 0.025795270757577583
426.0, 0.024621598726633217
427.0, 0.03580861482011089
428.0, 0.02669284584502117
429.0, 0.01217145909325246
430.0, 0.03196275457818309
431.0, 0.0015216412250304433
432.0, 0.004526689776531477
433.0, 0.007910663236745625
434.0, 0.00209805534846826
435.0, 0.0015242900216188627
436.0, 0.0027493654543719326
437.0, 0.026321773648795236
438.0, 0.023059433905357918
439.0, 0.005698220947925453
440.0, 0.013427902020419881
441.0, 0.0024964704926325105
442.0, 0.009615529371938946
443.0, 0.0054468039632369555
444.0, 0.006385223628136266
445.0, 0.011707585533636657
446.0, 0.00831516677618082
447.0, 0.009320469462581126
448.0, 0.016370684003002667
449.0, 0.023458531567820576
450.0, 0.02390381215836106
451.0, 0.027102399417593414
452.0, 0.017443025471801987
453.0, 0.006074678187922428
454.0, 0.007981750967597071
455.0, 0.009844341643954115
456.0, 0.005767920819136375
457.0, 0.04013157222628091
458.0, 0.02120494840929333
459.0, 0.022593996196159413
460.0, 0.03547965294905714
461.0, 0.0246584268476182
462.0, 0.026439154426633155
463.0, 0.021656793630211425
464.0, 0.028662459828870657
465.0, 0.03369613724875781
466.0, 0.023804878983792417
467.0, 0.016089128939323207
468.0, 0.03140372363018382
469.0, 0.04543950857370033
470.0, 0.034819414641517374
471.0, 0.01852018994713152
472.0, 0.024684165648202226
473.0, 0.027448489210953882
474.0, 0.03648591797251145
475.0, 0.0339931428292752
476.0, 0.033187042333221325
477.0, 0.04745762077476117
478.0, 0.05003623800329014
479.0, 0.05024016321194686
480.0, 0.04582265216943217
481.0, 0.038269157159009096
482.0, 0.036407926927297316
483.0, 0.050167854138467124
484.0, 0.04431710976204058
485.0, 0.04798119002672013
486.0, 0.04776693467408074
487.0, 0.035988260612534864
488.0, 0.029947993453708157
489.0, 0.06405903003726639
490.0, 0.05491516218327675
491.0, 0.03823119029185506
492.0, 0.0350627132808749
493.0, 0.04396095230174034
494.0, 0.061499020240583124
495.0, 0.04810529785982469
496.0, 0.041115707639948554
497.0, 0.049379966199266136
498.0, 0.059351808059167475
499.0, 0.05621540064067194
500.0, 0.05899395424097983
501.0, 0.054807205841506286
502.0, 0.07098102224734958
503.0, 0.07960229800505701
504.0, 0.056281163740411644
505.0, 0.05710499362783704
506.0, 0.052205581654366104
507.0, 0.050779555286437995
508.0, 0.058584701429037316
509.0, 0.06943625863646612
510.0, 0.06846366514861067
511.0, 0.08384059751245168
512.0, 0.06394666411613885
513.0, 0.052787642505887904
514.0, 0.06261959172861747
515.0, 0.06399766077813503
516.0, 0.050107433344612526
517.0, 0.05850317510617636
518.0, 0.046827568767706246
519.0, 0.037450256435360006
520.0, 0.04287929068920493
521.0, 0.03466814783151648
522.0, 0.04205159427647442
523.0, 0.029123075192543247
524.0, 0.01908783221130904
525.0, 0.02626121509336586
526.0, 0.039511256853540955
527.0, 0.022793115983388897
528.0, 0.019016171485876827
529.0, 0.016176352195022295
530.0, 0.025194593664395096
531.0, 0.04071630566359344
532.0, 0.03819811838509562
533.0, 0.02542481934715859
534.0, 0.03407832056679842
535.0, 0.039130064625555704
536.0, 0.03183505648964935
537.0, 0.023541702533298466
538.0, 0.030946794576901096
539.0, 0.03506762483190914
540.0, 0.03071192075074597
541.0, 0.03537174748519487
542.0, 0.043082787320164746
543.0, 0.027638785826715608
544.0, 0.004386350431885196
545.0, 0.014317029575733966
546.0, 0.0046735965183852465
547.0, 0.00578995843962624
548.0, 0.026398024440916087
549.0, 0.008699893429995813
550.0, 0.011832855199031923
551.0, 0.0014779163470531342
552.0, 0.008874319139645724
553.0, 0.026757099651116136
554.0, 0.021178710151416133
555.0, 0.008769211028082903
556.0, 0.016574153363142163
557.0, 0.00739848915894003
558.0, 0.01615746120382087
559.0, 0.019078205212221807
560.0, 0.01612976126702878
561.0, 0.007839717689614077
562.0, 0.009741667541863348
563.0, 0.01793872559311817
564.0, 0.013342737980461764
565.0, 0.006653225828906059
566.0, 0.023365490345803906
567.0, 0.01890324649996399
568.0, 0.03272472572140782
569.0, 0.02719339850579245
570.0, 0.011807772641966061
571.0, 0.015251330030621207
572.0, 0.032130135065864054
573.0, 0.010966334552525905
574.0, 0.024982977696931044
575.0, 0.022378266797579035
576.0, 0.009891362556925866
577.0, 0.00652827436402079
578.0, 0.0014008703511644701
579.0, 0.004363592600876721
580.0, 0.00635201064514726
581.0, 0.006143968620914885
582.0, 0.012066426875172214
583.0, 0.0190684849460023
584.0, 0.012215130765726823
585.0, 0.015959230521761604
586.0, 0.011711366338287918
587.0, 0.022814156763971652
588.0, 0.03321577921455064
589.0, 0.021147541005326315
590.0, 0.00013647051970659078
591.0, 0.0030832338121572576
592.0, 0.007948787588215009
593.0, 0.006717278803772296
594.0, 0.0019140988048719815
595.0, 0.004559442784354342
596.0, 0.017175744368627337
597.0, 0.030847704969425314
598.0, 0.01347868418455859
599.0, 0.009221604146303042
600.0, 0.02573467580866592
601.0, 0.03627485896934804
602.0, 0.016123514279293948
603.0, 0.005346800108910237
604.0, 0.005437532950416503
605.0, 0.003818896865248283
606.0, 0.012808965579668218
607.0, 0.011091365008756559
608.0, 0.03236396777516563
609.0, 0.03512190121892705
610.0, 0.031857081113562266
611.0, 0.03184374748898979
612.0, 0.03182637118255595
613.0, 0.027411741884545596
614.0, 0.018195434219079848
615.0, 0.009224970721503965
616.0, 0.007310674412420365
617.0, 0.018509553341550945
618.0, 0.030431614106780074
619.0, 0.036521447127930776
620.0, 0.04090271348621697
621.0, 0.015508181018546662
622.0, 0.02320673000112767
623.0, 0.01745971978861633
624.0, 0.012899679317197653
625.0, 0.02840161417288017
626.0, 0.040741965804569506
627.0, 0.04496322891671926
628.0, 0.03485596554474942
629.0, 0.013170474302787784
630.0, 0.015228900150451707
631.0, 0.038843797096958614
632.0, 0.046152562119319694
633.0, 0.0331082418115256
634.0, 0.037533613783030266
635.0, 0.047991157212288776
636.0, 0.05821656430701556
637.0, 0.055195229041024495
638.0, 0.0385581802571456
639.0, 0.0532188741367702
640.0, 0.05560374740152732
641.0, 0.06003197915054135
642.0, 0.04889323261577537
643.0, 0.04491260934847304
644.0, 0.06413181754657245
645.0, 0.06055635296733721
646.0, 0.06943852975372122
647.0, 0.06634742141944418
648.0, 0.06175211098724783
649.0, 0.060115539219897825
650.0, 0.056787907358168715
651.0, 0.05936107005081466
652.0, 0.07198628692487657
653.0, 0.07046208429821181
654.0, 0.07065397305161707
655.0, 0.07584572806536122
656.0, 0.08203567224338798
657.0, 0.08693727982519249
658.0, 0.07056848033840378
659.0, 0.07787438828634537
660.0, 0.0942578972884063
661.0, 0.09598281937537499
662.0, 0.08363896632014498
663.0, 0.07663548437852293
664.0, 0.0762397316173612
665.0, 0.07473455619479051
666.0, 0.08634164261807176
667.0, 0.09305290452856903
668.0, 0.10046944485696073
669.0, 0.10748704004821225
670.0, 0.09544399247045657
671.0, 0.137812162825324
672.0, 0.11432742323147227
673.0, 0.114414568569675
674.0, 0.11775726961091422
675.0, 0.10707334936129587
676.0, 0.10908977675467207
677.0, 0.11834801109407735
678.0, 0.10335036697171182
679.0, 0.1290464766250726
680.0, 0.1480816354727369
681.0, 0.14385952041237818
682.0, 0.12859643702227513
683.0, 0.12082806406005198
684.0, 0.14599248242402124
685.0, 0.13336002608768013
686.0, 0.12965186894535333
687.0, 0.1343308788580696
688.0, 0.13193202458730025
689.0, 0.12889491988975557
690.0, 0.13930492957081547
691.0, 0.12463035305234768
692.0, 0.11757878682958796
693.0, 0.11910160724449936
694.0, 0.12375880628516023
695.0, 0.12131286166323181
696.0, 0.10835849364153123
697.0, 0.10912502912586618
698.0, 0.10500490554260698
699.0, 0.1052573260365305
700.0, 0.11089305851672669
701.0, 0.11241524462399867
702.0, 0.10639161448287353
703.0, 0.10410146591095262
704.0, 0.09492360462183072
705.0, 0.08723158282126824
706.0, 0.10282400930994466
707.0, 0.09580836198938544
708.0, 0.08452738259507174
709.0, 0.09979445306803968
710.0, 0.0599377276539733
711.0, 0.05899202257075699
712.0, 0.0646056745324056
713.0, 0.04293590408517718
714.0, 0.025500269796251054
715.0, 0.04395753724356831
716.0, 0.06987075029349965
717.0, 0.050246478255709374
718.0, 0.02626130075410633
719.0, 0.028169567241917576
720.0, 0.02374472650746971
721.0, 0.01871699840052857
722.0, 0.021062521816775585
723.0, 0.023899557520344724
724.0, 0.050692904658149296
725.0, 0.015548264129646614
726.0, 0.03506253441623917
727.0, 0.022030698138989564
728.0, 0.008511189962460931
729.0, 0.007070543556646323
730.0, 0.027283272709827184
731.0, 0.008801365382797365
732.0, 0.020308823238861858
733.0, 0.013399381151825492
734.0, 0.002992098653446255
735.0, 0.010580265565772518
736.0, 0.021948394902735514
737.0, 0.0021454400825457695
738.0, 0.005594040567947046
739.0, 0.012532298131721666
740.0, 0.019505851584637683
741.0, 0.006600462189425152
742.0, 0.01037859979472113
743.0, 0.007426230343495653
744.0, 0.018956085938374813
745.0, 0.004523427281538876
746.0, 0.01043705051064469
747.0, 0.003081349894978963
748.0, 0.006872189066190316
749.0, 0.0016775361551149498
750.0, 0.0036188155154177762
751.0, 0.027146107520496853
752.0, 0.02478282603455103
753.0, 0.0018279692273761791
754.0, 0.00520292632016949
755.0, 0.014375432994460948
756.0, 0.02147150081952161
757.0, 0.0315529354493854
758.0, 0.03325518684892097
759.0, 0.015832004661885928
760.0, 0.03229363823857808
761.0, 0.0435052150081292
762.0, 0.04613102439884039
763.0, 0.05069656317104708
764.0, 0.059563874054420554
765.0, 0.07039480125754458
766.0, 0.08191896926653475
767.0, 0.08061130390721552
768.0, 0.09650610389544242
769.0, 0.1032778263138118
770.0, 0.09874317798038129
771.0, 0.09663418918221682
772.0, 0.11397514129107818
773.0, 0.15534665283097482
774.0, 0.15396516512194952
775.0, 0.1519954990022118
776.0, 0.1546043491110903
777.0, 0.16557694705855885
778.0, 0.18588494253270932
779.0, 0.20954181230593497
780.0, 0.2306918994711513
781.0, 0.2451029732195875
782.0, 0.24612455248353374
783.0, 0.2536467375854525
784.0, 0.2596989910670998
785.0, 0.2787315713590846
786.0, 0.284102833467544
787.0, 0.30217285163510466
788.0, 0.31016872164053627
789.0, 0.3071111655955482
790.0, 0.3233448851681324
791.0, 0.3387657802624817
792.0, 0.34530432239284004
793.0, 0.34191595949615544
794.0, 0.35039430643850866
795.0, 0.3614664399210276
796.0, 0.3772454885824185
797.0, 0.3821146417386274
798.0, 0.3857848496222693
799.0, 0.3998167769048059
800.0, 0.4112070287731074
801.0, 0.4012302834809038
802.0, 0.3869803752246491
803.0, 0.39375926858589283
804.0, 0.38445735013937815
805.0, 0.3804349524714272
806.0, 0.37798168023819045
807.0, 0.36659434448425654
808.0, 0.356052496478667
809.0, 0.34889734927577043
810.0, 0.319078673450987
811.0, 0.30593304414654426
812.0, 0.29357499319573205
813.0, 0.2977143819589033
814.0, 0.2760171808061018
815.0, 0.2559656047534505
816.0, 0.24632614041799614
817.0, 0.22731693575875012
818.0, 0.21474807822360809
819.0, 0.19826312833961884
820.0, 0.1821321161664121
821.0, 0.1765195652840943
822.0, 0.1803838457486132
823.0, 0.17317456280668655
824.0, 0.1557781850426319
825.0, 0.1477748536979174
826.0, 0.14379032284301166
827.0, 0.15259550832289476
828.0, 0.12847876078914733
829.0, 0.10619214225557669
830.0, 0.08929930461070866
831.0, 0.08270481475199852
832.0, 0.09230396028201339
833.0, 0.10161287367097377
834.0, 0.08316667420540554
835.0, 0.09699789408016696
836.0, 0.08720258054632142
837.0, 0.06560075652166059
838.0, 0.06557139508609691
839.0, 0.06099588031310662
840.0, 0.042555948520484055
841.0, 0.0412594648091913
842.0, 0.03996990315040365
843.0, 0.03988751768541822
844.0, 0.036114638867609974
845.0, 0.03293579531545733
846.0, 0.028197871161298904
847.0, 0.015346277345656741
848.0, 0.012467769275423013
849.0, 0.026269590526811916
850.0, 0.0021502502069460252
851.0, 0.01804149259396629
852.0, 0.016506061448784658
853.0, 0.005390135988264689
854.0, 0.0026245765744563926
855.0, 0.005773892680288082
856.0, 0.013914648860378982
857.0, 0.007114925476818056
858.0, 0.0193924575268503
859.0, 0.00848407023870327
860.0, 0.00017598678608379392
861.0, 0.0019789731606539816
862.0, 0.011591390856438106
863.0, 0.01845654683654023
864.0, 0.01831189555992009
865.0, 0.02461307958577778
866.0, 0.030187158443418342
867.0, 0.03276674032765638
868.0, 0.03179466250860536
869.0, 0.025297515920755458
870.0, 0.02746221831972486
871.0, 0.034565054583907955
872.0, 0.03923733399009042
873.0, 0.0476753114097495
874.0, 0.06459649645397629
875.0, 0.05512581635872023
876.0, 0.054701738147240796
877.0, 0.05735188843638633
878.0, 0.046261900463603386
879.0, 0.03549115291972937
880.0, 0.034818445248124615
881.0, 0.039447634719247025
882.0, 0.04244082170222152
883.0, 0.04094943927660338
884.0, 0.04888934501176308
885.0, 0.02958757826322448
886.0, 0.029037415685750623
887.0, 0.04264144280054584
888.0, 0.022435864417288696
889.0, 0.0018202668693743246
890.0, 0.004045757829941624
891.0, 0.010750982570880203
892.0, 0.026221914987359457
893.0, 0.004322568877935341
894.0, 0.00454280156347391
895.0, 0.0037634108001407527
896.0, 0.0038721493115665318
897.0, 0.009842621223952104
898.0, 0.01737337396404906
899.0, 0.0018637627771830847
900.0, 0.01075963138676483
901.0, 0.015243039654661636
902.0, 0.0070622270994066556
903.0, 0.01568785784121614
904.0, 0.006309101671048821
905.0, 0.0041945459777603875
906.0, 0.004682362185732497
907.0, 0.003781024751617069
908.0, 0.007637295447661578
909.0, 0.006612057291725964
910.0, 0.0090610955179542
911.0, 0.0012348266449809075
912.0, 0.000766586002817851
913.0, 0.003210477109319469
914.0, 0.0017536385258941983
915.0, 0.002401975651749643
916.0, 0.001016885451952598
917.0, 0.0002490214918849787
918.0, 0.0020911162922892823
919.0, 0.006078897903586872
920.0, 0.010501607433163567
921.0, 0.006222098702400595
922.0, 0.010509499129196551
923.0, 0.019209293344556354
924.0, 0.008276905048062087
925.0, 0.0009376751074375676
926.0, 0.0022571350560699095
927.0, 0.01376699646412015
928.0, 0.03422014546877735
929.0, 0.011108472333179275
930.0, 0.015879646445340914
931.0, 0.014931792784394578
932.0, 0.012793499825130717
933.0, 0.01745120065177656
934.0, 0.01928368850656213
935.0, 0.017916325649272723
936.0, 0.01777370882552512
937.0, 0.01575914848401557
938.0, 0.020970634809822006
939.0, 0.025888401528884344
940.0, 0.02425468095537765
941.0, 0.01984244337038952
942.0, 0.008838646136395938
943.0, 0.0030079887187824082
944.0, 0.012573589420549465
945.0, 0.022884745910590764
946.0, 0.016347082940818717
947.0, 0.019087017531405168
948.0, 0.021300305181451398
949.0, 0.03327161305397229
950.0, 0.03146750832097596
951.0, 0.027919907497007963
952.0, 0.023853091439358723
953.0, 0.031074970732887466
954.0, 0.050882504333799816
955.0, 0.034228282709953525
956.0, 0.018290916174502583
957.0, 0.014602326582574463
958.0, 0.005133051787545212
959.0, 0.023221161262779077
960.0, 0.03583183623993813
961.0, 0.022424691340155116
962.0, 0.02078195236285251
963.0, 0.028563786362544558
964.0, 0.01309554804029314
965.0, 0.025687536523855435
966.0, 0.023474840338215074
967.0, 0.04844562153034563
968.0, 0.028911374565075015
969.0, 0.018187534882729412
970.0, 0.01604613162397873
971.0, 0.009301708038004557
972.0, 0.006635453386842071
973.0, 0.010111896352398002
974.0, 0.014351446528706098
975.0, 0.026159990733636014
976.0, 0.0194848581989624
977.0, 0.009393479839772678
978.0, 0.012810557775256312
979.0, 0.009381436477279292
980.0, 0.010109753682590717
981.0, 0.024261567701725127
982.0, 0.02978700567763897
983.0, 0.01130277969901604
984.0, 0.004063065648535233
985.0, 0.0048129381047611365
986.0, 0.021556686367470258
987.0, 0.02334229184620448
988.0, 0.018084578637500917
989.0, 0.017002080796456695
990.0, 0.015373757097346365
991.0, 0.013294367257138945
992.0, 0.016944854051825147
993.0, 0.01837032828001792
994.0, 0.009372104433151746
995.0, 0.003297073422771522
996.0, 0.010869690028657711
997.0, 0.011003326585333482
998.0, 0.007730372877187054
999.0, 0.020863959484620567
1000.0, 0.024747633478535837
1001.0, 0.02291520980098651
1002.0, 0.027983555849856213
1003.0, 0.02907174200441679
1004.0, 0.01610628033685585
1005.0, 0.0023202293616812917
1006.0, 0.002887460910113729
1007.0, 0.017605271595130905
1008.0, 0.009582276637370022
1009.0, 0.028985028956748746
1010.0, 0.026823860331115532
1011.0, 0.009072012728878706
1012.0, 0.011006560792853084
1013.0, 0.024734282201063308
1014.0, 0.016623943019247984
1015.0, 0.003521356675094091
1016.0, 0.019251778259074287
1017.0, 0.030686830734068093
1018.0, 0.0052486256279527035
1019.0, 0.01468416073506755
1020.0, 0.025011460225127385
1021.0, 0.029469158643012385
1022.0, 0.02313915626058696
1023.0, 0.001673448678297041
1024.0, 0.005993036573057353
1025.0, 0.023886485997652508
1026.0, 0.002830780434395477
1027.0, 0.0018932207117385576
1028.0, 0.0059383131858732575
1029.0, 0.013596549102722072
1030.0, 0.019003259753106044
1031.0, 0.029601010123968742
1032.0, 0.016946963138527546
1033.0, 0.01793428288536019
1034.0, 0.01754558158900738
1035.0, 0.013899175807274861
1036.0, 0.016613944251221563
1037.0, 0.01631970495790459
1038.0, 0.011552057280621373
1039.0, 0.008362964676082734
1040.0, 0.02619485519874623
1041.0, 0.02131797893861759
1042.0, 0.019915947513046768
1043.0, 0.020118879771657893
1044.0, 0.015606044232669846
1045.0, 0.01685149077539342
1046.0, 0.016505653743724636
1047.0, 0.013540790011603208
1048.0, 0.01091981547466641
1049.0, 0.006017049751883006
1050.0, 0.011352166493242248
1051.0, 0.026916285139053402
1052.0, 0.020927959278851604
1053.0, 0.02760176034329919
1054.0, 0.014569587581524653
1055.0, 0.002095658253410184
1056.0, 0.0026425048320594053
1057.0, 0.0077965950232162
1058.0, 0.010205073583908209
1059.0, 0.01743355006456639
1060.0, 0.026681662402522427
1061.0, 0.02729253041756337
1062.0, 0.027919393150405456
1063.0, 0.014718492701677912
1064.0, 0.022398615959063943
1065.0, 0.01604571943000241
1066.0, 0.013163357787371472
1067.0, 0.020768704930107157
1068.0, 0.02456631845334249
1069.0, 0.023229553441116057
1070.0, 0.00834966886235275
1071.0, 0.002039203078215301
1072.0, 0.01399348603160127
1073.0, 0.024603301259411618
1074.0, 0.024745117976302442
1075.0, 0.018053905322591057
1076.0, 0.012426234173425277
1077.0, 0.017300983737625956
1078.0, 0.019207943360785913
1079.0, 0.02099757101954642
1080.0, 0.018792284942566847
1081.0, 0.010304970496616927
1082.0, 0.01401441618148959
1083.0, 0.014290961543316402
1084.0, 0.008040175607287817
1085.0, 0.01880229928964445
1086.0, 0.02815294337198992
1087.0, 0.019648439983846955
1088.0, 0.012074548604422594
1089.0, 0.03060992655636675
1090.0, 0.004300255612330564
1091.0, 0.006731569721827129
1092.0, 0.01381453833508898
1093.0, 0.017108611046190797
1094.0, 0.016212397081273398
1095.0, 0.01767707157593477
1096.0, 0.023828852994655144
1097.0, 0.0183095321791984
1098.0, 0.0061815088737281485
1099.0, 0.010338793123686435
1100.0, 0.01392677404386955
1101.0, 0.01929889848923193
1102.0, 0.019844912204508118
1103.0, 0.009377327513746269
1104.0, 0.023702419958513535
1105.0, 0.0072019305138112995
1106.0, 0.01345288900421796
1107.0, 0.029278837181964695
1108.0, 0.01844179885693464
1109.0, 0.004660797076995993
1110.0, 0.008438283569204471
1111.0, 0.01435251868462418
1112.0, 0.02025720520537958
1113.0, 0.021808100348003907
1114.0, 0.007911023954152866
1115.0, 0.003157256030795307
1116.0, 0.005939468366463854
1117.0, 0.03599219948954206
1118.0, 0.026822723693572855
1119.0, 0.00963171696706729
1120.0, 0.015147709289430425
1121.0, 0.01924714247739554
1122.0, 0.022629574471160006
1123.0, 0.017888077207888008
1124.0, 0.004046015934016833
1125.0, 0.006897900265742165
1126.0, 0.012624362282200145
1127.0, 0.013945643907697454
1128.0, 0.02521005994662701
1129.0, 0.0074988074622492525
1130.0, 0.002894160563868116
1131.0, 0.009244624990288454
1132.0, 0.01566635789566207
1133.0, 0.01243931319720587
1134.0, 0.011671596769625122
1135.0, 0.023246257081566506
1136.0, 0.034694402724319416
1137.0, 0.026355236788018096
1138.0, 0.014856815314285869
1139.0, 0.025691114489014236
1140.0, 0.026248615626556383
1141.0, 0.0029620149298688466
1142.0, 0.024425448094573622
1143.0, 0.02562416203401036
1144.0, 0.021956909349518244
1145.0, 0.016177901272347205
1146.0, 0.024564205419639145
1147.0, 0.01781226619648175
1148.0, 0.01061674280754083
1149.0, 0.02269557418303265
1150.0, 0.036700585586393976
1151.0, 0.023264374531420936
1152.0, 0.016697178053138514
1153.0, 0.025008223534872222
1154.0, 0.02013227077266802
1155.0, 0.015346202007425924
1156.0, 0.013828156711796808
1157.0, 0.010083834327561545
1158.0, 0.020502379286695228
1159.0, 0.019730286878818757
1160.0, 0.003856638333105222
1161.0, 0.0016251333221940004
1162.0, 0.02254352148365772
1163.0, 0.01721558984462401
1164.0, 0.014150251084293233
1165.0, 0.022467008376492785
1166.0, 0.028338151229078897
1167.0, 0.024766357946662522
1168.0, 0.02089432861799298
1169.0, 0.013514297429693505
1170.0, 0.008146861373246208
1171.0, 0.018866941817496697
1172.0, 0.006895911220318657
1173.0, 0.021357518034503226
1174.0, 0.02515009812976137
1175.0, 0.021799562755970583
1176.0, 0.00963740328712023
1177.0, 0.005606665088503409
1178.0, 0.008821399902779635
1179.0, 0.0300985919621325
1180.0, 0.021428585961534664
1181.0, 0.01612262432051436
1182.0, 0.004913492975919452
1183.0, 0.003653069778943304
1184.0, 0.01651929469937974
1185.0, 0.031078302263166817
1186.0, 0.01526871370065723
1187.0, 0.0010903142237378282
1188.0, 0.009424224392564587
1189.0, 0.03591201479895367
1190.0, 0.024643627245083028
1191.0, 0.017438508316548574
1192.0, 0.0019114390024435489
1193.0, 0.01628281983678879
1194.0, 0.030881667221104265
1195.0, 0.0035540221166726208
1196.0, 0.016116807779481972
1197.0, 0.007393526841564636
1198.0, 0.018919811305640036
1199.0, 0.0298769033869899
1200.0, 0.019587844761816624
1201.0, 0.005263280112186141
1202.0, 0.009725873175490155
1203.0, 0.01782344681013803
1204.0, 0.009868426273196817
1205.0, 0.009767754759110835
1206.0, 0.024011003779054064
1207.0, 0.02085461839800004
1208.0, 0.008068570332286973
1209.0, 0.021459257495540274
1210.0, 0.009678105886381468
1211.0, 0.0009353586511100445
1212.0, 0.0013550914976765294
1213.0, 0.012397848395409725
1214.0, 0.004022711465001548
1215.0, 0.010437554985102716
1216.0, 0.011090721907722357
1217.0, 0.01680822202758261
1218.0, 0.02023117265566824
1219.0, 0.018160485904196527
1220.0, 0.015869357690317287
1221.0, 0.018532625091357644
1222.0, 0.019054705392295045
1223.0, 0.016864924775789773
1224.0, 0.013592389879343806
1225.0, 0.0011688271868289827
1226.0, 0.019180659802994136
1227.0, 0.016543662230099593
1228.0, 0.00822549615831044
1229.0, 0.006168075461649725
1230.0, 0.01682564416816343
1231.0, 0.01530501790336656
1232.0, 0.015775412412812963
1233.0, 0.02120880638649309
1234.0, 0.019100629420267915
1235.0, 0.011527682240316922
1236.0, 0.01673996054569907
1237.0, 0.013406713385158345
1238.0, 0.01916103071837651
1239.0, 0.02397037328383216
1240.0, 0.011323651346865598
1241.0, 0.0068795993130179945
1242.0, 0.012814685195614774
1243.0, 0.013546618150320698
1244.0, 0.014086186706258337
1245.0, 0.009377717128551859
1246.0, 0.007196096668348949
1247.0, 0.003316822200894035
1248.0, 0.00397043161662189
1249.0, 0.010620355127509584
1250.0, 0.0014940808678145109
1251.0, 0.016218568231210807
1252.0, 0.007023449289504781
1253.0, 0.01827980644216013
1254.0, 0.014379319036070417
1255.0, 0.011163658455790999
1256.0, 0.007128617808589812
1257.0, 0.012084410392847585
1258.0, 0.004182386576252092
1259.0, 0.015520976978359588
1260.0, 0.014193861709102955
1261.0, 0.0009963622896420007
1262, 0.0
1263, 0.0
1264, 0.0
1265, 0.0
1266, 0.0
1267, 0.0
1268, 0.0
1269, 0.0
1270, 0.0
1271, 0.0
1272, 0.0
1273, 0.0
1274, 0.0
1275, 0.0
1276, 0.0
1277, 0.0
1278, 0.0
1279, 0.0
1280, 0.0
1281, 0.0
1282, 0.0
1283, 0.0
1284, 0.0
1285, 0.0
1286, 0.0
1287, 0.0
1288, 0.0
1289, 0.0
1290, 0.0
1291, 0.0
1292, 0.0
1293, 0.0
1294, 0.0
1295, 0.0
1296, 0.0
1297, 0.0
1298, 0.0
1299, 0.0
1300, 0.0
1301, 0.0
1302, 0.0
1303, 0.0
1304, 0.0
1305, 0.0
1306, 0.0
1307, 0.0
1308, 0.0
1309, 0.0
1310, 0.0
1311, 0.0
1312, 0.0
1313, 0.0
1314, 0.0
1315, 0.0
1316, 0.0
1317, 0.0
1318, 0.0
1319, 0.0
1320, 0.0
1321, 0.0
1322, 0.0
1323, 0.0
1324, 0.0
1325, 0.0
1326, 0.0
1327, 0.0
1328, 0.0
1329, 0.0
1330, 0.0
1331, 0.0
1332, 0.0
1333, 0.0
1334, 0.0
1335, 0.0
1336, 0.0
1337, 0.0
1338, 0.0
1339, 0.0
1340, 0.0
1341, 0.0
1342, 0.0
1343, 0.0
1344, 0.0
1345, 0.0
1346, 0.0
1347, 0.0
1348, 0.0
1349, 0.0
1350, 0.0
1351, 0.0
1352, 0.0
1353, 0.0
1354, 0.0
1355, 0.0
1356, 0.0
1357, 0.0
1358, 0.0
1359, 0.0
1360, 0.0
1361, 0.0
1362, 0.0
1363, 0.0
1364, 0.0
1365, 0.0
1366, 0.0
1367, 0.0
1368, 0.0
1369, 0.0
1370, 0.0
1371, 0.0
1372, 0.0
1373, 0.0
1374, 0.0
1375, 0.0
1376, 0.0
1377, 0.0
1378, 0.0
1379, 0.0
1380, 0.0
1381, 0.0
1382, 0.0
1383, 0.0
1384, 0.0
1385, 0.0
1386, 0.0
1387, 0.0
1388, 0.0
1389, 0.0
1390, 0.0
1391, 0.0
1392, 0.0
1393, 0.0
1394, 0.0
1395, 0.0
1396, 0.0
1397, 0.0
1398, 0.0
1399, 0.0
1400, 0.0
1401, 0.0
1402, 0.0
1403, 0.0
1404, 0.0
1405, 0.0
1406, 0.0
1407, 0.0
1408, 0.0
1409, 0.0
1410, 0.0
1411, 0.0
1412, 0.0
1413, 0.0
1414, 0.0
1415, 0.0
1416, 0.0
1417, 0.0
1418, 0.0
1419, 0.0
1420, 0.0
1421, 0.0
1422, 0.0
1423, 0.0
1424, 0.0
1425, 0.0
1426, 0.0
1427, 0.0
1428, 0.0
1429, 0.0
1430, 0.0
1431, 0.0
1432, 0.0
1433, 0.0
1434, 0.0
1435, 0.0
1436, 0.0
1437, 0.0
1438, 0.0
1439, 0.0
1440, 0.0
1441, 0.0
1442, 0.0
1443, 0.0
1444, 0.0
1445, 0.0
1446, 0.0
1447, 0.0
1448, 0.0
1449, 0.0
1450, 0.0
1451, 0.0
1452, 0.0
1453, 0.0
1454, 0.0
1455, 0.0
1456, 0.0
1457, 0.0
1458, 0.0
1459, 0.0
1460, 0.0
1461, 0.0
1462, 0.0
1463, 0.0
1464, 0.0
1465, 0.0
1466, 0.0
1467, 0.0
1468, 0.0
1469, 0.0
1470, 0.0
1471, 0.0
1472, 0.0
1473, 0.0
1474, 0.0
1475, 0.0
1476, 0.0
1477, 0.0
1478, 0.0
1479, 0.0
1480, 0.0
1481, 0.0
1482, 0.0
1483, 0.0
1484, 0.0
1485, 0.0
1486, 0.0
1487, 0.0
1488, 0.0
1489, 0.0
1490, 0.0
1491, 0.0
1492, 0.0
1493, 0.0
1494, 0.0
1495, 0.0
1496, 0.0
1497, 0.0
1498, 0.0
1499, 0.0
1500, 0.0
1501, 0.0
1502, 0.0
1503, 0.0
1504, 0.0
1505, 0.0
1506, 0.0
1507, 0.0
1508, 0.0
1509, 0.0
1510, 0.0
1511, 0.0
1512, 0.0
1513, 0.0
1514, 0.0
1515, 0.0
1516, 0.0
1517, 0.0
1518, 0.0
1519, 0.0
1520, 0.0
1521, 0.0
1522, 0.0
1523, 0.0
1524, 0.0
1525, 0.0
1526, 0.0
1527, 0.0
1528, 0.0
1529, 0.0
1530, 0.0
1531, 0.0
1532, 0.0
1533, 0.0
1534, 0.0
1535, 0.0
1536, 0.0
1537, 0.0
1538, 0.0
1539, 0.0
1540, 0.0
1541, 0.0
1542, 0.0
1543, 0.0
1544, 0.0
1545, 0.0
1546, 0.0
1547, 0.0
1548, 0.0
1549, 0.0
1550, 0.0
1551, 0.0
1552, 0.0
1553, 0.0
1554, 0.0
1555, 0.0
1556, 0.0
1557, 0.0
1558, 0.0
1559, 0.0
1560, 0.0
1561, 0.0
1562, 0.0
1563, 0.0
1564, 0.0
1565, 0.0
1566, 0.0
1567, 0.0
1568, 0.0
1569, 0.0
1570, 0.0
1571, 0.0
1572, 0.0
1573, 0.0
1574, 0.0
1575, 0.0
1576, 0.0
1577, 0.0
1578, 0.0
1579, 0.0
1580, 0.0
1581, 0.0
1582, 0.0
1583, 0.0
1584, 0.0
1585, 0.0
1586, 0.0
1587, 0.0
1588, 0.0
1589, 0.0
1590, 0.0
1591, 0.0
1592, 0.0
1593, 0.0
1594, 0.0
1595, 0.0
1596, 0.0
1597, 0.0
1598, 0.0
1599, 0.0
