30, 0.0
31, 0.0
32, 0.0
33, 0.0
34, 0.0
35, 0.0
36, 0.0
37, 0.0
38, 0.0
39, 0.0
40, 0.0
41, 0.0
42, 0.0
43, 0.0
44, 0.0
45, 0.0
46, 0.0
47, 0.0
48, 0.0
49, 0.0
50, 0.0
51, 0.0
52, 0.0
53, 0.0
54, 0.0
55, 0.0
56, 0.0
57, 0.0
58, 0.0
59, 0.0
60, 0.0
61, 0.0
62, 0.0
63, 0.0
64, 0.0
65, 0.0
66, 0.0
67, 0.0
68, 0.0
69, 0.0
70, 0.0
71, 0.0
72, 0.0
73, 0.0
74, 0.0
75, 0.0
76, 0.0
77, 0.0
78, 0.0
79, 0.0
80, 0.0
81, 0.0
82, 0.0
83, 0.0
84, 0.0
85, 0.0
86, 0.0
87, 0.0
88, 0.0
89, 0.0
90, 0.0
91, 0.0
92, 0.0
93, 0.0
94, 0.0
95, 0.0
96, 0.0
97, 0.0
98, 0.0
99, 0.0
100, 0.0
101, 0.0
102, 0.0
103, 0.0
104, 0.0
105, 0.0
106, 0.0
107, 0.0
108, 0.0
109, 0.0
110, 0.0
111, 0.0
112, 0.0
113, 0.0
114, 0.0
115, 0.0
116, 0.0
117, 0.0
118, 0.0
119, 0.0
120, 0.0
121, 0.0
122, 0.0
123, 0.0
124, 0.0
125, 0.0
126, 0.0
127, 0.0
128, 0.0
129, 0.0
130, 0.0
131, 0.0
132, 0.0
133, 0.0
134, 0.0
135, 0.0
136, 0.0
137, 0.0
138, 0.0
139, 0.0
140, 0.0
141, 0.0
142, 0.0
143, 0.0
144, 0.0
145, 0.0
146, 0.0
147, 0.0
148, 0.0
149, 0.0
150, 0.0
151, 0.0
152, 0.0
153, 0.0
154, 0.0
155, 0.0
156, 0.0
157, 0.0
158, 0.0
159, 0.0
160, 0.0
161, 0.0
162, 0.0
163, 0.0
164, 0.0
165, 0.0
166, 0.0
167, 0.0
168, 0.0
169, 0.0
170, 0.0
171, 0.0
172, 0.0
173, 0.0
174, 0.0
175, 0.0
176, 0.0
177, 0.0
178, 0.0
179, 0.0
180, 0.0
181, 0.0
182, 0.0
183, 0.0
184, 0.0
185, 0.0
186, 0.0
187, 0.0
188, 0.0
189, 0.0
190, 0.0
191, 0.0
192, 0.0
193, 0.0
194, 0.0
195, 0.0
196.0, 0.00034733597509420074
197.0, 0.0012113558136370172
198.0, 0.0020753756521798335
199.0, 0.002623629770497914
200.0, 0.003130448568062517
201.0, 0.00316732971344319
202.0, 0.002386648094065552
203.0, 0.0016059664746879139
204.0, 0.0009919148406435097
205.0, 0.00040819537887016596
206.0, 8.731658860193053e-05
207.0, 0.00030494063751488557
208.0, 0.0005225646864278405
209.0, 0.000828360664975258
210.0, 0.0011549735020643104
211.0, 0.0014760693227772485
212.0, 0.0017836579654659061
213.0, 0.0020912466081545638
214.0, 0.0022014965266022447
215.0, 0.0022534650601704633
216.0, 0.0022342115185718567
217.0, 0.0020046698736150594
218.0, 0.0017751282286582624
219.0, 0.0016716268273690505
220.0, 0.0016138021356378444
221.0, 0.0015894490214918879
222.0, 0.0016865853370997951
223.0, 0.0017837216527077022
224.0, 0.0017970467037102594
225.0, 0.0017739373025242647
226.0, 0.0018653539108275143
227.0, 0.002482054618519972
228.0, 0.0030987553262124294
229.0, 0.0031702112225669024
230.0, 0.002960783428232107
231.0, 0.002720386895276832
232.0, 0.0022913226568251448
233.0, 0.0018622584183734577
234.0, 0.0017456867333156473
235.0, 0.0018182156784817475
236.0, 0.0018709543808797015
237.0, 0.001753192530198264
238.0, 0.0016354306795168265
239.0, 0.0015950640131037355
240.0, 0.001609601622710068
241.0, 0.0015807068275140003
242.0, 0.0009469995893233864
243.0, 0.00031329235113277233
244.0, 0.00022129327299140868
245.0, 0.0005761045750366497
246.0, 0.0009274363073324024
247.0, 0.0011622624456021692
248.0, 0.0013970885838719361
249.0, 0.0016797067258044474
250.0, 0.002008059290028705
251.0, 0.0023364118542529622
252.0, 0.0029326389458636214
253.0, 0.003531026315920947
254.0, 0.004232767981730438
255.0, 0.0050492023892395954
256.0, 0.005865636796748752
257.0, 0.006687784068125715
258.0, 0.007510200532040952
259.0, 0.008472751964290794
260.0, 0.009616578906037707
261.0, 0.010760405847784621
262.0, 0.012387821951133457
263.0, 0.014058434471967429
264.0, 0.01594324644001715
265.0, 0.018150699680690087
266.0, 0.02035815292136303
267.0, 0.02250549985511066
268.0, 0.024644650474277573
269.0, 0.02778936879949018
270.0, 0.03270633076132459
271.0, 0.037623292723158994
272.0, 0.04466508474874109
273.0, 0.05210260431881707
274.0, 0.060244864637659025
275.0, 0.06985750997553117
276.0, 0.0794701553134033
277.0, 0.09115630035762072
278.0, 0.10334152597631832
279.0, 0.11671695041332741
280.0, 0.1330492102421699
281.0, 0.14938147007101238
282.0, 0.16780408921372925
283.0, 0.18685463163538624
284.0, 0.2057522432036727
285.0, 0.2241910622118476
286.0, 0.2426298812200225
287.0, 0.2575223925223857
288.0, 0.27110990139949115
289.0, 0.2830797673890348
290.0, 0.28907270871890217
291.0, 0.29506565004876956
292.0, 0.2932255451978993
293.0, 0.2879316764690672
294.0, 0.28055198830914396
295.0, 0.26333915140264913
296.0, 0.2461263144961543
297.0, 0.22555005729221947
298.0, 0.20321785920240643
299.0, 0.18093715811727515
300.0, 0.15897812672805484
301.0, 0.13701909533883455
302.0, 0.11741842975438407
303.0, 0.09926321417930865
304.0, 0.08189888687709573
305.0, 0.07157424826105505
306.0, 0.06124960964501438
307.0, 0.05279183438728198
308.0, 0.04567486477177102
309.0, 0.038802440692012254
310.0, 0.03550649507262797
311.0, 0.032210549453243684
312.0, 0.02816021004969592
313.0, 0.023480055652030048
314.0, 0.01887415703400559
315.0, 0.017049994161008195
316.0, 0.0152258312880108
317.0, 0.013049157033083309
318.0, 0.010531074116916412
319.0, 0.008012991200749515
320.0, 0.007174268665136795
321.0, 0.00635422455640591
322.0, 0.005619707045287036
323.0, 0.004981634420837015
324.0, 0.004343561796386994
325.0, 0.003040850890175665
326.0, 0.0017046288100940176
327.0, 0.0008747705935827787
328.0, 0.0007079800690910099
329.0, 0.0005411895445992411
330.0, 0.0005791188760628921
331.0, 0.0006363106885026581
332.0, 0.0008119640158265643
333.0, 0.001168301067872734
334.0, 0.0015246381199189036
335.0, 0.0013475044245305893
336.0, 0.001095551000596738
337.0, 0.0008092829276463568
338.0, 0.00046147852880599826
339.0, 0.00011367412996563978
340.0, 0.0006660650837164034
341.0, 0.0013899218189131269
342.0, 0.0018611559054195685
343.0, 0.0017980261960983443
344.0, 0.00173489648677712
345.0, 0.0014631108277183402
346.0, 0.00114013560191199
347.0, 0.001132961004419809
348.0, 0.001921959821973241
349.0, 0.0027109586395266732
350.0, 0.0022426960744959174
351.0, 0.001388215960566722
352.0, 0.0007585846007651045
353.0, 0.00081442332945763
354.0, 0.0008702620581501556
355.0, 0.0009117626814559045
356.0, 0.0009479062104413196
357.0, 0.0009371487800714517
358.0, 0.0007488858049646075
359.0, 0.000560622829857763
360.0, 0.000488885187873804
361.0, 0.0004692551116423425
362.0, 0.0004569954352745895
363.0, 0.00048021652104142637
364.0, 0.0005034376068082633
365.0, 0.00039594772696509946
366.0, 0.0002193049509429433
367.0, 0.00018929214595515245
368.0, 0.001098797303520961
369.0, 0.0020083024610867695
370.0, 0.0018427105733211943
371.0, 0.0010069283196347146
372.0, 0.00028620865122604876
373.0, 0.0006245344105783283
374.0, 0.0009628601699306078
375.0, 0.0010389318879921528
376.0, 0.0009243145708492149
377.0, 0.0007981826343846136
378.0, 0.0004916549952139631
379.0, 0.0001851273560433126
380.0, 0.00011619884074908175
381.0, 0.0002480459688781202
382.0, 0.0003761902226984983
383.0, 0.0003470428156685613
384.0, 0.0003178954086386242
385.0, 0.00032638076471760524
386.0, 0.0003719015384593284
387.0, 0.0004174223122010515
388.0, 0.0006874187085510502
389.0, 0.0009606023855466047
390.0, 0.001059347716170741
391.0, 0.0009590017435486849
392.0, 0.0008586557709266289
393.0, 0.000704433573450094
394.0, 0.000547256140011076
395.0, 0.0005095227335769152
396.0, 0.0006301221071259336
397.0, 0.0007507214806749518
398.0, 0.0010657815612061408
399.0, 0.0013998394495544682
400.0, 0.0020952440873226058
401.0, 0.0033487593533295477
402.0, 0.00460227461933649
403.0, 0.006228008673823035
404.0, 0.00790740356051601
405.0, 0.009553456642355233
406.0, 0.011138930951995394
407.0, 0.012724405261635555
408.0, 0.015519866388573424
409.0, 0.018550964135845272
410.0, 0.021396293856833327
411.0, 0.02384321542082276
412.0, 0.026290136984812192
413.0, 0.030516739385018074
414.0, 0.035191046225874205
415.0, 0.040137763770422726
416.0, 0.04578150372050439
417.0, 0.05142524367058607
418.0, 0.058640755730603136
419.0, 0.0663471887383428
420.0, 0.07539611698322798
421.0, 0.08862722174876825
422.0, 0.10185832651430848
423.0, 0.11936438510244252
424.0, 0.1384919778991464
425.0, 0.15888469661966925
426.0, 0.18415367739607627
427.0, 0.2094226581724833
428.0, 0.23770463589630922
429.0, 0.2673529727009415
430.0, 0.2970581548106159
431.0, 0.3270428543669773
432.0, 0.3570275539233386
433.0, 0.3819597971590156
434.0, 0.4041714869912469
435.0, 0.4245192907325968
436.0, 0.4326106313914854
437.0, 0.44070197205037404
438.0, 0.43669633974539923
439.0, 0.42505362989227574
440.0, 0.4116519784325026
441.0, 0.38129712382778586
442.0, 0.3509422692230691
443.0, 0.31627097375095986
444.0, 0.2784222981959093
445.0, 0.2409048138629598
446.0, 0.20886651062547035
447.0, 0.1768282073879809
448.0, 0.15099477093833014
449.0, 0.1304896773436632
450.0, 0.11014212319942479
451.0, 0.0975140021261893
452.0, 0.08488588105295382
453.0, 0.07420051531280135
454.0, 0.06545014939542036
455.0, 0.05669978347803936
456.0, 0.05083484952575869
457.0, 0.04501981622801177
458.0, 0.04047635250767301
459.0, 0.037401770885374684
460.0, 0.03432718926307637
461.0, 0.03196703682996553
462.0, 0.02964846493167514
463.0, 0.026833659968667413
464.0, 0.02335294974551213
465.0, 0.01987223952235684
466.0, 0.018053733076859705
467.0, 0.016403643754208958
468.0, 0.015100441957402422
469.0, 0.01434209434643343
470.0, 0.013583746735464437
471.0, 0.011691680380973471
472.0, 0.009631703902585423
473.0, 0.007604711013290604
474.0, 0.005638437913008328
475.0, 0.0036721648127260526
476.0, 0.0026053767478199014
477.0, 0.0017189176155761553
478.0, 0.0009850579066499104
479.0, 0.0005830413881125211
480.0, 0.0001810248695751317
481.0, 0.00011301724264958606
482.0, 0.00013060988442858734
483.0, 0.00013413345149625058
484.0, 0.00010093520984081609
485.0, 6.77369681853816e-05
486.0, 0.0005978737062526541
487.0, 0.0013068822890012991
488.0, 0.0017102286110289005
489.0, 0.0011456444407732453
490.0, 0.0005810602705175902
491.0, 0.00036703134081335256
492.0, 0.0002879807447286493
493.0, 0.00022792171710672336
494.0, 0.00024242564546921074
495.0, 0.0002569295738316981
496.0, 0.0005325779939738572
497.0, 0.0009288721149966687
498.0, 0.0013987920363407705
499.0, 0.0022386150749617246
500.0, 0.0030784381135826786
501.0, 0.0034809551804572685
502.0, 0.003644880272020464
503.0, 0.0037455734194947305
504.0, 0.0034154989478631117
505.0, 0.0030854244762314933
506.0, 0.002940385350852311
507.0, 0.0029136475124214014
508.0, 0.0029177653238887835
509.0, 0.003230100561263244
510.0, 0.0035424357986377046
511.0, 0.0036618255306313913
512.0, 0.00363743213732386
513.0, 0.0035908465613991736
514.0, 0.0031554868233292926
515.0, 0.0027201270852594125
516.0, 0.002607086965663147
517.0, 0.0027741938041794985
518.0, 0.00293732990301408
519.0, 0.002856265511419227
520.0, 0.0027752011198243737
521.0, 0.0025338716934905185
522.0, 0.002130989963062359
523.0, 0.0017281082326341991
524.0, 0.0016194838932401877
525.0, 0.0015171715101400523
526.0, 0.001205706540962565
527.0, 0.0006497009125753455
528.0, 9.369528418812581e-05
529.0, 0.0002967013084092618
530.0, 0.0005464405341710336
531.0, 0.000700681474114398
532.0, 0.0007246564308019218
533.0, 0.0007486313874894455
534.0, 0.0005836128466113479
535.0, 0.0003987552093037036
536.0, 0.00026806564165097785
537.0, 0.00022353979101411895
538.0, 0.00017901394037726009
539.0, 0.0009113279750881424
540.0, 0.0017628112194314166
541.0, 0.002333361163642879
542.0, 0.0023798779319638766
543.0, 0.002426394700284874
544.0, 0.0018919253704165469
545.0, 0.0012384588879070673
546.0, 0.0009129156367721592
547.0, 0.0013104851522580613
548.0, 0.001708054667743963
549.0, 0.0019208679617805128
550.0, 0.0020854535914538665
551.0, 0.00211641750194785
552.0, 0.0017933326236672983
553.0, 0.0014702477453867467
554.0, 0.0026933838787933737
555.0, 0.004415564888988002
556.0, 0.005670195748042918
557.0, 0.005419591310390375
558.0, 0.005168986872737833
559.0, 0.004817880273328229
560.0, 0.0044273006800251745
561.0, 0.004118327623677557
562.0, 0.004135780715151595
563.0, 0.004153233806625634
564.0, 0.004535572178503201
565.0, 0.005088833317559481
566.0, 0.005621562945195118
567.0, 0.006048086359432633
568.0, 0.006474609773670149
569.0, 0.007096588118126097
570.0, 0.007826612976802167
571.0, 0.008554481102510836
572.0, 0.009267252097447684
573.0, 0.009980023092384532
574.0, 0.01064105268888877
575.0, 0.011268582500246356
576.0, 0.011879657358337833
577.0, 0.012320199064398674
578.0, 0.012760740770459513
579.0, 0.014019007960410989
580.0, 0.01589667705468043
581.0, 0.017798069168474026
582.0, 0.020140895508314733
583.0, 0.02248372184815544
584.0, 0.025780640970467214
585.0, 0.02991687479615566
586.0, 0.03406810523144988
587.0, 0.03935792441142575
588.0, 0.04464774359140161
589.0, 0.05010347415505134
590.0, 0.05572846784749965
591.0, 0.06135346153994796
592.0, 0.06700683954114525
593.0, 0.07266091551714784
594.0, 0.07682827824830382
595.0, 0.0792291523756267
596.0, 0.08163002650294955
597.0, 0.07954823553300491
598.0, 0.0771752384172312
599.0, 0.07246627134720046
600.0, 0.0645314410070047
601.0, 0.05659661066680893
602.0, 0.047763252943377826
603.0, 0.03883116690591747
604.0, 0.03105038189813184
605.0, 0.02512430377104904
606.0, 0.019198225643966244
607.0, 0.01538108938469974
608.0, 0.011895916197219041
609.0, 0.009066875662031194
610.0, 0.007478039619905537
611.0, 0.00588920357777988
612.0, 0.005518600074776853
613.0, 0.0054028384451332186
614.0, 0.005031241268039362
615.0, 0.004084844744076807
616.0, 0.0031384482201142518
617.0, 0.002590978785601535
618.0, 0.0021495532609425963
619.0, 0.0017130919964955204
620.0, 0.0012899847752013906
621.0, 0.0008668775539072609
622.0, 0.0006509234059896099
623.0, 0.000503285697164219
624.0, 0.0004125005980285315
625.0, 0.0005078227596719197
626.0, 0.0006031449213153079
627.0, 0.0006634315368779174
628.0, 0.0007097529347719667
629.0, 0.0006912428798887137
630.0, 0.00040679155953126435
631.0, 0.00012234023917381506
632.0, 0.0005840434430323328
633.0, 0.001400115019748586
634.0, 0.001959467039498258
635.0, 0.0011609502076195784
636.0, 0.000362433375740899
637.0, 0.00017828946031736
638.0, 0.00033823271651227805
639.0, 0.0004961011759864217
640.0, 0.000639037901683183
641.0, 0.0007819746273799444
642.0, 0.0008481657562468512
643.0, 0.0008638295187100128
644.0, 0.000853597704999757
645.0, 0.0005646076301287276
646.0, 0.00027561755525769814
647.0, 0.00024265099130166984
648.0, 0.0004059992749376849
649.0, 0.000560173736851142
650.0, 0.0005283343242626253
651.0, 0.0004964949116741087
652.0, 0.0008401165222156436
653.0, 0.0015180332970185337
654.0, 0.0021925305624061085
655.0, 0.002528496395677162
656.0, 0.0028644622289482153
657.0, 0.0030142743439872284
658.0, 0.002971878961339471
659.0, 0.002929483578691714
660.0, 0.0031908244772135825
661.0, 0.003460593823414376
662.0, 0.0033233230261662293
663.0, 0.0026965281797481154
664.0, 0.0020697333333300014
665.0, 0.003171558714917276
666.0, 0.004393555556205568
667.0, 0.005050627030392908
668.0, 0.00491788678031211
669.0, 0.004785146530231312
670.0, 0.004100857446398682
671.0, 0.003353920276772431
672.0, 0.002694321610326011
673.0, 0.0021772226069624737
674.0, 0.0016601236035989364
675.0, 0.0018560274104193937
676.0, 0.0021670385234135833
677.0, 0.002417671972248118
678.0, 0.0025521402075824907
679.0, 0.0026866084429168634
680.0, 0.002754591786862692
681.0, 0.0028083744743954294
682.0, 0.002830603907640673
683.0, 0.0027809333024275116
684.0, 0.0027312626972143504
685.0, 0.002685856061123928
686.0, 0.002641610353013488
687.0, 0.0026201231969515764
688.0, 0.0026607974591714564
689.0, 0.002701471721391337
690.0, 0.003204020312998656
691.0, 0.0038613492205956056
692.0, 0.00435842152310114
693.0, 0.004321998893505799
694.0, 0.004285576263910458
695.0, 0.003401077851152567
696.0, 0.0021735375485760983
697.0, 0.0012075985302753716
698.0, 0.001335505296485247
699.0, 0.0014634120626951224
700.0, 0.0015350932287667256
701.0, 0.0015797028095865622
702.0, 0.0016032406292777258
703.0, 0.0015127748182470497
704.0, 0.0014223090072163738
705.0, 0.0013067838754106027
706.0, 0.0011769784713263989
707.0, 0.001021139121772472
708.0, 0.0006725610666822447
709.0, 0.0003239830115920172
710.0, 0.0004788298906497059
711.0, 0.0009692933924726401
712.0, 0.0014337761868866363
713.0, 0.0016034902145252218
714.0, 0.001773204242163807
715.0, 0.0015060959499548776
716.0, 0.0008999266386102942
717.0, 0.0003253266205349145
718.0, 0.0004366412471270617
719.0, 0.0005479558737192089
720.0, 0.000644615563241152
721.0, 0.0007280160239852905
722.0, 0.0008116678900794216
723.0, 0.0009309834008227857
724.0, 0.00105029891156615
725.0, 0.0009986956648761855
726.0, 0.0007677678202234252
727.0, 0.0005368399755706649
728.0, 0.00041266578689459424
729.0, 0.0002919068338586389
730.0, 0.00037647060717123766
731.0, 0.0007109726881675312
732.0, 0.0010454747691638247
733.0, 0.001599990848088928
734.0, 0.0021705594504680603
735.0, 0.002191393354320191
736.0, 0.0014341003660543507
737.0, 0.0006768073777885103
738.0, 0.0006181994593610534
739.0, 0.0006415601804118584
740.0, 0.0006820891930287701
741.0, 0.0007511102639894365
742.0, 0.0008201313349501028
743.0, 0.0015275354819572363
744.0, 0.0023405927720863253
745.0, 0.002774423252790908
746.0, 0.002468817388275618
747.0, 0.0021632115237603285
748.0, 0.0019448289603043929
749.0, 0.0017455929751297727
750.0, 0.0017804637671081697
751.0, 0.0023564157857514333
752.0, 0.0029323678043946966
753.0, 0.002751868079572291
754.0, 0.00236172591754422
755.0, 0.002276179198141596
756.0, 0.003035453800737911
757.0, 0.0037947284033342256
758.0, 0.003954353987214942
759.0, 0.003909809529870754
760.0, 0.003887288066873807
761.0, 0.003939761205772976
762.0, 0.003992234344672144
763.0, 0.0034862819644513837
764.0, 0.002751130957906305
765.0, 0.0021391807286618696
766.0, 0.0020524548658042018
767.0, 0.0019657290029465343
768.0, 0.0024331577001824012
769.0, 0.0031722955632464836
770.0, 0.003856720928341495
771.0, 0.004238260765463981
772.0, 0.004619800602586467
773.0, 0.004875004190336318
774.0, 0.0050572754953253155
775.0, 0.005177645150764926
776.0, 0.004821641242281047
777.0, 0.0044656373337971685
778.0, 0.004389461260176434
779.0, 0.0045021806931718755
780.0, 0.004596345437813073
781.0, 0.0044711842508822425
782.0, 0.004346023063951412
783.0, 0.004298928464999377
784.0, 0.004313171899459268
785.0, 0.004303937474342336
786.0, 0.0037455501874170813
787.0, 0.0031871629004918264
788.0, 0.002891269283236752
789.0, 0.0028357434324612217
790.0, 0.002778236278806955
791.0, 0.0022273847083497016
792.0, 0.0016765331378924481
793.0, 0.0012500222381435062
794.0, 0.000955543184610599
795.0, 0.0006610641310776919
796.0, 0.0010901082219457881
797.0, 0.0015446179307327538
798.0, 0.002575688612214124
799.0, 0.004317164777908302
800.0, 0.00605864094360248
801.0, 0.006813747141376164
802.0, 0.007493468766789908
803.0, 0.008175041115441982
804.0, 0.008859276699973603
805.0, 0.009543512284505224
806.0, 0.009677201079164902
807.0, 0.00974423174231546
808.0, 0.010309489323337947
809.0, 0.01171224898882595
810.0, 0.013115008654313953
811.0, 0.01301942451208607
812.0, 0.012667683231771013
813.0, 0.012554025071178221
814.0, 0.012910864504322257
815.0, 0.013267703937466293
816.0, 0.013084366983146009
817.0, 0.012780035807398595
818.0, 0.0128070999678795
819.0, 0.01361111439824695
820.0, 0.0144151288286144
821.0, 0.014605828599889037
822.0, 0.014623542185265672
823.0, 0.014171571312919452
824.0, 0.012389727589012882
825.0, 0.010607883865106313
826.0, 0.009807413366167916
827.0, 0.009346394978692173
828.0, 0.008517121570992197
829.0, 0.0064121075575157595
830.0, 0.004307093544039322
831.0, 0.003871528404583905
832.0, 0.00413452697837119
833.0, 0.004222367697545755
834.0, 0.00354869325201374
835.0, 0.002875018806481725
836.0, 0.0021817060977670243
837.0, 0.0014786330546561388
838.0, 0.0010378665865686087
839.0, 0.0020952403556949973
840.0, 0.003152614124821386
841.0, 0.0029674842617423095
842.0, 0.002055755602650757
843.0, 0.0012055530364843026
844.0, 0.0008431644927955777
845.0, 0.0004807759491068527
846.0, 0.0011331314604657182
847.0, 0.00247906624177279
848.0, 0.0037273234848724805
849.0, 0.0037708910900819273
850.0, 0.0038144586952913737
851.0, 0.0036717770881391607
852.0, 0.0033803640955758617
853.0, 0.0030897880561993477
854.0, 0.0028204001474987864
855.0, 0.0025510122387982256
856.0, 0.0022947094039928242
857.0, 0.002050533583722244
858.0, 0.0018063577634516632
859.0, 0.0015496414473367688
860.0, 0.0012929251312218742
861.0, 0.0012049451917121054
862.0, 0.0012983043457323474
863.0, 0.0013916634997525896
864.0, 0.0008835813556491887
865.0, 0.0003523908750654178
866.0, 0.0001697946518167809
867.0, 0.0004219620528849087
868.0, 0.0006741294539530365
869.0, 0.002988007422712197
870.0, 0.005466644119342888
871.0, 0.008310091567210917
872.0, 0.011685069175972574
873.0, 0.015060046784734233
874.0, 0.01995873009366857
875.0, 0.025049592499921922
876.0, 0.03083891919985703
877.0, 0.03781752294038537
878.0, 0.04479612668091372
879.0, 0.05311835185392644
880.0, 0.06167582919314383
881.0, 0.07266652559756392
882.0, 0.08853096709654984
883.0, 0.10439540859553575
884.0, 0.1259474612182426
885.0, 0.14879913996995722
886.0, 0.1725587436334388
887.0, 0.19848813395046552
888.0, 0.22441752426749226
889.0, 0.25136028927222664
890.0, 0.27859389411654756
891.0, 0.3043883623266447
892.0, 0.32604391820110684
893.0, 0.34769947407556906
894.0, 0.36146639916434786
895.0, 0.37244721784573426
896.0, 0.3786238834296359
897.0, 0.3678664528011366
898.0, 0.35710902217263735
899.0, 0.3359691767946111
900.0, 0.31042198156564593
901.0, 0.2862224964169355
902.0, 0.2680398371456464
903.0, 0.2498571778743573
904.0, 0.2470286952904911
905.0, 0.2519350235190873
906.0, 0.2604912989138697
907.0, 0.2903972652670359
908.0, 0.32030323162020213
909.0, 0.36714586295718815
910.0, 0.42402104106802746
911.0, 0.4821335180761127
912.0, 0.5503600622167274
913.0, 0.6185866063573421
914.0, 0.6883897515785649
915.0, 0.7592885009405489
916.0, 0.8294622753152213
917.0, 0.8902919276312116
918.0, 0.9511215799472017
919.0, 0.9830735396152425
920.0, 0.991683132893349
921.0, 0.9975268437980973
922.0, 0.9247869555068279
923.0, 0.8520470672155583
924.0, 0.760268380033979
925.0, 0.6506315946684629
926.0, 0.5409948093029466
927.0, 0.4601071420830278
928.0, 0.3793059817381721
929.0, 0.31534024281524436
930.0, 0.2696861000526987
931.0, 0.22403195729015307
932.0, 0.19500646810504696
933.0, 0.1666738394856668
934.0, 0.14251781933969052
935.0, 0.12365595823369716
936.0, 0.1047940971277038
937.0, 0.09197932031972816
938.0, 0.07967611897297291
939.0, 0.06822374917128696
940.0, 0.05802656650044582
941.0, 0.047829383829604666
942.0, 0.04090360178209239
943.0, 0.03440291699071892
944.0, 0.028568352398667163
945.0, 0.023882709022339417
946.0, 0.019197065646011667
947.0, 0.01629906971435733
948.0, 0.01372150115486154
949.0, 0.011114806710251574
950.0, 0.008448709624572857
951.0, 0.005782612538894142
952.0, 0.003596520295361386
953.0, 0.0015222910791597842
954.0, 5.754543822557705e-05
955.0, 7.058874006278477e-05
956.0, 8.363204189999248e-05
957.0, 0.000603233419862383
958.0, 0.0012715911798175297
959.0, 0.0018646444091670188
960.0, 0.002237690284394091
961.0, 0.0026107361596211624
962.0, 0.0026799502735594598
963.0, 0.002640181255731125
964.0, 0.0025258047927417394
965.0, 0.0021437997879360433
966.0, 0.0017617947831303474
967.0, 0.0012242044455698957
968.0, 0.0006196167043482261
969.0, 0.00012217781256507716
970.0, 0.00011286145711313135
971.0, 0.00010354510166118553
972.0, 0.00017627283746705712
973.0, 0.0002908901546099951
974.0, 0.0004601208836444189
975.0, 0.0009566501720564111
976.0, 0.0014531794604684032
977.0, 0.0017219997191113825
978.0, 0.0018536106905858677
979.0, 0.001958604717990983
980.0, 0.0018391124435280046
981.0, 0.0017196201690650261
982.0, 0.0020975220227706544
983.0, 0.0028253792000429677
984.0, 0.0035154617479796744
985.0, 0.0036878096703164623
986.0, 0.0038601575926532497
987.0, 0.003912882111272016
988.0, 0.0038677329359396557
989.0, 0.003814876298574019
990.0, 0.0035210993157162077
991.0, 0.0032273223328583966
992.0, 0.0031420493756107387
993.0, 0.0032547129884841946
994.0, 0.0033673766013576504
995.0, 0.0033833480035137115
996.0, 0.0033987357504742977
997.0, 0.0035664467177602714
998.0, 0.003902514928563764
999.0, 0.004238583139367256
1000.0, 0.004130506727689544
1001.0, 0.00400247397456283
1002.0, 0.0035937031282317028
1003.0, 0.0028247158244099633
1004.0, 0.0020557285205882246
1005.0, 0.0019723313069509646
1006.0, 0.0019493615114910233
1007.0, 0.0023019220801115013
1008.0, 0.0032154369831065804
1009.0, 0.004128951886101659
1010.0, 0.0034776668914979643
1011.0, 0.0026170322507301567
1012.0, 0.0019861303464241736
1013.0, 0.0017583682578926974
1014.0, 0.0015306061693612216
1015.0, 0.0012571203527652016
1016.0, 0.0009752473434472848
1017.0, 0.0010676727942871057
1018.0, 0.0019339545707290431
1019.0, 0.0028002363471709805
1020.0, 0.00328988188308738
1021.0, 0.003689452085148238
1022.0, 0.003888323750897313
1023.0, 0.003593435349803181
1024.0, 0.003298546948709049
1025.0, 0.0027949608398335647
1026.0, 0.0022290364546077995
1027.0, 0.0020590376211496292
1028.0, 0.003064246377859058
1029.0, 0.004069455134568487
1030.0, 0.0046977647809402934
1031.0, 0.00518878648398308
1032.0, 0.005424632408980565
1033.0, 0.004723243934241249
1034.0, 0.004021855459501932
1035.0, 0.0034804088131033216
1036.0, 0.0030088218158650483
1037.0, 0.0026514116126702997
1038.0, 0.002824891248446628
1039.0, 0.002998370884222956
1040.0, 0.0031160262561374026
1041.0, 0.003204666585132743
1042.0, 0.0031838750115766737
1043.0, 0.0024908588937767877
1044.0, 0.001797842775976902
1045.0, 0.0012100559053173044
1046.0, 0.0006864910711571483
1047.0, 0.00029081721116686195
1048.0, 0.0010210854571023687
1049.0, 0.0017513537030378755
1050.0, 0.0017619557590587526
1051.0, 0.0012599188852775545
1052.0, 0.0008469636578750969
1053.0, 0.0017154136514579896
1054.0, 0.0025838636450408823
1055.0, 0.003061880116371391
1056.0, 0.0032165576743923723
1057.0, 0.003362638412639822
1058.0, 0.0032102866930348905
1059.0, 0.003057934973429959
1060.0, 0.002695235834803689
1061.0, 0.002129627889223644
1062.0, 0.0015640199436435995
1063.0, 0.002001554375843338
1064.0, 0.0024481990819078922
1065.0, 0.0024622420104896295
1066.0, 0.0019923575269719046
1067.0, 0.0015224730434541798
1068.0, 0.0014256530788034605
1069.0, 0.0013472318889552171
1070.0, 0.0013497998409801534
1071.0, 0.0014575605864725763
1072.0, 0.0015653213319649993
1073.0, 0.0020767375864165142
1074.0, 0.0026251702849210755
1075.0, 0.0027956570256682588
1076.0, 0.002392084792793878
1077.0, 0.0019885125599194966
1078.0, 0.002248460125696347
1079.0, 0.002599745456702856
1080.0, 0.002822125526764032
1081.0, 0.0028153406884778498
1082.0, 0.002808555850191667
1083.0, 0.0025730529721210674
1084.0, 0.0022946315070125683
1085.0, 0.0023173033519380405
1086.0, 0.0029710593172750047
1087.0, 0.003624815282611969
1088.0, 0.0035659695733097426
1089.0, 0.003333405047802039
1090.0, 0.002880391102481893
1091.0, 0.001877024409797976
1092.0, 0.0008736577171140588
1093.0, 0.0005978013540711958
1094.0, 0.0005429487808670754
1095.0, 0.0006622013335772081
1096.0, 0.001309385558414297
1097.0, 0.0019565697832513856
1098.0, 0.0027643879484738547
1099.0, 0.003631618666989541
1100.0, 0.004205065664625165
1101.0, 0.003679956473756751
1102.0, 0.0031548472828883374
1103.0, 0.003311550180898567
1104.0, 0.003771718575114886
1105.0, 0.004197347574515284
1106.0, 0.00445901369967456
1107.0, 0.004720679824833835
1108.0, 0.004678831107247399
1109.0, 0.004477115793100225
1110.0, 0.0042540172504110735
1111.0, 0.003895072314631675
1112.0, 0.0035361273788522773
1113.0, 0.003184399850970377
1114.0, 0.0028371335687468018
1115.0, 0.0024644147614452713
1116.0, 0.001860052266312878
1117.0, 0.001255689771180485
1118.0, 0.0009354476150785642
1119.0, 0.0008201046363498186
1120.0, 0.0007043336661391059
1121.0, 0.0005820875989915244
1122.0, 0.0004598415318439427
1123.0, 0.0010045347608473683
1124.0, 0.002110537857882363
1125.0, 0.003169171954232356
1126.0, 0.002380415023874193
1127.0, 0.0015916580935160295
1128.0, 0.0013022253650777416
1129.0, 0.0015002751578812208
1130.0, 0.0016983249506847002
1131.0, 0.0013155077720822925
1132.0, 0.0009250398633600982
1133.0, 0.0011208372739688816
1134.0, 0.001980402029065267
1135.0, 0.0028399667841616525
1136.0, 0.0025622478669037945
1137.0, 0.0022246719142589282
1138.0, 0.0018710776596191012
1139.0, 0.0014964223042081227
1140.0, 0.0011217669487971443
1141.0, 0.0010674613662717144
1142.0, 0.0010436819943060204
1143.0, 0.0010561506368252074
1144.0, 0.001124371301623169
1145.0, 0.0011925919664211304
1146.0, 0.001176194628536072
1147.0, 0.0011478193998602634
1148.0, 0.0010464752704235816
1149.0, 0.0008137053617453097
1150.0, 0.0005809354530670378
1151.0, 0.0007198030284286273
1152.0, 0.0009305146042848146
1153.0, 0.0011330839110250616
1154.0, 0.0013183508958939307
1155.0, 0.0015036178807627996
1156.0, 0.0013415626888593091
1157.0, 0.0010932189661471674
1158.0, 0.0010983825974866174
1159.0, 0.0017490011231846131
1160.0, 0.0023996196488826086
1161.0, 0.002467033758614499
1162.0, 0.0023542957189117294
1163.0, 0.0024657631530877293
1164.0, 0.0032681494965640166
1165.0, 0.004070535840040305
1166.0, 0.004677709702507538
1167.0, 0.005211208331095364
1168.0, 0.005604943058114459
1169.0, 0.005466499852237506
1170.0, 0.005328056646360553
1171.0, 0.005277895696896986
1172.0, 0.0052675834872658615
1173.0, 0.005316839053253142
1174.0, 0.005654876408641831
1175.0, 0.005992913764030521
1176.0, 0.0059241552076105914
1177.0, 0.005638272452863405
1178.0, 0.005395586264987072
1179.0, 0.0054344897273138765
1180.0, 0.005473393189640682
1181.0, 0.005608506670522129
1182.0, 0.005803849187409326
1183.0, 0.005895449337745566
1184.0, 0.0050101422030603415
1185.0, 0.004124835068375116
1186.0, 0.0033934864474808183
1187.0, 0.0027750051599202525
1188.0, 0.002194786110637794
1189.0, 0.00222481733626583
1190.0, 0.002254848561893866
1191.0, 0.002637139365724102
1192.0, 0.00331950314357848
1193.0, 0.003989060017594293
1194.0, 0.004061571231706288
1195.0, 0.004134082445818282
1196.0, 0.0036679493701473856
1197.0, 0.0026695971850884716
1198.0, 0.0016712450000295578
1199.0, 0.0026818708946820197
1200.0, 0.0037251630995738493
1201.0, 0.003552062973227855
1202.0, 0.0019850712055057384
1203.0, 0.0004180794377836219
1204.0, 0.00032861499322441826
1205.0, 0.0003218421517568804
1206.0, 0.000613346402815444
1207.0, 0.0013034826560348787
1208.0, 0.001993618909254313
1209.0, 0.0013636229685281467
1210.0, 0.0006030645031261723
1211.0, 0.00032092831123654234
1212.0, 0.0007839562231037521
1213.0, 0.001246984134970962
1214.0, 0.0016665259133505468
1215.0, 0.0020796844060805763
1216.0, 0.0021487378499039497
1217.0, 0.001589848181880828
1218.0, 0.0010309585138577066
1219.0, 0.0015780728341145622
1220.0, 0.002343738840678182
1221.0, 0.002666435173518916
1222.0, 0.002030298415136831
1223.0, 0.0013941616567547462
1224.0, 0.001023518361438564
1225.0, 0.0007200801783270326
1226.0, 0.0006734723580837202
1227.0, 0.001290573109983738
1228.0, 0.0019076738618837557
1229.0, 0.001896981182478537
1230.0, 0.0016880379458190228
1231.0, 0.001503434530268803
1232.0, 0.001395069066788207
1233.0, 0.0012867036033076108
1234.0, 0.0013596871116305846
1235.0, 0.0015021501015435995
1236.0, 0.0015255434106572882
1237.0, 0.0010871786893538714
1238.0, 0.0006488139680504545
1239.0, 0.0008046100496757074
1240.0, 0.0012323689478019367
1241.0, 0.0015441465287311439
1242.0, 0.0012774065214856349
1243.0, 0.0010106665142401257
1244.0, 0.0007743174463265219
1245.0, 0.000554404772412154
1246.0, 0.0003896556828149495
1247.0, 0.0005940782728784054
1248.0, 0.0007985008629418613
1249.0, 0.0007591825462812644
1250.0, 0.000564683848744047
1251.0, 0.00042770815763537736
1252.0, 0.0008517364109422628
1253.0, 0.0012757646642491483
1254.0, 0.001460160148160141
1255.0, 0.0014667097091397375
1256.0, 0.0015065710146846686
1257.0, 0.002118788658669651
1258.0, 0.002731006302654633
1259.0, 0.0024792522065090867
1260.0, 0.0014825839284633927
1261.0, 0.0005084559673074606
1262.0, 0.0007640275164687195
1263.0, 0.0010195990656299784
1264.0, 0.0012448095597821052
1265.0, 0.0014396589989250997
1266.0, 0.0016345084380680942
1267.0, 0.0011080652207110682
1268.0, 0.000567652013065047
1269.0, 0.0007209730733257209
1270.0, 0.0016821491901531007
1271.0, 0.0026433253069804807
1272.0, 0.0017449494983579241
1273.0, 0.0007362612873780845
1274.0, 0.0003275219328990389
1275.0, 0.0007304780901565125
1276.0, 0.001133434247413986
1277.0, 0.0010578149046066394
1278.0, 0.0009325420330949663
1279.0, 0.0009795758868965465
1280.0, 0.0012983925136149997
1281.0, 0.0016172091403334529
1282.0, 0.0012155896145036931
1283.0, 0.0007053657894979992
1284.0, 0.0004202532184998521
1285.0, 0.0005532044049444593
1286.0, 0.0006861555913890665
1287.0, 0.0005299128472859497
1288.0, 0.00031527517489920277
1289.0, 0.00021796239013480764
1290.0, 0.0003781646143049733
1291.0, 0.000538366838475139
1292.0, 0.0004798064729871718
1293.0, 0.0003648356284049942
1294.0, 0.00045729336188205536
1295.0, 0.001093875336354907
1296.0, 0.0017304573108277588
1297.0, 0.0015857932156537042
1298.0, 0.001190346036035615
1299.0, 0.0009102627296546891
1300.0, 0.0009975095803175522
1301.0, 0.0010847564309804153
1302.0, 0.000835642390584865
1303.0, 0.0004557213369999495
1304.0, 0.0002485699311036739
1305.0, 0.000728199363531799
1306.0, 0.001207828795959924
1307.0, 0.0012234786258270498
1308.0, 0.0010237821394250071
1309.0, 0.0009571585166039555
1310.0, 0.001568881930086066
1311.0, 0.0021806053435681765
1312.0, 0.002488094991830955
1313.0, 0.002628138149159049
1314.0, 0.002783029571288529
1315.0, 0.0030399881994937193
1316.0, 0.00329694682769891
1317.0, 0.0026095120522561617
1318.0, 0.001313192056040266
1319.0, 0.00023003603313260916
1320.0, 0.001328816860606355
1321.0, 0.002427597688080101
1322.0, 0.003320918583714974
1323.0, 0.004059874661908677
1324.0, 0.004784620772680155
1325.0, 0.0052503082465998165
1326.0, 0.005715995720519478
1327.0, 0.0060538773009091015
1328.0, 0.006280227895559076
1329.0, 0.006491891099712207
1330.0, 0.005739082327912511
1331.0, 0.004986273556112815
1332.0, 0.004538167450524454
1333.0, 0.004399678570279751
1334.0, 0.0042611896900350485
1335.0, 0.0044730173588004825
1336.0, 0.0046927253589342174
1337.0, 0.004797798784203953
1338.0, 0.004767758255222253
1339.0, 0.004737717726240553
1340.0, 0.004799815255148757
1341.0, 0.004867793936688227
1342.0, 0.0047352792614250355
1343.0, 0.004328155201726001
1344.0, 0.003921031142026965
1345.0, 0.0037225986540709356
1346.0, 0.0035465837546631526
1347.0, 0.003794916228741357
1348.0, 0.004721102299427076
1349.0, 0.005647288370112793
1350.0, 0.006763193713023746
1351.0, 0.007908455155794034
1352.0, 0.008506430887075154
1353.0, 0.008074500077715182
1354.0, 0.007642569268355208
1355.0, 0.007458235533747149
1356.0, 0.007324974295861155
1357.0, 0.007320225864150925
1358.0, 0.007601522065541662
1359.0, 0.007882818266932398
1360.0, 0.00817940510667496
1361.0, 0.008480032077157765
1362.0, 0.008436461141196333
1363.0, 0.007476289919575294
1364.0, 0.006516118697954255
1365.0, 0.006346346057872157
1366.0, 0.006434448817072126
1367.0, 0.006516442322349362
1368.0, 0.006578548256346202
1369.0, 0.006640654190343043
1370.0, 0.006389775712953442
1371.0, 0.0060153622447377325
1372.0, 0.0057354042935582215
1373.0, 0.00583803889118167
1374.0, 0.005940673488805119
1375.0, 0.005900193088365117
1376.0, 0.005792054492964364
1377.0, 0.005744236330022445
1378.0, 0.006010758805794432
1379.0, 0.0062772812815664195
1380.0, 0.006286027138678823
1381.0, 0.006151028401585449
1382.0, 0.006041994973878981
1383.0, 0.006116393893131585
1384.0, 0.006190792812384188
1385.0, 0.005628087280822139
1386.0, 0.004649420992116671
1387.0, 0.003756518415346808
1388.0, 0.0037751045910086813
1389.0, 0.0037936907666705545
1390.0, 0.003823945780887085
1391.0, 0.0038630756863987084
1392.0, 0.0038554731160312964
1393.0, 0.0029408790240111706
1394.0, 0.002026284931991045
1395.0, 0.0016271665173365217
1396.0, 0.0016851680429873944
1397.0, 0.0017443825985023445
1398.0, 0.0019034699461601564
1399.0, 0.0020625572938179682
1400.0, 0.002400272548496073
1401.0, 0.002921688307959799
1402.0, 0.003443104067423525
1403.0, 0.0032504487752500395
1404.0, 0.0030387320381662693
1405.0, 0.0025567324057987383
1406.0, 0.0017522900211627349
1407.0, 0.0009478476365267314
1408.0, 0.0009248821647319701
1409.0, 0.0009544599645584286
1410.0, 0.0010263623687436613
1411.0, 0.0011569535441280298
1412.0, 0.0012875447195123985
1413.0, 0.0012737180752966505
1414.0, 0.0012438450066809058
1415.0, 0.001177585607321945
1416.0, 0.001052210358277833
1417.0, 0.0009268351092337208
1418.0, 0.0006456880040058183
1419.0, 0.0003398123422342667
1420.0, 0.00027405921560891256
1421.0, 0.0006662141792622506
1422.0, 0.0010583691429155886
1423.0, 0.0008612728166712578
1424.0, 0.0005391837925698853
1425.0, 0.00043928092487562813
1426.0, 0.0008409253092664494
1427.0, 0.001242569693657271
1428.0, 0.001090815658705135
1429.0, 0.0007901777850465275
1430.0, 0.0005486552499834835
1431.0, 0.00046777699935670485
1432.0, 0.00038689874872992625
1433.0, 0.000976108461862429
1434.0, 0.0017874911483319255
1435.0, 0.0024176289736844957
1436.0, 0.002447783810511971
1437.0, 0.0024779386473394466
1438.0, 0.0029726812825594294
1439.0, 0.0036535193104128777
1440.0, 0.004083819047458418
1441.0, 0.0034798453275785863
1442.0, 0.0028758716076987536
1443.0, 0.0028100923508125935
1444.0, 0.0030022642862489258
1445.0, 0.003120746872704503
1446.0, 0.002846530523452222
1447.0, 0.0025723141741999414
1448.0, 0.002189651999098131
1449.0, 0.0017457238723035228
1450.0, 0.0013773995695094677
1451.0, 0.001563503309386707
1452.0, 0.0017496070492639462
1453.0, 0.002429024832792659
1454.0, 0.003434587116941328
1455.0, 0.004405077060245442
1456.0, 0.004988081020966169
1457.0, 0.005571084981686895
1458.0, 0.005505526444361354
1459.0, 0.004938596897908007
1460.0, 0.004385577230965218
1461.0, 0.004121036369523705
1462.0, 0.0038564955080821915
1463.0, 0.0033915646510430755
1464.0, 0.0027467771186383996
1465.0, 0.002107449509317649
1466.0, 0.0021451523624003974
1467.0, 0.0021828552154831453
1468.0, 0.0018059330095367642
1469.0, 0.0009974622727641623
1470.0, 0.0001889915359915605
1471.0, 0.001006388873802193
1472.0, 0.0018723445784129366
1473.0, 0.0024290506216889233
1474.0, 0.002612335992227318
1475.0, 0.0027956213627657123
1476.0, 0.002219450398997341
1477.0, 0.0015896133559310337
1478.0, 0.0012474115890567514
1479.0, 0.0013106715970556254
1480.0, 0.0013739316050544995
1481.0, 0.0013362767279810773
1482.0, 0.0012870340770364695
1483.0, 0.0015200919245105951
1484.0, 0.002217675988959603
1485.0, 0.002915260053408611
1486.0, 0.0030479568774112406
1487.0, 0.003087930650304453
1488.0, 0.003307091316174551
1489.0, 0.003872539848530933
1490.0, 0.004437988380887315
1491.0, 0.003753461163958548
1492.0, 0.002798257933194105
1493.0, 0.0020916753652604064
1494.0, 0.0019570023748611562
1495.0, 0.0018223293844619056
1496.0, 0.0012371096856386421
1497.0, 0.0005284918437438936
1498.0, 7.4825318627049556e-06
1499.0, 4.159915582640518e-06
1500.0, 8.372993025760813e-07
1501, 0.0
1502, 0.0
1503, 0.0
1504, 0.0
1505, 0.0
1506, 0.0
1507, 0.0
1508, 0.0
1509, 0.0
1510, 0.0
1511, 0.0
1512, 0.0
1513, 0.0
1514, 0.0
1515, 0.0
1516, 0.0
1517, 0.0
1518, 0.0
1519, 0.0
1520, 0.0
1521, 0.0
1522, 0.0
1523, 0.0
1524, 0.0
1525, 0.0
1526, 0.0
1527, 0.0
1528, 0.0
1529, 0.0
1530, 0.0
1531, 0.0
1532, 0.0
1533, 0.0
1534, 0.0
1535, 0.0
1536, 0.0
1537, 0.0
1538, 0.0
1539, 0.0
1540, 0.0
1541, 0.0
1542, 0.0
1543, 0.0
1544, 0.0
1545, 0.0
1546, 0.0
1547, 0.0
1548, 0.0
1549, 0.0
1550, 0.0
1551, 0.0
1552, 0.0
1553, 0.0
1554, 0.0
1555, 0.0
1556, 0.0
1557, 0.0
1558, 0.0
1559, 0.0
1560, 0.0
1561, 0.0
1562, 0.0
1563, 0.0
1564, 0.0
1565, 0.0
1566, 0.0
1567, 0.0
1568, 0.0
1569, 0.0
1570, 0.0
1571, 0.0
1572, 0.0
1573, 0.0
1574, 0.0
1575, 0.0
1576, 0.0
1577, 0.0
1578, 0.0
1579, 0.0
1580, 0.0
1581, 0.0
1582, 0.0
1583, 0.0
1584, 0.0
1585, 0.0
1586, 0.0
1587, 0.0
1588, 0.0
1589, 0.0
1590, 0.0
1591, 0.0
1592, 0.0
1593, 0.0
1594, 0.0
1595, 0.0
1596, 0.0
1597, 0.0
1598, 0.0
1599, 0.0
