30, 0.0
31, 0.0
32, 0.0
33, 0.0
34, 0.0
35, 0.0
36, 0.0
37, 0.0
38, 0.0
39, 0.0
40, 0.0
41, 0.0
42, 0.0
43, 0.0
44, 0.0
45, 0.0
46, 0.0
47, 0.0
48, 0.0
49, 0.0
50, 0.0
51, 0.0
52.0, 0.00046819655575959003
53.0, 0.0007636432313008652
54.0, 7.036660955793444e-05
55.0, 0.0002557934393615216
56.0, 0.0004250112297565025
57.0, 0.00026996459360007137
58.0, 7.4660594457459e-05
59.0, 0.00021024762231049588
60.0, 0.0007182516469598749
61.0, 0.0029712325207728076
62.0, 0.007588141288489973
63.0, 0.015338471949183533
64.0, 0.02605751319388296
65.0, 0.03766506162129467
66.0, 0.05248945955378381
67.0, 0.06959108208424687
68.0, 0.0890057532432145
69.0, 0.1102654375977656
70.0, 0.13223919197646866
71.0, 0.1533436710977207
72.0, 0.16727320417779748
73.0, 0.17645904679546298
74.0, 0.1797552379419261
75.0, 0.1736595303551036
76.0, 0.16165207030519524
77.0, 0.14769429710137386
78.0, 0.13299175164324284
79.0, 0.11786507588179573
80.0, 0.10279617377628525
81.0, 0.0916296187673022
82.0, 0.08304308715355652
83.0, 0.07511004954111253
84.0, 0.06771316043823872
85.0, 0.06135340117640313
86.0, 0.05734637458597798
87.0, 0.0539891482862994
88.0, 0.05094300927486178
89.0, 0.048188258018588136
90.0, 0.0457890672002243
91.0, 0.04390566143662148
92.0, 0.04246673438972912
93.0, 0.0413659299640222
94.0, 0.04067848605175135
95.0, 0.040402588319171165
96.0, 0.04046646815279845
97.0, 0.04079953812084564
98.0, 0.041010008793380716
99.0, 0.041681112651705404
100.0, 0.04246221671708797
101.0, 0.04294635528366523
102.0, 0.04450420734418161
103.0, 0.04542855329766839
104.0, 0.047488555134820115
105.0, 0.04948462534302533
106.0, 0.05073614810001304
107.0, 0.05310756841192392
108.0, 0.055356764942633564
109.0, 0.056932430113986
110.0, 0.05943199764470528
111.0, 0.06281081930818819
112.0, 0.06516264899370923
113.0, 0.06858568673062816
114.0, 0.07286737842119285
115.0, 0.07793282139881877
116.0, 0.08251163777586108
117.0, 0.08538292180883841
118.0, 0.08992545287104764
119.0, 0.0940963054532092
120.0, 0.09584754873043083
121.0, 0.09615797346261935
122.0, 0.09593888441014753
123.0, 0.09377441283399736
124.0, 0.09135195327071409
125.0, 0.08932018924226873
126.0, 0.08636156627622187
127.0, 0.08279057114246653
128.0, 0.08091657204144027
129.0, 0.07953276732355523
130.0, 0.07886840662304163
131.0, 0.07775815751189698
132.0, 0.07621651809065785
133.0, 0.07472486917959835
134.0, 0.07249916213731163
135.0, 0.06860539869572417
136.0, 0.06470751711792232
137.0, 0.060411181870271856
138.0, 0.055301274189532706
139.0, 0.049902465412482735
140.0, 0.04509409098667806
141.0, 0.04071970103956068
142.0, 0.03655093292297439
143.0, 0.03238401027259541
144.0, 0.028162123463895863
145.0, 0.02578786128085694
146.0, 0.02332888592353027
147.0, 0.021096058991426542
148.0, 0.01966369475833901
149.0, 0.019073011643603838
150.0, 0.01671554202744668
151.0, 0.015555607705749059
152.0, 0.015345627599307979
153.0, 0.014513265067883824
154.0, 0.012760745038779844
155.0, 0.012085109918261332
156.0, 0.011568709923887371
157.0, 0.010319378743481914
158.0, 0.009443517808323816
159.0, 0.009141737002623399
160.0, 0.008987489567224598
161.0, 0.008594056130661209
162.0, 0.008006471766399811
163.0, 0.007271232205144683
164.0, 0.006810545223573385
165.0, 0.006715511014135033
166.0, 0.006130353099245807
167.0, 0.005938051119277076
168.0, 0.006147828732302917
169.0, 0.006173743726125041
170.0, 0.006003717632477636
171.0, 0.006075233450830543
172.0, 0.005819410823302205
173.0, 0.005921041631720587
174.0, 0.006591290707642822
175.0, 0.0071362339798955446
176.0, 0.007180839155742043
177.0, 0.008156178465719503
178.0, 0.007552838698044032
179.0, 0.008518285508045361
180.0, 0.00878394289070608
181.0, 0.008332694034926836
182.0, 0.009609530240426723
183.0, 0.009703728634746342
184.0, 0.010608546227542419
185.0, 0.011161676922579637
186.0, 0.011342045418359818
187.0, 0.01157596420595045
188.0, 0.01232008966850866
189.0, 0.012896893824342389
190.0, 0.013601527436984265
191.0, 0.014494489895197122
192.0, 0.015484516214804732
193.0, 0.016379232678584568
194.0, 0.017637151951617733
195.0, 0.0189262796583759
196.0, 0.020608532188132
197.0, 0.02246961250767975
198.0, 0.024109235127120477
199.0, 0.025255545697907552
200.0, 0.027821337969389702
201.0, 0.029017878708986408
202.0, 0.03126880818632537
203.0, 0.03415075557473751
204.0, 0.034326758728254046
205.0, 0.036503582209385266
206.0, 0.039200852012469325
207.0, 0.04187082497325018
208.0, 0.04426629073921932
209.0, 0.04627175844604708
210.0, 0.047819259734221305
211.0, 0.05073890754426562
212.0, 0.053926653802541955
213.0, 0.055036425286870215
214.0, 0.054965927675471656
215.0, 0.05695988874025542
216.0, 0.058131543454234956
217.0, 0.05846630628718943
218.0, 0.05719263670755465
219.0, 0.05623888527247378
220.0, 0.05615883425090647
221.0, 0.05294507906455183
222.0, 0.05236036634344424
223.0, 0.05071158239505463
224.0, 0.04960225714487769
225.0, 0.04812437101491293
226.0, 0.04459437374685544
227.0, 0.04371059340001164
228.0, 0.042488522740994315
229.0, 0.04066920298478179
230.0, 0.03890780921144013
231.0, 0.03710000696474356
232.0, 0.033881274360985925
233.0, 0.033216574922456214
234.0, 0.030223432645032203
235.0, 0.0279566509420294
236.0, 0.026332028292880696
237.0, 0.024311647409912644
238.0, 0.022852395191950124
239.0, 0.020328454244896113
240.0, 0.01835957981180477
241.0, 0.01706569272428574
242.0, 0.01620330439575091
243.0, 0.015290694324319886
244.0, 0.013462990093289731
245.0, 0.0130209263085215
246.0, 0.011920067154001715
247.0, 0.011126649952551955
248.0, 0.011203786459757456
249.0, 0.010370684866781898
250.0, 0.00889685544487857
251.0, 0.008960859153103061
252.0, 0.008574440920094038
253.0, 0.0074038197483701695
254.0, 0.006186652701296148
255.0, 0.005789514510420436
256.0, 0.005599925621498795
257.0, 0.005097334826873136
258.0, 0.004659758443769548
259.0, 0.004549172103146508
260.0, 0.004673103809833947
261.0, 0.003763151600320836
262.0, 0.0034634551213168874
263.0, 0.0028246424145981783
264.0, 0.0024283725052882173
265.0, 0.002589936557473168
266.0, 0.002314369444329433
267.0, 0.0018637353167835857
268.0, 0.0016395888883483118
269.0, 0.0013628123841795384
270.0, 0.0009822418407203974
271.0, 0.0006736229470607458
272.0, 0.0009662574269747934
273.0, 0.0008431621567357537
274.0, 0.000520071800206055
275.0, 0.0004604782544928184
276.0, 0.0005240320009295028
277.0, 0.00016766453015803242
278.0, 6.20824013229943e-05
279.0, 0.0001761833241848231
280.0, 0.00021788886969247031
281.0, 0.00024429808251151785
282.0, 0.00032412984205281337
283.0, 0.0004229253579274789
284.0, 0.0001923226437951096
285.0, 5.691249020879116e-05
286.0, 0.00013469108125321777
287.0, 0.00023863066565947276
288.0, 0.00018964308649530446
289.0, 9.734013611301263e-05
290.0, 0.0002748500284474079
291.0, 0.0003008482227182318
292.0, 0.0004129216445865824
293.0, 0.0005531786260910289
294.0, 0.0005587707955366196
295.0, 0.0005867674737077065
296.0, 0.0013642223989132288
297.0, 0.0006541418626953132
298.0, 0.00043956614692850464
299.0, 0.0008171498922296155
300.0, 0.00027375975841914237
301.0, 0.0001427483917131575
302.0, 0.0006189063719819648
303.0, 0.0009880177670270824
304.0, 0.0009359416318667701
305.0, 0.0006986155737369917
306.0, 0.000986666406094693
307.0, 0.0013129717184841593
308.0, 0.001033080769909374
309.0, 0.0011559134035839457
310.0, 0.0013889686754519274
311.0, 0.001199543339735546
312.0, 0.0003682979722101964
313.0, 0.000616224424107293
314.0, 0.0005147619028754422
315.0, 0.0005120853324376644
316.0, 0.0005350765726390714
317.0, 0.0005041227682137838
318.0, 0.0008195414414976582
319.0, 0.0007390449129053663
320.0, 0.0007703909709580664
321.0, 0.0008176077490241363
322.0, 0.0008085350872671551
323.0, 0.0007447337045070879
324.0, 0.0007824415882210343
325.0, 0.0005505919885751707
326.0, 0.00047916100204230684
327.0, 0.0005454559608125799
328.0, 0.0005831433602000201
329.0, 0.0004833221158858483
330.0, 0.0006862849488200916
331.0, 0.0003549280818093452
332.0, 0.00030953546998093166
333.0, 0.0003900049230523995
334.0, 0.0004314290570089915
335.0, 0.0004336694084186769
336.0, 0.0008407763999125854
337.0, 0.00025785183292698023
338.0, 0.00029955133373881643
339.0, 0.0004397793011806152
340.0, 0.00033525455605664496
341.0, 0.0001864786093114954
342.0, 0.0005989968605554435
343.0, 0.00044696325424309504
344.0, 0.0004957654869018487
345.0, 0.00040228450295860135
346.0, 0.00018974702497093085
347.0, 0.00034693027229300836
348.0, 9.614579220611933e-05
349.0, 0.00033429038637684567
350.0, 0.000659045243220311
351.0, 0.0005076809980276673
352.0, 0.00012592816374839872
353.0, 0.000534649215102423
354.0, 0.0003551774239717338
355.0, 0.0005678340887573528
356.0, 0.0006694345216665013
357.0, 0.0005153737779797234
358.0, 0.00028011672013103647
359.0, 0.0003620855991853016
360.0, 0.0003905506025876483
361.0, 0.0004187220334709755
362.0, 0.00042880640507308396
363.0, 0.00044413006522227224
364.0, 0.0005381231973584972
365.0, 0.0007919736390780781
366.0, 0.0007841286458698792
367.0, 0.0009398363211639431
368.0, 0.0009571900563951477
369.0, 0.0010316874405781587
370.0, 0.0011970606721211554
371.0, 0.0011406491834849287
372.0, 0.001071283524776933
373.0, 0.0012340361188117005
374.0, 0.0010055420355761777
375.0, 0.0006504652200601104
376.0, 0.0005426950142531429
377.0, 0.0008169115880857561
378.0, 0.0010021981372433833
379.0, 0.0011645828517807646
380.0, 0.0011511825077953498
381.0, 0.0008615227963427138
382.0, 0.000542638926168098
383.0, 0.0007203005523283251
384.0, 0.0008087593556650153
385.0, 0.001311030223285635
386.0, 0.0015521870605505728
387.0, 0.001577110861111939
388.0, 0.0014479859786687404
389.0, 0.0012028329832434236
390.0, 0.002061195083775814
391.0, 0.001957956144643317
392.0, 0.0020526689115462206
393.0, 0.0019519079890991842
394.0, 0.0017318274372256474
395.0, 0.001990725538934104
396.0, 0.0016954050080843655
397.0, 0.0017318212804364726
398.0, 0.001773950657373267
399.0, 0.001848570492948521
400.0, 0.001976290867449688
401.0, 0.002128331516241347
402.0, 0.002291564374210152
403.0, 0.001852700828856024
404.0, 0.0021695922472241332
405.0, 0.002174037260256684
406.0, 0.0019356423064437508
407.0, 0.002292888207713536
408.0, 0.0028199817679236392
409.0, 0.0022443323351066147
410.0, 0.0021911120854715134
411.0, 0.0020244730051761405
412.0, 0.002199518316446476
413.0, 0.0029619427863966106
414.0, 0.0017228180206564797
415.0, 0.0029785631251304993
416.0, 0.0020700702911536153
417.0, 0.0021566940442626064
418.0, 0.002869617526614168
419.0, 0.0028263797526043603
420.0, 0.002734663456918838
421.0, 0.0022794988912571744
422.0, 0.0025574549796379504
423.0, 0.002869801844717323
424.0, 0.002858809557964144
425.0, 0.0026475418745250476
426.0, 0.0028480241898865936
427.0, 0.00344434234316794
428.0, 0.003523187246731118
429.0, 0.0031709802160877205
430.0, 0.0031817726208489094
431.0, 0.0036919569946956797
432.0, 0.0038477248771862974
433.0, 0.0031955027723945943
434.0, 0.0032213226696195803
435.0, 0.0032501344200633812
436.0, 0.0035496321111049547
437.0, 0.003753992517396638
438.0, 0.003207900135545824
439.0, 0.003074904543854963
440.0, 0.003364959064396043
441.0, 0.0031783812682945707
442.0, 0.0030657595710019713
443.0, 0.0032292724200482605
444.0, 0.003432464335891003
445.0, 0.0031547903547007278
446.0, 0.0030849699772216694
447.0, 0.003212801798815855
448.0, 0.0038238975997261834
449.0, 0.00422917081160619
450.0, 0.0037822503699681135
451.0, 0.002813500535402501
452.0, 0.0038261108792490848
453.0, 0.0036943312889577617
454.0, 0.0034513355814845327
455.0, 0.003512112067936349
456.0, 0.003591803796345379
457.0, 0.0030543622865081047
458.0, 0.003028498338954024
459.0, 0.0030956004969731167
460.0, 0.00293926374561711
461.0, 0.0030263049327023004
462.0, 0.00336365276837129
463.0, 0.0035857916987923604
464.0, 0.003619912379253006
465.0, 0.0038260449607580758
466.0, 0.003307947109748503
467.0, 0.0033988857471789024
468.0, 0.0036477187324313338
469.0, 0.0032635534164143394
470.0, 0.002705606449390034
471.0, 0.003160660802709074
472.0, 0.0031466258594589455
473.0, 0.003392646402661896
474.0, 0.003120072594092748
475.0, 0.002545982924444792
476.0, 0.003045622737354257
477.0, 0.002914672367355087
478.0, 0.0024841477297987296
479.0, 0.002978542149023782
480.0, 0.003230076644550849
481.0, 0.0029281729241112573
482.0, 0.0026857534550554824
483.0, 0.003233817361841836
484.0, 0.0029928600041694026
485.0, 0.002503117879131948
486.0, 0.002268962492852955
487.0, 0.0022323567208047883
488.0, 0.002268454553163527
489.0, 0.002480523204961866
490.0, 0.0025211138103056916
491.0, 0.002520132146422736
492.0, 0.0029697951860492
493.0, 0.0030732993639781547
494.0, 0.002519483669132895
495.0, 0.0019027625971745276
496.0, 0.0026469925847986734
497.0, 0.002729464838958582
498.0, 0.003042778814354398
499.0, 0.0025215308978259565
500.0, 0.0023366853165482132
501.0, 0.003048188395252463
502.0, 0.0024396007888327653
503.0, 0.0022204393236339003
504.0, 0.002239836313600909
505.0, 0.0017304299681427985
506.0, 0.001608527440735886
507.0, 0.001962355869680601
508.0, 0.0020270654664364444
509.0, 0.002267163458437568
510.0, 0.0019449941212473626
511.0, 0.0017900486473837087
512.0, 0.00197111859882074
513.0, 0.0022378149271166754
514.0, 0.002255126911677339
515.0, 0.0019707510750688858
516.0, 0.002285627293900162
517.0, 0.0025395881230584894
518.0, 0.002415049832725711
519.0, 0.0020692120349620493
520.0, 0.0017479987827765434
521.0, 0.0016285595343885422
522.0, 0.0017445310153810323
523.0, 0.0017096145516986934
524.0, 0.0015783816815950673
525.0, 0.0015794944059650947
526.0, 0.0016137421720380605
527.0, 0.0015574287504278
528.0, 0.0014600228690120707
529.0, 0.0010971600767147667
530.0, 0.001485608942028444
531.0, 0.0015271235976118363
532.0, 0.0015873021877499316
533.0, 0.0015166066323760601
534.0, 0.0009934323160605066
535.0, 0.000732936929729166
536.0, 0.000860737716171913
537.0, 0.0015282062324389137
538.0, 0.0015166049283987725
539.0, 0.001313767254471146
540.0, 0.0011978479131350365
541.0, 0.0007946526586711417
542.0, 0.0013642484015676769
543.0, 0.0017931156088945523
544.0, 0.0016253377562439326
545.0, 0.0011251466813093835
546.0, 0.0009745236848387273
547.0, 0.0012647765674481568
548.0, 0.0009100414893911551
549.0, 0.0015216341732148953
550.0, 0.0009958638690650884
551.0, 0.0009330038648780564
552.0, 0.0008746705653878984
553.0, 0.0008400516710345587
554.0, 0.0012256375537310347
555.0, 0.0014405859768778864
556.0, 0.0014897080626473055
557.0, 0.000957494772936164
558.0, 0.0012676702697232178
559.0, 0.001057639540733138
560.0, 0.00045837575733160966
561.0, 0.0014471658283831167
562.0, 0.0015114475088747867
563.0, 0.0011178667324485366
564.0, 0.0016523292869478037
565.0, 0.0018999766472725139
566.0, 0.001696863310649983
567.0, 0.001502139511388081
568.0, 0.001619409188044842
569.0, 0.0013018806081226367
570.0, 0.0012406787615723688
571.0, 0.0007676693400853361
572.0, 0.0007433118293286578
573.0, 0.0013144510465978201
574.0, 0.001834648107970331
575.0, 0.0014727827301607558
576.0, 0.0012699442054177937
577.0, 0.0011151955940589668
578.0, 0.0008809453351062906
579.0, 0.0007250905845362576
580.0, 0.001030516343019093
581.0, 0.0018868750096072272
582.0, 0.00228043545237159
583.0, 0.0014808306961982642
584.0, 0.0007972699371145465
585.0, 0.0010692118390070338
586.0, 0.0015865266405354855
587.0, 0.0015882949126072863
588.0, 0.0010688291197751413
589.0, 0.0010310820404922133
590.0, 0.0013609128572403602
591.0, 0.0014837579365209294
592.0, 0.0013953575164638663
593.0, 0.001426537023815495
594.0, 0.001598189471937655
595.0, 0.0015055161674138002
596.0, 0.001136504217699378
597.0, 0.001511986613823665
598.0, 0.0017972954871658983
599.0, 0.0018440840391696673
600.0, 0.0015211624983767808
601.0, 0.0009247175445053757
602.0, 0.0005188618299769755
603.0, 0.0011471617305056272
604.0, 0.0008333115553954279
605.0, 0.0008933563446551955
606.0, 0.0010110616583591024
607.0, 0.0009757777850340357
608.0, 0.0007366186434642882
609.0, 0.00033677729406749
610.0, 3.6416262836419375e-05
611.0, 0.0009520723383455528
612.0, 0.0013721357052797081
613.0, 0.0011982093992972329
614.0, 0.0007810587657850719
615.0, 0.0007719691289870682
616.0, 0.0016051910763715078
617.0, 0.0008326497741364308
618.0, 0.0009732135181980568
619.0, 0.0013331714684862257
620.0, 0.0015758442748338385
621.0, 0.0015756747220329807
622.0, 0.0014804903981374337
623.0, 0.0016138480740298738
624.0, 0.0017724850967956662
625.0, 0.0016729468442451306
626.0, 0.0017106080856472748
627.0, 0.0017855952784636552
628.0, 0.0017586326428901174
629.0, 0.001749002103233888
630.0, 0.00208046648010005
631.0, 0.001961528467193222
632.0, 0.0022068193334901388
633.0, 0.0020812577588175934
634.0, 0.0020982027812623525
635.0, 0.002100574692351374
636.0, 0.0017379883508502755
637.0, 0.0011325715742172356
638.0, 0.0013063942577534494
639.0, 0.0007550923675636258
640.0, 0.0016992649935893458
641.0, 0.0013579152822198143
642.0, 0.0007848893393094647
643.0, 0.0010657979929567787
644.0, 0.0009240626926110787
645.0, 5.331781508195781e-05
646.0, 0.000885305286855987
647.0, 0.000989677414466133
648.0, 0.001273206704983138
649.0, 0.0014098977550774626
650.0, 0.0010081132105024873
651.0, 0.00045604166783224737
652.0, 0.0008386383992834154
653.0, 0.001125857976180094
654.0, 0.00047894339718007964
655.0, 0.0005707493257489258
656.0, 0.0008067974396915919
657.0, 0.000697454746982311
658.0, 0.0005737887415568099
659.0, 0.0005580334535882978
660.0, 0.0008027519767321206
661.0, 0.0010228455207142476
662.0, 0.0014527767762095235
663.0, 0.0014846457503252515
664.0, 0.0016860184082285764
665.0, 0.002697831656031862
666.0, 0.0030233699425038273
667.0, 0.004050915939675719
668.0, 0.006087165460781894
669.0, 0.006844861625165445
670.0, 0.008176770226591544
671.0, 0.010045544841797474
672.0, 0.01155190269633007
673.0, 0.013062377851394195
674.0, 0.013680594405655947
675.0, 0.014439051911803799
676.0, 0.013975721767288406
677.0, 0.012485757349033766
678.0, 0.010163115301483184
679.0, 0.006958130227725268
680.0, 0.003299091984029098
681.0, 0.0025026039539671743
682.0, 0.002466696853878844
683.0, 0.00283805992251878
684.0, 0.002225610087080968
685.0, 0.001734852507757058
686.0, 0.0016443512210604432
687.0, 0.0012410228453457552
688.0, 0.001451306840720695
689.0, 0.0011516652114051406
690.0, 0.0008596305651665196
691.0, 0.00030031668914560936
692.0, 0.0003556830018197006
693.0, 0.0006572652695523355
694.0, 0.00043975596159306115
695.0, 0.00015002137607482966
696.0, 0.0008512572702143349
697.0, 0.000716753773345133
698.0, 0.0009649835085240784
699.0, 0.0006911030771929307
700.0, 0.0004074915004004837
701.0, 0.0006102207338542271
702.0, 0.0007602591056537096
703.0, 2.3932644056832376e-05
704.0, 0.0001316889734358311
705.0, 0.0002506923451366324
706.0, 0.00012167714332447857
707.0, 0.00014741929849487628
708.0, 0.00038581917544367004
709.0, 0.000453847331078647
710.0, 0.00013946584061960807
711.0, 0.0010359603779943492
712.0, 0.000937569429471299
713.0, 0.0007819731779701256
714.0, 0.0007648747669429663
715.0, 0.00067670821741137
716.0, 0.0006083504080658715
717.0, 0.0009728448345480585
718.0, 0.0011202215600150333
719.0, 0.0015748366362295064
720.0, 0.001418027120929826
721.0, 0.0010590596174063062
722.0, 0.0010675787464806148
723.0, 0.0013139184306653422
724.0, 0.0012797960610561809
725.0, 0.0010463428341976578
726.0, 0.002265524534681879
727.0, 0.0012963874410926559
728.0, 0.0017528960147318105
729.0, 0.002204281744482621
730.0, 0.0022826012994912248
731.0, 0.0022073348183718846
732.0, 0.0019749368717069953
733.0, 0.0015736916767591915
734.0, 0.0018790149789714582
735.0, 0.0013440512182741223
736.0, 0.001381637079954299
737.0, 0.0015029465397517284
738.0, 0.001232424245769866
739.0, 0.0007846426441749587
740.0, 0.0007865354893338186
741.0, 0.0007256166601407083
742.0, 0.000841063467779315
743.0, 0.0006775775903708903
744.0, 0.0006903108047792405
745.0, 0.0005312685387819455
746.0, 0.0004884016322034659
747.0, 0.0009062464844617349
748.0, 0.0004941742839508884
749.0, 0.000962683326433673
750.0, 0.0004439110982846805
751.0, 0.0003539332297399341
752.0, 0.00040404176912637457
753.0, 0.0003759775947241666
754.0, 0.0005353126448729514
755.0, 0.0010635035900849502
756.0, 0.0007012611030988438
757.0, 0.0011648727989584608
758.0, 0.001268260330446654
759.0, 0.0005807511131249168
760.0, 0.00030573650169569413
761.0, 0.0005766006841231994
762.0, 0.0008431333199455584
763.0, 0.0009051045009773254
764.0, 0.0007598611748120547
765.0, 0.001077270414192899
766.0, 0.001183429232448176
767.0, 0.0009639774937744908
768.0, 0.0006754734219856425
769.0, 0.0006434622072854211
770.0, 0.0009338212657660585
771.0, 0.0012600095096188346
772.0, 0.0016238385974428537
773.0, 0.0014118208572787133
774.0, 0.0007874672243273686
775.0, 0.0008575569167108393
776.0, 0.0008173895703135633
777.0, 0.0006977312341044001
778.0, 0.0008545577491310252
779.0, 0.0002462196330061824
780.0, 0.000643239488865446
781.0, 0.0006860764420768753
782.0, 0.00036817867587790923
783.0, 0.0007157206573565804
784.0, 0.0012341572863085865
785.0, 0.0011589749138929642
786.0, 0.0005295200282482526
787.0, 0.00031965283036946787
788.0, 0.000627681110397388
789.0, 0.001376317525238133
790.0, 0.0014728032451963593
791.0, 0.0015463728793304271
792.0, 0.0015440277352202429
793.0, 0.0013898706813993142
794.0, 0.0011182591417913841
795.0, 0.0004975527014805965
796.0, 0.00010314027479268935
797.0, 0.000784276120626787
798.0, 0.000535222398038596
799.0, 0.0010420046674132167
800.0, 0.0009197706364478052
801.0, 0.0004141170575709676
802.0, 0.0007540142330505714
803.0, 4.230377589006061e-05
804.0, 6.726107880456669e-05
805.0, 0.0001595720687497629
806.0, 0.0001724515731412769
807.0, 0.0004516551410342466
808.0, 0.0006735018314271117
809.0, 0.0006208782926789726
810.0, 0.0005371399761004093
811.0, 0.000809054145794606
812.0, 0.0010047090654786521
813.0, 0.001159343964343321
814.0, 0.0011720445638958438
815.0, 0.001124334856530003
816.0, 0.0010724944922968604
817.0, 0.0009018351802966814
818.0, 0.000599770224476656
819.0, 0.0004294114775822292
820.0, 8.483056935567029e-05
821.0, 0.00040032876826409495
822.0, 0.0008828503576882291
823.0, 0.0012413723834043139
824.0, 0.001375111672957732
825.0, 0.0011530089562026874
826.0, 0.0009941722993909306
827.0, 0.001588463271288635
828.0, 0.0014018382481899452
829.0, 0.0013118201248672992
830.0, 0.0020621086710924455
831.0, 0.0028331328582826523
832.0, 0.004067934182747415
833.0, 0.005093372960630731
834.0, 0.006333651999461104
835.0, 0.009118937288210083
836.0, 0.01141185619221254
837.0, 0.015926971301538986
838.0, 0.02050367554620711
839.0, 0.022607861128022832
840.0, 0.022884690154486974
841.0, 0.02094170637883931
842.0, 0.01655925540434132
843.0, 0.011155487232997906
844.0, 0.007471345321542396
845.0, 0.005035474419709609
846.0, 0.00383015547796616
847.0, 0.002911776328062042
848.0, 0.002435863070145816
849.0, 0.0015585178007546812
850.0, 0.0011543657202713914
851.0, 0.0015698918994211692
852.0, 0.0011827497497897462
853.0, 0.0022426810350660645
854.0, 0.0015110033453891918
855.0, 0.0015010764784244806
856.0, 0.0011653418767817543
857.0, 0.0014064798174000326
858.0, 0.0015362247310025034
859.0, 0.001256324944420412
860.0, 0.0013420734037297287
861.0, 0.0014999627422182446
862.0, 0.0012235450104277528
863.0, 0.0006521536930520113
864.0, 0.0008812741681447544
865.0, 0.0009311275682043173
866.0, 0.00084535229154555
867.0, 0.0005595898686611156
868.0, 0.00017547519642218429
869.0, 0.00033186740588149086
870.0, 0.0005208235749643122
871.0, 0.0003317928263524999
872.0, 0.0006781899820051502
873.0, 0.0009057687155875949
874.0, 0.0005809372990588116
875.0, 0.00026013613803015404
876.0, 0.0001837686048044903
877.0, 0.00018978500193640336
878.0, 0.0007680539311110876
879.0, 0.0009943400004219134
880.0, 0.0009701663733667396
881.0, 0.0008543204864831696
882.0, 0.0009051002847034229
883.0, 0.0006738246511769242
884.0, 0.0005969250630626727
885.0, 0.0007214626385433375
886.0, 0.0002575418525935791
887.0, 9.458327856515903e-05
888.0, 0.0009639460526331969
889.0, 0.00023365561906560595
890.0, 2.1079200861510177e-05
891.0, 0.00018079927786867004
892.0, 0.00045608580718912
893.0, 0.0005926145013486008
894.0, 0.0004082662134872044
895.0, 5.41028709433463e-05
896.0, 0.0002775511647118144
897.0, 0.00038929501050748475
898.0, 0.00016495013553391696
899.0, 0.0008126817192998209
900.0, 0.0006090503925010047
901.0, 0.00029917154316727894
902.0, 0.0007369561985658295
903.0, 0.0012011119028899864
904.0, 0.0005745078293416609
905.0, 0.00010251281928850913
906.0, 0.00043017192784368223
907.0, 0.001062024133292752
908.0, 0.0007049357735975242
909.0, 0.0006878196180583622
910.0, 0.0005606110608746438
911.0, 0.0001237522259556872
912.0, 9.039342458936327e-05
913.0, 0.00021480141302150603
914.0, 7.263084285604706e-05
915.0, 0.0007384135175068013
916.0, 0.0011227203594056728
917.0, 0.000992893094708048
918.0, 0.0006211349888722696
919.0, 0.0006065270840446687
920.0, 0.0008147172513722915
921.0, 0.0007174707373502269
922.0, 0.0006907233099642156
923.0, 0.000701993884010465
924.0, 0.0010575614486070973
925.0, 0.0005483067881869866
926.0, 0.00042425370058775717
927.0, 0.0007312504956773365
928.0, 0.000613232070388192
929.0, 0.00020837652368178362
930.0, 0.0002323274222825368
931.0, 0.00020608389666330646
932.0, 0.0011377239479892116
933.0, 0.0003549105834853152
934.0, 0.0005520863889750845
935.0, 0.0013951187333088519
936.0, 0.0009692083950682143
937.0, 0.0006586155344995224
938.0, 0.0008764802963231443
939.0, 0.000684093306981359
940.0, 0.0007618634853287726
941.0, 0.00016350726562097304
942.0, 0.0004848778945633022
943.0, 0.00016020969446455986
944.0, 6.005855380567862e-05
945.0, 0.0003757416777949716
946.0, 0.0008011005681903413
947.0, 0.0009737330613388441
948.0, 0.0008944793541945028
949.0, 0.0007566320243236218
950.0, 0.00012572679747824804
951.0, 0.0006427315004344869
952.0, 0.00029424057299625166
953.0, 0.0011337117555640195
954.0, 0.0007522433204981404
955.0, 0.00039328141010068946
956.0, 0.00037875933261357015
957.0, 0.00033131634790473455
958.0, 0.000703868558516676
959.0, 0.0012687588580319116
960.0, 0.0005113804904787382
961.0, 0.00040481166451630265
962.0, 0.00035081541590925786
963.0, 0.00046349197834235376
964.0, 0.00031858812110850877
965.0, 0.0002466365926255475
966.0, 0.00042704145525096374
967.0, 0.0005325296202070908
968.0, 0.00047386822140101564
969.0, 0.0003550387755954029
970.0, 0.00029247747835986634
971.0, 0.0006128199931190962
972.0, 0.000970797639563719
973.0, 0.001328868186890774
974.0, 0.000981385825290683
975.0, 0.00034658280139656007
976.0, 0.0004148081093653507
977.0, 0.0008749237121467128
978.0, 0.00011601264189224397
979.0, 0.0009534222345381849
980.0, 0.0004799138550888966
981.0, 0.00011366174288713569
982.0, 0.0006237377109330596
983.0, 0.0011678634927373562
984.0, 0.0011690522691878138
985.0, 0.0007030844571265274
986.0, 0.0003071112284588044
987.0, 0.0004379529141561826
988.0, 0.0003759146378207452
989.0, 0.0003414823506845439
990.0, 0.00021199584003197446
991.0, 0.0010049289807773512
992.0, 0.0011213700239553152
993.0, 0.0005940208398462432
994.0, 0.0006300631764683895
995.0, 0.0008666295939169003
996.0, 0.00029729967878167345
997.0, 0.0006331862874842022
998.0, 0.0007344724583341154
999.0, 0.001063325453338055
1000.0, 0.0008647690652506598
1001.0, 0.0009924749689766404
1002.0, 0.0009243076050143256
1003.0, 0.001157255487256954
1004.0, 0.0010786065892127846
1005.0, 0.0006703088336475713
1006.0, 0.0010672222301893672
1007.0, 0.0011830482245832597
1008.0, 0.0007834244432752928
1009.0, 0.00035473433854307324
1010.0, 0.0012726708632495912
1011.0, 0.0010718655939490574
1012.0, 0.0008810291355608999
1013.0, 0.0007044976971287236
1014.0, 0.000857846894611309
1015.0, 0.0013204951446829246
1016.0, 0.0013030257963478988
1017.0, 0.0013999810436954802
1018.0, 0.0006988214166370582
1019.0, 0.0016987945447191725
1020.0, 0.0009251130941102586
1021.0, 0.0013025221687557366
1022.0, 0.0013095209704931912
1023.0, 0.0008903471443063682
1024.0, 0.0009699961522965369
1025.0, 0.0015793046293730282
1026.0, 0.0017797921533551947
1027.0, 0.0017208726429567556
1028.0, 0.0034313134563064
1029.0, 0.003189921245435385
1030.0, 0.004148647267504199
1031.0, 0.004832164031551455
1032.0, 0.005839195692200294
1033.0, 0.006347499006837482
1034.0, 0.0059173872479559445
1035.0, 0.004946447119373651
1036.0, 0.004171563006255104
1037.0, 0.004250399724867252
1038.0, 0.0040890805805053705
1039.0, 0.004952014144384661
1040.0, 0.005279471273968589
1041.0, 0.0067878180490544655
1042.0, 0.007409407646261763
1043.0, 0.009207598623237072
1044.0, 0.01119398791881338
1045.0, 0.013604523140174699
1046.0, 0.01938180591431993
1047.0, 0.030360713199572075
1048.0, 0.052181192868913956
1049.0, 0.09793193405899507
1050.0, 0.16188875731645955
1051.0, 0.22773218778263632
1052.0, 0.3501635820341733
1053.0, 0.5206366616686048
1054.0, 0.7242111014089395
1055.0, 0.907423114413877
1056.0, 0.9758966595173207
1057.0, 0.8637122385702832
1058.0, 0.6109262461486886
1059.0, 0.3175505378546551
1060.0, 0.1384447242999337
1061.0, 0.06466148479118812
1062.0, 0.034511064157761374
1063.0, 0.021939948707395997
1064.0, 0.015620100913624075
1065.0, 0.011598747759562707
1066.0, 0.008831188712108314
1067.0, 0.0069140270458864705
1068.0, 0.00554781793238595
1069.0, 0.004497414695271204
1070.0, 0.00519405055553822
1071.0, 0.0036514307328357628
1072.0, 0.003209565743186842
1073.0, 0.0032368185331906572
1074.0, 0.0029975109227025685
1075.0, 0.00247071495139613
1076.0, 0.0018327190132423374
1077.0, 0.0014150263905445442
1078.0, 0.0015764990851855416
1079.0, 0.001979787945603993
1080.0, 0.0016129666382493646
1081.0, 0.0014078099931406115
1082.0, 0.0017263621919927964
1083.0, 0.0013548907888787363
1084.0, 0.0011029314707753537
1085.0, 0.0020074232141555717
1086.0, 0.0019263597748507264
1087.0, 0.0009048379544914164
1088.0, 0.000936891498927702
1089.0, 0.001675569205487067
1090.0, 0.001077793490410324
1091.0, 0.0010855483260631964
1092.0, 0.0014442415053677116
1093.0, 0.001314461145911614
1094.0, 0.0013073356160729869
1095.0, 0.0014564924529777857
1096.0, 0.0016446212583178317
1097.0, 0.001827772738266196
1098.0, 0.0019372340734619168
1099.0, 0.0020928551395592966
1100.0, 0.0023135981606975543
1101.0, 0.0019959537530842312
1102.0, 0.0017088151578088279
1103.0, 0.0017280058763441285
1104.0, 0.0018038439697866423
1105.0, 0.001425790588289508
1106.0, 0.001837591962906886
1107.0, 0.0018357892342623493
1108.0, 0.0015606046597250545
1109.0, 0.0011218663867243726
1110.0, 0.0007823863533991936
1111.0, 0.001102036209707281
1112.0, 0.0013874404204790585
1113.0, 0.0007353112794446108
1114.0, 0.00033428891961663026
1115.0, 0.0014506583578184193
1116.0, 0.0014654558428453235
1117.0, 0.001675183490130909
1118.0, 0.0011742625215344449
1119.0, 0.001027877697861922
1120.0, 0.001201239755143555
1121.0, 0.0012920949156086322
1122.0, 0.0014557284626782973
1123.0, 0.0016277266895749786
1124.0, 0.002009675402767044
1125.0, 0.0018092754475192998
1126.0, 0.0017236122208200441
1127.0, 0.0007704087885243374
1128.0, 0.000952463512993264
1129.0, 0.0004924366405003628
1130.0, 0.0004732362456574864
1131.0, 0.0005915333845939534
1132.0, 0.0004708976313692682
1133.0, 0.00032618360704451325
1134.0, 0.0002577423954477353
1135.0, 0.0003127849196067527
1136.0, 4.00121884232483e-05
1137.0, 0.0003101016354343256
1138.0, 0.0010944020050888052
1139.0, 0.0007649667100594925
1140.0, 0.0008097381946729116
1141.0, 0.0003078041624522056
1142.0, 0.00045950590643874267
1143.0, 0.0006755108398685599
1144.0, 0.0004926231998272383
1145.0, 0.00046946591760672863
1146.0, 0.0005737426742350074
1147.0, 0.0005503038439812224
1148.0, 0.0006004719816008321
1149.0, 8.346735803733702e-05
1150.0, 0.0007401745876357529
1151.0, 0.00016377487075006878
1152.0, 0.00021348568577659894
1153.0, 0.00023869818456272567
1154.0, 0.0005390960965899175
1155.0, 0.000425212965095458
1156.0, 1.625084377506487e-05
1157.0, 0.0002930943469369625
1158.0, 0.000852725196574898
1159.0, 0.0005944880741925456
1160.0, 0.00032961160575811056
1161.0, 0.00046523675961955297
1162.0, 0.0006447529020612237
1163.0, 0.0003873203427328554
1164.0, 0.000947831978084739
1165.0, 0.0008899704307324089
1166.0, 0.0007946427777000781
1167.0, 0.0006275205210990245
1168.0, 0.0003129127284683841
1169.0, 0.0002094411529208524
1170.0, 0.00032604344146569607
1171.0, 0.000413848389689318
1172.0, 0.0004623006549351716
1173.0, 0.001243885200168411
1174.0, 0.0005301425597216073
1175.0, 0.00028998107616352495
1176.0, 0.00014413913353805873
1177.0, 0.0004146669139120692
1178.0, 0.00043927080632247793
1179.0, 0.0002538998736476375
1180.0, 0.00042750096025759987
1181.0, 0.0005400245511167495
1182.0, 0.00033675614228765476
1183.0, 0.0007524775148381569
1184.0, 0.0004189277899524129
1185.0, 0.00035084834036028744
1186.0, 0.00013251915204101983
1187.0, 0.00011050298898421445
1188.0, 0.0004891980271641635
1189.0, 0.0005530723233608951
1190.0, 0.0004031182533413622
1191.0, 0.00040718862886585854
1192.0, 0.0002575564051785596
1193.0, 6.1437898206144e-05
1194.0, 0.00014817760176640847
1195.0, 0.00023382118959462233
1196.0, 0.0002568950221240119
1197.0, 0.0008357926804314995
1198.0, 0.0007895310759413498
1199.0, 0.00021278246569323447
1200.0, 0.0002181212330391095
1201.0, 0.0006877738559602916
1202.0, 0.00038099910772380755
1203.0, 0.00017288645025603978
1204.0, 0.00017262143270019672
1205.0, 0.00017425123875866575
1206.0, 0.00011465954420688462
1207.0, 6.639894061284366e-05
1208.0, 9.670286135784313e-05
1209.0, 9.027244557649422e-05
1210.0, 2.379641991150833e-05
1211.0, 0.0001952729763273747
1212.0, 3.334229203265097e-05
1213.0, 0.0003245184119783666
1214.0, 9.128652204371318e-05
1215.0, 0.00011911108820567072
1216.0, 0.00039844910680141433
1217.0, 0.000338500418051437
1218.0, 0.0001050863073341436
1219.0, 5.2885963921008394e-05
1220.0, 0.0003300127732969594
1221.0, 0.0008099883469582396
1222.0, 0.0009345739040906231
1223.0, 0.0007035221957414131
1224.0, 0.0010267378809299518
1225.0, 0.000560944963422745
1226.0, 0.0009783372800699975
1227.0, 0.0008989954059185727
1228.0, 0.0002713562084169044
1229.0, 0.000414513742951455
1230.0, 0.0009133188240639106
1231.0, 0.001604493214713091
1232.0, 0.0014757784592793887
1233.0, 0.0006472285623418182
1234.0, 0.0003815410571557757
1235.0, 0.0005659883187981764
1236.0, 0.000583441521920083
1237.0, 0.0004331391001167247
1238.0, 0.0008554351577698936
1239.0, 0.000479072132946523
1240.0, 0.00013130387543459305
1241.0, 0.000273665243705106
1242.0, 0.00027897402116152325
1243.0, 0.0008535089487070749
1244.0, 0.0013350497395020176
1245.0, 0.001798230305502244
1246.0, 0.0018813428507429742
1247.0, 0.0012820389821683459
1248.0, 0.0005047133812510093
1249.0, 0.0002612473934431634
1250.0, 0.0011026804314712337
1251.0, 0.0012523176661569076
1252.0, 0.0007036864561611042
1253.0, 0.0012607609413805934
1254.0, 0.0010385251303353074
1255.0, 0.0016733442664658427
1256.0, 0.0008940377399396577
1257.0, 0.0006641732371463105
1258.0, 0.0009677319411704714
1259.0, 0.0013393302703377612
1260.0, 0.0017089078987828359
1261.0, 0.001970538803481833
1262.0, 0.0020530106716107155
1263.0, 0.001953818142838152
1264.0, 0.0016025236597629387
1265.0, 0.001795987338859552
1266.0, 0.0013995043238475787
1267.0, 0.0010523705434709698
1268.0, 0.001004032240687203
1269.0, 0.001788145905043384
1270.0, 0.0014285413332878905
1271.0, 0.002191778088149245
1272.0, 0.0019904334486809294
1273.0, 0.0017549568627493843
1274.0, 0.0019859008860011835
1275.0, 0.0021687970138190775
1276.0, 0.002143444436788842
1277.0, 0.001881654366648906
1278.0, 0.001559468801818236
1279.0, 0.0019204630076663305
1280.0, 0.001887579418597188
1281.0, 0.0024264250467830387
1282.0, 0.002654148136096562
1283.0, 0.002509193270401317
1284.0, 0.0027963160981902047
1285.0, 0.002848438849097422
1286.0, 0.0027274343530299056
1287.0, 0.0025960877521584986
1288.0, 0.002852510673640383
1289.0, 0.0028962643327508867
1290.0, 0.00278957100553798
1291.0, 0.002976121651554255
1292.0, 0.0030575539954050077
1293.0, 0.0030358425806124487
1294.0, 0.0036486135840850813
1295.0, 0.00373721327895524
1296.0, 0.003791033568943951
1297.0, 0.0037170785726535825
1298.0, 0.004607661728307977
1299.0, 0.004908591854632351
1300.0, 0.005673977672063133
1301.0, 0.0055810356225745855
1302.0, 0.0058678352109984904
1303.0, 0.006806721856663265
1304.0, 0.0064178348596768174
1305.0, 0.0058495150895009245
1306.0, 0.006190290996128471
1307.0, 0.006604706287930416
1308.0, 0.00702462410288954
1309.0, 0.007449508076578626
1310.0, 0.007951948466455493
1311.0, 0.008045505649107861
1312.0, 0.008256720483338493
1313.0, 0.008368138470174931
1314.0, 0.00827530324522378
1315.0, 0.008727004304151643
1316.0, 0.009025966166979477
1317.0, 0.008980512894226996
1318.0, 0.009911070508471523
1319.0, 0.011027508206932334
1320.0, 0.01130781034846168
1321.0, 0.010980669400736286
1322.0, 0.010781942689491612
1323.0, 0.011087239934926822
1324.0, 0.01116750418669868
1325.0, 0.010629436577272257
1326.0, 0.0115716233615102
1327.0, 0.01113962633132889
1328.0, 0.011077196428239885
1329.0, 0.011324789281859223
1330.0, 0.01068909037332343
1331.0, 0.010768618490653577
1332.0, 0.012230039658695551
1333.0, 0.012389753790642253
1334.0, 0.01167343325141042
1335.0, 0.012398080127707836
1336.0, 0.01256833906164275
1337.0, 0.012836332021954742
1338.0, 0.013595958574190561
1339.0, 0.013930492485177068
1340.0, 0.014132454611170606
1341.0, 0.014573875148197465
1342.0, 0.015097229118785123
1343.0, 0.01563416143898827
1344.0, 0.016337097918131555
1345.0, 0.01693961709911515
1346.0, 0.017784033779418774
1347.0, 0.01852230091783179
1348.0, 0.020300301515353524
1349.0, 0.02185925351802429
1350.0, 0.02417250925065912
1351.0, 0.026748171016227
1352.0, 0.029320287846822328
1353.0, 0.03268106601976798
1354.0, 0.03655049512181937
1355.0, 0.03935153374081376
1356.0, 0.04219046184317141
1357.0, 0.04650563677059547
1358.0, 0.05111473632722635
1359.0, 0.05622385986583964
1360.0, 0.06177397246958843
1361.0, 0.06514922486125302
1362.0, 0.06778292837137656
1363.0, 0.06968263510339821
1364.0, 0.07269153359006222
1365.0, 0.0723903548443604
1366.0, 0.0700297979436363
1367.0, 0.06759984573711979
1368.0, 0.06156950516186342
1369.0, 0.05569161195106354
1370.0, 0.05165339397645636
1371.0, 0.047103121024304404
1372.0, 0.04253867327900165
1373.0, 0.03817817919237051
1374.0, 0.034120607923796724
1375.0, 0.03073422749651286
1376.0, 0.027291622498734607
1377.0, 0.024287904683855506
1378.0, 0.022044048500731356
1379.0, 0.019173280525195232
1380.0, 0.01840421834925469
1381.0, 0.01583279348770955
1382.0, 0.015081449653139118
1383.0, 0.01298787709997682
1384.0, 0.01251262005581083
1385.0, 0.01154556562535931
1386.0, 0.010510203755823417
1387.0, 0.009631510618502565
1388.0, 0.008668521383526022
1389.0, 0.00755508680930151
1390.0, 0.006756204935455916
1391.0, 0.00606917537164297
1392.0, 0.005389361417588604
1393.0, 0.004823064332752306
1394.0, 0.004323957591109538
1395.0, 0.0038688495676310005
1396.0, 0.0034867033449043614
1397.0, 0.0033211816104483155
1398.0, 0.003097214634755404
1399.0, 0.0029812533891292966
1400.0, 0.0032484132495718765
1401.0, 0.0035693475863953
1402.0, 0.001824539600140581
1403.0, 0.0017338715668921696
1404.0, 0.0019256749032470002
1405.0, 0.0016602812463075258
1406.0, 0.002252721028498226
1407.0, 0.0024771011358354672
1408.0, 0.00228000048618807
1409.0, 0.0023622877375362094
1410.0, 0.0023260075088147383
1411.0, 0.0028605857901654176
1412.0, 0.0026964255711151163
1413.0, 0.002469174215644809
1414.0, 0.0028388402917841893
1415.0, 0.0025635752880971414
1416.0, 0.0030454007941903166
1417.0, 0.0029933314422827344
1418.0, 0.0030832501494084527
1419.0, 0.003675943340123957
1420.0, 0.002936140974742679
1421.0, 0.003353244531122332
1422.0, 0.0029962363521589433
1423.0, 0.002377781716341491
1424.0, 0.002468399112535014
1425.0, 0.002115506112666539
1426.0, 0.0021514505272836057
1427.0, 0.002422324288510851
1428.0, 0.0020264842174038556
1429.0, 0.002055997162936021
1430.0, 0.0021234465714398765
1431.0, 0.0023236575629324075
1432.0, 0.002047548374913104
1433.0, 0.0017388929297501245
1434.0, 0.0018031249720625482
1435.0, 0.0017269082256857657
1436.0, 0.001531722850169384
1437.0, 0.001437339605804888
1438.0, 0.001630670680830934
1439.0, 0.0018857041006386103
1440.0, 0.0016364657645503342
1441.0, 0.0018354431487824622
1442.0, 0.0011356340956881676
1443.0, 0.0002308257412089261
1444.0, 0.0017030822313735474
1445.0, 0.0012611632949418288
1446.0, 0.0022641105334348195
1447.0, 0.0011831891783038988
1448.0, 0.0006979117858128398
1449.0, 0.0019008148380048962
1450.0, 0.0009165085742720552
1451.0, 0.0012391220556595161
1452.0, 0.0013892068505289346
1453.0, 0.0016338573257960267
1454.0, 0.0022675816115043236
1455.0, 0.0018802564997871772
1456.0, 0.0014467819237904342
1457.0, 0.001955929036073898
1458.0, 0.002334758271994523
1459.0, 0.0020906647378674827
1460.0, 0.0018795958616719816
1461.0, 0.0023094523426519485
1462.0, 0.002108169877704573
1463.0, 0.0019628621276599877
1464.0, 0.0021268636582214514
1465.0, 0.0026538207623388404
1466.0, 0.00244529874997241
1467.0, 0.002346208860841109
1468.0, 0.0025190413292258645
1469.0, 0.0020473881387644984
1470.0, 0.0033163289256143307
1471.0, 0.0019207628342952016
1472.0, 0.0031070920107082473
1473.0, 0.0027070771994820325
1474.0, 0.002471588439210585
1475.0, 0.002504290632550724
1476.0, 0.003110923897743995
1477.0, 0.002600369274762142
1478.0, 0.002683436359795024
1479.0, 0.0027340799553427675
1480.0, 0.0024946869544083604
1481.0, 0.0026151576139868777
1482.0, 0.0029461716617216658
1483.0, 0.00304156062703666
1484.0, 0.0027875142263080618
1485.0, 0.0025707644344889445
1486.0, 0.0018732649953024664
1487.0, 0.001969198329447135
1488.0, 0.002206883470310465
1489.0, 0.002411856516235439
1490.0, 0.0022645198289274306
1491.0, 0.002294385376950403
1492.0, 0.001997023241580883
1493.0, 0.001959652750722107
1494.0, 0.0016381935354825507
1495.0, 0.0011941464511264332
1496.0, 0.00188415140808465
1497.0, 0.0007854990352807207
1498.0, 0.0011932133690963377
1499.0, 0.0008171627881208584
1500.0, 0.0012235178024578566
1501.0, 0.0005152545277333706
1502.0, 0.00028931166375455305
1503.0, 0.0006358259674448025
1504.0, 0.00036439284493735696
1505.0, 0.0001773323537215669
1506.0, 0.0002774853296964966
1507.0, 0.0003879306867842945
1508.0, 0.0004577259607185444
1509.0, 0.0004741355228939832
1510.0, 0.0003781437307013048
1511.0, 0.0004735683178077608
1512.0, 0.0006772394089668863
1513.0, 0.0002530433301609221
1514.0, 0.000275658681245061
1515.0, 0.00045417860851623736
1516.0, 0.00027630732094536593
1517.0, 0.0006939750013151919
1518.0, 0.00016731615016314083
1519.0, 0.0002071827307814563
1520.0, 0.00010145667787686148
1521.0, 7.104960419751585e-05
1522.0, 0.00010440605498452621
1523.0, 0.00041717271877249383
1524.0, 0.00029929039552560756
1525.0, 0.0008121517509714456
1526.0, 0.0012751392169390962
1527.0, 0.000348397448872162
1528.0, 0.0008450463614509244
1529.0, 0.0003081097643317296
1530.0, 0.0006362739837212674
1531.0, 0.0006840903140525814
1532.0, 0.0009687553731394233
1533.0, 0.0007158622864041158
1534.0, 0.0003316786220727435
1535.0, 0.00033756275128726885
1536.0, 0.00041418683839444223
1537.0, 0.0008241385221392774
1538.0, 0.0007281901834512401
1539.0, 0.0006097396515324918
1540.0, 0.0008261018440320107
1541.0, 0.0012425630366303512
1542.0, 0.0017984433663780905
1543.0, 0.001311426587390954
1544.0, 0.0011385288718283753
1545.0, 0.0013059591798623
1546.0, 0.0008582821975099365
1547.0, 0.0009264677447882109
1548.0, 0.001611618519439396
1549.0, 0.0017437023221769132
1550.0, 0.0011616794648729699
1551.0, 0.0012934376379184747
1552.0, 0.0009215790381514891
1553.0, 0.0006423701647385385
1554.0, 0.0008340738076055093
1555.0, 0.0006720892099939351
1556.0, 0.0008351359720650507
1557.0, 0.0013560283287796329
1558.0, 0.0013619562875042505
1559.0, 0.0005816035825836651
1560.0, 0.0013277392733430087
1561.0, 0.0009953744806159373
1562.0, 0.0003067846205757046
1563.0, 0.00030747964585838017
1564.0, 0.0007612695956675451
1565.0, 0.0010150918016596684
1566.0, 0.0008704918502672634
1567.0, 0.0012126987730900962
1568.0, 0.0004516972480434872
1569.0, 0.001037475094015844
1570.0, 0.000595425518533977
1571, 0.0
1572, 0.0
1573, 0.0
1574, 0.0
1575, 0.0
1576, 0.0
1577, 0.0
1578, 0.0
1579, 0.0
1580, 0.0
1581, 0.0
1582, 0.0
1583, 0.0
1584, 0.0
1585, 0.0
1586, 0.0
1587, 0.0
1588, 0.0
1589, 0.0
1590, 0.0
1591, 0.0
1592, 0.0
1593, 0.0
1594, 0.0
1595, 0.0
1596, 0.0
1597, 0.0
1598, 0.0
1599, 0.0
