30, 0.0
31, 0.0
32, 0.0
33, 0.0
34, 0.0
35, 0.0
36, 0.0
37, 0.0
38, 0.0
39, 0.0
40, 0.0
41, 0.0
42, 0.0
43, 0.0
44, 0.0
45, 0.0
46, 0.0
47, 0.0
48, 0.0
49, 0.0
50, 0.0
51.0, 1.1493465190077953e-05
52.0, 0.00017568582504833366
53.0, 0.00034185417781346203
54.0, 0.0005189066477654893
55.0, 0.000723826092860775
56.0, 0.001060274276806099
57.0, 0.00116158261439285
58.0, 0.0009656117376187104
59.0, 0.0009871562152883218
60.0, 0.0008723906914308269
61.0, 0.0006619653913039923
62.0, 0.0003849311031690406
63.0, 0.00021976218036489977
64.0, 0.00011886909853157572
65.0, 8.940576690940981e-05
66.0, 0.0004736129344342649
67.0, 0.0012427741114904062
68.0, 0.002315282726938208
69.0, 0.0036595833577353046
70.0, 0.005881683702917981
71.0, 0.007965137817191397
72.0, 0.009626416431891195
73.0, 0.011121616344671636
74.0, 0.01171526055625926
75.0, 0.011849337178221593
76.0, 0.012226472759978686
77.0, 0.011995349072650567
78.0, 0.011703140816170614
79.0, 0.011513283216820944
80.0, 0.011848383842768876
81.0, 0.011925138984928915
82.0, 0.012016112171304038
83.0, 0.012667985164211151
84.0, 0.012802136259897247
85.0, 0.013240756656630383
86.0, 0.014208162650866331
87.0, 0.01477741460461869
88.0, 0.016045265086285412
89.0, 0.017503681572611007
90.0, 0.01826394072117608
91.0, 0.0191928802352841
92.0, 0.020050725885087505
93.0, 0.02076758665464837
94.0, 0.021293690476239
95.0, 0.022199633288785294
96.0, 0.02328482930288164
97.0, 0.02427637313619097
98.0, 0.024832038349642982
99.0, 0.025822479376426143
100.0, 0.027353648516556334
101.0, 0.027608506678558537
102.0, 0.028939719830223264
103.0, 0.0305409529151935
104.0, 0.0313491293552448
105.0, 0.03246333004489607
106.0, 0.03367736274744721
107.0, 0.03501755136326031
108.0, 0.03715820720904756
109.0, 0.04036886544286317
110.0, 0.04376586409809141
111.0, 0.046386324645026934
112.0, 0.050921497559887625
113.0, 0.054875193611260635
114.0, 0.05820739589195779
115.0, 0.06322751366646201
116.0, 0.06610848182667625
117.0, 0.06746912744208301
118.0, 0.0674302021751145
119.0, 0.06722946443277625
120.0, 0.06626429561660412
121.0, 0.06489888811885358
122.0, 0.06523835966919425
123.0, 0.06418640213356314
124.0, 0.06308593080538837
125.0, 0.06278566094418318
126.0, 0.06428031255074325
127.0, 0.06551197615488127
128.0, 0.06656915121476004
129.0, 0.06804172918308102
130.0, 0.06659284877906221
131.0, 0.06474317642480197
132.0, 0.0635377512288854
133.0, 0.05935242823294037
134.0, 0.05559877763028648
135.0, 0.05205738600611668
136.0, 0.04827214206550632
137.0, 0.044497532955537746
138.0, 0.04156406278619401
139.0, 0.03964456100453749
140.0, 0.03624775694996897
141.0, 0.033519088056273176
142.0, 0.031416980751325534
143.0, 0.03007312496358579
144.0, 0.028452434866392852
145.0, 0.027254280975007122
146.0, 0.02653021959939255
147.0, 0.025715513114603496
148.0, 0.025267813535506226
149.0, 0.02460573414440761
150.0, 0.02317309754490437
151.0, 0.022752419264682563
152.0, 0.02215023542760661
153.0, 0.021325974872832675
154.0, 0.020448691127594145
155.0, 0.01993980917682128
156.0, 0.019262077290514625
157.0, 0.01813214704897247
158.0, 0.017680411306171966
159.0, 0.0170019974640221
160.0, 0.016334225234775932
161.0, 0.016226862807143753
162.0, 0.01578256444231987
163.0, 0.015390092132118643
164.0, 0.015170737988959928
165.0, 0.015354249563611725
166.0, 0.015623195398877474
167.0, 0.01566565328455857
168.0, 0.01505335472464546
169.0, 0.015459012503991313
170.0, 0.015807322581180682
171.0, 0.016019426684488414
172.0, 0.01632999899127502
173.0, 0.0163183790679315
174.0, 0.016153208094491254
175.0, 0.01590774243219107
176.0, 0.015711975485488725
177.0, 0.01587208299931729
178.0, 0.01602396649027522
179.0, 0.01526025338639533
180.0, 0.015283011312821096
181.0, 0.015208384771947057
182.0, 0.01485752942081629
183.0, 0.015194532586436592
184.0, 0.015411107077912553
185.0, 0.015477117378400199
186.0, 0.015320885297601726
187.0, 0.015465408501172988
188.0, 0.015483292610835132
189.0, 0.015557157927005833
190.0, 0.016720608845210493
191.0, 0.017478456958717435
192.0, 0.017725676072388674
193.0, 0.017362334244172883
194.0, 0.018349105398938182
195.0, 0.018809433743410785
196.0, 0.019102070951428057
197.0, 0.019860510518011493
198.0, 0.020764774767566364
199.0, 0.021642854500360596
200.0, 0.022476301742032634
201.0, 0.023386269412376762
202.0, 0.02447029250055739
203.0, 0.025756477416086287
204.0, 0.027303187446641945
205.0, 0.027948235191537482
206.0, 0.029416217886158273
207.0, 0.031303083534808
208.0, 0.03241360059768599
209.0, 0.033312511002925684
210.0, 0.034205295444273635
211.0, 0.03518172885160457
212.0, 0.0366471672381031
213.0, 0.037061078732853955
214.0, 0.03660962913508086
215.0, 0.03529255597005551
216.0, 0.03535207495029743
217.0, 0.03450399031454084
218.0, 0.033038289311753614
219.0, 0.03244706667888187
220.0, 0.031858287539129254
221.0, 0.031049471691471223
222.0, 0.0299684278184823
223.0, 0.029445283364689143
224.0, 0.02860584258776034
225.0, 0.02769708958517515
226.0, 0.026995995473767544
227.0, 0.025672852425684674
228.0, 0.024496279036838223
229.0, 0.02336931621586887
230.0, 0.021637823129846884
231.0, 0.01991286537993177
232.0, 0.018506998625739627
233.0, 0.017530750891096538
234.0, 0.016182329055766043
235.0, 0.015071197868260762
236.0, 0.014219639802893683
237.0, 0.01370891949855677
238.0, 0.012723920317936557
239.0, 0.011776656582066053
240.0, 0.010922119210893498
241.0, 0.010192489659804538
242.0, 0.009929895744579701
243.0, 0.009546562176968695
244.0, 0.008838816638158135
245.0, 0.008200037383454638
246.0, 0.007802372148272359
247.0, 0.007404918706972728
248.0, 0.006744576724326913
249.0, 0.006754821880371602
250.0, 0.00640118207358281
251.0, 0.00583853772075159
252.0, 0.005785762177510555
253.0, 0.005294548418979038
254.0, 0.004896438088590746
255.0, 0.004720421425517588
256.0, 0.004285308822670217
257.0, 0.004116836192280916
258.0, 0.003944740815100748
259.0, 0.0035343819996817446
260.0, 0.003099979723296951
261.0, 0.003064110758912782
262.0, 0.0031643450918338516
263.0, 0.002752664697774259
264.0, 0.0023514063179011224
265.0, 0.0022275890096105297
266.0, 0.0023140303398856083
267.0, 0.0016592178213427702
268.0, 0.0019110932026580646
269.0, 0.002256156148508646
270.0, 0.002214555606710327
271.0, 0.002085121124347835
272.0, 0.001990493560096501
273.0, 0.0018376392958596131
274.0, 0.0014659532199842922
275.0, 0.0018622206393994205
276.0, 0.0019012945131666394
277.0, 0.001609420693175794
278.0, 0.0016832051962763033
279.0, 0.0017367438560859708
280.0, 0.0017958432813358332
281.0, 0.0018558553095599766
282.0, 0.0016864890194827602
283.0, 0.0015083412383477602
284.0, 0.0013882716298706955
285.0, 0.0013982016997801392
286.0, 0.001064819321767457
287.0, 0.0010210642685246564
288.0, 0.0011762282003704271
289.0, 0.001289154903143358
290.0, 0.0012146162842354652
291.0, 0.0011724743488391281
292.0, 0.0011431862600197091
293.0, 0.0007557067515497202
294.0, 0.0008958523158454936
295.0, 0.0010022601589715966
296.0, 0.0008120395903953189
297.0, 0.0007707469197425004
298.0, 0.0007808665567864972
299.0, 0.0008359903787481985
300.0, 0.0009358601288075169
301.0, 0.0010128126006358873
302.0, 0.0009694307746160388
303.0, 0.0008355066591069317
304.0, 0.0006915469101777922
305.0, 0.0005148295951495998
306.0, 0.000369596062923355
307.0, 0.00029536581347732713
308.0, 0.0004466607750633993
309.0, 0.0005102281795018667
310.0, 0.00045419706705418815
311.0, 0.0002623249407655952
312.0, 0.00017008316622867654
313.0, 0.00023287665786501062
314.0, 0.00033560441256413984
315.0, 0.00035878693712036643
316.0, 0.0002111849078013067
317.0, 0.0001446502729699636
318.0, 0.00012180386255805131
319.0, 3.066724163080146e-05
320.0, 0.0001370375460409061
321.0, 0.00013902858539500273
322.0, 3.157174141184198e-05
323.0, 6.716883744862304e-05
324.0, 8.25965221708362e-05
325.0, 0.00013797050912120107
326.0, 0.000241525839310665
327.0, 0.00013043166130398897
328.0, 0.0002522174455535202
329.0, 0.0003361120870214967
330.0, 0.00015897444219146857
331.0, 0.00010861676238234098
332.0, 9.253412213357649e-05
333.0, 9.91437749602824e-05
334.0, 0.00011503645008899074
335.0, 0.00013016820994999584
336.0, 0.00019536739321607898
337.0, 0.00029199017935892143
338.0, 0.0003469595251632064
339.0, 0.00018742615589357838
340.0, 0.00010099366465040341
341.0, 0.00016128122993632182
342.0, 0.00035780764079245157
343.0, 0.0002017395908717712
344.0, 0.00013718370237811962
345.0, 0.00035119101946345466
346.0, 0.00011001182693218705
347.0, 8.195355120670346e-05
348.0, 9.878108239507949e-05
349.0, 1.2365473443010322e-05
350.0, 4.205031289300452e-05
351.0, 7.908756531293365e-05
352.0, 0.00012976728274647912
353.0, 0.00021079568868699985
354.0, 0.0003155993038015715
355.0, 0.00025142081002515934
356.0, 9.800630475852221e-05
357.0, 0.0001441975337786584
358.0, 0.00015130799921836714
359.0, 9.70223427945501e-05
360.0, 1.184567351376008e-06
361.0, 3.755052411500928e-06
362.0, 7.797351982713534e-05
363.0, 0.0002000482235845088
364.0, 0.000334195299876109
365.0, 0.00014387770066514184
366.0, 0.0001766723844818538
367.0, 0.00025924198669260464
368.0, 0.0002756775270346244
369.0, 0.000292714376309714
370.0, 0.000258560318680037
371.0, 0.00023341241445849878
372.0, 0.00028941539307750317
373.0, 0.00013592438179210379
374.0, 0.0001884908537035718
375.0, 0.00031839663676237615
376.0, 0.0002453830446654742
377.0, 0.00010144314180120935
378.0, 6.087074561055128e-05
379.0, 0.00013711996980960027
380.0, 0.0003122620573762592
381.0, 0.0003537117209446448
382.0, 0.0003007008140401951
383.0, 0.00022655063675540383
384.0, 0.00046431842528346743
385.0, 0.0003136153019263102
386.0, 0.00012192205642349079
387.0, 2.323266317661292e-05
388.0, 5.3790817293486304e-05
389.0, 0.00020913224083005612
390.0, 0.0002774281983936875
391.0, 0.0001427107117555242
392.0, 8.019975459138894e-05
393.0, 0.0001987954179683521
394.0, 0.0002644009399758076
395.0, 7.035488863774047e-05
396.0, 7.59199986075443e-05
397.0, 6.549909587531751e-05
398.0, 9.259396364002831e-05
399.0, 0.00023269226038079267
400.0, 8.732824126377072e-05
401.0, 4.233112234304334e-05
402.0, 0.00012932582838468955
403.0, 0.00037777632960198695
404.0, 0.0001343559982293772
405.0, 1.8834652831306035e-05
406.0, 5.376562167899787e-05
407.0, 0.00011187356470120243
408.0, 0.00011041676010820536
409.0, 0.00014860856948387843
410.0, 0.0001961259184147424
411.0, 6.043565162291859e-05
412.0, 0.00028726598231614155
413.0, 0.000408067535433463
414.0, 0.00033087245192408725
415.0, 0.00028809133283016293
416.0, 0.00014227336717765945
417.0, 9.276512346356942e-05
418.0, 0.00017942077723359358
419.0, 4.258858167671759e-05
420.0, 1.3584932007133759e-05
421.0, 0.00013089797257541548
422.0, 0.0003894120515393207
423.0, 0.00030749908027230424
424.0, 0.00040950195654952643
425.0, 0.0004639170038168126
426.0, 0.00031727187074457556
427.0, 0.0003115548923047947
428.0, 0.00029559142159149543
429.0, 0.00032794037396796275
430.0, 0.0004637643247977734
431.0, 0.00041805882249522304
432.0, 0.00023582742982959483
433.0, 9.871750662810027e-05
434.0, 0.0002226569428488024
435.0, 0.00040820891441259417
436.0, 0.00045714928672306
437.0, 0.0004856537398287263
438.0, 0.0006731475139115146
439.0, 0.0004928667333065947
440.0, 0.0005078632616257793
441.0, 0.0006054577690784388
442.0, 0.0005192763140236469
443.0, 0.0004206850426856902
444.0, 0.0003894897836024754
445.0, 0.0003596105439215339
446.0, 0.00016821801674851111
447.0, 0.000419848755797796
448.0, 0.0005656049739655367
449.0, 0.0005774285803294946
450.0, 0.0005690169075133006
451.0, 0.0007423509723486892
452.0, 0.0006575667409841621
453.0, 0.00041563141211679514
454.0, 0.0005641679699828785
455.0, 0.00045572777695403996
456.0, 0.00033641401129915437
457.0, 0.0003105823926373855
458.0, 0.0005765191812588658
459.0, 0.00042632816186393677
460.0, 0.0003257577954262111
461.0, 0.0003613695179666255
462.0, 0.0004174744752004676
463.0, 0.0003337605026640393
464.0, 0.00048498919763669056
465.0, 0.0008047485759162808
466.0, 0.0004429812293384768
467.0, 0.0006310384462099952
468.0, 0.0007214944091027368
469.0, 0.0005736815076557548
470.0, 0.0005505236847465405
471.0, 0.0004939402221472475
472.0, 0.0004962090074770213
473.0, 0.0005802554444522902
474.0, 0.0006830829199887577
475.0, 0.0006750132492331029
476.0, 0.0007199073398914434
477.0, 0.0008100513627026382
478.0, 0.0004710966838193381
479.0, 0.00029510866990014743
480.0, 0.0003922301177958047
481.0, 0.0007303578637480635
482.0, 0.0007161722771954507
483.0, 0.0007618673553333675
484.0, 0.0008958100456194813
485.0, 0.0010347369324550473
486.0, 0.00044535334329360833
487.0, 0.0003574696209519351
488.0, 0.0005188693112071155
489.0, 0.0007603045894293628
490.0, 0.0005733789402580256
491.0, 0.00045037892664457615
492.0, 0.00047753190589277806
493.0, 0.0006760997820611499
494.0, 0.0008876140823490314
495.0, 0.0006751604348293686
496.0, 0.0004491994018982999
497.0, 0.000397395270548611
498.0, 0.0005797266296367259
499.0, 0.0007092704606677881
500.0, 0.0006293848039212761
501.0, 0.00034291026929456926
502.0, 0.0004107770277700341
503.0, 0.0004761195154054731
504.0, 0.0004833411758461774
505.0, 0.00043461851447162053
506.0, 0.0005144311892410902
507.0, 0.000603052169115541
508.0, 0.0005387755094945219
509.0, 0.0003272904212057534
510.0, 0.0004319506674189339
511.0, 0.00034783647382392744
512.0, 0.000320984747416155
513.0, 0.0004017152416456081
514.0, 0.0003442595055147865
515.0, 0.0003718556561281182
516.0, 0.00040182411321007744
517.0, 0.0003776066384236442
518.0, 0.00015263966426963698
519.0, 0.00031811166006288905
520.0, 0.0003425586243214023
521.0, 0.00014889756919313438
522.0, 0.00014788350126603413
523.0, 0.0002235884740109616
524.0, 0.00022120061239538184
525.0, 0.00016158790825899493
526.0, 0.00029931504480808793
527.0, 0.00029581842890301157
528.0, 0.00027555239544572687
529.0, 0.00029057895445999996
530.0, 0.0004181747790959309
531.0, 0.0002996218138827609
532.0, 0.00024362035582518272
533.0, 0.0002689119990141351
534.0, 0.00024821757593642416
535.0, 9.86578328618966e-05
536.0, 0.00013969153965088792
537.0, 0.00026080144400876813
538.0, 5.840017192171303e-05
539.0, 0.00026952156768110416
540.0, 0.00031998579876434233
541.0, 0.00021572787278505194
542.0, 0.0001197874851725147
543.0, 0.00020799123094554143
544.0, 0.00018427748299494512
545.0, 8.966100140031802e-05
546.0, 4.038967470408177e-05
547.0, 8.849455227630098e-05
548.0, 7.805951793987196e-05
549.0, 0.00010430462462702787
550.0, 0.0003128161237959705
551.0, 0.00016490216926294256
552.0, 0.00023169531760088512
553.0, 0.0003130483445994361
554.0, 0.00016565150044803648
555.0, 0.0003469758898440214
556.0, 0.00020764353433602633
557.0, 1.849466441615974e-05
558.0, 2.0979682412623446e-05
559.0, 5.4622148154794646e-05
560.0, 0.00023054570572984899
561.0, 0.0003212659600807903
562.0, 0.0001981548572651673
563.0, 0.0003388769401797867
564.0, 0.00022509739684300863
565.0, 8.994552001555756e-05
566.0, 6.96173228444079e-05
567.0, 0.0002383625646415552
568.0, 0.0003154526147051911
569.0, 0.0002455993955621634
570.0, 0.0001009617038101243
571.0, 0.00041619321940059733
572.0, 0.0003976400138713283
573.0, 0.000321295698005248
574.0, 0.00024022636749673163
575.0, 3.830445441660244e-05
576.0, 0.00024989410228565224
577.0, 0.0003746571777710912
578.0, 0.0004107156780003148
579.0, 0.0006461707424003592
580.0, 0.0004797479317894147
581.0, 0.00032464574534075735
582.0, 0.0002785006928209149
583.0, 0.00042088306663813163
584.0, 0.0003031413205953674
585.0, 0.0003054757567315886
586.0, 0.0002964048710027855
587.0, 5.361344166328162e-05
588.0, 0.00043414292020576396
589.0, 0.0005473342154217005
590.0, 0.0004978430091636
591.0, 0.0004135828166272439
592.0, 0.00030336190848754825
593.0, 0.0004651191567866443
594.0, 0.0005229936276211146
595.0, 0.00025510527362321647
596.0, 0.00018444388168765698
597.0, 0.00026427843000398674
598.0, 0.0004278742294267005
599.0, 0.0005713094008813928
600.0, 0.00024715314902205084
601.0, 0.00033078296163762186
602.0, 0.0002777345443093784
603.0, 7.053508638342467e-05
604.0, 0.00029183061318304414
605.0, 0.000353551610144485
606.0, 0.0003234693433090399
607.0, 0.00022639246362786083
608.0, 8.85948285848571e-05
609.0, 7.18767350712917e-05
610.0, 0.00020226415496449608
611.0, 0.0003747199442804524
612.0, 0.0004231116951304152
613.0, 0.0005101081444870609
614.0, 0.0004763990048477383
615.0, 0.00041440057503602427
616.0, 0.0004255966574907443
617.0, 0.0005405087506871639
618.0, 0.0007124337932532539
619.0, 0.0008113091985514017
620.0, 0.0007638403527102596
621.0, 0.0006917506458247802
622.0, 0.0007839889192372546
623.0, 0.0007035282350362031
624.0, 0.00046964749889738533
625.0, 0.0008379214077790305
626.0, 0.0008046816125500544
627.0, 0.0008953680820958844
628.0, 0.0010795483660178407
629.0, 0.0009268546341820327
630.0, 0.0008463892671610585
631.0, 0.0008605967844395589
632.0, 0.0009168463990709916
633.0, 0.000925257234988089
634.0, 0.001023224502314592
635.0, 0.0009229903010999025
636.0, 0.0007955111616003092
637.0, 0.0008077940104701533
638.0, 0.0005752277220957908
639.0, 0.0007291596128304458
640.0, 0.000831446166076889
641.0, 0.0006576278875809384
642.0, 0.0005316202313280745
643.0, 0.00027778161954275575
644.0, 0.00024390842328252037
645.0, 0.00043157800099994303
646.0, 0.00039905989616049434
647.0, 0.00031992795714422376
648.0, 0.0003009132164503955
649.0, 0.0002950563268807786
650.0, 0.0001688213647963781
651.0, 0.00025594950252763517
652.0, 0.0002720406342261226
653.0, 0.00029115460868682096
654.0, 0.00041638435579023636
655.0, 0.0004368999679632319
656.0, 0.0004954544235631865
657.0, 0.0005372201732208807
658.0, 0.0005232701595558707
659.0, 0.00043664124627446863
660.0, 0.0003291875668628462
661.0, 0.0002676617283332388
662.0, 0.0003480811798902767
663.0, 0.0008365979617814577
664.0, 0.0010685759960995724
665.0, 0.0012547964571341813
666.0, 0.0016832778206553392
667.0, 0.0028280463795586825
668.0, 0.004523709706829857
669.0, 0.0060908628313893496
670.0, 0.0076178845454459515
671.0, 0.009290250288519781
672.0, 0.012516285254286849
673.0, 0.013587913369089126
674.0, 0.012062957203987172
675.0, 0.008175992625297801
676.0, 0.00474672785832692
677.0, 0.0026636854478267885
678.0, 0.001510314605682649
679.0, 0.0010928283439044942
680.0, 0.0012036420285447631
681.0, 0.0010016022810594278
682.0, 0.0008957880485897933
683.0, 0.0008108194622531798
684.0, 0.0005746692723838857
685.0, 0.0004861859547564491
686.0, 0.00029317245131577535
687.0, 0.00015876150872600064
688.0, 0.0001841079565374865
689.0, 0.00015923096436641943
690.0, 0.00027244100827249684
691.0, 0.00043163648275033493
692.0, 0.0006256416007496009
693.0, 0.0009368159516621915
694.0, 0.0009207876869200609
695.0, 0.0011009237228754615
696.0, 0.001191912476469182
697.0, 0.0005932472714553382
698.0, 0.0003726673974250085
699.0, 0.00036112412088517946
700.0, 0.00031957735975542037
701.0, 0.00011705166663556014
702.0, 0.0005137043611215864
703.0, 0.000399413823476863
704.0, 0.00020004799130226463
705.0, 9.75319446932099e-05
706.0, 0.00011617889115710695
707.0, 0.00010921953040085204
708.0, 0.00014703042584572493
709.0, 0.00020935659871668103
710.0, 0.0002426235683462845
711.0, 0.0003005191710178111
712.0, 0.00047009870072007697
713.0, 0.000538457506662138
714.0, 0.0003725084499667162
715.0, 0.00039195273016519994
716.0, 0.000409705546765835
717.0, 0.0004675509858688759
718.0, 0.0005708230734920871
719.0, 0.0006850282179944726
720.0, 0.0006671520776149422
721.0, 0.0008093214161213721
722.0, 0.0010361970945822786
723.0, 0.0011769057134794043
724.0, 0.0010215023628003645
725.0, 0.0012544161229502183
726.0, 0.0013776402464209026
727.0, 0.0011415694844924653
728.0, 0.0012403859592101313
729.0, 0.0011759327143759978
730.0, 0.0011594347252303517
731.0, 0.0011797083097689655
732.0, 0.0010508111591318071
733.0, 0.0008340213779828835
734.0, 0.0009432215441033024
735.0, 0.0010018469470252779
736.0, 0.0005956987151133563
737.0, 0.000655023429204963
738.0, 0.000613847980366323
739.0, 0.0005631790872277008
740.0, 0.0005827937637983403
741.0, 0.0008183748274858926
742.0, 0.0007855660152894045
743.0, 0.000717009991548826
744.0, 0.0006427853363872518
745.0, 0.0005408292657955978
746.0, 0.0004658316960052334
747.0, 0.0004654327786658405
748.0, 0.0005569211202005796
749.0, 0.0007106347054254039
750.0, 0.0006338563155693415
751.0, 0.0008004028380181707
752.0, 0.0007985635455779507
753.0, 0.0006501319126886009
754.0, 0.0007141002071992644
755.0, 0.00047066752631513684
756.0, 0.00030180137039274456
757.0, 0.0002622703597122051
758.0, 0.0003774328576109431
759.0, 0.0007222778127334089
760.0, 0.0006610423724810633
761.0, 0.0005682354655328129
762.0, 0.0005608505413358283
763.0, 0.0004901755197202014
764.0, 0.0008403473783453803
765.0, 0.0009112040717620659
766.0, 0.000746431615411126
767.0, 0.0005419658879213419
768.0, 0.0006021529479879474
769.0, 0.0005125926996549019
770.0, 0.00039329058018245267
771.0, 0.0002913866998250736
772.0, 0.00012065198184866876
773.0, 0.00022407447616009383
774.0, 0.0003437324381452159
775.0, 0.0004484803970855679
776.0, 0.0005630756860834026
777.0, 0.00082679524171707
778.0, 0.0007232692481686125
779.0, 0.0006093314589016482
780.0, 0.0006612993534628537
781.0, 0.0005750775572055671
782.0, 0.0005796163719213237
783.0, 0.000682876775836011
784.0, 0.0008288050990420071
785.0, 0.0009165354360865262
786.0, 0.00041398372589833345
787.0, 0.0005490816451997804
788.0, 0.0006541657998430534
789.0, 0.0003793147529418398
790.0, 0.0005201647143075451
791.0, 0.0007071816196903571
792.0, 0.0006094315301902252
793.0, 0.0005251926055452686
794.0, 0.0011296293900394804
795.0, 0.000371590339277905
796.0, 0.00025066998284387125
797.0, 0.00036376092470248773
798.0, 0.00036138241682394726
799.0, 0.00011276449666933781
800.0, 0.00022219234008167182
801.0, 0.0002284500991723523
802.0, 0.00017862998020428078
803.0, 0.0003475806557972121
804.0, 0.00047632633748787874
805.0, 0.00034614365916071173
806.0, 0.00015751910787535517
807.0, 6.048087604059343e-05
808.0, 9.322318348920466e-05
809.0, 0.00032613069834048065
810.0, 0.0003754479425396084
811.0, 0.0002738718384650583
812.0, 0.00021132387925556435
813.0, 0.0003669491182292785
814.0, 0.0002478485492776922
815.0, 0.00015819816829088458
816.0, 0.00023712557181696284
817.0, 0.0002698643491710231
818.0, 0.000302591221515139
819.0, 0.00035152299680252247
820.0, 0.0004203876906709569
821.0, 0.0005111950912515965
822.0, 0.0006942272120729743
823.0, 0.0008670802548104517
824.0, 0.0008589940498333571
825.0, 0.0006957813318537177
826.0, 0.0007551888909259296
827.0, 0.0006422178752681045
828.0, 0.0005443609160816663
829.0, 0.0006725354463810804
830.0, 0.0011567390622414225
831.0, 0.0010117687303747252
832.0, 0.0017966441509499982
833.0, 0.003081555924866613
834.0, 0.004807725613207807
835.0, 0.007249146461015739
836.0, 0.010386544470604926
837.0, 0.012596225205969721
838.0, 0.012672924194826936
839.0, 0.010032818097033814
840.0, 0.00665505895423921
841.0, 0.004513435714860614
842.0, 0.002892199757343108
843.0, 0.0018195297452844093
844.0, 0.0016461887726389778
845.0, 0.0013642436889526029
846.0, 0.001100827001410499
847.0, 0.0009232227168030345
848.0, 0.000811305797503452
849.0, 0.0005150371210914857
850.0, 0.0006178279605170932
851.0, 0.0006330416092410621
852.0, 0.0005651979644887733
853.0, 0.0005093360460869834
854.0, 0.0003365583381461411
855.0, 0.0004613287580836209
856.0, 0.0004534553543674951
857.0, 0.0003204960198911274
858.0, 0.0005179209322364144
859.0, 0.00019549518123337153
860.0, 0.0001575419252033532
861.0, 0.00022375542835766828
862.0, 0.00026191452692985053
863.0, 0.0006379104625085133
864.0, 0.0004216201389971047
865.0, 0.00038761716588071497
866.0, 0.00046959899122307926
867.0, 0.0003100171556179986
868.0, 0.00014190201240817023
869.0, 0.00019215658410562232
870.0, 0.00021421100484752195
871.0, 0.00013432010210671273
872.0, 9.838006820424434e-05
873.0, 2.792785855228963e-05
874.0, 0.00020986991685460583
875.0, 0.00035125421548730227
876.0, 0.0002185208232553056
877.0, 0.0001962885987639929
878.0, 0.00012812741015569737
879.0, 0.0001822093723383596
880.0, 0.000283050521119326
881.0, 0.0002446742559953761
882.0, 7.103851214489493e-05
883.0, 1.20203158603239e-05
884.0, 3.5450097954118715e-05
885.0, 0.00010474238099083801
886.0, 0.0001649968323991316
887.0, 0.00016127446321939336
888.0, 8.012847340842009e-05
889.0, 4.6894451541907125e-05
890.0, 0.00013984907104563733
891.0, 0.00016755570255098663
892.0, 0.00016880279661571723
893.0, 9.882269937749117e-05
894.0, 0.00010222478146240237
895.0, 0.00036854213418499506
896.0, 0.0002496626161447754
897.0, 0.0002152257858902747
898.0, 0.00013925199031962344
899.0, 6.403919254414906e-05
900.0, 0.000224403367124571
901.0, 0.00021735503299637413
902.0, 0.0002163607689165618
903.0, 0.00027357394428015086
904.0, 0.00035487802909664663
905.0, 0.00016684631050587585
906.0, 0.00031959375698089405
907.0, 0.000348428792405508
908.0, 0.00034711270562351
909.0, 0.00046066710421755017
910.0, 0.00022483165275960151
911.0, 0.0003119950832943561
912.0, 0.00033646650214020686
913.0, 0.000267699581020383
914.0, 0.0002575739212617344
915.0, 9.687372170631792e-05
916.0, 0.00011043566921013351
917.0, 0.00014649044587671897
918.0, 0.00012620813201804547
919.0, 5.2081314274175224e-05
920.0, 0.00043725448633747223
921.0, 0.00028491539641975694
922.0, 5.980171332459182e-05
923.0, 0.0001402333260746253
924.0, 0.0003388167496376486
925.0, 0.00042808150875235353
926.0, 0.00036637291692422026
927.0, 0.00034475624501075923
928.0, 0.0005247765338618269
929.0, 0.0003499309116797578
930.0, 0.0005037156266829929
931.0, 0.00048474082191614197
932.0, 0.0003604748008639967
933.0, 0.0004563327724552932
934.0, 0.0003367504833719463
935.0, 0.0003332228058439812
936.0, 0.0003095591036039721
937.0, 0.00027844363530012736
938.0, 0.0004080926594649464
939.0, 0.0005106063388859425
940.0, 0.0005536864451106001
941.0, 0.000492426761328971
942.0, 0.00039930831274300415
943.0, 0.0006123484518960701
944.0, 0.0004167336136568568
945.0, 0.00023820270233956294
946.0, 0.0001281032782735192
947.0, 0.00010615169778199493
948.0, 0.0002498473479196759
949.0, 0.00039359389419571484
950.0, 0.0004696151923147414
951.0, 0.0005505125741647839
952.0, 0.0006734088110856404
953.0, 0.00028974072209458186
954.0, 0.0004219769076841078
955.0, 0.00034120747038074277
956.0, 9.066796476674478e-05
957.0, 3.121943560943847e-05
958.0, 0.00026698988373919074
959.0, 0.00022375725411376296
960.0, 0.00014733673553159857
961.0, 0.00013261192049653033
962.0, 0.0001794749577286002
963.0, 0.0002677517030219824
964.0, 0.00027322509166043053
965.0, 0.00021657466490348408
966.0, 0.0001809995870946368
967.0, 0.00033885617502718514
968.0, 9.290607429387264e-05
969.0, 0.00029719212770800183
970.0, 0.0003716940372008331
971.0, 0.00015054844654783205
972.0, 0.00032226527386115984
973.0, 0.00013008214690708538
974.0, 0.00011951246909022191
975.0, 0.00013789962031939064
976.0, 8.84102764085069e-05
977.0, 0.00019073822613244095
978.0, 0.00019235475432010635
979.0, 0.00027335595248453284
980.0, 0.0003654860566378648
981.0, 0.00040371549595630876
982.0, 0.0004782128105271074
983.0, 0.00028400724913836626
984.0, 0.0003198177239505908
985.0, 0.00046390718011633943
986.0, 0.0005105088273169852
987.0, 0.0005571311551248572
988.0, 0.0007582368170456459
989.0, 0.000752939464986275
990.0, 0.0006618716839424652
991.0, 0.0007144267026974016
992.0, 0.0008307245165142856
993.0, 0.0005991420242929729
994.0, 0.0003613181732682879
995.0, 0.0004222755980459816
996.0, 0.0009625034953279027
997.0, 0.0008137806404840063
998.0, 0.0006649500174954971
999.0, 0.0007112303834909534
1000.0, 0.0007576474949970897
1001.0, 0.00047991682126036125
1002.0, 0.0006521905141222548
1003.0, 0.0006235971608380533
1004.0, 0.0006191279615445882
1005.0, 0.0007511708790958378
1006.0, 0.0010467342269029364
1007.0, 0.0009393284088692587
1008.0, 0.000820842925399815
1009.0, 0.0007587668148061445
1010.0, 0.0007251126842694795
1011.0, 0.0006460847611022922
1012.0, 0.0010280792915943195
1013.0, 0.0009315108226518478
1014.0, 0.0007643512022909533
1015.0, 0.0007336853652918331
1016.0, 0.0008957396619181057
1017.0, 0.0006344186301552342
1018.0, 0.0006538205905004895
1019.0, 0.0008594022295375311
1020.0, 0.001018978761231577
1021.0, 0.0008127038401555123
1022.0, 0.0012655437906338002
1023.0, 0.001329934548342785
1024.0, 0.001270693600639264
1025.0, 0.0013865072674521524
1026.0, 0.0019846775843143493
1027.0, 0.0020972460201332255
1028.0, 0.002807733361267364
1029.0, 0.004206107426858193
1030.0, 0.005754020979613075
1031.0, 0.006400045473332108
1032.0, 0.005073369072948633
1033.0, 0.004082394922386663
1034.0, 0.003345662820422137
1035.0, 0.002988403593019312
1036.0, 0.003254721804017885
1037.0, 0.0035396010335012732
1038.0, 0.004142591658038695
1039.0, 0.004767712896279295
1040.0, 0.005347688355212861
1041.0, 0.005974300210454846
1042.0, 0.006920757216085346
1043.0, 0.008098907253201768
1044.0, 0.009811771995223963
1045.0, 0.01216350494280398
1046.0, 0.015170235197825068
1047.0, 0.01973991756887445
1048.0, 0.02718448367526966
1049.0, 0.04208228957405405
1050.0, 0.07696203063638545
1051.0, 0.16156732568309706
1052.0, 0.4958127031394053
1053.0, 0.8481911292782952
1054.0, 0.9408465299240504
1055.0, 0.7454725297856848
1056.0, 0.37705998083800896
1057.0, 0.17491964001771626
1058.0, 0.08454848333536318
1059.0, 0.04323225730413831
1060.0, 0.025335905086977188
1061.0, 0.0164742644093484
1062.0, 0.012271725111227226
1063.0, 0.009740674194254673
1064.0, 0.008089164874334587
1065.0, 0.006983421177824931
1066.0, 0.006105927270888895
1067.0, 0.0048707514054898825
1068.0, 0.004126069001685568
1069.0, 0.003921481044301385
1070.0, 0.0037451544795855402
1071.0, 0.003272078180487952
1072.0, 0.003110950530832675
1073.0, 0.003087755337090288
1074.0, 0.00300479956801882
1075.0, 0.0028084743651225967
1076.0, 0.002539289713065874
1077.0, 0.0024020900378528467
1078.0, 0.0022120698052438084
1079.0, 0.002059333261558512
1080.0, 0.0021428332553633184
1081.0, 0.0023701808036451456
1082.0, 0.0022044354723228295
1083.0, 0.0017210303000555474
1084.0, 0.001825217163739153
1085.0, 0.0018370807292963128
1086.0, 0.001599016913892675
1087.0, 0.0015207284508962225
1088.0, 0.0015949731346740976
1089.0, 0.001526631651349377
1090.0, 0.001568863876541857
1091.0, 0.0015994784101386458
1092.0, 0.0013244758973907623
1093.0, 0.0015539145541986256
1094.0, 0.0015895133854110352
1095.0, 0.0016737378267893492
1096.0, 0.001731337175866541
1097.0, 0.0016120179608958194
1098.0, 0.0015307258309216446
1099.0, 0.0017320055076639948
1100.0, 0.001764960861127154
1101.0, 0.0017136634064491858
1102.0, 0.0017009371588461468
1103.0, 0.0015054826028647258
1104.0, 0.0012348943259207644
1105.0, 0.001345592870560177
1106.0, 0.0014983618929629032
1107.0, 0.001528950536317052
1108.0, 0.0018432748100806761
1109.0, 0.00135700390996172
1110.0, 0.0014200409374256246
1111.0, 0.0013962511052106978
1112.0, 0.0011307322700630526
1113.0, 0.0011170979419578486
1114.0, 0.0009081568413201066
1115.0, 0.0007650792822436792
1116.0, 0.000855521620321473
1117.0, 0.000980652103701332
1118.0, 0.0007813919477430726
1119.0, 0.0007137484930805723
1120.0, 0.0005633699806434579
1121.0, 0.0007615841642015597
1122.0, 0.0009461655077054455
1123.0, 0.0006910043517054443
1124.0, 0.0005097664493770778
1125.0, 0.0005062236745431147
1126.0, 0.0007107510849446833
1127.0, 0.0010117147625714439
1128.0, 0.0011056925011181968
1129.0, 0.0003286729359863372
1130.0, 0.0008289003543075845
1131.0, 0.0008818552154549635
1132.0, 0.0006455065464264244
1133.0, 0.0004868168781118299
1134.0, 0.0008314166024670938
1135.0, 0.0006356804722643468
1136.0, 0.0005409879771065095
1137.0, 0.0004571001788818467
1138.0, 0.0003420930033879582
1139.0, 0.0002341544240493788
1140.0, 0.000563594130318532
1141.0, 0.0007097611803438983
1142.0, 0.00045995734215109103
1143.0, 0.0002591920778993922
1144.0, 0.00045876124465894026
1145.0, 0.0006463453821255832
1146.0, 0.00046221209201794354
1147.0, 0.00024180647319828766
1148.0, 0.00011783166720821471
1149.0, 0.00016470207168829543
1150.0, 0.00039230597592498375
1151.0, 0.00035243431545749644
1152.0, 0.00020528910510912536
1153.0, 0.0004527793981989784
1154.0, 0.0006408765822051794
1155.0, 4.589552557299754e-05
1156.0, 0.0003189779795457132
1157.0, 0.0003472971038722085
1158.0, 0.00019599908387270024
1159.0, 0.00012909851680087278
1160.0, 0.0002474367114098638
1161.0, 6.03203634260524e-05
1162.0, 9.68058438824855e-05
1163.0, 7.165324255941071e-05
1164.0, 4.489680331617328e-05
1165.0, 4.4500707985691026e-05
1166.0, 3.595616490473038e-05
1167.0, 0.00013618248800021965
1168.0, 0.00014851350770158462
1169.0, 0.00011317394776169322
1170.0, 5.7667278811477e-05
1171.0, 6.6581151480175464e-06
1172.0, 4.1760910805501e-06
1173.0, 0.00024291956116418367
1174.0, 0.00018998366507854924
1175.0, 0.00011397918114258307
1176.0, 0.00017109668195924532
1177.0, 4.493842277828139e-05
1178.0, 0.00019629267070342296
1179.0, 0.0001089390630026712
1180.0, 1.8127101649713767e-05
1181.0, 0.00010477254266112045
1182.0, 0.00040395235918314277
1183.0, 0.0002160535655011354
1184.0, 0.0002597076335293677
1185.0, 0.00028105640378057697
1186.0, 0.00024189378594910834
1187.0, 0.00018713279640977717
1188.0, 0.00022240936257211279
1189.0, 0.0003075915968711953
1190.0, 0.000144181737646903
1191.0, 1.822962634577822e-05
1192.0, 1.7844506509054836e-05
1193.0, 6.247637831531314e-06
1194.0, 8.178066033091796e-06
1195.0, 0.00012886867816934693
1196.0, 0.00017396827339591987
1197.0, 0.0001337681325149399
1198.0, 9.24432017588954e-05
1199.0, 0.0002195225752942139
1200.0, 0.0002257803207568527
1201.0, 0.0002496022618422069
1202.0, 0.00033111014560248137
1203.0, 0.00037723856937837725
1204.0, 0.00019678117302715777
1205.0, 9.823452331067449e-05
1206.0, 0.00018276736041649032
1207.0, 0.0002828818835622003
1208.0, 0.0002689634913998157
1209.0, 0.00010810069850730378
1210.0, 2.1948626166618082e-05
1211.0, 5.5264234048568386e-05
1212.0, 9.20851678103808e-05
1213.0, 0.00022382021741951513
1214.0, 0.0003646720165547264
1215.0, 0.0002799967772116242
1216.0, 0.0004535027996757237
1217.0, 0.00025753871836065815
1218.0, 0.00032829492475704825
1219.0, 0.0004147603862231101
1220.0, 0.00021367946810418853
1221.0, 0.00014341103766434048
1222.0, 0.0003869403571246215
1223.0, 0.00025424084980735207
1224.0, 7.861066177501369e-05
1225.0, 5.7546730018491906e-05
1226.0, 0.00017843923395748388
1227.0, 0.0003206277023899422
1228.0, 0.00019513068846058497
1229.0, 0.00020668607950476652
1230.0, 0.00022978618100218042
1231.0, 0.00016014273370692508
1232.0, 0.0002410309508462529
1233.0, 0.00011841659934577135
1234.0, 8.824744983912535e-05
1235.0, 8.689761244758445e-05
1236.0, 0.00019509086118949404
1237.0, 0.0004891369926460421
1238.0, 0.0004472286706525386
1239.0, 0.000418163221528017
1240.0, 0.00020653033739520798
1241.0, 0.0001698737293032527
1242.0, 0.00042279413425344467
1243.0, 0.0006091975933138486
1244.0, 0.0007255693933855541
1245.0, 0.0005508434183596475
1246.0, 0.0005037045630430383
1247.0, 0.0005207609122186704
1248.0, 0.00046297526606649074
1249.0, 0.0006226590158357391
1250.0, 0.00045544114016431473
1251.0, 0.00044823264573709147
1252.0, 0.000492262504637722
1253.0, 0.0004963867678365442
1254.0, 0.00044981826370227523
1255.0, 0.0005087415897939807
1256.0, 0.0009691297095293008
1257.0, 0.0012055357853859817
1258.0, 0.001235956195969171
1259.0, 0.001055916787670928
1260.0, 0.0004282038699545407
1261.0, 0.0011936015843862884
1262.0, 0.0011399288399643421
1263.0, 0.0010678148157747967
1264.0, 0.0012344553456449968
1265.0, 0.0014827999228318662
1266.0, 0.001209988138443913
1267.0, 0.0015657386300123748
1268.0, 0.0017661302057119174
1269.0, 0.0016187380943938096
1270.0, 0.001528368980164064
1271.0, 0.0020690562228522246
1272.0, 0.0019838107221020274
1273.0, 0.0017579688479702745
1274.0, 0.0017276715312543826
1275.0, 0.0017946349644155262
1276.0, 0.001886364364118402
1277.0, 0.0020593010067474025
1278.0, 0.0018296161533793039
1279.0, 0.0021376417976859186
1280.0, 0.0021128100225514873
1281.0, 0.002021732590369135
1282.0, 0.0022032696183484613
1283.0, 0.0022335880834406974
1284.0, 0.002573931595066684
1285.0, 0.002417878265977363
1286.0, 0.0023763461925566443
1287.0, 0.002634009981596447
1288.0, 0.0030025222901706138
1289.0, 0.002974966624139741
1290.0, 0.0030404759193878106
1291.0, 0.003355493195565858
1292.0, 0.003417093221430157
1293.0, 0.00340199099716607
1294.0, 0.0038456727500757568
1295.0, 0.003439883105528735
1296.0, 0.0039513366848808315
1297.0, 0.004278890873923287
1298.0, 0.004198934912283953
1299.0, 0.0040329258137762735
1300.0, 0.004450315997134439
1301.0, 0.004799381734858044
1302.0, 0.004544189762182971
1303.0, 0.004844418874124183
1304.0, 0.0051111609694977495
1305.0, 0.005003061267966738
1306.0, 0.00538131408981341
1307.0, 0.005832305620305402
1308.0, 0.005904960847447102
1309.0, 0.0060917393457221285
1310.0, 0.006473586130233374
1311.0, 0.006865554351491928
1312.0, 0.006895581527228137
1313.0, 0.007205004244178773
1314.0, 0.008021401732649418
1315.0, 0.008228831443036792
1316.0, 0.00807672136479407
1317.0, 0.00819837700772898
1318.0, 0.008123413808118315
1319.0, 0.008206117869528568
1320.0, 0.008790336368588045
1321.0, 0.008817491638766318
1322.0, 0.00864593620741811
1323.0, 0.009153860994267763
1324.0, 0.009475056028123473
1325.0, 0.009413691858641077
1326.0, 0.00954210765381971
1327.0, 0.009528994988309945
1328.0, 0.00936726582949977
1329.0, 0.009387570895988951
1330.0, 0.010058618334721003
1331.0, 0.009719371068079302
1332.0, 0.009988392986744905
1333.0, 0.010656181896050054
1334.0, 0.010950602413953368
1335.0, 0.010369743230967211
1336.0, 0.011463725351129335
1337.0, 0.011733779548036045
1338.0, 0.011826442440066599
1339.0, 0.012250301640742733
1340.0, 0.012884538073411143
1341.0, 0.013142261214643826
1342.0, 0.013215769005896638
1343.0, 0.014692398340349869
1344.0, 0.015421351060237376
1345.0, 0.016178718723985037
1346.0, 0.01733108293777291
1347.0, 0.018336892056602327
1348.0, 0.01863052974216
1349.0, 0.02090640091846369
1350.0, 0.02284036085472053
1351.0, 0.02456318033684295
1352.0, 0.02693921828540336
1353.0, 0.030597689879393233
1354.0, 0.03252311612699162
1355.0, 0.03638342834534028
1356.0, 0.04112031814115076
1357.0, 0.04458288732515702
1358.0, 0.04762149724185965
1359.0, 0.05328735105985914
1360.0, 0.057873559017081376
1361.0, 0.0600690760227365
1362.0, 0.06413635681475904
1363.0, 0.06719869381170657
1364.0, 0.06724866391059561
1365.0, 0.0649534422487652
1366.0, 0.06422439825959958
1367.0, 0.05994140558874355
1368.0, 0.054122484617154805
1369.0, 0.04950356707575009
1370.0, 0.045379914704462274
1371.0, 0.039275853180342636
1372.0, 0.0361351911038066
1373.0, 0.03253621210370159
1374.0, 0.028273045905196803
1375.0, 0.02501473280722935
1376.0, 0.02286678264400031
1377.0, 0.020663156345482485
1378.0, 0.018105574417483727
1379.0, 0.017006216776340632
1380.0, 0.015172513349120304
1381.0, 0.013887914063427488
1382.0, 0.013130809712776513
1383.0, 0.012020035233433271
1384.0, 0.010589714048777456
1385.0, 0.010412314588737877
1386.0, 0.010070792637742814
1387.0, 0.008766650158870223
1388.0, 0.0076240850260498
1389.0, 0.007565031836076152
1390.0, 0.006250112528820355
1391.0, 0.005864102312094934
1392.0, 0.005394653163800105
1393.0, 0.004707054384604466
1394.0, 0.004316327705513156
1395.0, 0.0043598178403242
1396.0, 0.0037376527665456297
1397.0, 0.003230122857864331
1398.0, 0.003634721288016629
1399.0, 0.0034539282456995265
1400.0, 0.0028782848489613657
1401.0, 0.002593986786360826
1402.0, 0.0029764094688642245
1403.0, 0.0030960934261821957
1404.0, 0.003228491179317014
1405.0, 0.0032838279108195765
1406.0, 0.0030180410638849225
1407.0, 0.002719876824953697
1408.0, 0.003034601723009115
1409.0, 0.0028459239505793407
1410.0, 0.0028572208246271462
1411.0, 0.0030468853822476095
1412.0, 0.0031834607408354337
1413.0, 0.0030828394829125875
1414.0, 0.0028189125099589113
1415.0, 0.0031598150993362266
1416.0, 0.0029122638283581607
1417.0, 0.0033080322441341346
1418.0, 0.003484723948872671
1419.0, 0.0031770680090656873
1420.0, 0.0027880430877428282
1421.0, 0.0031580242244821674
1422.0, 0.003293643218754859
1423.0, 0.003201716416130984
1424.0, 0.0034074688898172857
1425.0, 0.003393026298629564
1426.0, 0.0028150923505479136
1427.0, 0.002286797163792304
1428.0, 0.002923857536264838
1429.0, 0.003138016545712956
1430.0, 0.0027970409368921877
1431.0, 0.0028514139733079994
1432.0, 0.0031649140741128543
1433.0, 0.002572511426018371
1434.0, 0.0017073580703440856
1435.0, 0.0024323484513413185
1436.0, 0.0023677712410861444
1437.0, 0.0022674547694094362
1438.0, 0.0023843376617816033
1439.0, 0.002312173339818748
1440.0, 0.0014319440502277001
1441.0, 0.0021809267710126306
1442.0, 0.0019117815926350643
1443.0, 0.0017122567802639519
1444.0, 0.001998319445087948
1445.0, 0.002453356204542819
1446.0, 0.0022712475636271663
1447.0, 0.002158212114085128
1448.0, 0.0022399046500325205
1449.0, 0.002143814251393604
1450.0, 0.0020771796101821892
1451.0, 0.002117329010183046
1452.0, 0.002147721263439041
1453.0, 0.0022418362359311363
1454.0, 0.0029136822130149185
1455.0, 0.0024431840709092946
1456.0, 0.0022780965547680265
1457.0, 0.0027507729805648397
1458.0, 0.003298840153767817
1459.0, 0.003197488662008369
1460.0, 0.003425036581923967
1461.0, 0.0039287056761634276
1462.0, 0.003773408203583419
1463.0, 0.003817631152978918
1464.0, 0.004335758372086832
1465.0, 0.0044777044885513624
1466.0, 0.00396584000105866
1467.0, 0.0046832720981112375
1468.0, 0.004777482910844945
1469.0, 0.00472833281038693
1470.0, 0.00497825292217118
1471.0, 0.005380525052917923
1472.0, 0.004973192257461807
1473.0, 0.005246890035141368
1474.0, 0.005669980520671347
1475.0, 0.005320845033112052
1476.0, 0.005202228702241415
1477.0, 0.005796542663499523
1478.0, 0.006190085092344925
1479.0, 0.004893784956117198
1480.0, 0.005953307467237831
1481.0, 0.005690092305224874
1482.0, 0.00517203578258142
1483.0, 0.005221145826828749
1484.0, 0.005563397716029822
1485.0, 0.004756197407162985
1486.0, 0.004809833293198867
1487.0, 0.004876287466926132
1488.0, 0.004404824694679423
1489.0, 0.003760653454879421
1490.0, 0.00365097253912388
1491.0, 0.004208265551053504
1492.0, 0.0028665272743751526
1493.0, 0.003133192849813872
1494.0, 0.002776748896222878
1495.0, 0.0023304167093062974
1496.0, 0.0023818627629014506
1497.0, 0.0026043083936224845
1498.0, 0.0016083556163477787
1499.0, 0.001487070974827118
1500.0, 0.0016037806500436714
1501.0, 0.0013810089153107113
1502.0, 0.0010477775319790049
1503.0, 0.0010248243590598122
1504.0, 0.0012820211496074626
1505.0, 0.0005408629967825933
1506.0, 0.0009430349920658065
1507.0, 0.0010390650321907664
1508.0, 0.0004818947380197286
1509.0, 0.0004144436918765154
1510.0, 0.0008456608980342705
1511.0, 0.00037792432566826473
1512.0, 0.00038252320972395593
1513.0, 0.00047238951191325694
1514.0, 0.0006712166479315979
1515.0, 0.0007608417943308644
1516.0, 0.0006674722685163331
1517.0, 0.00042876597631977893
1518.0, 0.00012616849624426865
1519.0, 1.9736897004736685e-05
1520.0, 0.0006468417044087711
1521.0, 0.0003441922184355475
1522.0, 4.502699804496015e-05
1523.0, 7.211570505082341e-05
1524.0, 6.91762756819988e-05
1525.0, 3.684416384585422e-05
1526.0, 0.0005628159057203721
1527.0, 0.00017848461415522393
1528, 0.0
1529, 0.0
1530, 0.0
1531, 0.0
1532, 0.0
1533, 0.0
1534, 0.0
1535, 0.0
1536, 0.0
1537, 0.0
1538, 0.0
1539, 0.0
1540, 0.0
1541, 0.0
1542, 0.0
1543, 0.0
1544, 0.0
1545, 0.0
1546, 0.0
1547, 0.0
1548, 0.0
1549, 0.0
1550, 0.0
1551, 0.0
1552, 0.0
1553, 0.0
1554, 0.0
1555, 0.0
1556, 0.0
1557, 0.0
1558, 0.0
1559, 0.0
1560, 0.0
1561, 0.0
1562, 0.0
1563, 0.0
1564, 0.0
1565, 0.0
1566, 0.0
1567, 0.0
1568, 0.0
1569, 0.0
1570, 0.0
1571, 0.0
1572, 0.0
1573, 0.0
1574, 0.0
1575, 0.0
1576, 0.0
1577, 0.0
1578, 0.0
1579, 0.0
1580, 0.0
1581, 0.0
1582, 0.0
1583, 0.0
1584, 0.0
1585, 0.0
1586, 0.0
1587, 0.0
1588, 0.0
1589, 0.0
1590, 0.0
1591, 0.0
1592, 0.0
1593, 0.0
1594, 0.0
1595, 0.0
1596, 0.0
1597, 0.0
1598, 0.0
1599, 0.0
