30, 0.0
31, 0.0
32, 0.0
33, 0.0
34, 0.0
35, 0.0
36, 0.0
37, 0.0
38, 0.0
39, 0.0
40, 0.0
41, 0.0
42, 0.0
43, 0.0
44, 0.0
45, 0.0
46, 0.0
47, 0.0
48, 0.0
49, 0.0
50, 0.0
51, 0.0
52, 0.0
53, 0.0
54, 0.0
55, 0.0
56, 0.0
57, 0.0
58, 0.0
59, 0.0
60, 0.0
61, 0.0
62, 0.0
63, 0.0
64, 0.0
65, 0.0
66, 0.0
67, 0.0
68, 0.0
69, 0.0
70, 0.0
71, 0.0
72, 0.0
73, 0.0
74, 0.0
75, 0.0
76, 0.0
77, 0.0
78, 0.0
79, 0.0
80, 0.0
81, 0.0
82, 0.0
83, 0.0
84, 0.0
85, 0.0
86, 0.0
87, 0.0
88, 0.0
89, 0.0
90, 0.0
91, 0.0
92, 0.0
93, 0.0
94, 0.0
95, 0.0
96, 0.0
97, 0.0
98, 0.0
99, 0.0
100, 0.0
101, 0.0
102, 0.0
103, 0.0
104, 0.0
105, 0.0
106, 0.0
107, 0.0
108, 0.0
109, 0.0
110, 0.0
111, 0.0
112, 0.0
113, 0.0
114, 0.0
115, 0.0
116, 0.0
117, 0.0
118, 0.0
119, 0.0
120, 0.0
121, 0.0
122, 0.0
123, 0.0
124, 0.0
125, 0.0
126, 0.0
127, 0.0
128, 0.0
129, 0.0
130, 0.0
131, 0.0
132, 0.0
133, 0.0
134, 0.0
135, 0.0
136, 0.0
137, 0.0
138, 0.0
139, 0.0
140, 0.0
141, 0.0
142, 0.0
143, 0.0
144, 0.0
145, 0.0
146.0, 0.00021972611302457413
147.0, 0.0015471303058181526
148.0, 0.002971993800050945
149.0, 0.004290637367793659
150.0, 0.0058673837223268905
151.0, 0.006983170169640245
152.0, 0.0078080488122390535
153.0, 0.008547418670987208
154.0, 0.009149779734871126
155.0, 0.009327670965003289
156.0, 0.007759168266954983
157.0, 0.00560726607988392
158.0, 0.003667111257123353
159.0, 0.0018715603042553225
160.0, 0.0006263335325298691
161.0, 0.0001033954777833798
162.0, 0.00048503258905508643
163.0, 0.0006819242821198062
164.0, 0.00038044811390949623
165.0, 0.0002390444378091069
166.0, 0.001056370115492601
167.0, 0.0021166217222939408
168.0, 0.003138739218836884
169.0, 0.004414490940284565
170.0, 0.005823575129533812
171.0, 0.007142308218666991
172.0, 0.008821324513955632
173.0, 0.010332027114169171
174.0, 0.011517532900460831
175.0, 0.012360155362064012
176.0, 0.012984947638288632
177.0, 0.01363956118215527
178.0, 0.01416060234992879
179.0, 0.014376630162033567
180.0, 0.01438151554846879
181.0, 0.01467012420784216
182.0, 0.015082901023041372
183.0, 0.015602976840236076
184.0, 0.016309430241990594
185.0, 0.017080876138298434
186.0, 0.018119813907891375
187.0, 0.019737603936220434
188.0, 0.02182239739866109
189.0, 0.0236237350133779
190.0, 0.026137278234754865
191.0, 0.029052705457708435
192.0, 0.032056973800436914
193.0, 0.03508542867225005
194.0, 0.038241409865771056
195.0, 0.041561193921200265
196.0, 0.045013352571229376
197.0, 0.048626509598616585
198.0, 0.052571640228845
199.0, 0.05624489098881247
200.0, 0.05977125168978559
201.0, 0.0634150155774021
202.0, 0.06729295064856315
203.0, 0.07155540923356934
204.0, 0.07563651221980636
205.0, 0.07966238442578098
206.0, 0.08398226221987053
207.0, 0.0879848902633074
208.0, 0.09208557682966177
209.0, 0.09570497579337182
210.0, 0.09856299621458789
211.0, 0.10123890233556293
212.0, 0.10252090477331217
213.0, 0.10259611172201183
214.0, 0.10150323686132172
215.0, 0.0990652122836517
216.0, 0.09512075613705087
217.0, 0.09017266449985988
218.0, 0.0845346399044603
219.0, 0.07844735845182833
220.0, 0.0721391773606801
221.0, 0.06593858346518656
222.0, 0.06023052065584355
223.0, 0.05515565441240742
224.0, 0.05066970728581273
225.0, 0.04660744551208807
226.0, 0.043078179760253174
227.0, 0.03974906377988696
228.0, 0.036438108369797405
229.0, 0.0335522714507447
230.0, 0.03081281561598201
231.0, 0.028462113272373718
232.0, 0.026497202755064654
233.0, 0.02458387558836731
234.0, 0.02290347880841441
235.0, 0.021510999467326857
236.0, 0.020200963682137817
237.0, 0.018917074315818468
238.0, 0.017962097030541312
239.0, 0.01690378706240859
240.0, 0.015915305611364325
241.0, 0.015180521558311824
242.0, 0.014611583033571436
243.0, 0.01371530961183112
244.0, 0.012878101252353481
245.0, 0.012008483508877633
246.0, 0.011069160538434587
247.0, 0.010297636445756618
248.0, 0.009647801209233607
249.0, 0.008971773700144604
250.0, 0.008263017464887347
251.0, 0.007560346768372283
252.0, 0.0066708867458119
253.0, 0.005921446080497408
254.0, 0.00531060980919176
255.0, 0.004769661141505056
256.0, 0.004254298379070436
257.0, 0.00370628071678814
258.0, 0.003251295738556772
259.0, 0.002847199432227416
260.0, 0.0024038436885823566
261.0, 0.0020995116546035615
262.0, 0.0018152829357697788
263.0, 0.0014573543313756827
264.0, 0.0011345018527743312
265.0, 0.001016343738782578
266.0, 0.0007708683456636042
267.0, 0.0005729697898817968
268.0, 0.00041924154665373947
269.0, 0.0002747305398043726
270.0, 0.00021218257616297662
271.0, 0.0001356956911300928
272.0, 3.5349046040119176e-05
273.0, 8.082189275832681e-05
274.0, 0.00012170680888955693
275.0, 0.0002135203243153839
276.0, 0.0002635070835396205
277.0, 0.0003185161948461646
278.0, 0.00036871169365571536
279.0, 0.00031600418434299236
280.0, 0.00030663556544538456
281.0, 0.00028297441717916336
282.0, 0.0002570899764697535
283.0, 0.00023513885035768688
284.0, 0.00011575405820873357
285.0, 8.401633261737231e-05
286.0, 0.0001029769991063684
287.0, 6.745128143942836e-05
288.0, 5.012878600720914e-05
289.0, 2.0945433383917837e-05
290.0, 5.982380107971359e-05
291.0, 2.5861560991124043e-05
292.0, 0.00013818435421247298
293.0, 0.00018899809304547997
294.0, 0.0002727183857248942
295.0, 0.00033601715348792623
296.0, 0.0003764436203001069
297.0, 0.00041527490373625855
298.0, 0.0004739654603014628
299.0, 0.0006086927776955671
300.0, 0.0007617916319773806
301.0, 0.0008656703633943462
302.0, 0.000908740586185673
303.0, 0.000978945356108788
304.0, 0.000975900310936887
305.0, 0.0010022249923686266
306.0, 0.0011226764469702058
307.0, 0.0012815246707158642
308.0, 0.001381083616095973
309.0, 0.0013649479811340779
310.0, 0.0013110570077193833
311.0, 0.0013453729592453022
312.0, 0.0015489038909705368
313.0, 0.0016499516894092194
314.0, 0.0016527676602334528
315.0, 0.0017541829628318782
316.0, 0.0019562143509902707
317.0, 0.0019260020900357013
318.0, 0.0019063109181157393
319.0, 0.0019440619232402503
320.0, 0.002028497717829296
321.0, 0.0021430426586283185
322.0, 0.002234142421226081
323.0, 0.0022445715221746892
324.0, 0.002312517111847543
325.0, 0.002382099004702468
326.0, 0.002303304317209246
327.0, 0.002291507601524286
328.0, 0.002303919613729315
329.0, 0.002398332763007027
330.0, 0.0024955958654349214
331.0, 0.0024257058247740444
332.0, 0.002344473596717665
333.0, 0.0022558561433776167
334.0, 0.002227647208444464
335.0, 0.002201956982491038
336.0, 0.0020090923991334577
337.0, 0.001865217173764262
338.0, 0.001739555551704526
339.0, 0.001637434921512459
340.0, 0.0015886976624503474
341.0, 0.001594041567386297
342.0, 0.0014599722550727502
343.0, 0.0013739728744493656
344.0, 0.001345454387420599
345.0, 0.0013046150342194208
346.0, 0.001244664676978115
347.0, 0.0011771177491819143
348.0, 0.0010649571438653767
349.0, 0.0009867248574604345
350.0, 0.0010145401984757302
351.0, 0.0010961414738432367
352.0, 0.001099851971285545
353.0, 0.00101624631230454
354.0, 0.0009038388597928315
355.0, 0.0008281267008357982
356.0, 0.0007992620594033301
357.0, 0.0007931860941101668
358.0, 0.0008379909257727239
359.0, 0.0008292969549135985
360.0, 0.0006941871702428841
361.0, 0.0006700336525750789
362.0, 0.0006425079075677373
363.0, 0.0006410280733883312
364.0, 0.0006055052489621921
365.0, 0.00046652768541557705
366.0, 0.0004707026701885939
367.0, 0.0004272847382603098
368.0, 0.0004348790466138219
369.0, 0.00043362825462705694
370.0, 0.00029555891455024805
371.0, 0.0002276647893169229
372.0, 0.00017219796491919475
373.0, 0.00012268134867917993
374.0, 6.918297319258846e-05
375.0, 1.3251414675325731e-05
376.0, 2.0472204917020638e-05
377.0, 6.584288920566695e-05
378.0, 2.6883904487994454e-05
379.0, 3.468073983050162e-05
380.0, 4.44471996175206e-06
381.0, 4.1327401073369556e-05
382.0, 1.8221275387241067e-05
383.0, 1.666343140374516e-05
384.0, 3.715277231669232e-05
385.0, 5.0707099860817485e-05
386.0, 2.3927869473695722e-05
387.0, 1.8061731147032826e-05
388.0, 5.8051417266006256e-05
389.0, 7.738350101659665e-05
390.0, 6.704604392770362e-05
391.0, 7.130763753442132e-05
392.0, 6.712898529291719e-05
393.0, 0.00011706901004948311
394.0, 0.00021267092210057136
395.0, 0.00028585505413558475
396.0, 0.00030034482978365295
397.0, 0.00024579291408665543
398.0, 0.00023409687235340917
399.0, 0.0002819358417180373
400.0, 0.0003440863376914621
401.0, 0.0004095101344197517
402.0, 0.0003971187548398761
403.0, 0.00038372259429932354
404.0, 0.00042242806549776474
405.0, 0.0004839870158406006
406.0, 0.0004734051470640291
407.0, 0.0004571967572253789
408.0, 0.00045894659200369114
409.0, 0.0004804212468239313
410.0, 0.0005103595959049072
411.0, 0.0005295774454505578
412.0, 0.0005095009350181485
413.0, 0.000507659138074905
414.0, 0.0004546387169093527
415.0, 0.0003809816493807516
416.0, 0.0004148180108950899
417.0, 0.0005414309758059041
418.0, 0.00047151156826162534
419.0, 0.00046761953003399733
420.0, 0.0005354273927193177
421.0, 0.0005157118444273583
422.0, 0.0005146506653313462
423.0, 0.0005436616316105018
424.0, 0.0006060558356928413
425.0, 0.0006087428857719339
426.0, 0.0005168810639026498
427.0, 0.000543131842688877
428.0, 0.0005734713523587373
429.0, 0.0005583145837205597
430.0, 0.0005522826481234854
431.0, 0.0005947848203065719
432.0, 0.0005943495443648113
433.0, 0.0005818314241401466
434.0, 0.0005941461720441334
435.0, 0.0005465694390071334
436.0, 0.0004683467939879608
437.0, 0.0005049638118975949
438.0, 0.0004086966925533174
439.0, 0.00042898497043227554
440.0, 0.0004291261019886021
441.0, 0.0003656793053822673
442.0, 0.00035580664806822274
443.0, 0.0003463333916159225
444.0, 0.00023483866157965926
445.0, 0.00023037019985388448
446.0, 0.00026719583513086785
447.0, 0.00016934933159071832
448.0, 0.00012707899285814634
449.0, 6.323811932188338e-05
450.0, 2.4319025982320437e-05
451.0, 3.721731044373436e-05
452.0, 1.5915105765604885e-05
453.0, 1.6932460335904313e-05
454.0, 3.524694724995393e-05
455.0, 8.286401277667472e-06
456.0, 1.721706620400874e-05
457.0, 3.6050329496650744e-05
458.0, 2.881977191905315e-05
459.0, 3.820259835521265e-05
460.0, 1.7253032357826612e-05
461.0, 5.058999590179362e-05
462.0, 2.7244349726821242e-05
463.0, 2.6260219469665324e-05
464.0, 7.509503809578424e-05
465.0, 4.655274110330045e-05
466.0, 8.110172115020028e-06
467.0, 4.369287043174792e-06
468.0, 2.9253059121324074e-05
469.0, 6.342949242587841e-05
470.0, 0.00011518714719161941
471.0, 7.818320242476749e-05
472.0, 4.892796799894972e-05
473.0, 6.697103515068649e-05
474.0, 0.0001074216975396988
475.0, 0.0001549025692557856
476.0, 0.00020240989014890908
477.0, 0.0001712148513599456
478.0, 0.00014515245959914274
479.0, 0.00017380095175137855
480.0, 0.00019629972558390062
481.0, 0.00020238637494923907
482.0, 0.00015991083344738221
483.0, 0.00015248192682097337
484.0, 0.00016099530493811332
485.0, 0.00012164983072579279
486.0, 0.00015935172584447083
487.0, 0.00016760256549580409
488.0, 0.00011251854592701717
489.0, 8.612977282264805e-05
490.0, 0.00011016242638032855
491.0, 9.098289546242001e-05
492.0, 0.00013313935590241363
493.0, 0.00012480478561723246
494.0, 9.773782205933211e-05
495.0, 6.391652414345028e-05
496.0, 1.4964321993635346e-05
497.0, 7.046653270388709e-05
498.0, 3.179764469348214e-05
499.0, 3.92758973071939e-05
500.0, 5.936323720966098e-05
501.0, 2.6077337826823595e-05
502.0, 1.0445804032430325e-05
503.0, 7.731307403300495e-06
504.0, 1.731213843774382e-05
505.0, 1.1587580181478394e-05
506.0, 1.9693502584500323e-05
507.0, 1.8064166102969814e-05
508.0, 6.509085960869898e-05
509.0, 2.673585047025851e-05
510.0, 9.124597457310345e-06
511.0, 1.285945400332813e-06
512.0, 1.3682707214892802e-05
513.0, 1.3569394501030665e-05
514.0, 3.092773602461705e-05
515.0, 1.8693580443968483e-05
516.0, 2.1691625100497392e-05
517.0, 2.6918239975974888e-05
518.0, 4.252375322048916e-06
519.0, 2.6548121067339253e-06
520.0, 1.649085710197626e-05
521.0, 4.7582910332999154e-05
522.0, 2.346667544929182e-05
523.0, 9.585425676648638e-06
524.0, 7.346388078815968e-05
525.0, 5.770140242248106e-05
526.0, 1.3697314625209826e-05
527.0, 4.085593889621626e-05
528.0, 0.00012985118007026835
529.0, 0.00015917615111500825
530.0, 4.643007342136441e-05
531.0, 6.669895622226051e-06
532.0, 9.03532600916111e-05
533.0, 9.792105490730914e-05
534.0, 0.00010926729051368111
535.0, 0.00016013890481105523
536.0, 0.00011933757087790182
537.0, 0.00012312361945695152
538.0, 7.298453135173886e-05
539.0, 6.102962173789572e-05
540.0, 7.132126544087875e-05
541.0, 9.122964455744482e-05
542.0, 0.00017276900798437726
543.0, 8.898971628636912e-05
544.0, 9.385945731190161e-05
545.0, 0.00011641607446451349
546.0, 0.00010497121918561979
547.0, 0.00011250247904333286
548.0, 0.00012405730695337015
549.0, 8.683782669965904e-05
550.0, 0.00015861163755095137
551.0, 0.00010287517811372743
552.0, 3.5278470421532454e-05
553.0, 0.00011878313590679418
554.0, 7.81144837516422e-05
555.0, 0.0001027004400586947
556.0, 0.0001223848257564544
557.0, 0.00010150473355862049
558.0, 8.93513896993052e-05
559.0, 0.00012479008157264317
560.0, 0.00013633972839134572
561.0, 7.251247697997871e-05
562.0, 1.4274633654443568e-05
563.0, 5.684339470521996e-05
564.0, 0.00011549419826686216
565.0, 7.626953658474872e-05
566.0, 3.634826787951699e-05
567.0, 8.977969192074692e-05
568.0, 8.940448820416206e-05
569.0, 8.193394302865086e-05
570.0, 0.00011808985876890084
571.0, 0.00014481266199652796
572.0, 0.00012824081974961268
573.0, 0.00011116563675308937
574.0, 0.00011298863340584983
575.0, 0.00011352426047437938
576.0, 0.00013226535725860308
577.0, 0.00018142929566173727
578.0, 0.00013934739911521674
579.0, 8.82218229550243e-05
580.0, 0.00011195731191303532
581.0, 0.0001299260570914204
582.0, 0.00013239191777521223
583.0, 0.00016579301123332513
584.0, 0.00017047025352162797
585.0, 0.00010570216646669347
586.0, 0.00011877648442646086
587.0, 0.00018141702613363295
588.0, 0.00016341139960968605
589.0, 6.514596669103791e-05
590.0, 7.884423179780813e-05
591.0, 0.00010885459504992212
592.0, 6.224439545884683e-05
593.0, 3.0047901395080843e-05
594.0, 5.7549410753683597e-05
595.0, 8.801619416597272e-05
596.0, 3.9916058074073655e-05
597.0, 2.4271462812167678e-05
598.0, 3.0863406797191485e-05
599.0, 1.871597962463853e-05
600.0, 4.046949342248687e-05
601.0, 2.3815365464052763e-05
602.0, 2.379360667402343e-05
603.0, 5.068144901150414e-05
604.0, 2.8908935562271637e-05
605.0, 4.060718761806155e-05
606.0, 1.6154572588005874e-05
607.0, 8.43582170360233e-05
608.0, 4.441868375945049e-05
609.0, 0.00014570212367116055
610.0, 0.00012127081503962292
611.0, 0.00018082552897587842
612.0, 0.0003144502597445576
613.0, 0.0003704317788445891
614.0, 0.000409799275927247
615.0, 0.0005011085313126716
616.0, 0.0004979453466051752
617.0, 0.0006308467827413595
618.0, 0.000711513562698382
619.0, 0.0006985039321779639
620.0, 0.0007897853464223576
621.0, 0.0008287338769064483
622.0, 0.000859155084869757
623.0, 0.0008767499352093326
624.0, 0.0008874235718354726
625.0, 0.000883292295436335
626.0, 0.0008520942558929445
627.0, 0.0008409714661790582
628.0, 0.0008928347325542383
629.0, 0.0008136907361659417
630.0, 0.0007938807376949148
631.0, 0.0008723880133696629
632.0, 0.0009370895703766544
633.0, 0.0009656272883369747
634.0, 0.0009324302163128833
635.0, 0.000880684633201037
636.0, 0.0008007175754353822
637.0, 0.000688114667265509
638.0, 0.0005832133290532106
639.0, 0.0005049928694155781
640.0, 0.00035660878397302865
641.0, 0.00023061714121676568
642.0, 0.0001771414482227287
643.0, 0.00018472582595898342
644.0, 0.0001699097789096441
645.0, 0.0001016203525481435
646.0, 0.00012713680389393557
647.0, 0.00011309523588916623
648.0, 0.00011731898167825399
649.0, 0.00015286483695141643
650.0, 0.00016240719838366737
651.0, 0.0001500314919185038
652.0, 0.00021740032875625892
653.0, 0.0004008462300144756
654.0, 0.0006234610768525055
655.0, 0.0008843762382098253
656.0, 0.0012809712653711295
657.0, 0.0020264984208997867
658.0, 0.003119520787952227
659.0, 0.0040575724234361895
660.0, 0.004194648123953006
661.0, 0.004038894281723749
662.0, 0.00413663499046378
663.0, 0.004550527373719535
664.0, 0.00519607779908458
665.0, 0.006111882612818409
666.0, 0.007201493226839829
667.0, 0.008530908643169296
668.0, 0.00994340549007809
669.0, 0.011562922344412209
670.0, 0.013881912071695394
671.0, 0.017699509814748972
672.0, 0.023979446360568188
673.0, 0.032324741494244504
674.0, 0.038949390324125296
675.0, 0.03522732246030365
676.0, 0.023140240925510695
677.0, 0.011604873726773325
678.0, 0.006157421194870407
679.0, 0.004441094586918082
680.0, 0.0041804221737993304
681.0, 0.004305855633382073
682.0, 0.004377120851417478
683.0, 0.004014363181099987
684.0, 0.0030804010349281714
685.0, 0.0019528682738840552
686.0, 0.0014451904387727482
687.0, 0.0011194674760611717
688.0, 0.001046610162217259
689.0, 0.0011255226542862009
690.0, 0.0012388399428113171
691.0, 0.00148083758461536
692.0, 0.002052712850266497
693.0, 0.0029278974231743914
694.0, 0.003893692048029934
695.0, 0.004523944084129862
696.0, 0.003781126333418205
697.0, 0.0021571369652252943
698.0, 0.0009085884619420467
699.0, 0.0003998949613286383
700.0, 4.4609560577399054e-05
701.0, 7.158394459778937e-05
702.0, 8.374988106020387e-05
703.0, 0.00011725754526622813
704.0, 0.0001259910495628055
705.0, 9.571167233720415e-05
706.0, 0.00011102124210957125
707.0, 2.363111468645938e-05
708.0, 6.394266441957095e-05
709.0, 9.042988315479769e-05
710.0, 0.00015858619211812238
711.0, 0.00027375204188943055
712.0, 0.0003445833849020739
713.0, 0.00032132890426463215
714.0, 0.000450902917266505
715.0, 0.00042146335543181035
716.0, 0.000452460974420722
717.0, 0.0005736139702319644
718.0, 0.0006635971946141282
719.0, 0.0007346434080591402
720.0, 0.0009156869482286784
721.0, 0.0009509808276695889
722.0, 0.0010521373534215094
723.0, 0.001155069880210806
724.0, 0.0012549236545517503
725.0, 0.0013207994888750285
726.0, 0.0013408917120302014
727.0, 0.0014058193131371245
728.0, 0.0013798629420767189
729.0, 0.0012988117074006526
730.0, 0.001272923835419582
731.0, 0.0012312422222604058
732.0, 0.001162615520925392
733.0, 0.0011228989794345417
734.0, 0.0010858033687722926
735.0, 0.0009420364360232612
736.0, 0.0009477335562335314
737.0, 0.0008748901011411078
738.0, 0.0008315516667728492
739.0, 0.0007606785572887355
740.0, 0.0006671225729916159
741.0, 0.0006738854820591615
742.0, 0.0006487813460300275
743.0, 0.0005862208585600443
744.0, 0.0005677787052323868
745.0, 0.0005601160826794607
746.0, 0.0005224970859677481
747.0, 0.0004887905676348168
748.0, 0.00048263706402748005
749.0, 0.00046866872239875593
750.0, 0.0004871915910856332
751.0, 0.0003728570834575833
752.0, 0.00036418962419746976
753.0, 0.0003643728933833214
754.0, 0.00034747791252047786
755.0, 0.00035206708003156695
756.0, 0.0002909476139501744
757.0, 0.0003033835686425124
758.0, 0.0002599228245492163
759.0, 0.0002593349173806881
760.0, 0.00028866835115509194
761.0, 0.000254049422723231
762.0, 0.00017562318381154993
763.0, 0.00014941707440340346
764.0, 0.000154986531827329
765.0, 0.00013075931105256339
766.0, 0.00013118758925406715
767.0, 0.00012557570905213445
768.0, 0.0001380060895747952
769.0, 0.0001447456899353944
770.0, 0.00013211778251375132
771.0, 0.00018456506664469118
772.0, 0.00021813461304272773
773.0, 0.0002228329130758009
774.0, 0.00021424647364408703
775.0, 0.00029144589735976824
776.0, 0.0003158379093047374
777.0, 0.00024870013777347717
778.0, 0.000232580152450081
779.0, 0.0002603726025885838
780.0, 0.00026138783317518864
781.0, 0.00025587832021855005
782.0, 0.00024328509662530144
783.0, 0.000235163585160647
784.0, 0.0002825283849122889
785.0, 0.0003185968875795758
786.0, 0.00024123703074264627
787.0, 0.000237554010719435
788.0, 0.0001831117261177232
789.0, 0.00019294767843063766
790.0, 0.000179244340994246
791.0, 0.0001250390518521469
792.0, 0.00010237086287978323
793.0, 0.00012047290091836059
794.0, 0.00011843053551564138
795.0, 8.416261802351149e-05
796.0, 0.00011523249013077066
797.0, 0.00011654607608070554
798.0, 4.752534002596785e-05
799.0, 6.328222641509424e-06
800.0, 1.6415465021069623e-05
801.0, 3.558050846822459e-05
802.0, 3.107647046332376e-05
803.0, 1.4129977626133128e-05
804.0, 6.043140084153054e-05
805.0, 4.0596512593633794e-05
806.0, 3.740982522855454e-05
807.0, 1.1738498007308038e-05
808.0, 2.1313893083703606e-05
809.0, 9.910299114688029e-06
810.0, 9.977783999083122e-05
811.0, 6.391399433121099e-05
812.0, 5.1865849639614556e-05
813.0, 1.190755188795686e-05
814.0, 9.583179802205256e-06
815.0, 6.685971181025658e-05
816.0, 0.00014125169151143894
817.0, 0.0002150185636739766
818.0, 0.00028952563168708426
819.0, 0.00029840222707197805
820.0, 0.0006379262882158373
821.0, 0.001001249332931307
822.0, 0.0016027447929745763
823.0, 0.002392569828365329
824.0, 0.0029990289414875103
825.0, 0.0031639170003555455
826.0, 0.0031112402596440926
827.0, 0.003001585241780873
828.0, 0.0031821392874566345
829.0, 0.003624576388635849
830.0, 0.004144983326364521
831.0, 0.004759852654914864
832.0, 0.005578846762288469
833.0, 0.0067426927784187
834.0, 0.00844699308211322
835.0, 0.010860169930843499
836.0, 0.015074361695540394
837.0, 0.020007083914183172
838.0, 0.022259693577821753
839.0, 0.01962730775543797
840.0, 0.013984568787147383
841.0, 0.0087625490759704
842.0, 0.005484893623791301
843.0, 0.003553641760993235
844.0, 0.0024591648775417335
845.0, 0.0018733321663413156
846.0, 0.0014998821773854732
847.0, 0.001258311891532692
848.0, 0.0010137570262831054
849.0, 0.0008117922403101469
850.0, 0.0007775022680628119
851.0, 0.0006882482970745655
852.0, 0.000616339259001145
853.0, 0.0005516722220798567
854.0, 0.00046288464012418813
855.0, 0.00043735581553749724
856.0, 0.00042010379162744536
857.0, 0.0003614524539560136
858.0, 0.0003069542627025243
859.0, 0.0002870565117263946
860.0, 0.0003096040747707853
861.0, 0.00034546721032755406
862.0, 0.0002598585322136754
863.0, 0.000224941115860462
864.0, 0.0002811420149595717
865.0, 0.00027764790341501284
866.0, 0.00018867298192128332
867.0, 0.0001654286394246143
868.0, 0.0002555918674028429
869.0, 0.0002590950935361762
870.0, 0.00026039852895737975
871.0, 0.0003239226142981998
872.0, 0.00028766990044090765
873.0, 0.00019345713053766638
874.0, 0.0001401111912062192
875.0, 0.00013746407374309828
876.0, 0.0001585146262590925
877.0, 0.00019845268059627343
878.0, 0.00022660020589617463
879.0, 0.00012228436370652771
880.0, 0.00010784181410147346
881.0, 6.348532646779393e-05
882.0, 5.710040385237654e-05
883.0, 7.79219556490322e-05
884.0, 7.28709561652723e-05
885.0, 6.879505628103255e-05
886.0, 6.661335973892132e-05
887.0, 7.041198337849138e-05
888.0, 7.522860030056958e-05
889.0, 7.12067805301152e-05
890.0, 5.622905530585641e-05
891.0, 7.491966647193189e-05
892.0, 4.904681132609929e-05
893.0, 3.238190190401002e-05
894.0, 3.9269548064382085e-05
895.0, 1.7165838041361908e-05
896.0, 8.575918066939941e-06
897.0, 2.0759383821083405e-05
898.0, 2.3887342784604504e-05
899.0, 6.686908715717024e-06
900.0, 2.0053512508220598e-05
901.0, 1.8211374101731993e-05
902.0, 9.491560196944633e-06
903.0, 1.1044470721667137e-05
904.0, 4.143948768340769e-05
905.0, 1.8195313546433674e-05
906.0, 2.7343841108705386e-05
907.0, 5.7496907568307636e-05
908.0, 2.778848849068328e-05
909.0, 1.0859219324207347e-05
910.0, 1.1660367442970324e-05
911.0, 4.212732134888425e-05
912.0, 7.254388884112275e-05
913.0, 5.3913075113546524e-05
914.0, 0.00010916340545193194
915.0, 1.3740914792057914e-05
916.0, 8.760637532392285e-05
917.0, 0.00014300101265624253
918.0, 0.00018694655109478275
919.0, 0.00017460025782120334
920.0, 0.0001425135890425061
921.0, 0.00016367647039977552
922.0, 0.00018474731823605038
923.0, 0.0002939329082503969
924.0, 0.0003524683606909689
925.0, 0.00023251307241384025
926.0, 0.00035657120822432214
927.0, 0.00036158725791057855
928.0, 0.0003334272031784275
929.0, 0.00031225969633775667
930.0, 0.000301694781528422
931.0, 0.0003428089003608632
932.0, 0.00038253275273207604
933.0, 0.0003966879707969466
934.0, 0.00033726621859456874
935.0, 0.00024397332607652047
936.0, 0.00033421440508617115
937.0, 0.0003417417266365098
938.0, 0.00031958143207953826
939.0, 0.00034427599331437515
940.0, 0.0003174313544619678
941.0, 0.00025912083691892115
942.0, 0.000304930044861172
943.0, 0.0002669423438847787
944.0, 0.00033116520704567397
945.0, 0.00031569956051975394
946.0, 0.00029078714869409673
947.0, 0.00031285133481662874
948.0, 0.00026940741665650383
949.0, 0.00022118933079973344
950.0, 0.00017943973594777203
951.0, 0.00013779528776290621
952.0, 0.0001730503372224738
953.0, 9.344313879376055e-05
954.0, 0.00011137893661669728
955.0, 0.00013066257686760162
956.0, 4.5840058167683135e-05
957.0, 6.37585552698678e-05
958.0, 8.878936454991618e-05
959.0, 0.0001001533121233723
960.0, 0.00014237701213156863
961.0, 0.00013684428148233454
962.0, 9.325222325352006e-05
963.0, 0.00010041867961413611
964.0, 6.748507712994526e-05
965.0, 3.393188034207411e-05
966.0, 2.997578784293403e-05
967.0, 4.947835445510758e-05
968.0, 4.8893801084251466e-06
969.0, 9.869612059707548e-06
970.0, 1.976121588313029e-05
971.0, 2.930513241458533e-05
972.0, 1.6018892874090197e-05
973.0, 3.472055981728204e-05
974.0, 6.661432814418317e-05
975.0, 1.2260041079847372e-05
976.0, 1.753444994206958e-05
977.0, 2.4063595673427837e-05
978.0, 7.347808752364052e-05
979.0, 5.434208657072353e-05
980.0, 2.7017233177934232e-05
981.0, 2.243446399680609e-05
982.0, 1.7560853081825244e-05
983.0, 2.8587371277484264e-06
984.0, 2.4424036314737488e-05
985.0, 7.236234434482161e-06
986.0, 2.742121795242282e-05
987.0, 1.3432396257834035e-05
988.0, 4.841512363374982e-05
989.0, 6.411470432596927e-05
990.0, 6.91619691897692e-05
991.0, 7.433883673890901e-05
992.0, 6.747494070286211e-05
993.0, 8.035256733891759e-05
994.0, 9.637895104086895e-05
995.0, 7.105785809876263e-05
996.0, 0.000128628144823595
997.0, 6.409020049954124e-05
998.0, 2.9383934016866084e-05
999.0, 8.009130114312552e-05
1000.0, 8.649238887447084e-05
1001.0, 6.879100637597212e-05
1002.0, 5.1852489475563364e-05
1003.0, 2.3384431928040777e-05
1004.0, 1.6605434194281008e-05
1005.0, 4.408456687234181e-05
1006.0, 5.0094777219470706e-05
1007.0, 6.650855097189256e-05
1008.0, 5.209936759289541e-05
1009.0, 8.596500442111768e-05
1010.0, 2.999328173032094e-05
1011.0, 6.255381743836293e-05
1012.0, 8.082652604948007e-05
1013.0, 6.42605268739005e-05
1014.0, 0.00011930050391636526
1015.0, 0.00018090925713948954
1016.0, 0.00019711423292121573
1017.0, 0.00030357195178675784
1018.0, 0.0004889718132746689
1019.0, 0.0006345805274724168
1020.0, 0.0006954815518840552
1021.0, 0.0007085738580845035
1022.0, 0.000759028621664017
1023.0, 0.0008955940017741714
1024.0, 0.0010685576792848447
1025.0, 0.0012514687552569992
1026.0, 0.0015134256829028704
1027.0, 0.0018926008023579662
1028.0, 0.002276445706295235
1029.0, 0.003058242085879599
1030.0, 0.004488136324463096
1031.0, 0.006165265051550427
1032.0, 0.005865745052550399
1033.0, 0.004512717992515045
1034.0, 0.003966465792336387
1035.0, 0.004357523903495288
1036.0, 0.005447452663855218
1037.0, 0.007455218138182558
1038.0, 0.011534656510529756
1039.0, 0.020543830024896535
1040.0, 0.03914995266074765
1041.0, 0.06793492535266495
1042.0, 0.09089778922197428
1043.0, 0.09262267597808277
1044.0, 0.08922105007382468
1045.0, 0.09682069894738453
1046.0, 0.11406780431909892
1047.0, 0.13365955951832886
1048.0, 0.15628800452214192
1049.0, 0.1813371301132474
1050.0, 0.21238980020826972
1051.0, 0.26110063243184656
1052.0, 0.36997834291730924
1053.0, 0.6233482808583433
1054.0, 0.9602294250561695
1055.0, 0.9072026160697263
1056.0, 0.4970695896102748
1057.0, 0.1983711086700928
1058.0, 0.07822143162721082
1059.0, 0.037469324287853
1060.0, 0.02181869726227566
1061.0, 0.014484404518325158
1062.0, 0.01028204724567665
1063.0, 0.007654810535490107
1064.0, 0.0060243744224242335
1065.0, 0.004892680841991452
1066.0, 0.004022141411563243
1067.0, 0.0033281119193981005
1068.0, 0.0027531519381446628
1069.0, 0.0023032360264462507
1070.0, 0.0018898739893862392
1071.0, 0.0016292535004633817
1072.0, 0.001423926172678035
1073.0, 0.0012432746280025787
1074.0, 0.001140826482798932
1075.0, 0.0009390117122960368
1076.0, 0.0007384534448345953
1077.0, 0.0006864371556248801
1078.0, 0.0006055076882599843
1079.0, 0.00047362283552055594
1080.0, 0.00035753889323980186
1081.0, 0.0003273015362694212
1082.0, 0.00031980527601170144
1083.0, 0.00027493095131765686
1084.0, 0.00033941932504074924
1085.0, 0.0002503337365223142
1086.0, 0.0001473321602896808
1087.0, 0.00011068817732639823
1088.0, 0.00015609233577474686
1089.0, 0.0001465995768631961
1090.0, 0.0001264578543392672
1091.0, 0.0002041151807887852
1092.0, 0.00023794737290293178
1093.0, 0.00021355713899863223
1094.0, 0.0002799834251923007
1095.0, 0.00028353026124400537
1096.0, 0.0003269323015596987
1097.0, 0.00030272060976618685
1098.0, 0.0003131559239485375
1099.0, 0.0002868060684040958
1100.0, 0.000293952569588271
1101.0, 0.00035672474411692725
1102.0, 0.00030889456525578905
1103.0, 0.00024400643044472685
1104.0, 0.000263721283933533
1105.0, 0.00024336996840715764
1106.0, 0.00017337387936026957
1107.0, 0.00018647890684212997
1108.0, 0.00022124929932429644
1109.0, 0.0002748728875797421
1110.0, 0.00013571391436929676
1111.0, 0.0001453164886504332
1112.0, 3.0348316185626318e-05
1113.0, 3.439734363044689e-05
1114.0, 5.763593193229321e-05
1115.0, 3.2403511097385945e-05
1116.0, 5.724414706484252e-05
1117.0, 5.308166684804537e-05
1118.0, 4.500449202423574e-05
1119.0, 8.821560880892796e-05
1120.0, 5.329429638467587e-05
1121.0, 4.668488958331922e-05
1122.0, 4.9455494189502214e-05
1123.0, 2.48926044189334e-05
1124.0, 3.674433174573874e-05
1125.0, 5.559112945032189e-06
1126.0, 2.861537644984299e-06
1127.0, 3.062598746514443e-05
1128.0, 8.156754704530578e-06
1129.0, 8.163868569848948e-05
1130.0, 0.00012296071879139587
1131.0, 0.00013064132331720734
1132.0, 0.000113622397292963
1133.0, 7.541315487258327e-05
1134.0, 0.00011943945533769744
1135.0, 0.00014055679317947538
1136.0, 7.431659093103423e-05
1137.0, 6.961093256640299e-05
1138.0, 0.00012301430122564654
1139.0, 0.0001922012985259284
1140.0, 0.0001355558696848178
1141.0, 0.00022477221302628252
1142.0, 0.0003338159911994925
1143.0, 0.0003046640578847482
1144.0, 0.0002533544672338429
1145.0, 0.00026918818934531364
1146.0, 0.00035636719710866415
1147.0, 0.0003463285813553489
1148.0, 0.0003568909218641875
1149.0, 0.0004437382270153113
1150.0, 0.0004859004770968966
1151.0, 0.0004983611778544121
1152.0, 0.0004935000311697781
1153.0, 0.00048071472862925207
1154.0, 0.0006100464904261708
1155.0, 0.0007227390032621998
1156.0, 0.0005778014376514512
1157.0, 0.0007470254460836915
1158.0, 0.0008306177687776073
1159.0, 0.0008556887075451844
1160.0, 0.0009310070139560155
1161.0, 0.0010497789646746634
1162.0, 0.0009758193047794815
1163.0, 0.0010275394748798438
1164.0, 0.001089235414051431
1165.0, 0.001161423180257875
1166.0, 0.0012334010830814738
1167.0, 0.0012707150132374773
1168.0, 0.0013642134339814389
1169.0, 0.001467352619399094
1170.0, 0.0015046856509373947
1171.0, 0.0015749933316050624
1172.0, 0.001583145614851994
1173.0, 0.0015887654674144253
1174.0, 0.0016633591180343216
1175.0, 0.0016422439663043432
1176.0, 0.0016552257923448392
1177.0, 0.001679487032569331
1178.0, 0.001740917673934143
1179.0, 0.001733505457129446
1180.0, 0.0017328937567405416
1181.0, 0.0017074198297267588
1182.0, 0.0016529858725188881
1183.0, 0.0016780582822692018
1184.0, 0.0016637707251509247
1185.0, 0.0015875818817630855
1186.0, 0.0015286492510661626
1187.0, 0.001475049707334227
1188.0, 0.0014609135709568108
1189.0, 0.0014249225746805448
1190.0, 0.00121123453799834
1191.0, 0.0012001309156594072
1192.0, 0.0012388914762754418
1193.0, 0.001128735297499178
1194.0, 0.0009944288958106504
1195.0, 0.0009419784439967829
1196.0, 0.0008716022753832173
1197.0, 0.0008216961875916328
1198.0, 0.0006833165885648879
1199.0, 0.0006403074266802231
1200.0, 0.0006076603628548135
1201.0, 0.0005484717886362874
1202.0, 0.0004443576507064904
1203.0, 0.0004787131822389985
1204.0, 0.0004322078044606406
1205.0, 0.0003103477631768359
1206.0, 0.0002928655556161612
1207.0, 0.0002386608100985149
1208.0, 0.00012135109671674389
1209.0, 9.844829523449603e-05
1210.0, 0.00012395393808936457
1211.0, 6.503801499326045e-05
1212.0, 7.36527762954947e-05
1213.0, 9.639439365991211e-05
1214.0, 8.533977487163932e-05
1215.0, 1.549674210702005e-05
1216.0, 6.270919379702717e-06
1217.0, 4.740204086212399e-06
1218.0, 1.4863486332395437e-05
1219.0, 6.986275388247538e-05
1220.0, 0.0001838164267980193
1221.0, 0.00016615669574150687
1222.0, 0.00012177938134035601
1223.0, 5.575290824783379e-05
1224.0, 1.5098724670081541e-05
1225.0, 3.143101494855092e-05
1226.0, 8.381441221922998e-06
1227.0, 1.490174941061829e-05
1228.0, 4.0603618475260986e-05
1229.0, 5.619972504093583e-05
1230.0, 0.00010357930371053673
1231.0, 0.00017921104156603195
1232.0, 0.00016721372702841353
1233.0, 0.000461288937811321
1234.0, 0.0005149142300560606
1235.0, 0.0005568071531733218
1236.0, 0.0006838293014410308
1237.0, 0.0009202678708280305
1238.0, 0.0008524721111025668
1239.0, 0.0009622507989121823
1240.0, 0.0010837988639291214
1241.0, 0.001206380676176871
1242.0, 0.001209579146924654
1243.0, 0.0012936593540395327
1244.0, 0.0014736517917397116
1245.0, 0.0015114778898870935
1246.0, 0.0016241399242288425
1247.0, 0.0018238389710067675
1248.0, 0.0017965522798837968
1249.0, 0.0018941716844138236
1250.0, 0.0020899539116647587
1251.0, 0.002001961554587754
1252.0, 0.0019172401450226672
1253.0, 0.0020427638575350212
1254.0, 0.002047346936616723
1255.0, 0.001916088059073509
1256.0, 0.0018602371281909408
1257.0, 0.0018613814893542698
1258.0, 0.0018436014217544329
1259.0, 0.0017756752252808673
1260.0, 0.0017692466312033911
1261.0, 0.00168686985033933
1262.0, 0.0017430058920604064
1263.0, 0.0016195001151341837
1264.0, 0.0015121323650838883
1265.0, 0.0013724546540767452
1266.0, 0.0013798664069303484
1267.0, 0.0013931163461811543
1268.0, 0.0011974275566261228
1269.0, 0.0009674030410891377
1270.0, 0.0009625795647139655
1271.0, 0.0009983223234311834
1272.0, 0.0008863621749410975
1273.0, 0.0006728897574706261
1274.0, 0.0006240214563774519
1275.0, 0.0005609844271153228
1276.0, 0.0004473323200950535
1277.0, 0.0003698155342282781
1278.0, 0.0003594954858614733
1279.0, 0.00023936453576658232
1280.0, 0.00020951739646768268
1281.0, 0.0002229156188782197
1282.0, 0.00017565433949109335
1283.0, 0.00014810091102417582
1284.0, 6.353169320328644e-05
1285.0, 0.00011211474040639841
1286.0, 9.653579003068486e-07
1287, 0.0
1288, 0.0
1289, 0.0
1290, 0.0
1291, 0.0
1292, 0.0
1293, 0.0
1294, 0.0
1295, 0.0
1296, 0.0
1297, 0.0
1298, 0.0
1299, 0.0
1300, 0.0
1301, 0.0
1302, 0.0
1303, 0.0
1304, 0.0
1305, 0.0
1306, 0.0
1307, 0.0
1308, 0.0
1309, 0.0
1310, 0.0
1311, 0.0
1312, 0.0
1313, 0.0
1314, 0.0
1315, 0.0
1316, 0.0
1317, 0.0
1318, 0.0
1319, 0.0
1320, 0.0
1321, 0.0
1322, 0.0
1323, 0.0
1324, 0.0
1325, 0.0
1326, 0.0
1327, 0.0
1328, 0.0
1329, 0.0
1330, 0.0
1331, 0.0
1332, 0.0
1333, 0.0
1334, 0.0
1335, 0.0
1336, 0.0
1337, 0.0
1338, 0.0
1339, 0.0
1340, 0.0
1341, 0.0
1342, 0.0
1343, 0.0
1344, 0.0
1345, 0.0
1346, 0.0
1347, 0.0
1348, 0.0
1349, 0.0
1350, 0.0
1351, 0.0
1352, 0.0
1353, 0.0
1354, 0.0
1355, 0.0
1356, 0.0
1357, 0.0
1358, 0.0
1359, 0.0
1360, 0.0
1361, 0.0
1362, 0.0
1363, 0.0
1364, 0.0
1365, 0.0
1366, 0.0
1367, 0.0
1368, 0.0
1369, 0.0
1370, 0.0
1371, 0.0
1372, 0.0
1373, 0.0
1374, 0.0
1375, 0.0
1376, 0.0
1377, 0.0
1378, 0.0
1379, 0.0
1380, 0.0
1381, 0.0
1382, 0.0
1383, 0.0
1384, 0.0
1385, 0.0
1386, 0.0
1387, 0.0
1388, 0.0
1389, 0.0
1390, 0.0
1391, 0.0
1392, 0.0
1393, 0.0
1394, 0.0
1395, 0.0
1396, 0.0
1397, 0.0
1398, 0.0
1399, 0.0
1400, 0.0
1401, 0.0
1402, 0.0
1403, 0.0
1404, 0.0
1405, 0.0
1406, 0.0
1407, 0.0
1408, 0.0
1409, 0.0
1410, 0.0
1411, 0.0
1412, 0.0
1413, 0.0
1414, 0.0
1415, 0.0
1416, 0.0
1417, 0.0
1418, 0.0
1419, 0.0
1420, 0.0
1421, 0.0
1422, 0.0
1423, 0.0
1424, 0.0
1425, 0.0
1426, 0.0
1427, 0.0
1428, 0.0
1429, 0.0
1430, 0.0
1431, 0.0
1432, 0.0
1433, 0.0
1434, 0.0
1435, 0.0
1436, 0.0
1437, 0.0
1438, 0.0
1439, 0.0
1440, 0.0
1441, 0.0
1442, 0.0
1443, 0.0
1444, 0.0
1445, 0.0
1446, 0.0
1447, 0.0
1448, 0.0
1449, 0.0
1450, 0.0
1451, 0.0
1452, 0.0
1453, 0.0
1454, 0.0
1455, 0.0
1456, 0.0
1457, 0.0
1458, 0.0
1459, 0.0
1460, 0.0
1461, 0.0
1462, 0.0
1463, 0.0
1464, 0.0
1465, 0.0
1466, 0.0
1467, 0.0
1468, 0.0
1469, 0.0
1470, 0.0
1471, 0.0
1472, 0.0
1473, 0.0
1474, 0.0
1475, 0.0
1476, 0.0
1477, 0.0
1478, 0.0
1479, 0.0
1480, 0.0
1481, 0.0
1482, 0.0
1483, 0.0
1484, 0.0
1485, 0.0
1486, 0.0
1487, 0.0
1488, 0.0
1489, 0.0
1490, 0.0
1491, 0.0
1492, 0.0
1493, 0.0
1494, 0.0
1495, 0.0
1496, 0.0
1497, 0.0
1498, 0.0
1499, 0.0
1500, 0.0
1501, 0.0
1502, 0.0
1503, 0.0
1504, 0.0
1505, 0.0
1506, 0.0
1507, 0.0
1508, 0.0
1509, 0.0
1510, 0.0
1511, 0.0
1512, 0.0
1513, 0.0
1514, 0.0
1515, 0.0
1516, 0.0
1517, 0.0
1518, 0.0
1519, 0.0
1520, 0.0
1521, 0.0
1522, 0.0
1523, 0.0
1524, 0.0
1525, 0.0
1526, 0.0
1527, 0.0
1528, 0.0
1529, 0.0
1530, 0.0
1531, 0.0
1532, 0.0
1533, 0.0
1534, 0.0
1535, 0.0
1536, 0.0
1537, 0.0
1538, 0.0
1539, 0.0
1540, 0.0
1541, 0.0
1542, 0.0
1543, 0.0
1544, 0.0
1545, 0.0
1546, 0.0
1547, 0.0
1548, 0.0
1549, 0.0
1550, 0.0
1551, 0.0
1552, 0.0
1553, 0.0
1554, 0.0
1555, 0.0
1556, 0.0
1557, 0.0
1558, 0.0
1559, 0.0
1560, 0.0
1561, 0.0
1562, 0.0
1563, 0.0
1564, 0.0
1565, 0.0
1566, 0.0
1567, 0.0
1568, 0.0
1569, 0.0
1570, 0.0
1571, 0.0
1572, 0.0
1573, 0.0
1574, 0.0
1575, 0.0
1576, 0.0
1577, 0.0
1578, 0.0
1579, 0.0
1580, 0.0
1581, 0.0
1582, 0.0
1583, 0.0
1584, 0.0
1585, 0.0
1586, 0.0
1587, 0.0
1588, 0.0
1589, 0.0
1590, 0.0
1591, 0.0
1592, 0.0
1593, 0.0
1594, 0.0
1595, 0.0
1596, 0.0
1597, 0.0
1598, 0.0
1599, 0.0
