30, 0.0
31, 0.0
32, 0.0
33, 0.0
34, 0.0
35, 0.0
36, 0.0
37, 0.0
38, 0.0
39, 0.0
40, 0.0
41, 0.0
42, 0.0
43, 0.0
44, 0.0
45, 0.0
46, 0.0
47, 0.0
48, 0.0
49, 0.0
50, 0.0
51, 0.0
52.0, 0.0012414173176462711
53.0, 0.00371766802182412
54.0, 0.006247525202797967
55.0, 0.003246340519384421
56.0, 0.0016258417612248885
57.0, 0.0010249367341165422
58.0, 0.0012390724524071006
59.0, 0.002977353678078637
60.0, 0.010953537082265458
61.0, 0.022024556612239496
62.0, 0.03745778241410728
63.0, 0.05653110732290606
64.0, 0.07868950188707724
65.0, 0.10500124740284367
66.0, 0.13237249438209556
67.0, 0.1595596468284703
68.0, 0.18400816538617557
69.0, 0.2020844002202372
70.0, 0.20893643325505878
71.0, 0.2110025886193051
72.0, 0.20454497564264684
73.0, 0.19289038105385536
74.0, 0.17789407918230782
75.0, 0.16051520933788865
76.0, 0.14848255771714006
77.0, 0.13679676737977087
78.0, 0.126808503941579
79.0, 0.11891590812422888
80.0, 0.11297666077203879
81.0, 0.1087022439373811
82.0, 0.10648636541359771
83.0, 0.10601404945263335
84.0, 0.10644095883588123
85.0, 0.1074807881580231
86.0, 0.11113775456328166
87.0, 0.11479291118245198
88.0, 0.12147556228276393
89.0, 0.12965070894940103
90.0, 0.13841119069723354
91.0, 0.1486135387790756
92.0, 0.15772028535238466
93.0, 0.16549528835442484
94.0, 0.17221170354646245
95.0, 0.17971446587716858
96.0, 0.19047345982293196
97.0, 0.19840499885837692
98.0, 0.20191991327545303
99.0, 0.20531868045226315
100.0, 0.20886116779152558
101.0, 0.21129349793122293
102.0, 0.21195531302963994
103.0, 0.21143797259210526
104.0, 0.2097539910337176
105.0, 0.20837802015615126
106.0, 0.20780085429760872
107.0, 0.20552595206936963
108.0, 0.2016728919870943
109.0, 0.20033595986031003
110.0, 0.20318539851485604
111.0, 0.2076682574406594
112.0, 0.2073288069530087
113.0, 0.21185573628072538
114.0, 0.21118990932132378
115.0, 0.21224905799631263
116.0, 0.21419889598692796
117.0, 0.2125941400434388
118.0, 0.20706501525069643
119.0, 0.20147056648130457
120.0, 0.19718761830540868
121.0, 0.19160446259289796
122.0, 0.18363158914833194
123.0, 0.1787616564870271
124.0, 0.17251324168201007
125.0, 0.16927968392082757
126.0, 0.1668741465150096
127.0, 0.16410802042512082
128.0, 0.16169943563024225
129.0, 0.16220703173322076
130.0, 0.1576136340642257
131.0, 0.15493599062837124
132.0, 0.1543299541018708
133.0, 0.15253327687823293
134.0, 0.14879636709414662
135.0, 0.14415081209197753
136.0, 0.14076649338627037
137.0, 0.1371164744754913
138.0, 0.13287614605852072
139.0, 0.13244342694882594
140.0, 0.1293939950302341
141.0, 0.13061345830430557
142.0, 0.13043546056205804
143.0, 0.12765427906325963
144.0, 0.12606490135171436
145.0, 0.12566047278169715
146.0, 0.12114084247444441
147.0, 0.11832405849278844
148.0, 0.11632687939304043
149.0, 0.11265655501291971
150.0, 0.10989200556970159
151.0, 0.10335484645206124
152.0, 0.098369759482453
153.0, 0.09376330824587506
154.0, 0.08831535428088488
155.0, 0.08223371947756716
156.0, 0.07738885142965403
157.0, 0.0744879406057948
158.0, 0.07279134845664509
159.0, 0.07081020064559869
160.0, 0.06741892654237332
161.0, 0.06714651492304166
162.0, 0.06532416479671371
163.0, 0.06608649093639624
164.0, 0.06740872134031906
165.0, 0.06741300145692986
166.0, 0.06794375807087122
167.0, 0.07007174499948168
168.0, 0.07073417598798752
169.0, 0.0713156693948611
170.0, 0.07241825283203318
171.0, 0.0736094012761231
172.0, 0.07291904899460536
173.0, 0.07311559812686222
174.0, 0.0720355158759807
175.0, 0.07008466198874715
176.0, 0.06795031691001507
177.0, 0.06461934527888699
178.0, 0.06384795072579809
179.0, 0.06123063378409539
180.0, 0.05775795928398572
181.0, 0.054978953353202506
182.0, 0.05407119353818665
183.0, 0.04954128760686227
184.0, 0.048986715226469316
185.0, 0.047395267880519266
186.0, 0.04513610868335768
187.0, 0.044081287303102235
188.0, 0.04434983031350383
189.0, 0.04459334749935414
190.0, 0.043205161969255994
191.0, 0.04291692799272225
192.0, 0.044303264866798954
193.0, 0.04523405253326393
194.0, 0.04693608153340353
195.0, 0.04946068416302273
196.0, 0.050430454842699264
197.0, 0.05069621607811955
198.0, 0.05194632518178335
199.0, 0.05449444648952113
200.0, 0.05656952197404844
201.0, 0.05906505136557722
202.0, 0.06111646399367776
203.0, 0.06229041881456143
204.0, 0.06304971490282728
205.0, 0.06761980947698117
206.0, 0.0687511737716551
207.0, 0.07072798427966255
208.0, 0.07285048251003713
209.0, 0.07391043246502697
210.0, 0.07614544408411102
211.0, 0.07665841453021634
212.0, 0.07809579653241992
213.0, 0.07916887299198612
214.0, 0.07932690657508092
215.0, 0.07898990546611558
216.0, 0.07882421872544466
217.0, 0.07913990364349474
218.0, 0.07784539716965196
219.0, 0.07621112008740333
220.0, 0.07557095525977346
221.0, 0.07531900174652245
222.0, 0.07293097068845392
223.0, 0.07108565012550772
224.0, 0.06810648745279461
225.0, 0.06485051811397938
226.0, 0.06324263637281095
227.0, 0.060613788963613566
228.0, 0.05896521868029556
229.0, 0.05651124989017691
230.0, 0.05365441817150388
231.0, 0.050750704759299284
232.0, 0.047486423953669615
233.0, 0.044659761696086056
234.0, 0.04209468530509876
235.0, 0.03955815244184879
236.0, 0.037226342438680726
237.0, 0.03525481124762858
238.0, 0.033071856260450345
239.0, 0.03120524763060927
240.0, 0.029863812238060547
241.0, 0.02831807295353005
242.0, 0.026506805546804096
243.0, 0.025052887335127127
244.0, 0.02393328773533278
245.0, 0.021655349669155607
246.0, 0.019058251728560387
247.0, 0.017342115180335137
248.0, 0.016718563167628125
249.0, 0.015324141063759521
250.0, 0.014288837627959993
251.0, 0.012109943123894221
252.0, 0.011149661168902572
253.0, 0.010502035839425421
254.0, 0.008463765104268505
255.0, 0.008131965811377293
256.0, 0.008782126056303314
257.0, 0.007626086807937252
258.0, 0.006075435106515882
259.0, 0.004981659860268492
260.0, 0.004059435687635826
261.0, 0.0037093867317093986
262.0, 0.0026647678608417696
263.0, 0.001657990325326238
264.0, 0.0009795280997738393
265.0, 0.0007039137166781602
266.0, 0.0007284716081300368
267.0, 0.0009499990918183702
268.0, 0.0018613338285971446
269.0, 0.0014810517200276095
270.0, 0.00045210145132804265
271.0, 0.00027784355671753893
272.0, 0.0003718255228345043
273.0, 0.0004656097952941245
274.0, 0.0006127747680051556
275.0, 0.0008069641467129968
276.0, 0.0009166289075644619
277.0, 0.0008179158114973114
278.0, 0.0012183005429846595
279.0, 0.0010588661921453564
280.0, 0.0010821832813051862
281.0, 0.001501239620776371
282.0, 0.0020942196496436696
283.0, 0.0022360961124250926
284.0, 0.0021561395529768983
285.0, 0.0022712186209800037
286.0, 0.002171372798260084
287.0, 0.0018585121226962333
288.0, 0.001637307297939723
289.0, 0.002119226988232439
290.0, 0.0021509478310455465
291.0, 0.002034831068075331
292.0, 0.0022785438352687284
293.0, 0.002503505872473154
294.0, 0.002140835591478069
295.0, 0.0019125759325049083
296.0, 0.0016400613210563685
297.0, 0.001570229776368228
298.0, 0.0013525461980037337
299.0, 0.0010413778257834373
300.0, 0.0010850718558072438
301.0, 0.0019088067784803174
302.0, 0.0018346263464381932
303.0, 0.0022917666758828165
304.0, 0.0021492896116298114
305.0, 0.001333680564691736
306.0, 0.0014141789280681428
307.0, 0.001142873608257519
308.0, 0.0009758953677051627
309.0, 0.0012189807440783121
310.0, 0.0012902376487767206
311.0, 0.0012001575150555079
312.0, 0.002269687842147094
313.0, 0.0021814258929058086
314.0, 0.0017531566412058133
315.0, 0.001501837319451979
316.0, 0.0013998240715535199
317.0, 0.001407213153846915
318.0, 0.0019765217888634847
319.0, 0.0014739109475987826
320.0, 0.0009432012626117584
321.0, 0.0009281051321230396
322.0, 0.0015020522284587819
323.0, 0.00206575042193148
324.0, 0.0007903492587914244
325.0, 0.0014820154402533162
326.0, 0.0008021116334100866
327.0, 0.00020250970380288172
328.0, 0.0002394208284249322
329.0, 0.0004999273142660747
330.0, 0.00010119301272578938
331.0, 0.00048132561105305506
332.0, 0.0012352580856399675
333.0, 0.0010002965670143922
334.0, 0.00018053418814148797
335.0, 0.00045877750804963193
336.0, 0.0021078059011525947
337.0, 0.0006042335685715579
338.0, 0.0004743145071778292
339.0, 0.0011944580307638594
340.0, 0.0016439359598328595
341.0, 0.0011180711558181526
342.0, 0.0006292477789600735
343.0, 0.0006349345039195418
344.0, 0.00033829335725711737
345.0, 0.00038983266479298217
346.0, 0.0007565982432858904
347.0, 0.000581270409526359
348.0, 0.0007543741397629084
349.0, 0.0012868861955284735
350.0, 0.001988797734604718
351.0, 0.0021536822145639257
352.0, 0.0019119096050246097
353.0, 0.0022151273348050664
354.0, 0.0005991656739896333
355.0, 0.0001820781162767672
356.0, 0.0010702303882457937
357.0, 0.0016682173992938814
358.0, 0.001720538167491625
359.0, 0.002821194256511012
360.0, 0.0012932522779156496
361.0, 0.0009433187649145278
362.0, 0.0010618973060204859
363.0, 0.0013436866301407872
364.0, 0.0014653857812338188
365.0, 0.00121520238252456
366.0, 0.0034008504255415312
367.0, 0.0020945495550139734
368.0, 0.0011975120480233626
369.0, 0.002169102975891447
370.0, 0.0037961203222457796
371.0, 0.0028477650373946567
372.0, 0.004036525221737299
373.0, 0.0033857037316841255
374.0, 0.00318290811901365
375.0, 0.0038225136873529706
376.0, 0.004421614538447549
377.0, 0.003544618764790634
378.0, 0.004647637994024365
379.0, 0.0029149813622555247
380.0, 0.001858316735532082
381.0, 0.0022150050870623837
382.0, 0.003554646584932133
383.0, 0.004711739655684364
384.0, 0.0029924919600661194
385.0, 0.004708229047804597
386.0, 0.004861174360545111
387.0, 0.0044055819431413025
388.0, 0.004593505604911967
389.0, 0.005361539553927456
390.0, 0.005863151853378635
391.0, 0.005470523748929875
392.0, 0.004814683477185316
393.0, 0.004371152479755676
394.0, 0.004318933550171333
395.0, 0.004554263287012477
396.0, 0.005137645571318566
397.0, 0.00524917634931569
398.0, 0.004908164520290826
399.0, 0.0048689076264394745
400.0, 0.0052066887906520734
401.0, 0.005298141345745072
402.0, 0.004674764151278008
403.0, 0.005534352759904181
404.0, 0.005687311066145992
405.0, 0.005571248525479323
406.0, 0.005747275201408762
407.0, 0.006178139123886781
408.0, 0.0051263468584421155
409.0, 0.005209617400751937
410.0, 0.0049401909988883805
411.0, 0.005262825208525962
412.0, 0.005932686275001784
413.0, 0.006065324872915667
414.0, 0.005475069150936836
415.0, 0.00508012671836557
416.0, 0.004862447703288113
417.0, 0.005432271564267898
418.0, 0.005745863641602268
419.0, 0.005063745224584228
420.0, 0.0050708955834348705
421.0, 0.005522381311977585
422.0, 0.0050063624878613775
423.0, 0.005721726392488638
424.0, 0.006660453392747005
425.0, 0.006562451647708885
426.0, 0.005861432454384023
427.0, 0.004517999840085304
428.0, 0.004988411060251821
429.0, 0.006658490479148637
430.0, 0.007009185201306941
431.0, 0.005921201730868071
432.0, 0.006172751138153043
433.0, 0.005167368146086987
434.0, 0.004959434740111789
435.0, 0.0055814582062739685
436.0, 0.005679738650362278
437.0, 0.005302537522937673
438.0, 0.005660779680903041
439.0, 0.0064075319531351396
440.0, 0.006841825773465494
441.0, 0.0060216293726339494
442.0, 0.005499192760443698
443.0, 0.005115339639271988
444.0, 0.0044646235916338504
445.0, 0.005951294702015442
446.0, 0.006920876960704729
447.0, 0.005862743239661705
448.0, 0.005987710421603901
449.0, 0.006667980718841085
450.0, 0.006229428961682514
451.0, 0.004630093379239157
452.0, 0.005704301532968812
453.0, 0.005603367501293165
454.0, 0.005853571266156238
455.0, 0.006069629817839549
456.0, 0.005914052590342287
457.0, 0.005749474156424342
458.0, 0.005959456542094668
459.0, 0.005574026351958946
460.0, 0.005263580320724804
461.0, 0.0052189790282629565
462.0, 0.005120278798883763
463.0, 0.004766890248001631
464.0, 0.005504439979909318
465.0, 0.004843587213032015
466.0, 0.0049160318669754215
467.0, 0.005598249837542025
468.0, 0.005728480193454116
469.0, 0.00477465064098153
470.0, 0.004218425756267669
471.0, 0.004391367402408132
472.0, 0.0036574840936112163
473.0, 0.003761448125875563
474.0, 0.004045210230883613
475.0, 0.004211838990950569
476.0, 0.004892208163592176
477.0, 0.004718520327760455
478.0, 0.005432211567136473
479.0, 0.005538477376003991
480.0, 0.005184168497220674
481.0, 0.0049179715883852955
482.0, 0.005163424365799035
483.0, 0.005632816008924142
484.0, 0.004954919009684598
485.0, 0.004292152860780344
486.0, 0.003954040006388351
487.0, 0.0042736626448231325
488.0, 0.005081177232978653
489.0, 0.005479696824911206
490.0, 0.0047288286891874936
491.0, 0.003645433455930123
492.0, 0.004487256190668808
493.0, 0.004326352533725206
494.0, 0.0032595598658293114
495.0, 0.0038988644713985545
496.0, 0.004907882913520979
497.0, 0.0028498115224072232
498.0, 0.0035051195834321616
499.0, 0.004136220959913027
500.0, 0.003757471077876823
501.0, 0.003187343548565046
502.0, 0.0041173490101258535
503.0, 0.00471473887803586
504.0, 0.0037743013815322132
505.0, 0.0036308628141642906
506.0, 0.0044216140470450015
507.0, 0.004881852173502069
508.0, 0.0039921111099021035
509.0, 0.0048789352777898285
510.0, 0.0034895034299032963
511.0, 0.003646689524713867
512.0, 0.0042344920011110655
513.0, 0.004486253597235845
514.0, 0.004231645174167562
515.0, 0.003742506340595327
516.0, 0.003053433577920731
517.0, 0.0029956830232079853
518.0, 0.00355462079115849
519.0, 0.0032316772496888335
520.0, 0.002568660004158155
521.0, 0.003114142969211421
522.0, 0.0024853231962806564
523.0, 0.0023764737421846224
524.0, 0.003038534563495866
525.0, 0.002695277680043013
526.0, 0.0023522275432525945
527.0, 0.0026059413903438368
528.0, 0.0018428411580932672
529.0, 0.002151278308225741
530.0, 0.0014123381718195401
531.0, 0.0030814481859588257
532.0, 0.003407286457827376
533.0, 0.00266527502367417
534.0, 0.0031499566609444
535.0, 0.001978298883344992
536.0, 0.00313476911702586
537.0, 0.0021849735417595988
538.0, 0.0021478433045868397
539.0, 0.002220698156863694
540.0, 0.001983918809214106
541.0, 0.002464152817533205
542.0, 0.0015541321099411503
543.0, 0.0024071871817278653
544.0, 0.002389601599465297
545.0, 0.0022823535576619795
546.0, 0.0028033929752090962
547.0, 0.003329361705085275
548.0, 0.0018092208674484142
549.0, 0.003433057535081179
550.0, 0.002626163291504738
551.0, 0.001968205966290541
552.0, 0.001522096810786773
553.0, 0.0016878425292596731
554.0, 0.0026408717495991804
555.0, 0.002143496654592881
556.0, 0.0022679517116008536
557.0, 0.0025518417684490674
558.0, 0.001694699391749289
559.0, 0.0015335506977257809
560.0, 0.0023480351882924693
561.0, 0.0020004356907497955
562.0, 0.0012072409696580856
563.0, 0.001856370817307093
564.0, 0.0020421653565297487
565.0, 0.0022162593950657903
566.0, 0.0024296104339544596
567.0, 0.0024135688083565866
568.0, 0.0019551716095186785
569.0, 0.0017166422530392625
570.0, 0.0013234066618676365
571.0, 0.0008332221821204311
572.0, 0.0009682616260532281
573.0, 0.0015367779610479053
574.0, 0.001653057908573972
575.0, 0.0006557720078682142
576.0, 0.0016916953932407364
577.0, 0.001543319521998001
578.0, 0.0016983731488851735
579.0, 0.0021925551032214645
580.0, 0.0021366441436479703
581.0, 0.0013031339655428713
582.0, 0.002455677622607844
583.0, 0.003006668789182485
584.0, 0.0026663575675844667
585.0, 0.002913565416816057
586.0, 0.002518266499983558
587.0, 0.0015448131702712057
588.0, 0.001388877845158321
589.0, 0.0004435050844618008
590.0, 0.0006711416204131942
591.0, 0.0023105300276114998
592.0, 0.0021473208134171
593.0, 0.0018968497720781954
594.0, 0.002370170356099897
595.0, 0.0017837912964220521
596.0, 0.0021406439427770194
597.0, 0.0011625452618685543
598.0, 0.0007997982309068349
599.0, 0.00036855487476928305
600.0, 0.0008023003067442935
601.0, 0.0015995805573006663
602.0, 0.0006902562526074022
603.0, 0.0038126024916832774
604.0, 0.0013731483497202242
605.0, 0.0010270021229231983
606.0, 0.0019258375257201993
607.0, 0.002263600782018783
608.0, 0.0016102253905813139
609.0, 0.001335158777750918
610.0, 8.41195513710763e-05
611.0, 0.002018073115414443
612.0, 0.002703064512483643
613.0, 0.0033342934396886196
614.0, 0.0038129628319249777
615.0, 0.0036066999395432133
616.0, 0.0031832157522271518
617.0, 0.004056989298572026
618.0, 0.003132665704137894
619.0, 0.0026339188946159398
620.0, 0.003251503565712883
621.0, 0.003892366779065527
622.0, 0.003707857748832034
623.0, 0.0036074940797782454
624.0, 0.004278149694443928
625.0, 0.004461872746379198
626.0, 0.004156158516332813
627.0, 0.0038813717837445716
628.0, 0.004021266245430239
629.0, 0.00440681749050346
630.0, 0.004348579370203508
631.0, 0.003997964722154106
632.0, 0.003324528951884441
633.0, 0.0035744512778529114
634.0, 0.003306157057875216
635.0, 0.003112220497104867
636.0, 0.0032171292481362654
637.0, 0.002321953984081234
638.0, 0.0031056763740203975
639.0, 0.0027409203382658333
640.0, 0.0028831399340146823
641.0, 0.0026141061511473947
642.0, 0.0020271911025209993
643.0, 0.0016501421204047453
644.0, 0.001615296273949732
645.0, 0.001092003289171735
646.0, 0.0014414004207721509
647.0, 0.0009858428883014539
648.0, 0.0011524057699919977
649.0, 0.001226668901356452
650.0, 0.0010791306142796863
651.0, 0.001604374794456861
652.0, 0.0010357097893864695
653.0, 0.0012853238644364893
654.0, 0.0018233433294457479
655.0, 0.001641967869293851
656.0, 0.001404957343007276
657.0, 0.0018898515513507887
658.0, 0.002793622412077391
659.0, 0.002237201278542324
660.0, 0.005145553182016741
661.0, 0.00683471276166281
662.0, 0.007182702871598532
663.0, 0.008567576901048944
664.0, 0.011765221251468207
665.0, 0.015274710084317189
666.0, 0.016915119997843606
667.0, 0.017015254185161133
668.0, 0.01654962519629008
669.0, 0.018914010359609483
670.0, 0.02114691437164444
671.0, 0.021398307761045662
672.0, 0.020145175516730937
673.0, 0.018980901969924854
674.0, 0.01724177342294489
675.0, 0.015435952085917918
676.0, 0.015067724921468803
677.0, 0.014279778831555293
678.0, 0.013610052604415722
679.0, 0.013312692359227158
680.0, 0.012218473179189464
681.0, 0.012004058146361051
682.0, 0.010923372727210452
683.0, 0.008756610518302182
684.0, 0.006812584310926491
685.0, 0.006227386841480973
686.0, 0.006305519028753116
687.0, 0.0056075105213134685
688.0, 0.005099442934740995
689.0, 0.004417569976152582
690.0, 0.006277461437658539
691.0, 0.007618368784365251
692.0, 0.007164875203654194
693.0, 0.006293864394887763
694.0, 0.005660044911436452
695.0, 0.002858374615042305
696.0, 0.002924108314947993
697.0, 0.0009606415857569603
698.0, 0.0003467719588594209
699.0, 0.0003710845579946835
700.0, 0.0007323248260745083
701.0, 0.0017265551733738277
702.0, 0.0029050714819738306
703.0, 0.00034736858951628456
704.0, 0.002460487741107032
705.0, 0.0018145967318094185
706.0, 0.0015367810802479954
707.0, 0.0019270019731008105
708.0, 0.0022517631697612206
709.0, 0.0020027800574896463
710.0, 0.0014749966967790378
711.0, 0.0008236692266390453
712.0, 0.000726465968181012
713.0, 0.0020640885985376183
714.0, 0.002531045568739878
715.0, 0.002332801633168095
716.0, 0.0026584322445556458
717.0, 0.0034282226683484194
718.0, 0.002492933428464707
719.0, 0.0023069167823625164
720.0, 0.001472814832545691
721.0, 0.0017299037142905977
722.0, 0.002585679386755904
723.0, 0.00302309715777989
724.0, 0.0027662181529563767
725.0, 0.0026152172390159173
726.0, 0.0017095989583354922
727.0, 0.0031712145559298875
728.0, 0.0038432627907707653
729.0, 0.004485896803634363
730.0, 0.0031198979485167603
731.0, 0.001089055531740441
732.0, 0.0024439437194419093
733.0, 0.0017932887933838004
734.0, 0.002179644880087124
735.0, 0.001721009857036736
736.0, 0.0006904818554220858
737.0, 0.0008984420835185287
738.0, 0.0014304082089067062
739.0, 0.0013286689950564425
740.0, 0.00232836594409999
741.0, 0.0015397533175612384
742.0, 0.0024682931023986402
743.0, 0.0020581138997129156
744.0, 0.0016715333072860475
745.0, 0.0016861887813000057
746.0, 0.0013258868191217679
747.0, 0.0004392783688006623
748.0, 0.0013475753721934466
749.0, 0.0011211686038011778
750.0, 0.001382240252759896
751.0, 0.0010371924403647964
752.0, 0.0008242877090804886
753.0, 0.0010960218138360697
754.0, 0.0012692477126571475
755.0, 0.0006440943085888246
756.0, 0.0004537853579358145
757.0, 0.0018135232110866074
758.0, 0.0015736043955944406
759.0, 0.0007830910404249243
760.0, 0.0009583537192432333
761.0, 0.0019887703872420604
762.0, 0.002108054235505026
763.0, 0.00016614279498496505
764.0, 0.0009906138366521273
765.0, 0.0015477262586076712
766.0, 0.0005349719307758663
767.0, 0.0008722919942673587
768.0, 0.0009870194579442218
769.0, 0.0013865201987596342
770.0, 0.0024289603837161396
771.0, 0.0010973957699479658
772.0, 0.0010210238477783898
773.0, 0.00019841461364425618
774.0, 0.00014409143976607783
775.0, 0.0025531147576260613
776.0, 0.0035217950771570875
777.0, 0.002300516711800396
778.0, 0.0017038735074591915
779.0, 0.0024909296758243112
780.0, 0.00024801387818737487
781.0, 0.000769843160962246
782.0, 0.0008909701752452348
783.0, 0.0005356921891069015
784.0, 0.0011485889589981381
785.0, 0.0015459200690334655
786.0, 0.00022496472432710475
787.0, 0.00040212387881440026
788.0, 0.0013684285809758543
789.0, 0.0017422525560988095
790.0, 0.0006017629930587824
791.0, 0.001036839750198983
792.0, 0.0010947481356770434
793.0, 0.0004302657806336003
794.0, 0.0006904942228051859
795.0, 0.0006065123023588152
796.0, 0.0014652476862865328
797.0, 0.00251640323629904
798.0, 0.00133181560057481
799.0, 0.00033457514593985063
800.0, 0.0003095447812664163
801.0, 0.0010441691518915147
802.0, 0.00178486747776023
803.0, 0.001307051951134397
804.0, 0.0004242992057829922
805.0, 0.0021824703456146863
806.0, 0.0029227606252400532
807.0, 0.0019508749388690745
808.0, 0.0018582160542189102
809.0, 0.0025498044967334345
810.0, 0.0023478639402322804
811.0, 0.002585943738263022
812.0, 0.0021134995775798212
813.0, 0.0009237938775363593
814.0, 0.0009738908811158517
815.0, 0.0005582989616063056
816.0, 0.0015310171345581582
817.0, 0.0023989039244761996
818.0, 0.001669737536841593
819.0, 0.0028235165847936045
820.0, 0.0033655414450683915
821.0, 0.0016887385035121469
822.0, 0.0026412864126175045
823.0, 0.002039746296412112
824.0, 0.002431911904739968
825.0, 0.0038019049857190602
826.0, 0.005043289170954656
827.0, 0.007368150531707894
828.0, 0.010155013321370462
829.0, 0.012289488627622934
830.0, 0.014436040044963646
831.0, 0.015797003985652317
832.0, 0.017926087434657102
833.0, 0.019882492118023145
834.0, 0.021072909568430987
835.0, 0.02225717328183234
836.0, 0.021525895822226665
837.0, 0.020622653284491012
838.0, 0.017666088555375225
839.0, 0.01430819597692469
840.0, 0.010001434596806217
841.0, 0.008105077386474875
842.0, 0.007330439931333062
843.0, 0.004324180301713345
844.0, 0.0033735129515809585
845.0, 0.003995396644061648
846.0, 0.0038190615836344163
847.0, 0.003376358782512131
848.0, 0.0022462597745990134
849.0, 0.0009134302281501186
850.0, 0.000755663129695799
851.0, 0.0015143015306928961
852.0, 0.0011094312113549935
853.0, 0.0022870155895292
854.0, 0.002463560315472822
855.0, 0.002682374204278205
856.0, 0.001996086717442651
857.0, 0.0018479011039611425
858.0, 0.0016075325812184263
859.0, 0.0011569640811929
860.0, 0.0013654788923895184
861.0, 0.0010752724044812195
862.0, 0.0016180970574393853
863.0, 0.001319469059898609
864.0, 0.001681133379742999
865.0, 0.0013783853814069505
866.0, 0.0010200121531102528
867.0, 0.0012319878668861776
868.0, 0.001499447782171113
869.0, 0.0008561764216561494
870.0, 0.0003015836988557809
871.0, 0.0013232734466356252
872.0, 0.0012255569624448326
873.0, 0.001894870448060057
874.0, 0.0016364348593983268
875.0, 0.0008378959949626114
876.0, 0.00077261444376039
877.0, 0.0012952009939547187
878.0, 0.000893438749499823
879.0, 0.003001751921379121
880.0, 0.0005003442082652627
881.0, 0.0015054220337779416
882.0, 0.0020312857740093916
883.0, 0.0010493385415713936
884.0, 0.0007395905319400861
885.0, 0.001498215463285342
886.0, 0.0010311803786833323
887.0, 0.001317074442703698
888.0, 0.0008209789073761469
889.0, 0.0026322028538733827
890.0, 0.0027188249870144033
891.0, 0.0018316230725448262
892.0, 0.0007939832742011989
893.0, 0.0009631174743339578
894.0, 0.0017005790607771943
895.0, 0.00041860739953137943
896.0, 0.0020001538715394927
897.0, 0.0017425384367139138
898.0, 0.0016721766668954046
899.0, 0.001571981757851175
900.0, 0.0014567855889241394
901.0, 0.0014019382144109468
902.0, 0.0013467203445451362
903.0, 0.0012816028904967646
904.0, 0.0014139064881015712
905.0, 0.00137716238106374
906.0, 0.0010866708039708034
907.0, 0.0005954572741203723
908.0, 0.0008685013649474219
909.0, 0.0019061276314818838
910.0, 0.0017363196042975747
911.0, 0.001086469816457783
912.0, 0.0016206789263182929
913.0, 0.0008774524319211604
914.0, 0.0026724393115184295
915.0, 0.000612694873033092
916.0, 0.0008260049311570664
917.0, 0.000964207112129041
918.0, 0.0009904332169855799
919.0, 0.00132010924560878
920.0, 0.0017515792793930435
921.0, 0.0015481955768744298
922.0, 0.00048470910333876435
923.0, 0.00018098764729814574
924.0, 0.0009759573932008943
925.0, 0.0007819923241523226
926.0, 0.0011095524081483957
927.0, 0.0015665820176161038
928.0, 0.0015506921518809195
929.0, 0.0014117900037802513
930.0, 0.001533893630597955
931.0, 0.0011281807618004447
932.0, 0.0017126242209160333
933.0, 0.0009685150443299929
934.0, 0.002564598033532629
935.0, 0.0012598303498558734
936.0, 0.0012700003493980865
937.0, 0.0014757364585758627
938.0, 0.00130728734455037
939.0, 0.0020755933661224797
940.0, 0.0023478513126506464
941.0, 0.0023256867964863903
942.0, 0.004140084735767449
943.0, 0.001211778787735893
944.0, 0.00024409200815677797
945.0, 0.0019962113821002186
946.0, 0.0025623210778664895
947.0, 0.0019600142139246297
948.0, 0.0019007324221459758
949.0, 0.0007680694077311493
950.0, 0.0001986751174784453
951.0, 0.0026207514004654006
952.0, 0.0017662903476479204
953.0, 0.0014109369267030904
954.0, 0.0023438592931273967
955.0, 0.0020401252764697606
956.0, 0.001051667358635337
957.0, 0.0013092962682718975
958.0, 0.002312582738282568
959.0, 0.002251824106902741
960.0, 0.0023078561742083913
961.0, 0.002426872960558649
962.0, 0.0016745512755145934
963.0, 0.0008492561516560349
964.0, 0.0008598318197217239
965.0, 0.001092114970346152
966.0, 0.0011740663460892207
967.0, 0.0015365974735563484
968.0, 0.0020533517339004787
969.0, 0.0021414327495064903
970.0, 0.001727254975633505
971.0, 0.0013131915810116782
972.0, 0.00040337176075268006
973.0, 5.3752265203550164e-05
974.0, 0.00017062711116747902
975.0, 0.0002838170721403846
976.0, 0.0005300370030051338
977.0, 0.0014039726825011236
978.0, 0.0023610565156251
979.0, 0.001847405853115115
980.0, 0.003385345631244191
981.0, 0.00280849826042364
982.0, 0.0014536145205815698
983.0, 0.0016548680398816014
984.0, 0.002418983806643918
985.0, 0.0025745309966240886
986.0, 0.0021374754719502244
987.0, 0.0014128999911827977
988.0, 0.0033357785852067526
989.0, 0.001961089050411499
990.0, 0.002735063051475718
991.0, 0.0016295383631027122
992.0, 0.0027485893421225578
993.0, 0.0035133175160043605
994.0, 0.00287702840080206
995.0, 0.0029660644211822666
996.0, 0.004341369996050003
997.0, 0.0035741112213158732
998.0, 0.003362567101115024
999.0, 0.00123870809602661
1000.0, 0.0019207762425680404
1001.0, 0.0033407726421603966
1002.0, 0.002625788414403722
1003.0, 0.002074094460426199
1004.0, 0.0025111659082271403
1005.0, 0.0022951846064333506
1006.0, 0.00116264226572087
1007.0, 0.0014589728023233024
1008.0, 0.00045131172735747636
1009.0, 0.0029831719247766933
1010.0, 0.001118009123546292
1011.0, 0.002132746579464895
1012.0, 0.0031818378092778755
1013.0, 0.0029983789029363055
1014.0, 0.003376702934915847
1015.0, 0.003753988762422424
1016.0, 0.0018813967824959244
1017.0, 0.0022834733548931976
1018.0, 0.0019078961109987832
1019.0, 0.0030750289677836883
1020.0, 0.004661037386268345
1021.0, 0.0038513948563687855
1022.0, 0.004493546864256561
1023.0, 0.006324987317906477
1024.0, 0.0067549357410897
1025.0, 0.006322265888794011
1026.0, 0.007612647319504087
1027.0, 0.008233334701732788
1028.0, 0.008687171396633416
1029.0, 0.010060086454155468
1030.0, 0.009947440787278876
1031.0, 0.010016106716810792
1032.0, 0.009796281943827614
1033.0, 0.00894000523184301
1034.0, 0.008100856242263244
1035.0, 0.008032325401612419
1036.0, 0.008987122630488693
1037.0, 0.011141225374592563
1038.0, 0.013691169015805759
1039.0, 0.01479172758025925
1040.0, 0.017523242676411987
1041.0, 0.024411092854248008
1042.0, 0.0340170595543739
1043.0, 0.051545984385191375
1044.0, 0.08914081689328138
1045.0, 0.1759079790594995
1046.0, 0.3520368216244868
1047.0, 0.5994520378327566
1048.0, 0.7382650308311032
1049.0, 0.757388498595806
1050.0, 0.8997477565149528
1051.0, 0.982199671913059
1052.0, 0.9823665969674878
1053.0, 0.9028561053951464
1054.0, 0.7483893726721348
1055.0, 0.5451657220741833
1056.0, 0.3368928660185201
1057.0, 0.16786831415041614
1058.0, 0.07634188169992848
1059.0, 0.04038865996906704
1060.0, 0.02794605627724086
1061.0, 0.02100300242088034
1062.0, 0.01551477723005051
1063.0, 0.012281158076374832
1064.0, 0.010790235932842457
1065.0, 0.009501491859640821
1066.0, 0.008552656595921962
1067.0, 0.007835756544065906
1068.0, 0.005647422901356969
1069.0, 0.006891808058336802
1070.0, 0.005445940219594798
1071.0, 0.0038424466971164147
1072.0, 0.00546013571676762
1073.0, 0.005145556662181604
1074.0, 0.00447617987022214
1075.0, 0.004771493499788693
1076.0, 0.0047897960570759185
1077.0, 0.003776997942646278
1078.0, 0.004055221474276856
1079.0, 0.00690248715277796
1080.0, 0.003871615218100479
1081.0, 0.006822808484466571
1082.0, 0.003825411082017654
1083.0, 0.003812583788568453
1084.0, 0.0032337843817135453
1085.0, 0.003143863710780255
1086.0, 0.0049064555093796935
1087.0, 0.005810987783417985
1088.0, 0.004794742312835855
1089.0, 0.004780036232825196
1090.0, 0.004645316208172066
1091.0, 0.0037440566315550916
1092.0, 0.00431617415963088
1093.0, 0.005055185424288641
1094.0, 0.004899359852777446
1095.0, 0.0037377566515127106
1096.0, 0.004192758413684013
1097.0, 0.0042880322503443865
1098.0, 0.0038496139657819913
1099.0, 0.003777570642539113
1100.0, 0.0035683644512963237
1101.0, 0.004456499344005933
1102.0, 0.002562003262203811
1103.0, 0.00496906971728615
1104.0, 0.0044168558752413515
1105.0, 0.0018358520308378364
1106.0, 0.0028921008208018105
1107.0, 0.0046914134463146365
1108.0, 0.004024315801682681
1109.0, 0.0031227773369978153
1110.0, 0.0034330450801538996
1111.0, 0.0032532779060367154
1112.0, 0.003210833826223699
1113.0, 0.0008120693996955233
1114.0, 0.002958065718164527
1115.0, 0.003676320113555019
1116.0, 0.0013485861899121562
1117.0, 0.0033084912414743217
1118.0, 0.0035818073571994053
1119.0, 0.0038180667915022923
1120.0, 0.004779717960687377
1121.0, 0.004141508093531259
1122.0, 0.002142063282106736
1123.0, 0.002255429959922669
1124.0, 0.0033110566864825316
1125.0, 0.0022435970581446262
1126.0, 0.002509613406240005
1127.0, 0.0029903964526485785
1128.0, 0.0030731214391859266
1129.0, 0.001667246366489906
1130.0, 0.0016923830837535792
1131.0, 0.0021437642357415017
1132.0, 0.001264870978712633
1133.0, 0.0002883545581676925
1134.0, 0.0006883032859082798
1135.0, 0.0007314593427748131
1136.0, 0.000976767132735053
1137.0, 0.0012069050651807333
1138.0, 0.0023670008706097377
1139.0, 0.0012958964204390598
1140.0, 0.0018009215147045056
1141.0, 0.0009651943094823091
1142.0, 0.00044970334083968555
1143.0, 0.0005935250186249699
1144.0, 0.0012307613420081058
1145.0, 0.0016106124446288225
1146.0, 0.0007148182044206155
1147.0, 0.001027366303720502
1148.0, 0.0013290817927869218
1149.0, 0.0001273203477862077
1150.0, 0.001272519682180504
1151.0, 0.0005403056431272904
1152.0, 0.0009762764775684435
1153.0, 0.0012914749877380228
1154.0, 0.0010958986907212954
1155.0, 0.0005449598431834928
1156.0, 0.00038417870212980985
1157.0, 0.0011175111736485023
1158.0, 0.001584605211211003
1159.0, 0.0005463003207471025
1160.0, 0.0012058706933515892
1161.0, 0.0004179334037327157
1162.0, 0.00041839429039738094
1163.0, 0.0005515742428017471
1164.0, 0.00023910600054198952
1165.0, 0.000535778761035584
1166.0, 0.0014330941994958465
1167.0, 0.0013004520498078576
1168.0, 0.0010377128836345402
1169.0, 0.0013199105298953894
1170.0, 0.0006018101109848948
1171.0, 0.0003603840462431386
1172.0, 0.0012764663067150817
1173.0, 0.0020300473921996314
1174.0, 0.00047306880589030923
1175.0, 0.00020129002532692076
1176.0, 0.0009865247183162141
1177.0, 0.0007164984530653261
1178.0, 0.0008082362569344295
1179.0, 0.0019552485476121676
1180.0, 0.0020795337388861196
1181.0, 0.0009452079883780009
1182.0, 0.0009326989441872481
1183.0, 0.0016106204526694762
1184.0, 0.0005391586225189655
1185.0, 0.0012319091302739013
1186.0, 0.0002322725795790414
1187.0, 0.0008841750728592792
1188.0, 0.0004974168325139207
1189.0, 0.0005987977009269468
1190.0, 0.0005968549583297664
1191.0, 0.0008073551536219269
1192.0, 0.0006543331946628164
1193.0, 0.0011401417694170202
1194.0, 0.0016621657679717077
1195.0, 0.00041204310342770706
1196.0, 0.00037058128796624003
1197.0, 0.00011397334230976133
1198.0, 0.00017154754652639112
1199.0, 0.0006530427699247914
1200.0, 0.0002263337966933552
1201.0, 0.0008061540520732187
1202.0, 0.0005142875433138557
1203.0, 0.00016548200897410222
1204.0, 0.00045669256890590266
1205.0, 0.00040637297306328767
1206.0, 5.462769339621748e-05
1207.0, 0.0005786538886697366
1208.0, 0.0013115042299049375
1209.0, 0.0005646941411972066
1210.0, 0.0007595410425737792
1211.0, 0.001438645381154813
1212.0, 0.0026337734713247074
1213.0, 0.0011902772646660814
1214.0, 0.0013858808785067746
1215.0, 0.0005247149206891483
1216.0, 0.0008294333942028957
1217.0, 0.0019483090918032899
1218.0, 0.001931436380994904
1219.0, 0.0008010154241188707
1220.0, 0.00024979891120857796
1221.0, 0.0007747543195898806
1222.0, 0.0010536094607920322
1223.0, 0.00040991968405951586
1224.0, 0.0001063493943736258
1225.0, 0.0003082695427964633
1226.0, 0.00200157769956637
1227.0, 0.0007768348699511598
1228.0, 0.0011956279525904164
1229.0, 0.0008235495478927666
1230.0, 0.0007164070490684636
1231.0, 0.0020523517718464535
1232.0, 0.0023848525411368196
1233.0, 0.0015883056147051055
1234.0, 0.0014027024696396959
1235.0, 0.00084848892645834
1236.0, 0.0005738098502116388
1237.0, 0.0005890111532065649
1238.0, 0.000324098867073373
1239.0, 0.0003701678681486976
1240.0, 0.00012321274793167917
1241.0, 0.001512008637699666
1242.0, 0.002846874424672642
1243.0, 0.003019678473061308
1244.0, 0.003380601416574736
1245.0, 0.003048211965985415
1246.0, 0.002776708124023957
1247.0, 0.0022840278029634953
1248.0, 0.0007857972330028871
1249.0, 0.0007933448770581132
1250.0, 0.0017758074737969092
1251.0, 0.0012725083980048297
1252.0, 0.0021066652185263374
1253.0, 0.00018338413143234003
1254.0, 0.0005456670071170779
1255.0, 0.0009470242177709485
1256.0, 0.000568274185481744
1257.0, 0.0012842679244210427
1258.0, 0.0017952009657422518
1259.0, 0.002000259435507937
1260.0, 0.0026419220037202625
1261.0, 0.0025988892323992466
1262.0, 0.0011823132144636378
1263.0, 0.0011082298611666181
1264.0, 0.0036926940861206647
1265.0, 0.003991212501375499
1266.0, 0.003281177447705151
1267.0, 0.005257615729633869
1268.0, 0.0028426291175352933
1269.0, 0.0020686074737821143
1270.0, 0.0010856784793094828
1271.0, 0.0006134926139346135
1272.0, 0.0018800701501386922
1273.0, 0.0016089903260299145
1274.0, 0.002138730871720489
1275.0, 0.0033813955350352498
1276.0, 0.0028992895124656274
1277.0, 0.0024151016380842246
1278.0, 0.0036989189375717275
1279.0, 0.004948176503381943
1280.0, 0.005309248775483079
1281.0, 0.005458944324932241
1282.0, 0.0043229066670324974
1283.0, 0.004864049784423861
1284.0, 0.0035256752992342245
1285.0, 0.0034796718015001234
1286.0, 0.0029454973716161064
1287.0, 0.0035393717716545557
1288.0, 0.0042513912944336105
1289.0, 0.004972767635152455
1290.0, 0.0062919431160923705
1291.0, 0.007296989346693244
1292.0, 0.007863505021181062
1293.0, 0.008713225751800925
1294.0, 0.007796521957951118
1295.0, 0.007958706282517844
1296.0, 0.007480289407394045
1297.0, 0.009233505139538517
1298.0, 0.010114864512419301
1299.0, 0.010445173074561295
1300.0, 0.011961402107331005
1301.0, 0.010845319612651923
1302.0, 0.010841604550268138
1303.0, 0.01337320691311726
1304.0, 0.01418670120132682
1305.0, 0.013489558503121626
1306.0, 0.014313736097450663
1307.0, 0.015211398242872341
1308.0, 0.014805703083178913
1309.0, 0.015845894781089196
1310.0, 0.015456185050654004
1311.0, 0.01531653458165927
1312.0, 0.014933958728744695
1313.0, 0.01881076802740464
1314.0, 0.016275246561342143
1315.0, 0.01896061205441892
1316.0, 0.019226782706687904
1317.0, 0.02032045775721554
1318.0, 0.020516347688865975
1319.0, 0.018753101937506317
1320.0, 0.017732362991866216
1321.0, 0.019856766551851618
1322.0, 0.021054121736498264
1323.0, 0.020621411865233617
1324.0, 0.02162299811586065
1325.0, 0.019906978610563338
1326.0, 0.019686654886425917
1327.0, 0.02136130798608693
1328.0, 0.02045832543528619
1329.0, 0.02177756436416624
1330.0, 0.020476849350283915
1331.0, 0.02422778627156747
1332.0, 0.023301188410858816
1333.0, 0.024733937120733004
1334.0, 0.025810244746635125
1335.0, 0.025008136848834416
1336.0, 0.025534247690611918
1337.0, 0.02721090115779645
1338.0, 0.02972769175998534
1339.0, 0.031211029777261028
1340.0, 0.03093286663303033
1341.0, 0.032871234115802526
1342.0, 0.035513117972711485
1343.0, 0.0359518847131075
1344.0, 0.04048719369882156
1345.0, 0.04461147993808669
1346.0, 0.047531794717502795
1347.0, 0.05086266253158525
1348.0, 0.0593095964145721
1349.0, 0.06447262428629233
1350.0, 0.07079171849168972
1351.0, 0.07739505718694978
1352.0, 0.0842167120602916
1353.0, 0.0943008622884983
1354.0, 0.10562419742533961
1355.0, 0.11379016880052949
1356.0, 0.12347209198460929
1357.0, 0.1335899858796412
1358.0, 0.1377278893010489
1359.0, 0.14380476319111177
1360.0, 0.1482697413297335
1361.0, 0.14864560852832598
1362.0, 0.14412808333713156
1363.0, 0.14208974168425081
1364.0, 0.13614906531190396
1365.0, 0.1307989895145461
1366.0, 0.12645603259696417
1367.0, 0.11722238655269182
1368.0, 0.11087376283046256
1369.0, 0.10494705152298238
1370.0, 0.10004014801619182
1371.0, 0.09513343611617474
1372.0, 0.09084909500995916
1373.0, 0.08648530950912922
1374.0, 0.08170134109704963
1375.0, 0.07727102071354114
1376.0, 0.07241467732063359
1377.0, 0.06674570304960717
1378.0, 0.060643740009820216
1379.0, 0.05402888027882352
1380.0, 0.04843243513733643
1381.0, 0.039692518429574455
1382.0, 0.03776858143248655
1383.0, 0.03288631532897931
1384.0, 0.027256924180648436
1385.0, 0.02729401002833292
1386.0, 0.0226636291203878
1387.0, 0.019169638312876325
1388.0, 0.019517251506434026
1389.0, 0.01729789964055076
1390.0, 0.015362742404842004
1391.0, 0.014068762619421742
1392.0, 0.012495523270511372
1393.0, 0.011843825722700629
1394.0, 0.010667617049736854
1395.0, 0.008721234680648395
1396.0, 0.009215219471942104
1397.0, 0.009962103241910356
1398.0, 0.010029915410067203
1399.0, 0.007093905302454601
1400.0, 0.008572338396964134
1401.0, 0.00795765383518383
1402.0, 0.00909560087816987
1403.0, 0.007889266987850996
1404.0, 0.010191145724482339
1405.0, 0.008753077380891464
1406.0, 0.009235280314399337
1407.0, 0.009734570709653176
1408.0, 0.01116332554461525
1409.0, 0.013256081216535714
1410.0, 0.013053876190842178
1411.0, 0.011535932006371959
1412.0, 0.012351771246599036
1413.0, 0.013064517014951345
1414.0, 0.01365760965130465
1415.0, 0.016917939984923684
1416.0, 0.016842499335254328
1417.0, 0.01396207073726978
1418.0, 0.014307834277930167
1419.0, 0.016175704283198603
1420.0, 0.016949268320706423
1421.0, 0.015325320653564244
1422.0, 0.01576847412110282
1423.0, 0.01451652558726527
1424.0, 0.016591228128704325
1425.0, 0.014586931313235152
1426.0, 0.01705553085925495
1427.0, 0.01643616712748409
1428.0, 0.015970094802469467
1429.0, 0.01641986774396761
1430.0, 0.01563049878323639
1431.0, 0.01548173912236078
1432.0, 0.01530409673604832
1433.0, 0.01478074038732681
1434.0, 0.01545384405671158
1435.0, 0.015996921341940376
1436.0, 0.015960384233697344
1437.0, 0.01687952128339968
1438.0, 0.01703148928781039
1439.0, 0.01830671408624005
1440.0, 0.018754918646776416
1441.0, 0.018229030016742136
1442.0, 0.021139286835533407
1443.0, 0.023531712065366733
1444.0, 0.024364644212780846
1445.0, 0.023828620854340586
1446.0, 0.026151377940771138
1447.0, 0.02618518689886127
1448.0, 0.027063360269412064
1449.0, 0.027729966580846994
1450.0, 0.029276639128183905
1451.0, 0.03250464743495033
1452.0, 0.0338414468142147
1453.0, 0.036497472267812046
1454.0, 0.03996071930553313
1455.0, 0.0402322484868298
1456.0, 0.041124618481414715
1457.0, 0.04364927192279825
1458.0, 0.0459242308918738
1459.0, 0.049037224410046036
1460.0, 0.05124113596670922
1461.0, 0.05380006204864677
1462.0, 0.05558340009340255
1463.0, 0.05854978758589952
1464.0, 0.061507292886736904
1465.0, 0.06402070576995689
1466.0, 0.0656588923813989
1467.0, 0.06551559596431974
1468.0, 0.06655183017823454
1469.0, 0.06832529783449869
1470.0, 0.06755303418325623
1471.0, 0.07112645048201333
1472.0, 0.07363103799120899
1473.0, 0.074438013684912
1474.0, 0.07415641870675535
1475.0, 0.0737588417019346
1476.0, 0.07215634273001868
1477.0, 0.07271202988792969
1478.0, 0.07161790125780948
1479.0, 0.0698808172335997
1480.0, 0.0689043698757683
1481.0, 0.06560463070386996
1482.0, 0.061959685588832206
1483.0, 0.05942192847926758
1484.0, 0.05541147848481844
1485.0, 0.05223740483653638
1486.0, 0.049438951587012406
1487.0, 0.04528397876276188
1488.0, 0.042454573808285975
1489.0, 0.040330824623066745
1490.0, 0.035379849090276895
1491.0, 0.035460787994955896
1492.0, 0.03094849348399306
1493.0, 0.028415185185316497
1494.0, 0.023616640459581097
1495.0, 0.021932705643730392
1496.0, 0.020402237325477083
1497.0, 0.017093868806015402
1498.0, 0.01706727372421679
1499.0, 0.015029281627959232
1500.0, 0.011800622807692352
1501.0, 0.00988660768618471
1502.0, 0.011010486640424023
1503.0, 0.009964945322726591
1504.0, 0.00974725437443414
1505.0, 0.009650374734021548
1506.0, 0.00931680444398643
1507.0, 0.008551835740677603
1508.0, 0.007372069474966648
1509.0, 0.006291890796187971
1510.0, 0.004896790352688194
1511.0, 0.00479547681660108
1512.0, 0.006112315610392217
1513.0, 0.0057050256714094505
1514.0, 0.003921066608758103
1515.0, 0.0019896900285370574
1516.0, 0.0047866412892140645
1517.0, 0.004421470548273272
1518.0, 0.0023032199298361586
1519.0, 0.005945008501050034
1520.0, 0.003575350808096062
1521.0, 0.00029731579206201475
1522.0, 0.0007365778234259206
1523.0, 0.000515035675765201
1524.0, 0.001118475093111696
1525.0, 0.00038247282629381627
1526.0, 0.001155110381353441
1527.0, 0.0012930674636658349
1528.0, 0.0018906438328951372
1529.0, 0.0017020783029444311
1530.0, 0.0030773941674708902
1531.0, 0.0015397612362817493
1532.0, 0.001559619675887412
1533.0, 0.001977937096321191
1534.0, 0.0009265097171875204
1535.0, 0.0011052585955117608
1536.0, 0.0020207081193078006
1537.0, 0.0013598140536580164
1538.0, 0.0019263177676284145
1539.0, 0.001903168623164916
1540.0, 0.0012307723775366413
1541.0, 0.0012524510701705856
1542.0, 0.0003323527518912249
1543.0, 0.0009205324321381506
1544.0, 0.0011910686063309243
1545.0, 0.0011819735853088984
1546.0, 0.0012204085924128341
1547.0, 0.0017791312206259613
1548.0, 0.001960989098142236
1549.0, 0.001057882739632904
1550.0, 0.0021190005391436423
1551.0, 0.004364224722737363
1552.0, 0.003251296877503848
1553.0, 0.004385233426131546
1554.0, 0.003933164192476543
1555.0, 0.0014094840168577196
1556.0, 0.004091319503756704
1557.0, 0.002907628633033653
1558.0, 0.0006038840894665486
1559.0, 0.004324701217231032
1560.0, 0.0031561056406627075
1561.0, 0.0035631456616788586
1562.0, 0.0018802363853278122
1563.0, 0.0026423053831884083
1564.0, 0.0011307113986798035
1565.0, 0.003038783299766258
1566.0, 0.004000820495688736
1567.0, 0.002694210416017803
1568.0, 0.0033896806862830056
1569.0, 0.0027277813665940445
1570.0, 0.0007658812842287468
1571, 0.0
1572, 0.0
1573, 0.0
1574, 0.0
1575, 0.0
1576, 0.0
1577, 0.0
1578, 0.0
1579, 0.0
1580, 0.0
1581, 0.0
1582, 0.0
1583, 0.0
1584, 0.0
1585, 0.0
1586, 0.0
1587, 0.0
1588, 0.0
1589, 0.0
1590, 0.0
1591, 0.0
1592, 0.0
1593, 0.0
1594, 0.0
1595, 0.0
1596, 0.0
1597, 0.0
1598, 0.0
1599, 0.0
