30, 0.0
31, 0.0
32, 0.0
33, 0.0
34, 0.0
35, 0.0
36, 0.0
37, 0.0
38, 0.0
39, 0.0
40, 0.0
41, 0.0
42, 0.0
43, 0.0
44, 0.0
45, 0.0
46, 0.0
47, 0.0
48, 0.0
49, 0.0
50, 0.0
51, 0.0
52, 0.0
53, 0.0
54, 0.0
55.0, 2.540952377291046e-05
56.0, 0.0007727484582702991
57.0, 0.0013309897344469547
58.0, 0.0015668229446185466
59.0, 0.0011069484341065866
60.0, 0.0013957513028114562
61.0, 0.0012378783400763989
62.0, 0.0003523652506582915
63.0, 0.00040460305150466464
64.0, 0.0004835150414866998
65.0, 0.0004948873192767577
66.0, 0.0002477128646939425
67.0, 0.0005702618353114991
68.0, 0.0015097779366087137
69.0, 0.003083731134675009
70.0, 0.004655076916651153
71.0, 0.006807198300959807
72.0, 0.009612009023590933
73.0, 0.013424639429550883
74.0, 0.01670243740184009
75.0, 0.019201742316829536
76.0, 0.0209604168407413
77.0, 0.02372500816599803
78.0, 0.025055882284911162
79.0, 0.025680990402674075
80.0, 0.026333046910613125
81.0, 0.025234206289465044
82.0, 0.02440087905125309
83.0, 0.02424231744216475
84.0, 0.025325930962129956
85.0, 0.024842423017014673
86.0, 0.023705067894958808
87.0, 0.022696229374573305
88.0, 0.02298347749725629
89.0, 0.02314766195726619
90.0, 0.02314567425779487
91.0, 0.023938523969341728
92.0, 0.024211796073385663
93.0, 0.02431622597224368
94.0, 0.024499083282951566
95.0, 0.025179261628108063
96.0, 0.025044631521067975
97.0, 0.0242971263673723
98.0, 0.024325194499101713
99.0, 0.02440866180296148
100.0, 0.024754840858663425
101.0, 0.02554267862782506
102.0, 0.024407450586716596
103.0, 0.024752609313127408
104.0, 0.026063046348526357
105.0, 0.026479865935735508
106.0, 0.027073422285703173
107.0, 0.028617677890899255
108.0, 0.031534576426667474
109.0, 0.03347834773908482
110.0, 0.03505960954970035
111.0, 0.03679766006717337
112.0, 0.039879428260322355
113.0, 0.043858778418479065
114.0, 0.04771894711723804
115.0, 0.051330258826602526
116.0, 0.0573969226022955
117.0, 0.061896048862502766
118.0, 0.0666629095561789
119.0, 0.07431257689672635
120.0, 0.07801702084333363
121.0, 0.07941044820238057
122.0, 0.07921611576553673
123.0, 0.08118316672862813
124.0, 0.08017697556517378
125.0, 0.07754835672290113
126.0, 0.07402361796131447
127.0, 0.07053008912374793
128.0, 0.0653584133081727
129.0, 0.058981038790203805
130.0, 0.05354969926686232
131.0, 0.04904190189051563
132.0, 0.044739071613682145
133.0, 0.04032795521766172
134.0, 0.03673403727845013
135.0, 0.03403169609551748
136.0, 0.03193574194916164
137.0, 0.029971963805476762
138.0, 0.02954146952552584
139.0, 0.02862211212895454
140.0, 0.026758512445914154
141.0, 0.025205558643882298
142.0, 0.023808756285193515
143.0, 0.022531017728527003
144.0, 0.021361854085129597
145.0, 0.0202058796123191
146.0, 0.01946492727758112
147.0, 0.01907309200028254
148.0, 0.018471624610742986
149.0, 0.017650042012315664
150.0, 0.017013126116870676
151.0, 0.016825126410307017
152.0, 0.01608482570438848
153.0, 0.015480771530089123
154.0, 0.015215804798258641
155.0, 0.015842521141515083
156.0, 0.01773677630218133
157.0, 0.020348766725195387
158.0, 0.02360948620884537
159.0, 0.02809652192999049
160.0, 0.033492377578447426
161.0, 0.03953182957733315
162.0, 0.04607786328634539
163.0, 0.05428320661951252
164.0, 0.06278282482821913
165.0, 0.07091140133299048
166.0, 0.07619653340313183
167.0, 0.07892681471473428
168.0, 0.07976029109755323
169.0, 0.07880009546996304
170.0, 0.07668842319306658
171.0, 0.07239206842490739
172.0, 0.06729836344537726
173.0, 0.06392932242923158
174.0, 0.06169908951658691
175.0, 0.0598916251624235
176.0, 0.058407369309071
177.0, 0.057547622773255404
178.0, 0.05838428635871892
179.0, 0.05914451520880113
180.0, 0.05842395984655865
181.0, 0.0590594597601879
182.0, 0.060805342840513366
183.0, 0.06212585031193458
184.0, 0.058568037411689554
185.0, 0.05780975487231165
186.0, 0.056358381930798056
187.0, 0.053162386961069535
188.0, 0.04917176398311657
189.0, 0.046209278817677835
190.0, 0.04322641243515634
191.0, 0.039083316216419466
192.0, 0.03490683199564204
193.0, 0.03233329057346161
194.0, 0.03091027407927925
195.0, 0.02857950851696812
196.0, 0.027667783977887647
197.0, 0.026405676191980046
198.0, 0.024171761091113186
199.0, 0.023365730248018475
200.0, 0.021674430621306667
201.0, 0.020241889553632646
202.0, 0.02062035902979664
203.0, 0.018459363046731948
204.0, 0.017091603773742785
205.0, 0.016803501912036053
206.0, 0.017313675554836726
207.0, 0.018121344818071466
208.0, 0.018738593278088883
209.0, 0.018902540496046272
210.0, 0.01746315291810428
211.0, 0.017079870967565438
212.0, 0.017481121781844067
213.0, 0.01846237500471617
214.0, 0.018360724343669865
215.0, 0.019051763766918424
216.0, 0.02063539556339469
217.0, 0.02265844074856754
218.0, 0.025126936498026133
219.0, 0.02900969553327079
220.0, 0.03476536714844453
221.0, 0.040157292736943524
222.0, 0.046327296799455055
223.0, 0.053709964030244216
224.0, 0.0631149137590716
225.0, 0.0754520061088737
226.0, 0.0897249277553123
227.0, 0.10607253220859657
228.0, 0.12570680591905245
229.0, 0.14499385236892579
230.0, 0.1665155448207108
231.0, 0.19091059459617146
232.0, 0.2099050867879397
233.0, 0.2279078082182202
234.0, 0.24296286610683532
235.0, 0.25244384627036315
236.0, 0.2514269458635794
237.0, 0.24532823979113205
238.0, 0.23432354937372224
239.0, 0.21691784026511365
240.0, 0.19766445599943605
241.0, 0.1791120483745383
242.0, 0.16160000582021172
243.0, 0.1411576114813203
244.0, 0.12331029094567074
245.0, 0.10738905308708228
246.0, 0.09315106903444474
247.0, 0.0818536920319646
248.0, 0.07194669825987579
249.0, 0.06308907566999959
250.0, 0.054857355199205635
251.0, 0.050378682539346825
252.0, 0.04545982288806261
253.0, 0.03994819910072724
254.0, 0.03723737330261465
255.0, 0.03411236622000147
256.0, 0.03164447096969528
257.0, 0.03036749659156862
258.0, 0.02863682336206077
259.0, 0.026831402518071177
260.0, 0.025389981712518793
261.0, 0.024924501046645755
262.0, 0.024821722993590957
263.0, 0.0249600030799499
264.0, 0.025238859879704884
265.0, 0.025403779341753863
266.0, 0.026718541469204545
267.0, 0.028409484175568316
268.0, 0.030284341127344554
269.0, 0.0324323605109733
270.0, 0.03708723798769934
271.0, 0.04254943524963185
272.0, 0.04777436157461487
273.0, 0.05738239359116324
274.0, 0.06965346120123302
275.0, 0.08370745809786224
276.0, 0.09841244429199959
277.0, 0.11630880125612846
278.0, 0.13789716302451194
279.0, 0.16112658681178202
280.0, 0.1783874989218674
281.0, 0.19427139647951921
282.0, 0.20731669541547473
283.0, 0.2157693310270539
284.0, 0.20779599897530582
285.0, 0.1983151726442693
286.0, 0.1849365501800621
287.0, 0.1655308062374595
288.0, 0.15075059619975564
289.0, 0.14097025618245573
290.0, 0.13365704910791704
291.0, 0.12504778055065568
292.0, 0.12087446246116652
293.0, 0.12000103847899912
294.0, 0.12028137629532656
295.0, 0.11486663458375039
296.0, 0.11396104656694704
297.0, 0.11189400122259904
298.0, 0.10739163214277858
299.0, 0.10436769245653038
300.0, 0.09804025739838576
301.0, 0.09134899391589356
302.0, 0.08603503536097899
303.0, 0.07878383747403923
304.0, 0.07176751114497865
305.0, 0.06479984551683818
306.0, 0.057645305537899164
307.0, 0.052119006763112354
308.0, 0.04585049163153546
309.0, 0.039165745299661006
310.0, 0.033333782013563865
311.0, 0.029011845654947143
312.0, 0.024896653315557536
313.0, 0.020863021211034227
314.0, 0.017704400019084524
315.0, 0.014131225069728599
316.0, 0.01122881180406349
317.0, 0.009421531172616869
318.0, 0.007455583270663035
319.0, 0.004628695309558686
320.0, 0.0024535809320109887
321.0, 0.0022302993562572744
322.0, 0.0013248711678167714
323.0, 0.0012813847232217344
324.0, 0.0016024616594884054
325.0, 0.0015142037816768717
326.0, 0.002037450624711001
327.0, 0.0020356912139967037
328.0, 0.0018957152244934773
329.0, 0.0030561364487427054
330.0, 0.0024375935651167625
331.0, 0.0022388960821607446
332.0, 0.002742850464863966
333.0, 0.0027021605911634492
334.0, 0.003751051296439571
335.0, 0.00330560096834108
336.0, 0.0006331370714913582
337.0, 0.0017108117259971882
338.0, 0.003785417767212535
339.0, 0.004209711263385493
340.0, 0.0008994099980554628
341.0, 0.0012832337597640405
342.0, 0.0015242442798041394
343.0, 0.0015563933089164472
344.0, 0.0012718781771397334
345.0, 0.00302911948944939
346.0, 0.004124158586704385
347.0, 0.004454078680868479
348.0, 0.004127252320650379
349.0, 0.005572692433623703
350.0, 0.005525779516334352
351.0, 0.004058928750057731
352.0, 0.0033750415651989745
353.0, 0.0028297101793799606
354.0, 0.0028410949650499234
355.0, 0.0033466740167498637
356.0, 0.0030011007411095787
357.0, 0.002844786784185853
358.0, 0.002747511290672191
359.0, 0.0025726365365036563
360.0, 0.001146839646419416
361.0, 0.0011052276722521622
362.0, 0.0012572823394659434
363.0, 0.0007254921441075199
364.0, 0.0030758043868870325
365.0, 0.005228890974505196
366.0, 0.007325330137580114
367.0, 0.009533072611972837
368.0, 0.010488651779776205
369.0, 0.011825057004140554
370.0, 0.013763545664915604
371.0, 0.01661794289597681
372.0, 0.01902213375093524
373.0, 0.02168431017788495
374.0, 0.0240638522251518
375.0, 0.024355834903008973
376.0, 0.028517374952695875
377.0, 0.03104677132515833
378.0, 0.03134866434165727
379.0, 0.031762880182484556
380.0, 0.033349360905211574
381.0, 0.03390583111337921
382.0, 0.03293782954225829
383.0, 0.03206332400935075
384.0, 0.03253961911881731
385.0, 0.032309996369338075
386.0, 0.030552939775112736
387.0, 0.029472122098566794
388.0, 0.028573107041706992
389.0, 0.02863775939097694
390.0, 0.030121817125586238
391.0, 0.028873363851347703
392.0, 0.028488812243924008
393.0, 0.02848300510034928
394.0, 0.02842548935582381
395.0, 0.028382382110364018
396.0, 0.030814465801608633
397.0, 0.033560668341958345
398.0, 0.03377144764801143
399.0, 0.03767626012098289
400.0, 0.03980290456731824
401.0, 0.04128268507541795
402.0, 0.04456404456117231
403.0, 0.046997474655564406
404.0, 0.04948209179832275
405.0, 0.05174019843634941
406.0, 0.05289077119338704
407.0, 0.053665277321658406
408.0, 0.053886897222818066
409.0, 0.05364801788439063
410.0, 0.05328898102773158
411.0, 0.05149162979713636
412.0, 0.04955504722898443
413.0, 0.04761728065271495
414.0, 0.045105484539446135
415.0, 0.0429529982702909
416.0, 0.04153064914542211
417.0, 0.04050923941709676
418.0, 0.03749604408360571
419.0, 0.034777636037935364
420.0, 0.03318142118218406
421.0, 0.032801420733509154
422.0, 0.03196238866780106
423.0, 0.030606414736409068
424.0, 0.029883549683372226
425.0, 0.030181161107716212
426.0, 0.029949405768150788
427.0, 0.030489615953080754
428.0, 0.03090851563028218
429.0, 0.03083148135665168
430.0, 0.03201255911198252
431.0, 0.031904076367167286
432.0, 0.03124140647847759
433.0, 0.030501636427295725
434.0, 0.03005522583674875
435.0, 0.02919130684477476
436.0, 0.02778539390467457
437.0, 0.02573188053211267
438.0, 0.023525227671184198
439.0, 0.02181302313104415
440.0, 0.02002957478935145
441.0, 0.01767324182269916
442.0, 0.01660806956788665
443.0, 0.014801860310613216
444.0, 0.012892966652736947
445.0, 0.011537593408934267
446.0, 0.010931570698484654
447.0, 0.009729496585160393
448.0, 0.008627558306448712
449.0, 0.008456573321855943
450.0, 0.009401705399939455
451.0, 0.00799052997046217
452.0, 0.006434437371667602
453.0, 0.007669172440685445
454.0, 0.007385280879683769
455.0, 0.008519517267297657
456.0, 0.009473379401122101
457.0, 0.007859234573526932
458.0, 0.009683198283923496
459.0, 0.01030764510790415
460.0, 0.010414802738879422
461.0, 0.011334576490107374
462.0, 0.012627810389196654
463.0, 0.014207308610335374
464.0, 0.016059445733936
465.0, 0.01818544928660841
466.0, 0.01913432841590149
467.0, 0.020385020525756973
468.0, 0.0222261322482547
469.0, 0.02499385429560201
470.0, 0.026140020101313378
471.0, 0.027270024102285243
472.0, 0.028732041338643946
473.0, 0.030930149246576426
474.0, 0.031103503981944038
475.0, 0.032181767112728854
476.0, 0.0330969071556046
477.0, 0.031678266716303874
478.0, 0.03217946105736008
479.0, 0.03270229391292115
480.0, 0.03234790707572244
481.0, 0.02981060678755792
482.0, 0.02849937890438201
483.0, 0.027769888345315904
484.0, 0.027425979511787206
485.0, 0.027237908844498407
486.0, 0.026272324531188274
487.0, 0.024981764241599917
488.0, 0.02331829799450125
489.0, 0.021142929605810688
490.0, 0.021366986624011687
491.0, 0.020423243944842028
492.0, 0.018992579461741682
493.0, 0.018393589736574626
494.0, 0.016699892692970723
495.0, 0.01577642822796661
496.0, 0.01514894863732543
497.0, 0.014029793448721874
498.0, 0.013591980115246066
499.0, 0.012800976706588528
500.0, 0.011876560449966092
501.0, 0.011154374045127934
502.0, 0.010720618688864004
503.0, 0.009927638471227374
504.0, 0.009035044097686282
505.0, 0.00836727757496586
506.0, 0.00786663871520228
507.0, 0.007796356298851792
508.0, 0.007292154495852385
509.0, 0.0054518950341427095
510.0, 0.006220234913824756
511.0, 0.005985861942339547
512.0, 0.005461490104788148
513.0, 0.005338311916496912
514.0, 0.006676843751319662
515.0, 0.007152142039144658
516.0, 0.0074569656802343336
517.0, 0.008104913366412269
518.0, 0.007727408316651077
519.0, 0.008613910252163666
520.0, 0.009464828401166496
521.0, 0.009421758238127553
522.0, 0.009363482160538743
523.0, 0.01059021476072638
524.0, 0.012458452584294512
525.0, 0.014537598918893472
526.0, 0.016216646587022564
527.0, 0.017970193474944027
528.0, 0.019753623201487214
529.0, 0.021527636732100966
530.0, 0.023156267967050812
531.0, 0.02495464639850911
532.0, 0.02677002039895553
533.0, 0.02856044492191087
534.0, 0.030438753046217976
535.0, 0.0330294406400164
536.0, 0.035556465902303526
537.0, 0.03783081035838352
538.0, 0.0401290866524292
539.0, 0.04403975434249548
540.0, 0.04672591692908315
541.0, 0.04824645730937101
542.0, 0.051199818747860684
543.0, 0.053035655214709106
544.0, 0.054430763412681805
545.0, 0.055746809132957646
546.0, 0.05758695801647487
547.0, 0.05959501969616964
548.0, 0.06066247205343874
549.0, 0.06147928884436253
550.0, 0.06368365667654989
551.0, 0.06481839434924613
552.0, 0.065535077654028
553.0, 0.06651030365314901
554.0, 0.06867457224165316
555.0, 0.07188480039064249
556.0, 0.07371843476070086
557.0, 0.07513460375781043
558.0, 0.07731955810989959
559.0, 0.08192196833476845
560.0, 0.08547784031372585
561.0, 0.08860497667386238
562.0, 0.09181105164122053
563.0, 0.09443623054989025
564.0, 0.09832158542166793
565.0, 0.1009383138932395
566.0, 0.10084013779896021
567.0, 0.09945181311070786
568.0, 0.10013196065353422
569.0, 0.09864000319190114
570.0, 0.09375711301726516
571.0, 0.08967186929069858
572.0, 0.08579580022170297
573.0, 0.0793052810893215
574.0, 0.07035580801868578
575.0, 0.06298221413713394
576.0, 0.05778926846552257
577.0, 0.05269947761798372
578.0, 0.047510964252296395
579.0, 0.042814954968697964
580.0, 0.03815523455129475
581.0, 0.034981832223492965
582.0, 0.03292483646589134
583.0, 0.031033931750294754
584.0, 0.02811557615350972
585.0, 0.026812028571173527
586.0, 0.02563307385492802
587.0, 0.0226489797140199
588.0, 0.02185007864065277
589.0, 0.02145232015754164
590.0, 0.020607351682802078
591.0, 0.018823147005705324
592.0, 0.019427101294187614
593.0, 0.01879299759897863
594.0, 0.016965721444003008
595.0, 0.014398719677320048
596.0, 0.014179200638493967
597.0, 0.01410559848945098
598.0, 0.013315498578131873
599.0, 0.011910118302852104
600.0, 0.011519293350277402
601.0, 0.011023686320366082
602.0, 0.010245944205091437
603.0, 0.009175726716389415
604.0, 0.007877468614572601
605.0, 0.006438738831903476
606.0, 0.005924423787846796
607.0, 0.005815328801910753
608.0, 0.005140669695789296
609.0, 0.003612193651381877
610.0, 0.0026612129355016124
611.0, 0.0020129282708772323
612.0, 0.00134421049405711
613.0, 0.0005716321822666438
614.0, 0.0005805485971129557
615.0, 0.0010085810961451473
616.0, 0.0015356960886287745
617.0, 0.001403298248116841
618.0, 0.0022987451007894263
619.0, 0.0027381970157387627
620.0, 0.002530657824878039
621.0, 0.0031077422204939162
622.0, 0.0035788557016359322
623.0, 0.004117528701763585
624.0, 0.00450074144285451
625.0, 0.004140359601951065
626.0, 0.0042073953976285204
627.0, 0.0035388895778706965
628.0, 0.003026395139921181
629.0, 0.003980357441460865
630.0, 0.002124886886415711
631.0, 0.0010775326009988453
632.0, 0.0007142387002728132
633.0, 0.0010174906627416487
634.0, 0.0035622026263575
635.0, 0.005225605494695245
636.0, 0.006651032270483132
637.0, 0.008088412371620762
638.0, 0.009274210532436968
639.0, 0.01191144619038583
640.0, 0.013725636772255584
641.0, 0.014885408057623152
642.0, 0.017320755607648675
643.0, 0.020677195090068375
644.0, 0.02201656161264828
645.0, 0.02242169228783864
646.0, 0.023925040059984103
647.0, 0.02474792599362671
648.0, 0.025360048403395143
649.0, 0.025665275105987984
650.0, 0.025570335294802328
651.0, 0.02485417864780497
652.0, 0.025112958875409146
653.0, 0.024847556018082056
654.0, 0.02371649011184483
655.0, 0.023243155604259765
656.0, 0.021791310799633836
657.0, 0.02053452275768087
658.0, 0.01959652440714699
659.0, 0.018657651325066256
660.0, 0.01718762303432798
661.0, 0.016408479536196632
662.0, 0.015630810538680144
663.0, 0.013943910003518538
664.0, 0.013193796717163241
665.0, 0.013103110046556071
666.0, 0.01257825338780181
667.0, 0.011039386066280639
668.0, 0.009525986227531041
669.0, 0.009005224302088664
670.0, 0.008058741805181145
671.0, 0.0068970279617605115
672.0, 0.0076446085433602585
673.0, 0.00687177504826909
674.0, 0.0060990374895536
675.0, 0.005646566112431495
676.0, 0.005670451608537317
677.0, 0.004834750755142815
678.0, 0.004570871311544636
679.0, 0.0043930991709208705
680.0, 0.0038724087762787665
681.0, 0.002911575318086883
682.0, 0.003307463117814132
683.0, 0.0032149467376244535
684.0, 0.0025048205026562322
685.0, 0.0034385242075272043
686.0, 0.0029752693440915994
687.0, 0.002701291565786814
688.0, 0.0029269259069668384
689.0, 0.0037077568283605793
690.0, 0.0028547266625275052
691.0, 0.0029365093388785176
692.0, 0.0032582945720887346
693.0, 0.0032379757034144132
694.0, 0.004002271685743499
695.0, 0.0031068196133223944
696.0, 0.0032597223097220536
697.0, 0.004609386545491013
698.0, 0.0035666620375614695
699.0, 0.0037331386278334246
700.0, 0.004054687248197919
701.0, 0.004131426022240644
702.0, 0.003606009055209457
703.0, 0.004326713615728461
704.0, 0.004456329739399373
705.0, 0.0038879037238637604
706.0, 0.002797774833136825
707.0, 0.003144586450119301
708.0, 0.004020399304891141
709.0, 0.004686910330879362
710.0, 0.004782785480828139
711.0, 0.004018104989490288
712.0, 0.00426125500524428
713.0, 0.004478541219447592
714.0, 0.0046316483971320195
715.0, 0.0048496064912549215
716.0, 0.004917428284626553
717.0, 0.004740759585659281
718.0, 0.004618879796081252
719.0, 0.004558403108213438
720.0, 0.0033766892294848695
721.0, 0.003804972969275833
722.0, 0.005048429600088485
723.0, 0.006087647887723197
724.0, 0.005094652139932015
725.0, 0.0058804322308362855
726.0, 0.005965104970259309
727.0, 0.005712000884417384
728.0, 0.005766358864615029
729.0, 0.007556543751280006
730.0, 0.005412920469926635
731.0, 0.005202422903957903
732.0, 0.007811944747642657
733.0, 0.0067718630197038015
734.0, 0.005936195825132395
735.0, 0.005531645843446201
736.0, 0.005263704736084429
737.0, 0.004649253046695293
738.0, 0.005377762048631003
739.0, 0.005667430889577009
740.0, 0.006217146032411716
741.0, 0.007198855278619125
742.0, 0.0068670835403462725
743.0, 0.005665318253505104
744.0, 0.004280063038856568
745.0, 0.0037749033222088638
746.0, 0.005958614838487672
747.0, 0.007035516135619783
748.0, 0.006495822385626487
749.0, 0.005498922326662345
750.0, 0.005075082365721867
751.0, 0.004902999843840423
752.0, 0.00428294931046987
753.0, 0.00402339117585875
754.0, 0.004020306767539332
755.0, 0.0032100822323481363
756.0, 0.003962777837306723
757.0, 0.004481687288654738
758.0, 0.004542222505345359
759.0, 0.0041228383779472145
760.0, 0.0035595769240504248
761.0, 0.002932239111641831
762.0, 0.00307496932349682
763.0, 0.00364801267748616
764.0, 0.002254828763658888
765.0, 0.002837001373723002
766.0, 0.0027206188984131223
767.0, 0.002096828915984678
768.0, 0.001719542281653517
769.0, 0.003015994665279654
770.0, 0.0025136096427065074
771.0, 0.002045016156049221
772.0, 0.0021374398628725526
773.0, 0.0011325158951424736
774.0, 0.0010366910407275905
775.0, 0.0017147398231162428
776.0, 0.0019196355881684647
777.0, 9.986853948797656e-05
778.0, 0.0006291630947519017
779.0, 0.0005310620701275581
780.0, 0.0004905482738435381
781.0, 0.0007333018068665613
782.0, 0.0006076128052837667
783.0, 0.00026312838460873316
784.0, 0.0005185004358682737
785.0, 0.001187748730849014
786.0, 0.0017655094514948569
787.0, 0.0006789928398770648
788.0, 0.0006913680975011754
789.0, 0.0014550002012564715
790.0, 0.002317846305519962
791.0, 0.0014695076276327764
792.0, 0.001471848348335147
793.0, 0.0010506870756282036
794.0, 0.000632622327751588
795.0, 0.0010344428617077611
796.0, 0.0010194318731325828
797.0, 0.0005708644090908943
798.0, 0.00032412758841280823
799.0, 0.0004662723361183822
800.0, 0.000474690579990185
801.0, 0.0004947305972092941
802.0, 0.0005464742331440569
803.0, 0.0005849041533254397
804.0, 0.0005573171545656947
805.0, 0.000568111442845443
806.0, 0.0007913182054030031
807.0, 0.000932918465847887
808.0, 0.0009782133460056546
809.0, 0.0012928649471882544
810.0, 0.0014928278985356475
811.0, 0.0014889241628856756
812.0, 0.0017086818362760023
813.0, 0.0024869622405784956
814.0, 0.0024394802184344137
815.0, 0.0020744134431124415
816.0, 0.002293797040484497
817.0, 0.0031169774929994936
818.0, 0.0037894776868889397
819.0, 0.004343823131699752
820.0, 0.004298880621793608
821.0, 0.0040653173729467175
822.0, 0.0040847915788414
823.0, 0.0047979669318636035
824.0, 0.005338987549336726
825.0, 0.00600329967200441
826.0, 0.0060099559324889576
827.0, 0.003861437507272798
828.0, 0.006424132647892807
829.0, 0.006326455484366064
830.0, 0.005781017836440949
831.0, 0.006244072959617756
832.0, 0.007484130592659333
833.0, 0.007495511189512401
834.0, 0.006946334626057097
835.0, 0.0066223303332969856
836.0, 0.007326666361160398
837.0, 0.007862192372150544
838.0, 0.007739207680292831
839.0, 0.008161246500362299
840.0, 0.009144655072937298
841.0, 0.009256873903772375
842.0, 0.009122759394279268
843.0, 0.009875830329976187
844.0, 0.009704830707566184
845.0, 0.007556512224126912
846.0, 0.008207646505722765
847.0, 0.009040976765736414
848.0, 0.009223621804199772
849.0, 0.009302789396786889
850.0, 0.010601593026888581
851.0, 0.010323553051920674
852.0, 0.00962975251037335
853.0, 0.009728729985243337
854.0, 0.010660929599408456
855.0, 0.00997204259354332
856.0, 0.01111554663434609
857.0, 0.011664563232104434
858.0, 0.011787628185361314
859.0, 0.012061289610933223
860.0, 0.012865361686007394
861.0, 0.011309180829660766
862.0, 0.011351725484150307
863.0, 0.012827896829881329
864.0, 0.01275456739758474
865.0, 0.011510356174307146
866.0, 0.012238372344169218
867.0, 0.012946211167835465
868.0, 0.012623281905372024
869.0, 0.01268805897721315
870.0, 0.013360710695404772
871.0, 0.013342896710323376
872.0, 0.012717363684181816
873.0, 0.012040477611135443
874.0, 0.013884793631777272
875.0, 0.013563022199859023
876.0, 0.013174985103054137
877.0, 0.013687520757387496
878.0, 0.015582624966015379
879.0, 0.014284172916627548
880.0, 0.014354039580032106
881.0, 0.014811868605331348
882.0, 0.015113646794785062
883.0, 0.015751352022469776
884.0, 0.01598450566298746
885.0, 0.015927003619977346
886.0, 0.01552826787627716
887.0, 0.014855982156008652
888.0, 0.014933828075533857
889.0, 0.014689606262545696
890.0, 0.014862798272489788
891.0, 0.015414092427900766
892.0, 0.01592786798731828
893.0, 0.016915269494174923
894.0, 0.017360747155082693
895.0, 0.01738033985946265
896.0, 0.017414415766673737
897.0, 0.018513649975923217
898.0, 0.018620768111920944
899.0, 0.01903009191668438
900.0, 0.01904986895346246
901.0, 0.018513990773131785
902.0, 0.019852032399009057
903.0, 0.0195618852264331
904.0, 0.019290067487428286
905.0, 0.01978598467929666
906.0, 0.02127797679870738
907.0, 0.02007246779900335
908.0, 0.021072035730407983
909.0, 0.022644634174383553
910.0, 0.024053147617751024
911.0, 0.0249703168887091
912.0, 0.02299490838463301
913.0, 0.023499186035662853
914.0, 0.02456725632599108
915.0, 0.02508152206961921
916.0, 0.024939184136121284
917.0, 0.02717287515124649
918.0, 0.02695861762447709
919.0, 0.026618112455457574
920.0, 0.027987449186157167
921.0, 0.029396172059169626
922.0, 0.029861759627486186
923.0, 0.03067024514486123
924.0, 0.031225612300616837
925.0, 0.03094151425003709
926.0, 0.032981960869190294
927.0, 0.033419707212977524
928.0, 0.033846800431078135
929.0, 0.03472462597033849
930.0, 0.03597615544269949
931.0, 0.03553808067315659
932.0, 0.037268587904205244
933.0, 0.039113761613296154
934.0, 0.03995593272444154
935.0, 0.039365228823873055
936.0, 0.04033045995356621
937.0, 0.041680933406051085
938.0, 0.04206396208861445
939.0, 0.04186176176519498
940.0, 0.04492769744864869
941.0, 0.04384723215479805
942.0, 0.04455639705503637
943.0, 0.04656046457850334
944.0, 0.04858597591510338
945.0, 0.04867427546325202
946.0, 0.04937987625091703
947.0, 0.050301185917817376
948.0, 0.05158403093829785
949.0, 0.053479547241795496
950.0, 0.0564044627305414
951.0, 0.058454087855857845
952.0, 0.06002034500879016
953.0, 0.06187834049511077
954.0, 0.06470204557886049
955.0, 0.06522782230277491
956.0, 0.06684513485365293
957.0, 0.07003137574890975
958.0, 0.07399718156527095
959.0, 0.07713266885759362
960.0, 0.07975981526400822
961.0, 0.08192207158704962
962.0, 0.08497563992396719
963.0, 0.08899050124496172
964.0, 0.09284339007740543
965.0, 0.09569631762671778
966.0, 0.10124144434255705
967.0, 0.106956225213629
968.0, 0.11176994556280602
969.0, 0.11667255609678073
970.0, 0.12382429086800019
971.0, 0.13067166783504644
972.0, 0.13798399735039762
973.0, 0.14671716059656664
974.0, 0.15815389951030462
975.0, 0.17252942680850997
976.0, 0.1857495959338191
977.0, 0.20049334197041652
978.0, 0.21863758284479284
979.0, 0.2385300546628562
980.0, 0.26364505615609013
981.0, 0.2959074941019604
982.0, 0.3315106075958296
983.0, 0.36874873121240576
984.0, 0.418403199328246
985.0, 0.49000066907384815
986.0, 0.5525757798934314
987.0, 0.6242239114692691
988.0, 0.7217567450046106
989.0, 0.8099787287771009
990.0, 0.8801469092850724
991.0, 0.9480122857790706
992.0, 0.9942278179733517
993.0, 0.9965420018416956
994.0, 0.9626400591132128
995.0, 0.9095765412008953
996.0, 0.8411142013726706
997.0, 0.7681355711843274
998.0, 0.7020623409083592
999.0, 0.6349034815541285
1000.0, 0.5689796342661967
1001.0, 0.5039175873576125
1002.0, 0.4446135485655618
1003.0, 0.3953304506498202
1004.0, 0.33691658477444075
1005.0, 0.29336367476691005
1006.0, 0.25499391373934605
1007.0, 0.21995231417301528
1008.0, 0.18915442672836932
1009.0, 0.16424991772316408
1010.0, 0.14367197436232773
1011.0, 0.12582489300161787
1012.0, 0.11034951841651137
1013.0, 0.0972325400995283
1014.0, 0.08633081526209477
1015.0, 0.07732172298884081
1016.0, 0.06973009556956047
1017.0, 0.06259024417773969
1018.0, 0.05499325013585557
1019.0, 0.05047933544576362
1020.0, 0.0459077759981841
1021.0, 0.04210891423235381
1022.0, 0.03896540324376678
1023.0, 0.03595049073934612
1024.0, 0.033212591963665376
1025.0, 0.030676055273163194
1026.0, 0.028332437170376687
1027.0, 0.02612604011435542
1028.0, 0.023919688298598533
1029.0, 0.021024429776090175
1030.0, 0.018902596787996228
1031.0, 0.017063953613248136
1032.0, 0.01601223543622028
1033.0, 0.016191244054011976
1034.0, 0.013909304406927895
1035.0, 0.01290465826347716
1036.0, 0.01348274737914141
1037.0, 0.01357346855277755
1038.0, 0.011010862169839278
1039.0, 0.010081123879737192
1040.0, 0.009848882539389996
1041.0, 0.009610785983639562
1042.0, 0.009319145704336514
1043.0, 0.009112737729171037
1044.0, 0.009026255088167585
1045.0, 0.008881907034678442
1046.0, 0.008934775594091981
1047.0, 0.00889505721495911
1048.0, 0.008571254955390746
1049.0, 0.0090134040864288
1050.0, 0.009143658923108226
1051.0, 0.010945192823743038
1052.0, 0.012527513648385336
1053.0, 0.012469331114675164
1054.0, 0.014415612004672413
1055.0, 0.015745855284399885
1056.0, 0.016759094386529342
1057.0, 0.017561934438668488
1058.0, 0.018583155087501076
1059.0, 0.02131829248651947
1060.0, 0.02071600355889114
1061.0, 0.020147750654427907
1062.0, 0.01852817842308832
1063.0, 0.015811055089638964
1064.0, 0.015221136478173865
1065.0, 0.012843692659903056
1066.0, 0.011384430510726132
1067.0, 0.009940057875265062
1068.0, 0.007894309028487133
1069.0, 0.005453611244625619
1070.0, 0.006473883819871011
1071.0, 0.005411453412384594
1072.0, 0.003967020046966515
1073.0, 0.003185018697740987
1074.0, 0.003110683744731143
1075.0, 0.0013904377985039967
1076.0, 0.0013608467225286348
1077.0, 0.002067574919725978
1078.0, 0.0024406692055425755
1079.0, 0.001498218029272824
1080.0, 0.0011583801331090417
1081.0, 0.0011816057048516658
1082.0, 0.0008041550168880416
1083.0, 0.0002493771481459834
1084.0, 0.0001328619912118909
1085.0, 7.369589076958123e-05
1086.0, 9.956970054376416e-05
1087.0, 0.00030582656474054245
1088.0, 0.0005564703611082845
1089.0, 0.0007263579751671647
1090.0, 0.0011277074672798608
1091.0, 0.0019842814234392603
1092.0, 0.0022564525247213475
1093.0, 0.002348728641294659
1094.0, 0.0026412201529192798
1095.0, 0.002657979873665586
1096.0, 0.002849713001779491
1097.0, 0.004055233788892733
1098.0, 0.004480587882074627
1099.0, 0.0039638107892893334
1100.0, 0.005419094075325607
1101.0, 0.0054170967894151545
1102.0, 0.005804315625319917
1103.0, 0.006224433710180021
1104.0, 0.006616618167831146
1105.0, 0.007213367251582829
1106.0, 0.006530108368629596
1107.0, 0.006979466091086446
1108.0, 0.005999044884451461
1109.0, 0.004543829775909041
1110.0, 0.004894035085259126
1111.0, 0.0037052594860645357
1112.0, 0.004122122373184564
1113.0, 0.004871010252592083
1114.0, 0.00466706244261829
1115.0, 0.003132657354270549
1116.0, 0.003439735799646628
1117.0, 0.004073273159131333
1118.0, 0.0032586936833498767
1119.0, 0.0026176795975707923
1120.0, 0.00281439157114134
1121.0, 0.0016295151696397092
1122.0, 0.0008813576481224062
1123.0, 0.001121654654025494
1124.0, 0.0013120650151979682
1125.0, 0.0009608620067222501
1126.0, 0.0002661270101392522
1127.0, 0.0001626803120167861
1128.0, 0.00019413819447473854
1129.0, 0.00012987724595631755
1130.0, 0.0002668146129782262
1131.0, 0.0009236407248876373
1132.0, 0.0006585902957490455
1133.0, 0.00031242391799158383
1134.0, 0.0003870732897708558
1135.0, 0.0006946755417279125
1136.0, 0.001015779590459352
1137.0, 0.0015700443300200268
1138.0, 0.0010622368670396532
1139.0, 0.0006312514486135715
1140.0, 0.0005754369605019139
1141.0, 0.0006485637965555581
1142.0, 1.7710459538023443e-05
1143.0, 8.870936111382989e-05
1144.0, 0.00034038003336986974
1145.0, 0.00039791980882222555
1146.0, 0.0005273166057045965
1147.0, 0.001194321386996286
1148.0, 0.0011035942094350256
1149.0, 0.0012455429734238301
1150.0, 0.0015573441055730447
1151.0, 0.001571559012141039
1152.0, 0.0011478002395907791
1153.0, 0.0014579941777730068
1154.0, 0.0017889893334471017
1155.0, 0.002707736409939284
1156.0, 0.003048966608974723
1157.0, 0.003096192451650567
1158.0, 0.005015730322298866
1159.0, 0.004502983640240352
1160.0, 0.004456612047567632
1161.0, 0.004982137638288826
1162.0, 0.006016594326441289
1163.0, 0.00731221483239695
1164.0, 0.008094792450315932
1165.0, 0.007945855653841856
1166.0, 0.008112983760179621
1167.0, 0.008555132978641472
1168.0, 0.008696796292195124
1169.0, 0.00739991155544633
1170.0, 0.009437322486168192
1171.0, 0.009649518399640077
1172.0, 0.009037568993533104
1173.0, 0.008208440659393239
1174.0, 0.007198524530114642
1175.0, 0.007130739869400427
1176.0, 0.006443722995983515
1177.0, 0.00619403448110713
1178.0, 0.005848545234587447
1179.0, 0.004641934727271072
1180.0, 0.002906195412821799
1181.0, 0.00395233678085127
1182.0, 0.004608985074536888
1183.0, 0.003935944270248877
1184.0, 0.00261228478247742
1185.0, 0.002824465460039575
1186.0, 0.0016137765934641879
1187.0, 0.0025198024336184973
1188.0, 0.002204434855132192
1189.0, 0.00153432348164022
1190.0, 0.0023253272161698505
1191.0, 0.0014547384369906348
1192.0, 0.0010866561831929093
1193.0, 0.001106554787305479
1194.0, 0.0009675685899425789
1195.0, 0.0005019980705945273
1196.0, 0.00020351362323968236
1197.0, 0.0003801239041835789
1198.0, 0.0008978648661942845
1199.0, 0.001146863719976369
1200.0, 0.0009695341739630761
1201.0, 0.0006344220540984717
1202.0, 0.0012372994552710495
1203.0, 0.0005288861711510958
1204.0, 0.0010210076042065338
1205.0, 0.0012320943898282439
1206.0, 0.0005016102284129615
1207.0, 0.0004158114739423834
1208.0, 0.0003888308899353073
1209.0, 0.000744936843874539
1210.0, 0.0008746218465261779
1211.0, 0.0006858523733219539
1212.0, 0.0004509379763142727
1213.0, 0.0007663536719536971
1214.0, 0.00046273949065964794
1215.0, 0.0006378693315000527
1216.0, 0.0006578933794322278
1217.0, 0.00047414895752677984
1218.0, 0.0011041610135091842
1219.0, 0.0006744868484909261
1220.0, 0.0005204237977938324
1221.0, 0.000533608988135919
1222.0, 0.0005108651558631262
1223.0, 0.00037041312553065075
1224.0, 0.0006402709122506848
1225.0, 0.0010731269116591264
1226.0, 0.0005106104828594507
1227.0, 0.00013934970542909842
1228.0, 0.0003352936473629469
1229.0, 0.0003408658022442337
1230.0, 0.0004406251023137241
1231.0, 0.0007570019507397738
1232.0, 0.0008428572254385939
1233.0, 0.0007800719553186086
1234.0, 0.0006523051487045339
1235.0, 7.036131360628917e-05
1236.0, 0.0008354421583260036
1237.0, 0.001535601918917813
1238.0, 0.0014465422201815983
1239.0, 0.0008198562351955728
1240.0, 0.00047662691590500143
1241.0, 5.233238568139073e-05
1242.0, 0.000488985772357371
1243.0, 0.0009950287533126738
1244.0, 0.0010788481244052971
1245.0, 0.0006210415630738028
1246.0, 1.92285302458467e-05
1247.0, 0.00042581733912842965
1248.0, 0.000820585845668767
1249.0, 0.0012545883798351825
1250.0, 0.0011992027927194505
1251.0, 0.0004468378271745582
1252.0, 0.0008058492281425493
1253.0, 0.0003992339846445943
1254.0, 0.0007764834114068138
1255.0, 0.0007906728995740942
1256.0, 0.0006973516127450861
1257.0, 0.0017308374352515057
1258.0, 0.00042145524648314785
1259.0, 0.00021857591226101623
1260.0, 0.000732620661846123
1261.0, 0.0013862926110030675
1262.0, 0.0016827244598720476
1263.0, 0.001411052549475184
1264.0, 0.0004970405887752407
1265.0, 0.000666922874427661
1266.0, 0.0009031922716233191
1267.0, 0.0008077225453638575
1268.0, 0.0005692973846080972
1269.0, 0.0012152653647163106
1270.0, 0.0005273854311469471
1271.0, 0.0010496835128604087
1272.0, 0.0008811239502832372
1273.0, 0.0004888081411469809
1274.0, 0.0016862699162020786
1275.0, 0.0009006750309479914
1276.0, 0.0009983916755125918
1277.0, 0.0005276519841161792
1278.0, 0.0003464102407290973
1279.0, 0.0006244999332949946
1280.0, 0.00022068411079552913
1281.0, 8.567652470150642e-05
1282.0, 0.0007526787196233341
1283.0, 0.0014457802957838393
1284.0, 0.0015392695844094774
1285.0, 0.001062049713685743
1286.0, 0.0012290768240589157
1287.0, 0.00048678141232201755
1288.0, 0.0005292800937326521
1289.0, 0.0004725138416558082
1290.0, 0.0005890865241874005
1291.0, 0.0011555191504004144
1292.0, 0.00035475096066777496
1293.0, 0.0009392291924159833
1294.0, 0.0007113776439571034
1295.0, 0.0005988340207708372
1296.0, 0.0008556631046568577
1297.0, 0.001135862138115441
1298.0, 0.001754372406405173
1299.0, 0.0004539408030459986
1300.0, 0.0007200319769185649
1301.0, 0.0009984618760769956
1302.0, 0.0008556824871165194
1303.0, 0.0015637686945798447
1304.0, 0.0015914525202287832
1305.0, 0.0016059246852944912
1306.0, 0.0010042710280805036
1307.0, 0.0008655974323474669
1308.0, 0.0013319957798178057
1309.0, 0.0008745372688008915
1310.0, 0.0018276446339271022
1311.0, 0.0010071239804524514
1312.0, 0.0016292843815970152
1313.0, 0.0019027682482986093
1314.0, 0.0005212262554503854
1315.0, 4.823062642450907e-05
1316.0, 0.001208439180832618
1317.0, 0.0023182208038269787
1318.0, 0.0024039063653978465
1319.0, 0.0021188492379724615
1320.0, 0.0020677368421160875
1321.0, 0.0011000399687392977
1322.0, 0.0020698251099177754
1323.0, 0.0023339759886323607
1324.0, 0.0022747617537443522
1325.0, 0.0021518641138249493
1326.0, 0.0020451234076814353
1327.0, 0.0018117381320310719
1328.0, 0.0018637263745427104
1329.0, 0.0011915310043249421
1330.0, 0.0007314680536421398
1331.0, 0.0006357044563716517
1332.0, 0.000571752903875758
1333.0, 0.00047625764429771956
1334.0, 0.0015748560199140514
1335.0, 0.0012896119497380009
1336.0, 0.0013363382469166918
1337.0, 0.0019012051081490153
1338.0, 0.0020396641426684704
1339.0, 0.0014169284986492903
1340.0, 0.002183641356792724
1341.0, 0.00227369080467687
1342.0, 0.002466435968190642
1343.0, 0.0028811913793725255
1344.0, 0.0030928424580691453
1345.0, 0.003263828006871341
1346.0, 0.003464089039066266
1347.0, 0.0035670495636429865
1348.0, 0.003661138473807599
1349.0, 0.0036353817495525455
1350.0, 0.003360688579309783
1351.0, 0.0033639009308648713
1352.0, 0.00237913508029478
1353.0, 0.0032032356563513795
1354.0, 0.0029037461663565384
1355.0, 0.0018239578173771757
1356.0, 0.00255700978204792
1357.0, 0.004311097963035277
1358.0, 0.0032459960419285805
1359.0, 0.0031617425905832944
1360.0, 0.0035155402787832284
1361.0, 0.0036125415238026644
1362.0, 0.0033659619214732456
1363.0, 0.004242139287088189
1364.0, 0.003921861196164108
1365.0, 0.0027442602844999905
1366.0, 0.0027660433065532634
1367.0, 0.00328368029594432
1368.0, 0.0025375048883305978
1369.0, 0.0026354598256973978
1370.0, 0.004115290073277096
1371.0, 0.0031874597428801013
1372.0, 0.0027188871335493995
1373.0, 0.0028747371947025623
1374.0, 0.0025793811051345035
1375.0, 0.0035710424856019098
1376.0, 0.003633227223488107
1377.0, 0.003044241909856329
1378.0, 0.002721086423331783
1379.0, 0.0029375161821324483
1380.0, 0.003201222969795209
1381.0, 0.002158915568573239
1382.0, 0.003463800886928354
1383.0, 0.00275440525321673
1384.0, 0.0029536912859632735
1385.0, 0.003149979933263808
1386.0, 0.002261331519481461
1387.0, 0.003007350664863053
1388.0, 0.003501176350046987
1389.0, 0.0037189209436445936
1390.0, 0.003322161682620149
1391.0, 0.002864688691381557
1392.0, 0.0030661211286483353
1393.0, 0.004127791095449024
1394.0, 0.0030840502205878016
1395.0, 0.0037425237450308137
1396.0, 0.003917738590732872
1397.0, 0.003326562724580929
1398.0, 0.0024985342237560776
1399.0, 0.002250036432820996
1400.0, 0.003628284786028664
1401.0, 0.003687030328974412
1402.0, 0.0034987375694449227
1403.0, 0.0031089914657164634
1404.0, 0.0028183423748621354
1405.0, 0.003104691271273157
1406.0, 0.002834741671473265
1407.0, 0.002659516214881851
1408.0, 0.002797788042958263
1409.0, 0.0032621231834473346
1410.0, 0.003506978152618884
1411.0, 0.0032805179765125654
1412.0, 0.004800494342689112
1413.0, 0.002961824064817188
1414.0, 0.004049380004371997
1415.0, 0.0038289426527686955
1416.0, 0.0031785520884435627
1417.0, 0.003925478901349435
1418.0, 0.0025348449940876825
1419.0, 0.0041021361784748245
1420.0, 0.0032542857910776318
1421.0, 0.003413611700720022
1422.0, 0.0038246002706461136
1423.0, 0.0033865183472927543
1424.0, 0.003083772930123201
1425.0, 0.0037766497187443518
1426.0, 0.003257303366049817
1427.0, 0.002558276205279154
1428.0, 0.003240036932503402
1429.0, 0.0042694750529781575
1430.0, 0.0029797977133356494
1431.0, 0.003209969139521319
1432.0, 0.0045834954060617085
1433.0, 0.0035628284852750325
1434.0, 0.0030021474889093307
1435.0, 0.0035912892800650797
1436.0, 0.003976741624166738
1437.0, 0.003025408959684648
1438.0, 0.004236195040293567
1439.0, 0.004273834653051348
1440.0, 0.004081067489687212
1441.0, 0.0037120253785116126
1442.0, 0.003177612727748592
1443.0, 0.003069580278890524
1444.0, 0.0028377026228683174
1445.0, 0.002708515419072175
1446.0, 0.0028343039923186303
1447.0, 0.0028815090167464115
1448.0, 0.0030581747620478427
1449.0, 0.003883143672368561
1450.0, 0.00406450296357057
1451.0, 0.004833813463817173
1452.0, 0.004470526840730555
1453.0, 0.004910502412449668
1454.0, 0.004856111115022721
1455.0, 0.003130214738529327
1456.0, 0.004028707619447304
1457.0, 0.00511809261627757
1458.0, 0.0035799391051066663
1459.0, 0.0031344176118249067
1460.0, 0.0034596158145199655
1461.0, 0.003563484515425183
1462.0, 0.003549412746680742
1463.0, 0.003604987676179118
1464.0, 0.004248135014831914
1465.0, 0.004138813795198338
1466.0, 0.0035960754306153357
1467.0, 0.003276761301654914
1468.0, 0.003434359308239924
1469.0, 0.0030567020596897624
1470.0, 0.003897757455592433
1471.0, 0.0033873887732336827
1472.0, 0.003060069951472415
1473.0, 0.00321972641511432
1474.0, 0.0031367431303184192
1475.0, 0.001917685869167613
1476.0, 0.0030358508229682128
1477.0, 0.001371456826232026
1478.0, 0.0012266844084175758
1479.0, 0.0017808677161507177
1480.0, 0.002292868598832571
1481.0, 0.002693121628565515
1482.0, 0.002745827473486574
1483.0, 0.002926585864178786
1484.0, 0.0032023450907112156
1485.0, 0.0028914163428381515
1486.0, 0.0029393613785352432
1487.0, 0.0033975514730927073
1488.0, 0.0026690074228148952
1489.0, 0.002228531624250565
1490.0, 0.004109371684458551
1491.0, 0.003172641208049273
1492.0, 0.0021314474531348463
1493.0, 0.001912091133902707
1494.0, 0.0019383610662209315
1495.0, 0.002925766327680283
1496.0, 0.0032772223958501233
1497.0, 0.0029107672960095106
1498.0, 0.002693876846393689
1499.0, 0.0020049992474909326
1500.0, 0.0015904089680948957
1501.0, 0.0029310502224134303
1502.0, 0.001195606782321234
1503.0, 0.0016450845673547773
1504.0, 0.0008918828554792296
1505.0, 0.0009568106949692869
1506.0, 0.0018935354118885042
1507.0, 0.0025955248120485175
1508.0, 0.002361436098496051
1509.0, 0.0013085061208248502
1510.0, 0.0016458506592530813
1511.0, 0.001627831492233312
1512.0, 0.0012527664401530917
1513.0, 0.0010709843379211206
1514.0, 0.0015254338212013936
1515.0, 0.002288735016415816
1516.0, 0.0010463930925982364
1517.0, 0.0006548335292047097
1518.0, 0.0016502735427287587
1519.0, 0.001503616632313495
1520.0, 4.82072328469051e-06
1521, 0.0
1522, 0.0
1523, 0.0
1524, 0.0
1525, 0.0
1526, 0.0
1527, 0.0
1528, 0.0
1529, 0.0
1530, 0.0
1531, 0.0
1532, 0.0
1533, 0.0
1534, 0.0
1535, 0.0
1536, 0.0
1537, 0.0
1538, 0.0
1539, 0.0
1540, 0.0
1541, 0.0
1542, 0.0
1543, 0.0
1544, 0.0
1545, 0.0
1546, 0.0
1547, 0.0
1548, 0.0
1549, 0.0
1550, 0.0
1551, 0.0
1552, 0.0
1553, 0.0
1554, 0.0
1555, 0.0
1556, 0.0
1557, 0.0
1558, 0.0
1559, 0.0
1560, 0.0
1561, 0.0
1562, 0.0
1563, 0.0
1564, 0.0
1565, 0.0
1566, 0.0
1567, 0.0
1568, 0.0
1569, 0.0
1570, 0.0
1571, 0.0
1572, 0.0
1573, 0.0
1574, 0.0
1575, 0.0
1576, 0.0
1577, 0.0
1578, 0.0
1579, 0.0
1580, 0.0
1581, 0.0
1582, 0.0
1583, 0.0
1584, 0.0
1585, 0.0
1586, 0.0
1587, 0.0
1588, 0.0
1589, 0.0
1590, 0.0
1591, 0.0
1592, 0.0
1593, 0.0
1594, 0.0
1595, 0.0
1596, 0.0
1597, 0.0
1598, 0.0
1599, 0.0
