30, 0.0
31, 0.0
32, 0.0
33, 0.0
34, 0.0
35, 0.0
36, 0.0
37, 0.0
38, 0.0
39, 0.0
40, 0.0
41, 0.0
42, 0.0
43, 0.0
44, 0.0
45, 0.0
46, 0.0
47, 0.0
48, 0.0
49, 0.0
50, 0.0
51, 0.0
52, 0.0
53, 0.0
54, 0.0
55, 0.0
56, 0.0
57, 0.0
58, 0.0
59, 0.0
60, 0.0
61, 0.0
62, 0.0
63, 0.0
64, 0.0
65, 0.0
66, 0.0
67, 0.0
68, 0.0
69, 0.0
70, 0.0
71, 0.0
72, 0.0
73, 0.0
74, 0.0
75, 0.0
76, 0.0
77, 0.0
78, 0.0
79, 0.0
80, 0.0
81, 0.0
82, 0.0
83, 0.0
84, 0.0
85, 0.0
86, 0.0
87, 0.0
88, 0.0
89, 0.0
90, 0.0
91, 0.0
92, 0.0
93, 0.0
94, 0.0
95, 0.0
96, 0.0
97, 0.0
98, 0.0
99, 0.0
100, 0.0
101, 0.0
102, 0.0
103, 0.0
104, 0.0
105, 0.0
106, 0.0
107, 0.0
108, 0.0
109, 0.0
110, 0.0
111, 0.0
112, 0.0
113, 0.0
114, 0.0
115, 0.0
116, 0.0
117, 0.0
118, 0.0
119, 0.0
120, 0.0
121, 0.0
122, 0.0
123, 0.0
124, 0.0
125, 0.0
126, 0.0
127, 0.0
128, 0.0
129, 0.0
130, 0.0
131, 0.0
132, 0.0
133, 0.0
134, 0.0
135, 0.0
136, 0.0
137, 0.0
138, 0.0
139, 0.0
140, 0.0
141, 0.0
142, 0.0
143, 0.0
144, 0.0
145, 0.0
146, 0.0
147, 0.0
148, 0.0
149, 0.0
150, 0.0
151.0, 0.0016213883840427456
152.0, 0.01136138218257536
153.0, 0.019849179841256656
154.0, 0.024195429791870424
155.0, 0.030451233384855152
156.0, 0.03415677953150827
157.0, 0.03724631289819918
158.0, 0.039840826080294066
159.0, 0.039864937928312
160.0, 0.04098451191673895
161.0, 0.042470222551192406
162.0, 0.04819863781990316
163.0, 0.04801522316447489
164.0, 0.04302105391683378
165.0, 0.0365805463442995
166.0, 0.027907371430017043
167.0, 0.0198045922784644
168.0, 0.013536025508259974
169.0, 0.010063139262482205
170.0, 0.007466388013884275
171.0, 0.0034803445942531348
172.0, 0.0028951396275906888
173.0, 0.00547767312174311
174.0, 0.004523294462656623
175.0, 0.003152313303692443
176.0, 0.003662699121941521
177.0, 0.003003921426320192
178.0, 0.0034172421601485047
179.0, 0.0038502213904849088
180.0, 0.0016766874249017692
181.0, 0.009309338270285301
182.0, 0.008948354137838505
183.0, 0.006407171458874719
184.0, 0.016947467016564965
185.0, 0.018736434136048846
186.0, 0.02068420829547166
187.0, 0.026299141129537743
188.0, 0.034414541946825444
189.0, 0.039227740653936166
190.0, 0.04211175003442122
191.0, 0.04536855413251569
192.0, 0.04868373701135259
193.0, 0.049656384083906095
194.0, 0.04750959842324571
195.0, 0.04268234252594828
196.0, 0.03420494350655609
197.0, 0.023009640766339618
198.0, 0.016291494375374926
199.0, 0.007272525260301944
200.0, 0.0020289012772137403
201.0, 0.007865347438866818
202.0, 0.00838778049334624
203.0, 0.007717385701125193
204.0, 0.005218958314818402
205.0, 0.0006943457512259044
206.0, 0.006481926565091451
207.0, 0.017182312139078105
208.0, 0.0329381477141158
209.0, 0.05250635292343029
210.0, 0.0714546456581246
211.0, 0.09061177233710671
212.0, 0.11254830301558415
213.0, 0.13405373899983664
214.0, 0.15513426386634926
215.0, 0.1795451951951772
216.0, 0.2021887631007741
217.0, 0.22136102154611195
218.0, 0.23977086917317003
219.0, 0.2597626234192186
220.0, 0.27525647113855223
221.0, 0.2894588077800245
222.0, 0.3003661230465984
223.0, 0.3070072933997022
224.0, 0.31581432754237637
225.0, 0.32022559139482965
226.0, 0.32241629503973024
227.0, 0.32571958388575445
228.0, 0.33176290711419926
229.0, 0.33413028308064824
230.0, 0.3346837095974659
231.0, 0.3356696493486625
232.0, 0.3367263234284604
233.0, 0.33431270058179197
234.0, 0.32392586666832157
235.0, 0.30988208013480256
236.0, 0.29509864493105015
237.0, 0.27894593761982356
238.0, 0.2586321220300586
239.0, 0.2405922176214041
240.0, 0.22423146419696607
241.0, 0.20858730799884395
242.0, 0.19669471062548652
243.0, 0.18450995406059129
244.0, 0.17511374106299885
245.0, 0.17028273700519816
246.0, 0.16943496983122652
247.0, 0.1722155600199495
248.0, 0.17259381244737895
249.0, 0.17367050470389558
250.0, 0.1810335438353334
251.0, 0.19246361674056997
252.0, 0.20574786710978984
253.0, 0.22129632382716033
254.0, 0.2403902630922929
255.0, 0.264019014798884
256.0, 0.29225783519877024
257.0, 0.32515172402786263
258.0, 0.3617818096890589
259.0, 0.39997138087330447
260.0, 0.43731368944373894
261.0, 0.4709448219607307
262.0, 0.5011289708898777
263.0, 0.5265443456491041
264.0, 0.5447509930072542
265.0, 0.5575659115672503
266.0, 0.5680157235648552
267.0, 0.5759721246864933
268.0, 0.5798587643469482
269.0, 0.5783902811981511
270.0, 0.5769493804248423
271.0, 0.5694811217127775
272.0, 0.5607276136184832
273.0, 0.5616790230947348
274.0, 0.566296022555736
275.0, 0.5800810595847491
276.0, 0.5993984496193686
277.0, 0.6216848487275779
278.0, 0.6512187850562976
279.0, 0.667186481933607
280.0, 0.6753837219432062
281.0, 0.6766579875037865
282.0, 0.6699309703654369
283.0, 0.6668522569704738
284.0, 0.6718498727452185
285.0, 0.6823000432700908
286.0, 0.6981602887221563
287.0, 0.72222193679591
288.0, 0.7419468599051187
289.0, 0.7570524465937626
290.0, 0.7638698680212885
291.0, 0.7586720452833752
292.0, 0.7409271265288204
293.0, 0.6959019069642615
294.0, 0.6322229385378638
295.0, 0.5579473704878587
296.0, 0.478245632700844
297.0, 0.3989397361730081
298.0, 0.32377032498010616
299.0, 0.25554512924385225
300.0, 0.19754428917913114
301.0, 0.15255149690670772
302.0, 0.11407232548403258
303.0, 0.08257029035674439
304.0, 0.056846864307478935
305.0, 0.03568966026703392
306.0, 0.02131530597640087
307.0, 0.011605302336856683
308.0, 0.0066992703500021395
309.0, 0.006155864400300945
310.0, 0.008758923045126535
311.0, 0.014102921896580158
312.0, 0.02193830332863062
313.0, 0.028564534342688908
314.0, 0.033175579674341205
315.0, 0.03799648585366121
316.0, 0.03773246396678683
317.0, 0.039814738739960095
318.0, 0.04396976142759858
319.0, 0.04890301898459181
320.0, 0.05656976090672241
321.0, 0.06539576496862921
322.0, 0.07688425678825202
323.0, 0.08900424145492439
324.0, 0.09933325680259968
325.0, 0.11013025815603439
326.0, 0.12045331966720833
327.0, 0.12843260420289393
328.0, 0.13597628200842873
329.0, 0.1469825254342654
330.0, 0.15310249052979993
331.0, 0.16212624929864017
332.0, 0.1744122869795209
333.0, 0.191498383695457
334.0, 0.21970571316574855
335.0, 0.25678309492265283
336.0, 0.29802801233768117
337.0, 0.34581190471374684
338.0, 0.4031661860336328
339.0, 0.4690628841485513
340.0, 0.5518565677263441
341.0, 0.647612291433259
342.0, 0.7526830892614627
343.0, 0.8580769726176843
344.0, 0.944017542805551
345.0, 0.9949527812413853
346.0, 0.982601427209051
347.0, 0.9105183325707659
348.0, 0.7967771221186175
349.0, 0.6655647658306408
350.0, 0.5386695807697152
351.0, 0.4237514885406955
352.0, 0.32507316231739253
353.0, 0.24627173233592406
354.0, 0.1860991892959925
355.0, 0.14019997356426384
356.0, 0.10431744870482157
357.0, 0.07617609944321699
358.0, 0.05455769949324205
359.0, 0.04085019128828629
360.0, 0.028370782044409237
361.0, 0.017517448645984902
362.0, 0.010269550597467293
363.0, 0.00592301510207731
364.0, 0.0013553672030592434
365.0, 0.0018588488526633626
366.0, 0.0008958057345834987
367.0, 0.002699312399269221
368.0, 0.002313030353331483
369.0, 0.0036084019659108233
370.0, 0.008325963116425328
371.0, 0.010246857679122302
372.0, 0.011124801654210998
373.0, 0.0128894811549168
374.0, 0.012205050922271728
375.0, 0.011077024285296595
376.0, 0.010586131580925697
377.0, 0.010270646461184878
378.0, 0.009252884266366395
379.0, 0.007960742830789189
380.0, 0.0068815501228780725
381.0, 0.005886413938997417
382.0, 0.004842752004348349
383.0, 0.0039901053571643925
384.0, 0.0014483066534194773
385.0, 0.0003271535935397052
386.0, 0.00138450403783092
387.0, 0.0027260087987961037
388.0, 0.0042963304767072875
389.0, 0.005758762775054682
390.0, 0.007486485240585257
391.0, 0.009254346543817502
392.0, 0.010811010542318165
393.0, 0.012554343673902157
394.0, 0.014545771588834282
395.0, 0.01579278309523537
396.0, 0.01673220001079365
397.0, 0.018249105250098343
398.0, 0.02008401081902739
399.0, 0.021524462475679566
400.0, 0.022755875152415922
401.0, 0.024081160985171823
402.0, 0.025649939112827754
403.0, 0.027195048261460405
404.0, 0.02897287389900925
405.0, 0.030014581192369192
406.0, 0.030824906393177233
407.0, 0.03226306725344813
408.0, 0.033778784644683146
409.0, 0.035264088045467226
410.0, 0.03630165395851929
411.0, 0.037529557910364005
412.0, 0.03956259567399275
413.0, 0.04132447365395392
414.0, 0.041496525211685044
415.0, 0.0422031163104728
416.0, 0.04333976770201087
417.0, 0.04435654674882067
418.0, 0.04669323771341669
419.0, 0.047327110821303545
420.0, 0.04804742834560098
421.0, 0.04927616123493663
422.0, 0.05019443274199135
423.0, 0.05059891120643383
424.0, 0.051451832340085206
425.0, 0.05266796155544872
426.0, 0.053492026420171125
427.0, 0.05343198592776485
428.0, 0.05262598885411601
429.0, 0.05182354018004724
430.0, 0.05131938061985435
431.0, 0.04962531141244653
432.0, 0.047555016277947976
433.0, 0.04705651696519391
434.0, 0.045972041846173275
435.0, 0.04360672128862255
436.0, 0.04192787256923687
437.0, 0.04089565355901932
438.0, 0.0391347296082367
439.0, 0.03767792061850081
440.0, 0.03695021071042512
441.0, 0.036079053523110124
442.0, 0.03492597003639758
443.0, 0.03366820289300522
444.0, 0.03239749086314397
445.0, 0.03187652699230703
446.0, 0.031772077388975285
447.0, 0.031195555688378472
448.0, 0.03003133318993994
449.0, 0.029581350342854387
450.0, 0.028352079595756623
451.0, 0.028197093257072755
452.0, 0.028521948632246687
453.0, 0.02824734843030334
454.0, 0.027500727421790196
455.0, 0.02738482994148306
456.0, 0.02713647253352815
457.0, 0.026292699736745584
458.0, 0.025352225151861283
459.0, 0.025095945931602883
460.0, 0.024830067196516262
461.0, 0.024893936239637246
462.0, 0.025189295060646776
463.0, 0.025070127556593422
464.0, 0.02414727785019306
465.0, 0.024213327609363986
466.0, 0.023519241145001497
467.0, 0.02337262384079697
468.0, 0.023343672036696916
469.0, 0.022546048647453534
470.0, 0.02212045253041193
471.0, 0.02277598237220946
472.0, 0.021936167477137614
473.0, 0.020619721112413364
474.0, 0.020162124437087574
475.0, 0.01977490084495363
476.0, 0.018624556133689314
477.0, 0.0184040235128323
478.0, 0.018194690892938913
479.0, 0.017537943269123127
480.0, 0.01668944342342755
481.0, 0.01518192243418452
482.0, 0.014973355003850821
483.0, 0.014594862188387979
484.0, 0.01433017870225657
485.0, 0.014453804157327782
486.0, 0.013140518997471286
487.0, 0.012297341596634431
488.0, 0.011323662151579131
489.0, 0.011098002517196129
490.0, 0.011061723663519764
491.0, 0.010016335682146753
492.0, 0.010282109581355168
493.0, 0.009853889443820978
494.0, 0.008871313308942046
495.0, 0.008134369206814152
496.0, 0.007938700914849417
497.0, 0.007622256459253305
498.0, 0.007665962604180314
499.0, 0.007877488364325662
500.0, 0.0076584870678944525
501.0, 0.006849781412055503
502.0, 0.0060298566135690655
503.0, 0.005725778894921518
504.0, 0.005903978128094175
505.0, 0.0057645118145656
506.0, 0.005308437277059931
507.0, 0.0051246457261612975
508.0, 0.005525020182819635
509.0, 0.0043688766931093805
510.0, 0.004103595303468068
511.0, 0.004131062527979928
512.0, 0.0036500250037234437
513.0, 0.0032977374845931835
514.0, 0.0025275690078367043
515.0, 0.002845275346105117
516.0, 0.0033524871544954285
517.0, 0.0036083075009962482
518.0, 0.003740226075445215
519.0, 0.0034084225225714435
520.0, 0.0029211466165319755
521.0, 0.0028491092246027954
522.0, 0.003011963944344027
523.0, 0.0029858262513549325
524.0, 0.002734527882928678
525.0, 0.0030188081892526253
526.0, 0.0025945827707153962
527.0, 0.00244804620164335
528.0, 0.0021880374343221515
529.0, 0.0018013170087681303
530.0, 0.002666578521624426
531.0, 0.002859209361525801
532.0, 0.00282040035962851
533.0, 0.002156223309805675
534.0, 0.001805174856060261
535.0, 0.00231401771711121
536.0, 0.001675145169945928
537.0, 0.0010968853055486581
538.0, 0.001724356627279885
539.0, 0.001665086515157532
540.0, 0.0010805362647510134
541.0, 0.0020994906783031297
542.0, 0.001963612161234018
543.0, 0.0017465957480290277
544.0, 0.0015995413689979371
545.0, 0.0014902282888663533
546.0, 0.0014554925023399748
547.0, 0.001313127737278351
548.0, 0.0006859450369922257
549.0, 0.0004528019426743191
550.0, 0.0006689945554653937
551.0, 0.0005874941302474933
552.0, 9.044790613346501e-05
553.0, 7.779334163968032e-05
554.0, 0.000542808224880068
555.0, 0.000322455980807059
556.0, 9.157262186562845e-05
557.0, 0.00019410361613003192
558.0, 0.0005761602345186857
559.0, 0.00035623715422476764
560.0, 0.00011195122858892254
561.0, 0.00010835019224362337
562.0, 0.0004819821904092224
563.0, 0.0004542024344225703
564.0, 5.818926261729261e-05
565.0, 0.0007561946292700786
566.0, 0.00026804452961327993
567.0, 0.00043536460230415044
568.0, 0.0002746857882944502
569.0, 2.0966863127832016e-05
570.0, 0.0002803057952766616
571.0, 0.0005940652489189995
572.0, 0.00030713346156762366
573.0, 0.0003558164417371855
574.0, 0.0003666101156479917
575.0, 0.00014018799734950602
576.0, 0.000323252901163588
577.0, 0.00016674091441848206
578.0, 0.00034132471012721615
579.0, 0.00043996682536032807
580.0, 0.0007495859387306811
581.0, 0.00034469921304705636
582.0, 0.0006111049937578178
583.0, 7.786169871285726e-05
584.0, 9.918062450318145e-05
585.0, 0.0003782537407350718
586.0, 0.00043065002191458135
587.0, 0.000374259862436706
588.0, 0.0005884609628251535
589.0, 0.0001580991490026996
590.0, 0.00041765151275797
591.0, 0.00029538175168531143
592.0, 0.0005375217457704053
593.0, 0.0004280458350825039
594.0, 0.0007794963242409872
595.0, 0.0007944158577794379
596.0, 0.0007831543669464521
597.0, 0.000689362383128873
598.0, 0.000315660277566225
599.0, 0.00012303787395392973
600.0, 0.00013359869537466244
601.0, 5.811456709382337e-05
602.0, 0.0003225962826198599
603.0, 0.0005278155678770033
604.0, 0.0004231413973896544
605.0, 0.00019636839776248505
606.0, 0.0002880564250553255
607.0, 0.00021862495476363575
608.0, 0.00033985657413673244
609.0, 0.0005495865128577833
610.0, 0.0007870952725796899
611.0, 0.00037254439406544877
612.0, 0.00043493281008452064
613.0, 0.0009000729335804447
614.0, 0.0011124682175490583
615.0, 0.0008861860897738871
616.0, 0.0006076838543604892
617.0, 0.0006237403181867435
618.0, 0.0001606405877614666
619.0, 0.000500389613500124
620.0, 0.0004499457612944664
621.0, 0.00028601359685886854
622.0, 0.0005265785866232484
623.0, 0.0008819095211854349
624.0, 0.0010061225793042887
625.0, 0.0009548714415208827
626.0, 0.0006073790723412319
627.0, 0.0005399789318746313
628.0, 0.0004921558576694773
629.0, 0.0002093564026821738
630.0, 0.000744401690494191
631.0, 0.0011686202335569717
632.0, 0.0014211751500659976
633.0, 0.0012810794111405175
634.0, 0.001183961675153925
635.0, 0.0015334954233516018
636.0, 0.0019197534501201106
637.0, 0.0015735960448547352
638.0, 0.0016012157680732552
639.0, 0.0016596194408394303
640.0, 0.0015842964124324085
641.0, 0.0016012642392523241
642.0, 0.0018702023858447239
643.0, 0.0018152673565736265
644.0, 0.0018808326638874236
645.0, 0.0018411842932879318
646.0, 0.0022530777191603294
647.0, 0.0024984697559905468
648.0, 0.0017702952642080698
649.0, 0.0012867755103505667
650.0, 0.0013753687287981929
651.0, 0.002001477035497639
652.0, 0.002075489429000953
653.0, 0.0015749058361510502
654.0, 0.0012277399105488204
655.0, 0.001347781462712221
656.0, 0.0010193441918647252
657.0, 0.001509836714374815
658.0, 0.001949698046313942
659.0, 0.0016272744292801574
660.0, 0.0012497445016450316
661.0, 0.0016367483244328913
662.0, 0.0015729493682855903
663.0, 0.001166967327962476
664.0, 0.0012235815175571673
665.0, 0.0014867910278133867
666.0, 0.0013944748678909483
667.0, 0.0009246041615824076
668.0, 0.0006288691643620244
669.0, 0.0012218608523663478
670.0, 0.0014261871490622818
671.0, 0.001431764699287656
672.0, 0.001296067712067677
673.0, 0.0011760935965637806
674.0, 0.0013289131512501061
675.0, 0.0011055700086549645
676.0, 0.0011173145759705001
677.0, 0.0006287375088394248
678.0, 0.0006776904638474315
679.0, 0.0011849319168007794
680.0, 0.0013066493012742447
681.0, 0.0015243319978812387
682.0, 0.0012920222287250674
683.0, 0.0005637475755069291
684.0, 0.00012859932460262
685.0, 0.0005505714237734509
686.0, 0.001290542084109913
687.0, 0.0010059302637041203
688.0, 0.0006060437728425754
689.0, 0.0012098232783198516
690.0, 0.0008336058801972983
691.0, 0.0003227565786710381
692.0, 0.0005553630097147992
693.0, 0.0010608426699611957
694.0, 0.0008620225689011391
695.0, 0.0007213378715057643
696.0, 0.0005107164839209638
697.0, 0.0003316676892459925
698.0, 0.0003234317100936959
699.0, 0.0004691114081475131
700.0, 0.0005311916651712119
701.0, 0.0003069922505603991
702.0, 0.00014841461504195436
703.0, 0.0001308313402835514
704.0, 0.0003675017176122878
705.0, 0.00040742755812678326
706.0, 0.0004176999802854204
707.0, 0.0004499347009005289
708.0, 0.0001463404315193248
709.0, 0.0002032333588507891
710.0, 0.00043870711447556074
711.0, 0.00031286556192202595
712.0, 0.00019325824974135582
713.0, 0.00029049001305169554
714.0, 0.0002506123268248058
715.0, 0.0006399765705542201
716.0, 0.0005467066060899686
717.0, 0.00043794773660236407
718.0, 0.0004136470385413405
719.0, 0.0006086282829698722
720.0, 0.0009420970181698157
721.0, 0.000850756754962681
722.0, 0.0005222247553314604
723.0, 0.00069084805835706
724.0, 0.0003550875760659721
725.0, 0.00018182117161140231
726.0, 0.0006066048662142174
727.0, 0.0009324225432838431
728.0, 0.0009450578968743052
729.0, 0.0009900782090229577
730.0, 0.0006803207902746195
731.0, 0.0009006114644747648
732.0, 0.001135222345462992
733.0, 0.0008153473491450105
734.0, 0.00035590391028444447
735.0, 0.0008158233456526605
736.0, 0.0011295458661415888
737.0, 0.000731595108469342
738.0, 0.0008155514422965041
739.0, 0.0012336555702456814
740.0, 0.0014472953351530005
741.0, 0.0013527208736946613
742.0, 0.0007655813813805799
743.0, 0.0005478470454558852
744.0, 0.0015266792471524105
745.0, 0.0012630596843953002
746.0, 0.0010611477408122795
747.0, 0.001447067740665007
748.0, 0.0013580724857037015
749.0, 0.0012792592719364918
750.0, 0.0012303229766429126
751.0, 0.0005035972129047846
752.0, 0.0005817093588218115
753.0, 0.00048225898251173614
754.0, 0.00038283092487639554
755.0, 0.001127051794579755
756.0, 0.001466265598449202
757.0, 0.001070784097236523
758.0, 0.00041010589336605736
759.0, 0.0003242270766841694
760.0, 0.0006893427100365258
761.0, 0.0011889990236892626
762.0, 0.0014510447323342088
763.0, 0.0010970471946764428
764.0, 0.0010269700446538543
765.0, 0.0011068559447987177
766.0, 0.0006654784213086398
767.0, 0.0006261952978815054
768.0, 0.0010842912835535203
769.0, 0.001184107705094696
770.0, 0.0008413428109427668
771.0, 0.00044926902973619254
772.0, 0.001386552018821811
773.0, 0.0010987251583490822
774.0, 0.0007085349563831407
775.0, 0.000752119672789408
776.0, 0.0006265667093981687
777.0, 0.00012881726819784591
778.0, 0.0002766164252547122
779.0, 0.0006525399424538894
780.0, 0.00016440918382099704
781.0, 0.00012478069099191831
782.0, 0.00018613089750720905
783.0, 0.00025986751821414423
784.0, 0.0009604544145033145
785.0, 0.0014445024134673685
786.0, 0.0008718433002394604
787.0, 0.000525701884385635
788.0, 0.0008613039159853487
789.0, 0.000903671575091143
790.0, 0.0006017376420304099
791.0, 0.0005835780052551559
792.0, 0.0008737455095803241
793.0, 0.00027356353083921655
794.0, 0.0006553558455983789
795.0, 0.0007886102315976776
796.0, 0.0006865222369373414
797.0, 0.0005995609620425148
798.0, 0.000397722014637891
799.0, 0.00021269655265725317
800.0, 0.0005297361751513894
801.0, 0.00045834851765229735
802.0, 0.0010076230790255168
803.0, 0.0007619748318088562
804.0, 0.00014198074993810602
805.0, 8.428003639215453e-05
806.0, 0.0004269038294337886
807.0, 0.0004810944682540875
808.0, 0.0003161886050142049
809.0, 0.0003743894936748169
810.0, 0.0005885619399136892
811.0, 0.0006482935601538413
812.0, 0.0005156515376606371
813.0, 0.000488656170507544
814.0, 0.0005794637463478449
815.0, 0.0004879381190288565
816.0, 0.00030164876414424566
817.0, 0.000257911534784837
818.0, 0.00031578629709780814
819.0, 0.00024847463943949093
820.0, 8.66902010682038e-05
821.0, 0.00011894193626316324
822.0, 0.00037320407914622584
823.0, 0.000501817395343611
824.0, 0.00042906225353966243
825.0, 0.00022699180779902313
826.0, 0.0001681045273591582
827.0, 0.00038632607587380506
828.0, 0.00030993093241944356
829.0, 2.773735753226164e-05
830.0, 0.00014274777468834717
831.0, 0.000353053226446627
832.0, 0.0006083872362570809
833.0, 0.00040495242977562533
834.0, 0.0005798982929986835
835.0, 0.0004351158299485112
836.0, 0.00024380042277591098
837.0, 0.00026733022356909285
838.0, 7.914773670595131e-05
839.0, 0.0001368815108479174
840.0, 0.0008043814209408344
841.0, 0.0005799688829807515
842.0, 9.840299679894654e-05
843.0, 3.912397804357645e-05
844.0, 0.0001078458659203863
845.0, 0.00015522242311390123
846.0, 0.00040314130667910164
847.0, 0.00042155544576594277
848.0, 0.0002729570695864961
849.0, 0.00024703129898867164
850.0, 0.00039136027635353976
851.0, 0.0004342518890906394
852.0, 0.00029711497299375687
853.0, 0.00019049637685154881
854.0, 0.00039191194541299403
855.0, 0.0007488447543999698
856.0, 0.000481559041828899
857.0, 0.0009465350193426816
858.0, 0.0006295545925852219
859.0, 0.0007573877048456869
860.0, 0.0007503515293902443
861.0, 0.00038860188775113744
862.0, 0.00018945637963854798
863.0, 6.0990871234203166e-05
864.0, 0.0004827395280108723
865.0, 0.0009317950596708645
866.0, 0.000588815915579291
867.0, 0.0001532202654205806
868.0, 0.0002222262216313499
869.0, 0.0005453361184570825
870.0, 0.00019359250268659116
871.0, 0.0005356949396389118
872.0, 0.0007419097440782021
873.0, 0.00010290437835993308
874.0, 0.00038020820628365806
875.0, 0.0007827456234887335
876.0, 0.0007175861204908077
877.0, 0.0004255011222307297
878.0, 0.000422026122996182
879.0, 0.0006820373589661106
880.0, 0.0006088323372393023
881.0, 0.0008670721076721577
882.0, 0.0005054027937694588
883.0, 0.00035444878000784303
884.0, 0.00034338636251980285
885.0, 0.00028664743151160624
886.0, 0.00046076637971676794
887.0, 0.0005424713528136793
888.0, 0.00014402652745465383
889.0, 0.000645491791162397
890.0, 0.00010356478058268474
891.0, 0.0001307873019693427
892.0, 0.000648619659939454
893.0, 0.0007051073624663782
894.0, 0.00044637033883456465
895.0, 0.0005099702530153119
896.0, 0.0005940901282735623
897.0, 0.00014693097618795987
898.0, 0.00038867433330040663
899.0, 0.00023413993180494472
900.0, 0.00019915796311636546
901.0, 0.0005859832253665077
902.0, 0.0005699220052293561
903.0, 0.0001856930525284947
904.0, 0.0001223544728112912
905.0, 0.0006078645678928088
906.0, 0.0008112616093306007
907.0, 4.6518616917727736e-05
908.0, 0.0007207215454402916
909.0, 0.000680981908590113
910.0, 0.0007785289134217281
911.0, 0.000395207754642715
912.0, 0.00040801650321538384
913.0, 0.0008011798478172605
914.0, 0.0004666812893434884
915.0, 0.00041770542504382434
916.0, 0.0006949404599588652
917.0, 0.0005175849661163198
918.0, 0.00030473043257341775
919.0, 0.0007453671241996841
920.0, 0.000784988549605452
921.0, 0.000582415176390658
922.0, 0.00040031537917185417
923.0, 7.443941428262127e-05
924.0, 0.00032343213373292346
925.0, 0.0004670723025451799
926.0, 0.00044684582959243904
927.0, 0.0004951475903830035
928.0, 0.0006026596863696337
929.0, 0.0003752361782805574
930.0, 0.0004680512498574544
931.0, 0.00034812299336496664
932.0, 7.662371177274459e-05
933.0, 0.00048263954508847185
934.0, 0.0003462229945166626
935.0, 0.0003562044424843336
936.0, 0.0008400022399442603
937.0, 0.0004374823252061483
938.0, 0.0002111025236535824
939.0, 0.00017450117483820213
940.0, 0.00012888401001904374
941.0, 0.00031932903471327493
942.0, 0.0004509850022880376
943.0, 0.00010622997610873486
944.0, 0.0005090972855470585
945.0, 0.000615279303590916
946.0, 0.0007323564131839121
947.0, 0.0005702907431437387
948.0, 0.0004948079799418243
949.0, 0.0004935752671220873
950.0, 0.0006000451350393931
951.0, 0.0005956392455986015
952.0, 4.282320269104445e-05
953.0, 0.00014980319059407156
954.0, 0.0005491936759038381
955.0, 0.0001066789964168198
956.0, 0.00032697544851509563
957.0, 0.0003817374862657073
958.0, 0.00023028721577950483
959.0, 0.00011301411980722698
960.0, 2.242063430486843e-05
961.0, 0.0003771839253593594
962.0, 0.0008785698980103929
963.0, 0.0007070554694148046
964.0, 0.000652841101655649
965.0, 0.00013610802443443114
966.0, 0.00029762540143977165
967.0, 0.0005677299610288381
968.0, 0.0003236353670052696
969.0, 0.00014668134692591658
970.0, 0.00013461527188004564
971.0, 8.219654458003395e-05
972.0, 0.0004438769342846309
973.0, 0.0005127123575431482
974.0, 0.0003753461132417129
975.0, 0.00015208348405197994
976.0, 0.0003770163001745252
977.0, 0.0005407029541016998
978.0, 0.0005145878854801036
979.0, 0.0003930468858255948
980.0, 0.00022190269820735028
981.0, 0.0002062400227541441
982.0, 0.00036542013606922954
983.0, 0.000516622752888112
984.0, 0.000376936939458585
985.0, 0.00018682841278985524
986.0, 0.00019198084513221032
987.0, 0.0008074822778662448
988.0, 0.0005778820565299216
989.0, 0.0001611441991234159
990.0, 0.00042880939634351903
991.0, 0.0003404745855014746
992.0, 0.00044168557838857606
993.0, 0.0003900885826039092
994.0, 0.0007791427035663405
995.0, 0.00017127342634511223
996.0, 0.000605250300000167
997.0, 0.00046615650550888623
998.0, 0.00046813225053283315
999.0, 0.0005270601665077517
1000.0, 0.00048191278254190164
1001.0, 0.00058426593695628
1002.0, 0.00028234015422720334
1003.0, 0.0003113513086573323
1004.0, 0.0006392911953124502
1005.0, 6.133301193254349e-05
1006.0, 1.6118414143847807e-05
1007.0, 3.4045060728065734e-05
1008.0, 0.00018142335091106242
1009.0, 0.00023272290253373515
1010.0, 0.0004075359208408319
1011.0, 0.0007324506725707429
1012.0, 0.0007947740592000033
1013.0, 0.000658861488165278
1014.0, 0.00019290504370263545
1015.0, 0.0005223816618924466
1016.0, 0.0008992415284436829
1017.0, 0.00023772575075111692
1018.0, 0.00028575013853051777
1019.0, 0.00024152553514853118
1020.0, 0.00030492470718251457
1021.0, 0.0004789966935909188
1022.0, 0.00022976802866327622
1023.0, 0.0004670522240571061
1024.0, 0.0009089419747136826
1025.0, 0.0003896513006107769
1026.0, 0.000613399418033968
1027.0, 0.0002548026286041293
1028.0, 0.00024860177075242677
1029.0, 0.0005601586178798256
1030.0, 0.0008202522421244557
1031.0, 0.0004894148492998001
1032.0, 0.0001971889489743319
1033.0, 0.00026293621766285076
1034.0, 0.00013458287919973012
1035.0, 0.0007095178289837286
1036.0, 0.0005909845641614402
1037.0, 0.0009123230877516733
1038.0, 0.0006005712184452866
1039.0, 0.0001583351956167445
1040.0, 0.0003043936043292955
1041.0, 0.0006588146060535802
1042.0, 0.0007003370428550445
1043.0, 0.0008605199346353976
1044.0, 0.0006699050197924684
1045.0, 0.00026736850803822394
1046.0, 0.0007250631809383615
1047.0, 0.0008912749836577162
1048.0, 0.00022229588608544377
1049.0, 0.0003715585314388398
1050.0, 0.00014423301229406031
1051.0, 0.0006025368348094912
1052.0, 0.0005376649021023597
1053.0, 0.00024947474740135236
1054.0, 0.0003236329037647762
1055.0, 0.000649326234178803
1056.0, 0.0005261369038116068
1057.0, 0.0003359261481016752
1058.0, 0.0009466013581264506
1059.0, 0.0011144085690639734
1060.0, 0.0009764360329399794
1061.0, 0.0007824545970751182
1062.0, 0.0007271908150815421
1063.0, 0.00023311845268409953
1064.0, 0.0004685928057625412
1065.0, 0.0006062622568742834
1066.0, 0.0006998571190277849
1067.0, 0.0007108487679558682
1068.0, 0.00041230726730244417
1069.0, 0.0004585369204911706
1070.0, 0.0007703128390183676
1071.0, 0.0006561577027350865
1072.0, 0.0005302376070566937
1073.0, 4.262744425400504e-05
1074.0, 0.0001844071175786741
1075.0, 0.0004989676696459616
1076.0, 0.000565305819613521
1077.0, 0.00028707211253366786
1078.0, 0.0005657298512760988
1079.0, 0.0003670917458583562
1080.0, 0.00014928760595221645
1081.0, 0.00025785531433189355
1082.0, 0.00042567161624053665
1083.0, 0.00010799922938968717
1084.0, 2.9901508481531488e-05
1085.0, 0.0004961528745742011
1086.0, 0.00028676168634733375
1087.0, 0.0007507759000801137
1088.0, 0.00025096085401722965
1089.0, 0.0007834725067146107
1090.0, 0.0009536746020738106
1091.0, 0.0006099142512514148
1092.0, 0.0004300213635938919
1093.0, 0.00043058718064995465
1094.0, 0.000552363697240941
1095.0, 0.00039153777266779906
1096.0, 0.00028375094670854217
1097.0, 0.0005942588024873808
1098.0, 0.0009026390041287591
1099.0, 0.0004731822504950818
1100.0, 0.00044459483754293527
1101.0, 0.00104353154794812
1102.0, 0.0006780804162170551
1103.0, 0.0014098143762419032
1104.0, 0.0013071460815960718
1105.0, 0.001160328152970427
1106.0, 0.0013039542686647978
1107.0, 0.0002545667094083865
1108.0, 0.00043496635806212163
1109.0, 0.0004584365079135666
1110.0, 0.0003694445374114321
1111.0, 0.0010198310838586244
1112.0, 0.0004559928426588198
1113.0, 0.00039971795370570323
1114.0, 0.00044324092011206127
1115.0, 0.0004470086037749289
1116.0, 0.0003699021148670037
1117.0, 0.0003336541843209813
1118.0, 0.00037268644757476165
1119.0, 0.0006637298911332931
1120.0, 0.0009113785101178141
1121.0, 0.0006222740829734548
1122.0, 0.0003329875029974108
1123.0, 0.0002516766494520994
1124.0, 0.0007455777821590299
1125.0, 0.0004025864577469059
1126.0, 0.0007337705221253446
1127.0, 0.00048436034442096487
1128.0, 0.0007672409876244487
1129.0, 0.0005867663717544255
1130.0, 0.0004289223965347808
1131.0, 0.00023266166326739497
1132.0, 0.0004481107174135568
1133.0, 0.0009226029084625727
1134.0, 0.0006928474017409642
1135.0, 0.0004211631837929326
1136.0, 0.0006856807721827686
1137.0, 0.0006467305606911554
1138.0, 0.0003207129671622353
1139.0, 0.00041775575152347194
1140.0, 0.000611156377203368
1141.0, 0.00011180689675082344
1142.0, 0.00030217245417290585
1143.0, 0.0004342211986468264
1144.0, 0.0004668053259716755
1145.0, 0.0006629688582836476
1146.0, 0.0005438348099940994
1147.0, 0.0006180500337937181
1148.0, 0.0007553107829361006
1149.0, 0.00037308665854011704
1150.0, 0.0001840023807621723
1151.0, 0.00010075859584002668
1152.0, 0.0009922925686986536
1153.0, 0.0007509269490009625
1154.0, 0.0003050622819717765
1155.0, 0.00014974606615120696
1156.0, 0.00016084511343957036
1157.0, 4.3340023544132364e-05
1158.0, 0.00022337868550639504
1159.0, 0.0001325851427884505
1160.0, 0.000565775359888462
1161.0, 0.0004517593050492657
1162.0, 0.000317311951243922
1163.0, 0.0004020897324728825
1164.0, 0.000398941903929594
1165.0, 0.0002002013994014085
1166.0, 3.446293359715726e-05
1167.0, 0.0008005488122795501
1168.0, 0.0006198394380270333
1169.0, 0.00037172370579758137
1170.0, 0.00018074811706432622
1171.0, 0.0005944962203406414
1172.0, 0.0005882191481923199
1173.0, 0.0005096356258450644
1174.0, 0.0003934968318513846
1175.0, 0.0005612780206105526
1176.0, 0.0022471573959387094
1177.0, 0.0052397258980880716
1178.0, 0.003957945013254624
1179.0, 0.0006686808044780094
1180.0, 0.0002878781005835453
1181.0, 0.00045437881268895153
1182.0, 0.0002785815333452575
1183.0, 0.0006068639905473772
1184.0, 0.0007267079245985212
1185.0, 0.0005121506513365514
1186.0, 0.0005694761032047226
1187.0, 0.0007020159311155974
1188.0, 0.0007465032244260833
1189.0, 0.0006296481186191527
1190.0, 0.0004373733493405428
1191.0, 0.0003515601491844549
1192.0, 0.00023391774397287215
1193.0, 0.00019516106101108058
1194.0, 0.00038174423143385217
1195.0, 0.00029064213632430403
1196.0, 0.0001169656175144605
1197.0, 0.00022537043560826077
1198.0, 0.0002572411617039112
1199.0, 0.00038533802840912216
1200.0, 0.00028350825072382925
1201.0, 0.001568055301961627
1202.0, 0.006063649709635487
1203.0, 0.002855061546300848
1204.0, 0.0008438209920393137
1205.0, 0.00020767243006208715
1206.0, 0.00019578719456601011
1207.0, 0.0005825563713204526
1208.0, 0.0009608458922703199
1209.0, 0.0010403643438042097
1210.0, 0.0004282286896403449
1211.0, 0.00020646290218852273
1212.0, 0.00010541965467506312
1213.0, 0.00023422876179278197
1214.0, 0.0004789402016134392
1215.0, 0.0003060532066698639
1216.0, 0.00048122718868954145
1217.0, 0.0006349607030514206
1218.0, 0.0004972169209319256
1219.0, 0.0007360380677232215
1220.0, 0.0005250324479631813
1221.0, 0.00020370752176709944
1222.0, 0.0012918446654116773
1223.0, 0.007039922204584218
1224.0, 0.007698062238353226
1225.0, 0.00202168481827487
1226.0, 0.0007572611196270652
1227.0, 0.0007042581515412643
1228.0, 0.0003321811540069503
1229.0, 0.00046804955486942157
1230.0, 0.0008839305317149257
1231.0, 0.00033514175958969665
1232.0, 1.353577755450056e-05
1233.0, 0.0023831601384925686
1234.0, 0.005567313830417404
1235.0, 0.00446099283098113
1236.0, 0.0006768589431687783
1237.0, 6.80531614627098e-05
1238.0, 0.0002615102439852813
1239.0, 0.000817247918394838
1240.0, 0.0004141397896418325
1241.0, 0.0005741353042147282
1242.0, 0.00034462229163541254
1243.0, 0.00021420863179636075
1244.0, 0.0007837513605231278
1245.0, 0.00031886830596980704
1246.0, 0.0006217178192982045
1247.0, 0.00048776177187468924
1248.0, 0.00030178376928494864
1249.0, 0.0007959400475410184
1250.0, 0.0003396187108146002
1251.0, 0.0005503244899967873
1252.0, 0.0005743358546700396
1253.0, 0.00023990710281012498
1254.0, 0.00030498096134398803
1255.0, 0.00035727460461299756
1256.0, 0.00011407344226624533
1257.0, 1.952741008741294e-05
1258.0, 0.0002744272141892647
1259.0, 0.000885685936951977
1260.0, 0.0010630413605311234
1261.0, 0.000744499604704799
1262.0, 0.0010836277399215819
1263.0, 0.00040879491531971626
1264.0, 1.2137888775299552e-06
1265, 0.0
1266, 0.0
1267, 0.0
1268, 0.0
1269, 0.0
1270, 0.0
1271, 0.0
1272, 0.0
1273, 0.0
1274, 0.0
1275, 0.0
1276, 0.0
1277, 0.0
1278, 0.0
1279, 0.0
1280, 0.0
1281, 0.0
1282, 0.0
1283, 0.0
1284, 0.0
1285, 0.0
1286, 0.0
1287, 0.0
1288, 0.0
1289, 0.0
1290, 0.0
1291, 0.0
1292, 0.0
1293, 0.0
1294, 0.0
1295, 0.0
1296, 0.0
1297, 0.0
1298, 0.0
1299, 0.0
1300, 0.0
1301, 0.0
1302, 0.0
1303, 0.0
1304, 0.0
1305, 0.0
1306, 0.0
1307, 0.0
1308, 0.0
1309, 0.0
1310, 0.0
1311, 0.0
1312, 0.0
1313, 0.0
1314, 0.0
1315, 0.0
1316, 0.0
1317, 0.0
1318, 0.0
1319, 0.0
1320, 0.0
1321, 0.0
1322, 0.0
1323, 0.0
1324, 0.0
1325, 0.0
1326, 0.0
1327, 0.0
1328, 0.0
1329, 0.0
1330, 0.0
1331, 0.0
1332, 0.0
1333, 0.0
1334, 0.0
1335, 0.0
1336, 0.0
1337, 0.0
1338, 0.0
1339, 0.0
1340, 0.0
1341, 0.0
1342, 0.0
1343, 0.0
1344, 0.0
1345, 0.0
1346, 0.0
1347, 0.0
1348, 0.0
1349, 0.0
1350, 0.0
1351, 0.0
1352, 0.0
1353, 0.0
1354, 0.0
1355, 0.0
1356, 0.0
1357, 0.0
1358, 0.0
1359, 0.0
1360, 0.0
1361, 0.0
1362, 0.0
1363, 0.0
1364, 0.0
1365, 0.0
1366, 0.0
1367, 0.0
1368, 0.0
1369, 0.0
1370, 0.0
1371, 0.0
1372, 0.0
1373, 0.0
1374, 0.0
1375, 0.0
1376, 0.0
1377, 0.0
1378, 0.0
1379, 0.0
1380, 0.0
1381, 0.0
1382, 0.0
1383, 0.0
1384, 0.0
1385, 0.0
1386, 0.0
1387, 0.0
1388, 0.0
1389, 0.0
1390, 0.0
1391, 0.0
1392, 0.0
1393, 0.0
1394, 0.0
1395, 0.0
1396, 0.0
1397, 0.0
1398, 0.0
1399, 0.0
1400, 0.0
1401, 0.0
1402, 0.0
1403, 0.0
1404, 0.0
1405, 0.0
1406, 0.0
1407, 0.0
1408, 0.0
1409, 0.0
1410, 0.0
1411, 0.0
1412, 0.0
1413, 0.0
1414, 0.0
1415, 0.0
1416, 0.0
1417, 0.0
1418, 0.0
1419, 0.0
1420, 0.0
1421, 0.0
1422, 0.0
1423, 0.0
1424, 0.0
1425, 0.0
1426, 0.0
1427, 0.0
1428, 0.0
1429, 0.0
1430, 0.0
1431, 0.0
1432, 0.0
1433, 0.0
1434, 0.0
1435, 0.0
1436, 0.0
1437, 0.0
1438, 0.0
1439, 0.0
1440, 0.0
1441, 0.0
1442, 0.0
1443, 0.0
1444, 0.0
1445, 0.0
1446, 0.0
1447, 0.0
1448, 0.0
1449, 0.0
1450, 0.0
1451, 0.0
1452, 0.0
1453, 0.0
1454, 0.0
1455, 0.0
1456, 0.0
1457, 0.0
1458, 0.0
1459, 0.0
1460, 0.0
1461, 0.0
1462, 0.0
1463, 0.0
1464, 0.0
1465, 0.0
1466, 0.0
1467, 0.0
1468, 0.0
1469, 0.0
1470, 0.0
1471, 0.0
1472, 0.0
1473, 0.0
1474, 0.0
1475, 0.0
1476, 0.0
1477, 0.0
1478, 0.0
1479, 0.0
1480, 0.0
1481, 0.0
1482, 0.0
1483, 0.0
1484, 0.0
1485, 0.0
1486, 0.0
1487, 0.0
1488, 0.0
1489, 0.0
1490, 0.0
1491, 0.0
1492, 0.0
1493, 0.0
1494, 0.0
1495, 0.0
1496, 0.0
1497, 0.0
1498, 0.0
1499, 0.0
1500, 0.0
1501, 0.0
1502, 0.0
1503, 0.0
1504, 0.0
1505, 0.0
1506, 0.0
1507, 0.0
1508, 0.0
1509, 0.0
1510, 0.0
1511, 0.0
1512, 0.0
1513, 0.0
1514, 0.0
1515, 0.0
1516, 0.0
1517, 0.0
1518, 0.0
1519, 0.0
1520, 0.0
1521, 0.0
1522, 0.0
1523, 0.0
1524, 0.0
1525, 0.0
1526, 0.0
1527, 0.0
1528, 0.0
1529, 0.0
1530, 0.0
1531, 0.0
1532, 0.0
1533, 0.0
1534, 0.0
1535, 0.0
1536, 0.0
1537, 0.0
1538, 0.0
1539, 0.0
1540, 0.0
1541, 0.0
1542, 0.0
1543, 0.0
1544, 0.0
1545, 0.0
1546, 0.0
1547, 0.0
1548, 0.0
1549, 0.0
1550, 0.0
1551, 0.0
1552, 0.0
1553, 0.0
1554, 0.0
1555, 0.0
1556, 0.0
1557, 0.0
1558, 0.0
1559, 0.0
1560, 0.0
1561, 0.0
1562, 0.0
1563, 0.0
1564, 0.0
1565, 0.0
1566, 0.0
1567, 0.0
1568, 0.0
1569, 0.0
1570, 0.0
1571, 0.0
1572, 0.0
1573, 0.0
1574, 0.0
1575, 0.0
1576, 0.0
1577, 0.0
1578, 0.0
1579, 0.0
1580, 0.0
1581, 0.0
1582, 0.0
1583, 0.0
1584, 0.0
1585, 0.0
1586, 0.0
1587, 0.0
1588, 0.0
1589, 0.0
1590, 0.0
1591, 0.0
1592, 0.0
1593, 0.0
1594, 0.0
1595, 0.0
1596, 0.0
1597, 0.0
1598, 0.0
1599, 0.0
