30, 0.0
31, 0.0
32, 0.0
33, 0.0
34, 0.0
35, 0.0
36, 0.0
37, 0.0
38, 0.0
39, 0.0
40, 0.0
41, 0.0
42, 0.0
43, 0.0
44, 0.0
45, 0.0
46, 0.0
47, 0.0
48, 0.0
49, 0.0
50, 0.0
51, 0.0
52, 0.0
53, 0.0
54, 0.0
55, 0.0
56, 0.0
57, 0.0
58, 0.0
59, 0.0
60, 0.0
61, 0.0
62, 0.0
63, 0.0
64, 0.0
65, 0.0
66, 0.0
67, 0.0
68, 0.0
69, 0.0
70, 0.0
71, 0.0
72, 0.0
73, 0.0
74, 0.0
75, 0.0
76, 0.0
77, 0.0
78, 0.0
79, 0.0
80, 0.0
81, 0.0
82, 0.0
83, 0.0
84, 0.0
85, 0.0
86, 0.0
87, 0.0
88, 0.0
89, 0.0
90.0, 0.00022581421825747147
91.0, 0.0010971936641398046
92.0, 0.005730816404894056
93.0, 0.006019256978511903
94.0, 0.007161459260178692
95.0, 0.008810359032281513
96.0, 0.009643412778571472
97.0, 0.011149030161564915
98.0, 0.011010970928578686
99.0, 0.010498612486724361
100.0, 0.008847091243150215
101.0, 0.003100182872666211
102.0, 0.0030302208063172757
103.0, 0.006326279634938541
104.0, 0.011146933721020673
105.0, 0.017525578797638625
106.0, 0.026151727031009462
107.0, 0.035752647174291025
108.0, 0.04366148889385766
109.0, 0.04850238752143778
110.0, 0.05682847956272023
111.0, 0.0636907622633617
112.0, 0.06937494708554563
113.0, 0.07477212924944415
114.0, 0.0794285249367328
115.0, 0.08348944910754948
116.0, 0.0854943735416725
117.0, 0.08519286054438972
118.0, 0.08340471718537767
119.0, 0.08193725442145804
120.0, 0.07917508661610495
121.0, 0.07542528681038621
122.0, 0.07281787365000988
123.0, 0.07016297267036536
124.0, 0.06591423023754503
125.0, 0.060655915449119475
126.0, 0.055083506855313505
127.0, 0.05014915686587619
128.0, 0.04564056351141013
129.0, 0.04131920911060573
130.0, 0.03671730556592102
131.0, 0.03157615523739613
132.0, 0.025642298264779675
133.0, 0.020567566361837052
134.0, 0.017101799368506573
135.0, 0.014313424466684637
136.0, 0.011816943304073808
137.0, 0.00999128472499343
138.0, 0.00874840109472922
139.0, 0.0076546095597652564
140.0, 0.007012222447919751
141.0, 0.005321315322571333
142.0, 0.003292934519896202
143.0, 0.002043826767115574
144.0, 0.0007179698681568097
145.0, 0.0004090983345437119
146.0, 0.00024670173761181846
147.0, 0.0012410779248608489
148.0, 0.0023988884492909496
149.0, 0.002580966838889646
150.0, 0.002505781909442655
151.0, 0.0024827303444990415
152.0, 0.0022884559705307205
153.0, 0.002679696362402149
154.0, 0.0030711004288965955
155.0, 0.0033157316046216944
156.0, 0.0035146944894316858
157.0, 0.0040635877541542395
158.0, 0.0031914538691798972
159.0, 0.00318783547950355
160.0, 0.0041934635850741754
161.0, 0.002170212486669464
162.0, 0.0012244991911717065
163.0, 0.001428851493756029
164.0, 0.0015742442630917617
165.0, 0.0004920943537270476
166.0, 0.0010015317370884367
167.0, 0.0013590285441434295
168.0, 0.0017352571278015198
169.0, 0.0033560314789151504
170.0, 0.004880703370660768
171.0, 0.00647211521072184
172.0, 0.007936043518168064
173.0, 0.009630453888346083
174.0, 0.012319550258455235
175.0, 0.013814936086632425
176.0, 0.015652254775822532
177.0, 0.017913044930373358
178.0, 0.019742929677524067
179.0, 0.022199519100199547
180.0, 0.024564394828050885
181.0, 0.027469891491706692
182.0, 0.031398551220629484
183.0, 0.03543975724125031
184.0, 0.03833865894819861
185.0, 0.0417079965238113
186.0, 0.04639555860716573
187.0, 0.05162002408581074
188.0, 0.05635488134826747
189.0, 0.06239785361179331
190.0, 0.06997342179929153
191.0, 0.07842244290772714
192.0, 0.08746431493445903
193.0, 0.09469596370201301
194.0, 0.10331457834612677
195.0, 0.11509057777585688
196.0, 0.12757787644631752
197.0, 0.13965590183362334
198.0, 0.15220131812851867
199.0, 0.16610894341501709
200.0, 0.18131301398472977
201.0, 0.19635981085542112
202.0, 0.21276608336145636
203.0, 0.23133619798949387
204.0, 0.2516808575599931
205.0, 0.27244983315207677
206.0, 0.2903980726903639
207.0, 0.3113344856739814
208.0, 0.33295245007193935
209.0, 0.34698262196075325
210.0, 0.3579360904797821
211.0, 0.36219348439388344
212.0, 0.35890751547094013
213.0, 0.34813774952136933
214.0, 0.32844627051711045
215.0, 0.3038614014894939
216.0, 0.27705670752257655
217.0, 0.2486754220537116
218.0, 0.21789572930614604
219.0, 0.18899276583786773
220.0, 0.16426584476954587
221.0, 0.14287912470751338
222.0, 0.12404290091206396
223.0, 0.10849649197806797
224.0, 0.09508774472986867
225.0, 0.08287091861305383
226.0, 0.07270697412923034
227.0, 0.06633852660166976
228.0, 0.06019089067520957
229.0, 0.05585633165031615
230.0, 0.05277162193252094
231.0, 0.05016673251104815
232.0, 0.049627260059087346
233.0, 0.05143669848766086
234.0, 0.05380108214368629
235.0, 0.05650610169555107
236.0, 0.06105573651759113
237.0, 0.07024744384589189
238.0, 0.07787763742419146
239.0, 0.08590575267848026
240.0, 0.0975538472052488
241.0, 0.11112581404966153
242.0, 0.12474591399674394
243.0, 0.1398261735447985
244.0, 0.1577301629225088
245.0, 0.17894100893606021
246.0, 0.20120989931157562
247.0, 0.22738068544000126
248.0, 0.2565504128822483
249.0, 0.2880873789781942
250.0, 0.32524145090751416
251.0, 0.36707473150466957
252.0, 0.4073305079920877
253.0, 0.44532398233576337
254.0, 0.4822866710213727
255.0, 0.5107673229553035
256.0, 0.5266229347183624
257.0, 0.5269057734955205
258.0, 0.5125089857350859
259.0, 0.48814756313478846
260.0, 0.45972866114450883
261.0, 0.43130549580074107
262.0, 0.40721125852123863
263.0, 0.3903150636658006
264.0, 0.3759910710983397
265.0, 0.3681927947808264
266.0, 0.3615268364359248
267.0, 0.3529421814410321
268.0, 0.3429563027118055
269.0, 0.3259844322912033
270.0, 0.3071519591982823
271.0, 0.2856073698713988
272.0, 0.25999305361602215
273.0, 0.23387418111427885
274.0, 0.2084204060678454
275.0, 0.18414186062201404
276.0, 0.16189092166333136
277.0, 0.14241935703433792
278.0, 0.12516665951653094
279.0, 0.11064891172869028
280.0, 0.09717029986348003
281.0, 0.08428710219444525
282.0, 0.07354697798951054
283.0, 0.06475086820716584
284.0, 0.05706308098450643
285.0, 0.0508637728170994
286.0, 0.0462536970080984
287.0, 0.04094495285546281
288.0, 0.035502230539037775
289.0, 0.031743076359009775
290.0, 0.029072903761811368
291.0, 0.02569734059423199
292.0, 0.023692832492253325
293.0, 0.021157399167258416
294.0, 0.01893275768339189
295.0, 0.017478578346101347
296.0, 0.015889919859794235
297.0, 0.015881258643943335
298.0, 0.014758858413603856
299.0, 0.013326671705006251
300.0, 0.013270215128381245
301.0, 0.014417878264601143
302.0, 0.013968766442701624
303.0, 0.013229989249046144
304.0, 0.01278674435784399
305.0, 0.012448039436153982
306.0, 0.01276752020021308
307.0, 0.014719634451452947
308.0, 0.01526238521326991
309.0, 0.013984424737018476
310.0, 0.013241350956528338
311.0, 0.012228071092981263
312.0, 0.010978548407201194
313.0, 0.008909439507808736
314.0, 0.006242180024232622
315.0, 0.0046017221135692095
316.0, 0.0022721328078107853
317.0, 0.0003828571688477892
318.0, 0.0014701799851054693
319.0, 0.0022151021533842017
320.0, 0.00410459547873184
321.0, 0.0048562342401526435
322.0, 0.00437350117148912
323.0, 0.004179321032705353
324.0, 0.005239247712546229
325.0, 0.004322206436537302
326.0, 0.0040007246069012625
327.0, 0.0037842689678916843
328.0, 0.00331088060372219
329.0, 0.002928092696054311
330.0, 0.0029686627121614123
331.0, 0.0025131623770032574
332.0, 0.0018631734240305315
333.0, 0.0014385223512951265
334.0, 0.0011272152473449572
335.0, 0.00035132771544843126
336.0, 0.00012024381774030385
337.0, 0.00023989190432182331
338.0, 0.0011074748608734463
339.0, 0.001343293923422021
340.0, 0.0019592955958865847
341.0, 0.002384134171735288
342.0, 0.003010337591728126
343.0, 0.00418648613005027
344.0, 0.004321099639427129
345.0, 0.004558387543617828
346.0, 0.0050251817989039995
347.0, 0.005691521913736418
348.0, 0.006506495617227637
349.0, 0.007093468989828061
350.0, 0.007909605946802381
351.0, 0.008817712404248309
352.0, 0.010650974574623343
353.0, 0.01377836187678021
354.0, 0.012632586711945386
355.0, 0.0127227353318377
356.0, 0.01427196976737037
357.0, 0.016214388477262174
358.0, 0.01802958427399839
359.0, 0.01940514572794452
360.0, 0.021597125230139177
361.0, 0.024410912730898283
362.0, 0.027415828914509405
363.0, 0.03074892056939118
364.0, 0.03466689185218136
365.0, 0.038816668894769875
366.0, 0.043714273466276404
367.0, 0.04989066316954724
368.0, 0.057508849484608285
369.0, 0.06454751591747897
370.0, 0.07344618347185693
371.0, 0.08404610449442905
372.0, 0.09535496131530004
373.0, 0.10771557561492837
374.0, 0.12329912318044965
375.0, 0.14107001461365007
376.0, 0.16086867350572642
377.0, 0.18313503926808625
378.0, 0.20710015369796445
379.0, 0.23291550893720694
380.0, 0.2629973645902793
381.0, 0.29696574553830324
382.0, 0.3333737245521524
383.0, 0.3743023315239524
384.0, 0.42048735723614533
385.0, 0.4717206310388887
386.0, 0.5273474492991939
387.0, 0.5877424076242213
388.0, 0.6544056547487441
389.0, 0.7240917589345627
390.0, 0.796209660899594
391.0, 0.864575121793129
392.0, 0.9216544067965116
393.0, 0.9641561352580968
394.0, 0.9938777248212993
395.0, 0.9980726215686092
396.0, 0.9733370955863826
397.0, 0.9235760518145671
398.0, 0.8619795739241354
399.0, 0.7902394089095892
400.0, 0.7140838148806755
401.0, 0.6381240917054161
402.0, 0.5663097032758663
403.0, 0.5003795291981923
404.0, 0.4427573982558217
405.0, 0.3919037102379419
406.0, 0.34700645398052005
407.0, 0.30837062164979057
408.0, 0.2772508839128
409.0, 0.24754419244280726
410.0, 0.22140758082202977
411.0, 0.19928807850260957
412.0, 0.18001265097451133
413.0, 0.16406013691207902
414.0, 0.14957965239188456
415.0, 0.1367611524024771
416.0, 0.1253101244866353
417.0, 0.114695390527254
418.0, 0.10526349986415184
419.0, 0.09634800377679867
420.0, 0.08829106679312472
421.0, 0.08083292434713975
422.0, 0.07399625080474971
423.0, 0.06914509408652061
424.0, 0.06339008320278043
425.0, 0.05686838547081821
426.0, 0.05156765982785217
427.0, 0.04819321228988233
428.0, 0.043775045172166245
429.0, 0.039535348389032235
430.0, 0.0351003554622147
431.0, 0.030749495425039935
432.0, 0.027158055131583342
433.0, 0.024465026778847525
434.0, 0.020785686149335323
435.0, 0.018934428209153392
436.0, 0.017162175629185206
437.0, 0.014221287466790394
438.0, 0.01205558839509776
439.0, 0.010532747919443801
440.0, 0.008132989582241765
441.0, 0.006351466389290517
442.0, 0.005786018843637696
443.0, 0.004990018796050586
444.0, 0.0037305253354914503
445.0, 0.0029615598662238456
446.0, 0.001713090009094234
447.0, 0.00012650816790768304
448.0, 0.0006303395088491134
449.0, 0.0011675804133572552
450.0, 0.001739205776222896
451.0, 0.001435938241130341
452.0, 0.0007537583563136184
453.0, 0.0008424833075266772
454.0, 0.0005951287402772157
455.0, 0.00013374503738344907
456.0, 0.0007256088133918649
457.0, 0.00137074688113453
458.0, 0.0014673349810830102
459.0, 0.002388393696249397
460.0, 0.0035499203559752742
461.0, 0.004775401703896226
462.0, 0.006186862115496226
463.0, 0.007795456637863001
464.0, 0.009617092704678837
465.0, 0.011224630449314989
466.0, 0.012702439240164294
467.0, 0.014549562506232853
468.0, 0.016796474363786985
469.0, 0.01885815892309528
470.0, 0.021173935607044364
471.0, 0.023828087118561606
472.0, 0.02599984012571865
473.0, 0.027949705600555222
474.0, 0.03062754042053192
475.0, 0.03309944082549362
476.0, 0.03593039196991083
477.0, 0.038789466116421395
478.0, 0.04151651283456301
479.0, 0.044001822080793555
480.0, 0.04588464776256081
481.0, 0.048661550145933256
482.0, 0.05054723475198012
483.0, 0.05157906294715188
484.0, 0.0523424943121274
485.0, 0.052306789770507366
486.0, 0.05080147317324046
487.0, 0.049673734120576137
488.0, 0.04811264260177396
489.0, 0.04528801988605388
490.0, 0.041392896837292574
491.0, 0.03789288651281687
492.0, 0.034473768998633136
493.0, 0.03114348547667114
494.0, 0.02736662118895123
495.0, 0.023360740611276857
496.0, 0.021431067015834058
497.0, 0.018812947523155814
498.0, 0.016136655644494652
499.0, 0.013220890825028272
500.0, 0.01024606957840255
501.0, 0.008853977371795621
502.0, 0.007136625971302093
503.0, 0.00555972853816807
504.0, 0.004122461856510564
505.0, 0.003082943568489924
506.0, 0.002756524004096164
507.0, 0.001729077575868508
508.0, 0.0007688554190726959
509.0, 0.00019648998861078752
510.0, 0.00014610410651842362
511.0, 0.0005123080354455859
512.0, 0.0007773008614454596
513.0, 0.0007974937255203397
514.0, 0.0012583647891210384
515.0, 0.0014264625935265138
516.0, 0.0011506547909699663
517.0, 0.0014908377528561603
518.0, 0.0009847400011866918
519.0, 0.0007446119722811219
520.0, 0.0002763908904316514
521.0, 0.00039225336812641375
522.0, 0.000929885679981085
523.0, 0.0031622816066880907
524.0, 0.003910984738253578
525.0, 0.004941886985817618
526.0, 0.00637980915836808
527.0, 0.007420098578225949
528.0, 0.008540272353050143
529.0, 0.011856351818972165
530.0, 0.013882253725396365
531.0, 0.01587518195726007
532.0, 0.01876299471864257
533.0, 0.021914245421325952
534.0, 0.024743553927818157
535.0, 0.02897607167354799
536.0, 0.03220981068292013
537.0, 0.03629451801773234
538.0, 0.04164244719334935
539.0, 0.04387976173908039
540.0, 0.04788796837943139
541.0, 0.05205471320747397
542.0, 0.05533806796553858
543.0, 0.05762378409276374
544.0, 0.059098695127486514
545.0, 0.05999421199169995
546.0, 0.058983088428179765
547.0, 0.056737273331531474
548.0, 0.05370903962886072
549.0, 0.04990630510984588
550.0, 0.04538140899182477
551.0, 0.04087126739595525
552.0, 0.03643780205535634
553.0, 0.03278463870023006
554.0, 0.029533436494219422
555.0, 0.025994172247609273
556.0, 0.023042200105782687
557.0, 0.020335381440086453
558.0, 0.018198460193919436
559.0, 0.016520773111159976
560.0, 0.014849441474195669
561.0, 0.013142589242111986
562.0, 0.012577211141757154
563.0, 0.011209927514134077
564.0, 0.009850190353925519
565.0, 0.008979734420519919
566.0, 0.008351456565904785
567.0, 0.007510172990587995
568.0, 0.0064107686865843795
569.0, 0.006533047474945928
570.0, 0.006602951370123379
571.0, 0.00563434473553034
572.0, 0.0043265909591241585
573.0, 0.004305977675666217
574.0, 0.004344363987402429
575.0, 0.0038229217785608837
576.0, 0.003488358147741008
577.0, 0.0035920904474777693
578.0, 0.003441359227141561
579.0, 0.0038901691305458694
580.0, 0.003507351498060214
581.0, 0.002852396598329368
582.0, 0.002767829539472648
583.0, 0.0033172018656483526
584.0, 0.0035276549626881534
585.0, 0.00281938919816462
586.0, 0.002720046643467512
587.0, 0.0035086060687223295
588.0, 0.004000186272049255
589.0, 0.003290111615218812
590.0, 0.0032595387059537887
591.0, 0.0028272818238954858
592.0, 0.0024461201586294954
593.0, 0.0024859316131392315
594.0, 0.0025516427357432166
595.0, 0.0021995634514300998
596.0, 0.002643409574532337
597.0, 0.0017125625867405424
598.0, 0.0014082482022864666
599.0, 0.0017516406751409246
600.0, 0.0016338622603722008
601.0, 0.0009259699718012701
602.0, 0.002159807461362997
603.0, 0.0020155546961972562
604.0, 0.001101840072177369
605.0, 0.0005536819190620233
606.0, 0.0004673921999057175
607.0, 0.0003199187356379657
608.0, 0.0004718617468209951
609.0, 0.0005180462003086706
610.0, 0.0008507608574560247
611.0, 0.00036517802562985535
612.0, 0.0002042179957343744
613.0, 1.8754766698064994e-05
614.0, 0.0003983998689215533
615.0, 0.0003803955070286897
616.0, 0.0002804934898210761
617.0, 0.0005715958447401557
618.0, 0.002363178220487151
619.0, 0.001282685846233912
620.0, 0.0010401141574925218
621.0, 0.0010082665295593918
622.0, 0.002234749012142516
623.0, 0.004390578862670586
624.0, 0.0005365266395811671
625.0, 0.00029488073976306414
626.0, 0.0001956096981001747
627.0, 0.0001763172471006429
628.0, 0.00019802961918897688
629.0, 0.00017890421102353555
630.0, 0.0001491980619726447
631.0, 0.00015157515854858153
632.0, 0.00014311115314640234
633.0, 0.0011399772291764405
634.0, 0.0010303388868190045
635.0, 0.00022353923789245837
636.0, 2.7357363979613833e-05
637.0, 0.0002932639851283747
638.0, 0.0001295796174137772
639.0, 0.00023872238625060154
640.0, 0.0003123448629325497
641.0, 0.00018208073520406377
642.0, 0.0006092172230131671
643.0, 0.0013371816124164823
644.0, 0.00034158231574708006
645.0, 0.00028099063184557684
646.0, 0.0008824554491810893
647.0, 0.0009230577929580342
648.0, 0.0007998705542718129
649.0, 0.0011896573191385426
650.0, 0.0007120635665147094
651.0, 0.0008017746901601546
652.0, 0.0014113734934078682
653.0, 0.0018347589901295204
654.0, 0.0018337973786481387
655.0, 0.0009233559640365246
656.0, 0.0010846458844408736
657.0, 0.0013145018754961255
658.0, 0.0009399167071505351
659.0, 0.0008073366474276645
660.0, 0.0018687663291938668
661.0, 0.0017545723837391661
662.0, 0.0019735729040646654
663.0, 0.002191983798240549
664.0, 0.002092231036436749
665.0, 0.001945060815086999
666.0, 0.002185211833193208
667.0, 0.002379238146960485
668.0, 0.0021150314092946176
669.0, 0.0015167746057274897
670.0, 0.0013529662520285256
671.0, 0.0015725093705144454
672.0, 0.0014228592781392402
673.0, 0.001651737544513117
674.0, 0.0012240468244467846
675.0, 0.0015167653569346056
676.0, 0.001933661559645743
677.0, 0.001995087728067814
678.0, 0.0018280421577918362
679.0, 0.0012206502326567214
680.0, 0.0011820451280156606
681.0, 0.0018658649190823869
682.0, 0.0021292076464640725
683.0, 0.002198385838197662
684.0, 0.0026293341919064314
685.0, 0.0023453911195221774
686.0, 0.002934972864416465
687.0, 0.003278268140602775
688.0, 0.003590893747079002
689.0, 0.00414495745303345
690.0, 0.004682621735508309
691.0, 0.004655490557433719
692.0, 0.004841412510106473
693.0, 0.0049190943167492
694.0, 0.004693508656892389
695.0, 0.004864186586280891
696.0, 0.005964881525997016
697.0, 0.00743530707422907
698.0, 0.007902282569855304
699.0, 0.007974908081046457
700.0, 0.008655865088563409
701.0, 0.009544382909282913
702.0, 0.009878917341198936
703.0, 0.009655071146257415
704.0, 0.009460021109226398
705.0, 0.01183209595381279
706.0, 0.012574128834778065
707.0, 0.012218412760814944
708.0, 0.01248280253914936
709.0, 0.013763517174844218
710.0, 0.014453559794810868
711.0, 0.01524922798334189
712.0, 0.0177273406171215
713.0, 0.01765460688247177
714.0, 0.016635985164122322
715.0, 0.017151292998998903
716.0, 0.017691776460814664
717.0, 0.017040979364472013
718.0, 0.017687897081226724
719.0, 0.018773443458914078
720.0, 0.019089433811972145
721.0, 0.018997591197399816
722.0, 0.019557165718118878
723.0, 0.02035400996921648
724.0, 0.021370352314347085
725.0, 0.0215246893288054
726.0, 0.022164964853538617
727.0, 0.0237358425359437
728.0, 0.024464867121753296
729.0, 0.022971037114571904
730.0, 0.022747036579577648
731.0, 0.022547047743169724
732.0, 0.022289235038786326
733.0, 0.022553920260416405
734.0, 0.022759770450548878
735.0, 0.021793584129881697
736.0, 0.021157745744323338
737.0, 0.02130680872152907
738.0, 0.02044431913548858
739.0, 0.019964221368078745
740.0, 0.019898490891414974
741.0, 0.0190181835134284
742.0, 0.01754261481508856
743.0, 0.016887622645236477
744.0, 0.017013891048198285
745.0, 0.016218238380627796
746.0, 0.015135357697777884
747.0, 0.014647192077827033
748.0, 0.014351865743581329
749.0, 0.01343268602347825
750.0, 0.012786694243067552
751.0, 0.01242490615411714
752.0, 0.011692096309884242
753.0, 0.010740353853851522
754.0, 0.010442154034152771
755.0, 0.0107579364752938
756.0, 0.009423223407535814
757.0, 0.008754617579746824
758.0, 0.00791497874107852
759.0, 0.0075079774669108605
760.0, 0.007374777313942482
761.0, 0.0073100241825723245
762.0, 0.008020245046631307
763.0, 0.006919580109354175
764.0, 0.0063436695892429545
765.0, 0.006123310993187232
766.0, 0.005932319802933449
767.0, 0.0055328547794518705
768.0, 0.004915523457409002
769.0, 0.004985811653781264
770.0, 0.00406031303728842
771.0, 0.004384992471615157
772.0, 0.004271233928977194
773.0, 0.0038218938253466715
774.0, 0.0038334747971059263
775.0, 0.003448042981329642
776.0, 0.002650267226734759
777.0, 0.0032658654446348317
778.0, 0.003347801419182887
779.0, 0.002567673314660343
780.0, 0.0018452696781219209
781.0, 0.0017787827181568626
782.0, 0.002213914295648992
783.0, 0.002191530004679268
784.0, 0.002532352064893301
785.0, 0.002325103728619596
786.0, 0.0017273146030372967
787.0, 0.0012496359610017615
788.0, 0.0010403313280219764
789.0, 0.0009396385444369743
790.0, 0.0009160773543547217
791.0, 0.0003162547028719085
792.0, 0.00039130517298902447
793.0, 0.000537163315439983
794.0, 0.0006012875148892799
795.0, 0.0009260267704251907
796.0, 8.497261028778759e-05
797.0, 0.000549114850764757
798.0, 0.00011802431922460692
799.0, 0.0001391776536900923
800.0, 3.0154584168798657e-05
801.0, 0.00018971598554287249
802.0, 0.0001222004708872964
803.0, 0.0005923640369869387
804.0, 0.000731978251080068
805.0, 0.00038214368758865484
806.0, 0.0010191193563176492
807.0, 0.0005619620231677279
808.0, 0.000755900547915834
809.0, 0.00010680775715466488
810.0, 0.0005967601173902908
811.0, 0.0003615720937440901
812.0, 0.0006558459886587986
813.0, 0.0008345186826716885
814.0, 0.0005907990257615857
815.0, 0.0004601300100912679
816.0, 0.0007480928100082371
817.0, 0.00021092043061547266
818.0, 2.6326237118680205e-05
819.0, 0.0003839789638004055
820.0, 0.0007371467016637787
821.0, 0.000525257889348551
822.0, 0.00016933549151150555
823.0, 0.0003750382060909585
824.0, 0.00027053702946489044
825.0, 0.0008595096446975966
826.0, 0.00015923266146610716
827.0, 0.002553243185768266
828.0, 0.002181221882825584
829.0, 0.00058776618877808
830.0, 0.0005632138476362983
831.0, 0.00011731000604051194
832.0, 0.0004156196207681458
833.0, 0.00015788555111445623
834.0, 0.00042979625173372396
835.0, 0.00033479519034416495
836.0, 0.0011952490634040296
837.0, 0.001024448814846539
838.0, 7.548873007543376e-05
839.0, 0.001069655866711112
840.0, 0.0007629582199399217
841.0, 0.001437399998934008
842.0, 0.0017683544957157636
843.0, 0.001952446059898129
844.0, 0.002847933120364823
845.0, 0.002827704722340511
846.0, 0.003105835773094344
847.0, 0.00391989042413951
848.0, 0.0038991511771328093
849.0, 0.003726817280885664
850.0, 0.004289873083670193
851.0, 0.005071551012203241
852.0, 0.005094211503404358
853.0, 0.005391422927484791
854.0, 0.006205573860224079
855.0, 0.00650648746163847
856.0, 0.006776286377175669
857.0, 0.007232528795414206
858.0, 0.007926206076601343
859.0, 0.008684895528623943
860.0, 0.008795882417936602
861.0, 0.00893809914829712
862.0, 0.009227451593191252
863.0, 0.009622040464469232
864.0, 0.010869823378759389
865.0, 0.01179096215207388
866.0, 0.011568852712724629
867.0, 0.01211677525910842
868.0, 0.012048247643179823
869.0, 0.013345443874335368
870.0, 0.013326199901266373
871.0, 0.013915655448414421
872.0, 0.015125458716777125
873.0, 0.01576942288631549
874.0, 0.01619558514570092
875.0, 0.016702250415010965
876.0, 0.017413844528786943
877.0, 0.01868853302451219
878.0, 0.0202108623638151
879.0, 0.021803842547133415
880.0, 0.02369250049485604
881.0, 0.025392678888268565
882.0, 0.026096905956605156
883.0, 0.02961598569000409
884.0, 0.03300176321990276
885.0, 0.03609030761759505
886.0, 0.03827916759657855
887.0, 0.041658273358593095
888.0, 0.04639157795134828
889.0, 0.050334749460177415
890.0, 0.05462019746843893
891.0, 0.05925676131483665
892.0, 0.06456354748485774
893.0, 0.07026780241352454
894.0, 0.07697010088840983
895.0, 0.08260442531809807
896.0, 0.08711576878590416
897.0, 0.09433184419724279
898.0, 0.10051278866278023
899.0, 0.1065108531406976
900.0, 0.11353588527398217
901.0, 0.1207844298156162
902.0, 0.12695682066038097
903.0, 0.13239105453816738
904.0, 0.13795997984886915
905.0, 0.1430090232862219
906.0, 0.14670831284590038
907.0, 0.15209711267660717
908.0, 0.15368087943648198
909.0, 0.15384831108360003
910.0, 0.1541200263428819
911.0, 0.1541040846448255
912.0, 0.15321636085010998
913.0, 0.15119262372111864
914.0, 0.14846050975485975
915.0, 0.14490061210792146
916.0, 0.13909956268786725
917.0, 0.133882035103443
918.0, 0.1289703367519069
919.0, 0.12377826459600484
920.0, 0.11894163088550477
921.0, 0.11140043033124158
922.0, 0.10671512336084071
923.0, 0.10101898927725222
924.0, 0.09593499303607057
925.0, 0.09031404744950086
926.0, 0.08475434635373631
927.0, 0.08039214793503555
928.0, 0.07619904776714566
929.0, 0.07149610511463696
930.0, 0.06667350193574201
931.0, 0.06149920064938788
932.0, 0.058778781055173486
933.0, 0.05642136777768368
934.0, 0.05280669092377969
935.0, 0.04862375538131749
936.0, 0.045978421811938654
937.0, 0.04601209766643504
938.0, 0.040357148460521415
939.0, 0.037530453405509034
940.0, 0.03501488186238203
941.0, 0.03258921220831229
942.0, 0.030259877262142652
943.0, 0.028019393566341512
944.0, 0.02669305419324302
945.0, 0.026113805533183255
946.0, 0.023820087222664908
947.0, 0.022777892561083053
948.0, 0.02195002266691459
949.0, 0.020362669717096996
950.0, 0.019091898724233586
951.0, 0.018741201705066202
952.0, 0.017846740073157667
953.0, 0.015931698691334456
954.0, 0.014721440701845868
955.0, 0.014230705122685131
956.0, 0.013744114041601144
957.0, 0.012625129720143522
958.0, 0.010984664373853176
959.0, 0.010205508256134754
960.0, 0.010587269162948262
961.0, 0.009828660464586542
962.0, 0.008362049871363995
963.0, 0.007879908063503669
964.0, 0.007554725305548388
965.0, 0.007239911152242976
966.0, 0.0064790855585836965
967.0, 0.005637236599289575
968.0, 0.005661285078604131
969.0, 0.00614125342108093
970.0, 0.005290749268275292
971.0, 0.004303267336678221
972.0, 0.00309139516684958
973.0, 0.0034528289160534473
974.0, 0.0036618788936501677
975.0, 0.0031137919881572395
976.0, 0.002269811178069763
977.0, 0.0019175606005439835
978.0, 0.0029103721743547273
979.0, 0.0017469331899808455
980.0, 0.001292054437475115
981.0, 0.001205059210178036
982.0, 0.000575487802842352
983.0, 0.00021219627920008362
984.0, 0.00021779032327692827
985.0, 0.000270406168872286
986.0, 0.00019592908391417144
987.0, 8.324618887210126e-06
988.0, 0.0005958032692256549
989.0, 0.0002832983112393763
990.0, 0.0006411729367816182
991.0, 0.0009066503256220573
992.0, 0.0007515909764550925
993.0, 0.0004087066924178611
994.0, 0.00021651544056335272
995.0, 0.0006489535767652328
996.0, 0.0005557133304094058
997.0, 0.0010431605113426505
998.0, 0.0012609459814327273
999.0, 0.000470958376725916
1000.0, 0.0005194467754376268
1001.0, 0.0005635972327437983
1002.0, 0.0001456173878242145
1003.0, 0.00012215018136689753
1004.0, 0.0009511320995910282
1005.0, 0.0005441454588632068
1006.0, 0.0005275504067955952
1007.0, 0.00015382329755012897
1008.0, 0.0002976629471931485
1009.0, 0.00038194901962471323
1010.0, 8.314397638057505e-06
1011.0, 2.5032985065248874e-05
1012.0, 0.00044670460838806196
1013.0, 0.0014601220329591648
1014.0, 0.0006705203494512481
1015.0, 0.0012570159080754577
1016.0, 0.0014027923390431654
1017.0, 0.0017967305826568456
1018.0, 0.0021781091828890725
1019.0, 0.0027403290652945897
1020.0, 0.00364804509627148
1021.0, 0.0039259704163720835
1022.0, 0.0044399569791857135
1023.0, 0.005149633093954649
1024.0, 0.005008895090784628
1025.0, 0.0065142078490315735
1026.0, 0.00826927556448267
1027.0, 0.009820005706735956
1028.0, 0.010822705700719379
1029.0, 0.011674239124879825
1030.0, 0.01335686634457523
1031.0, 0.014026282911818726
1032.0, 0.015538261430189144
1033.0, 0.016392818844145587
1034.0, 0.017885091211119267
1035.0, 0.019011462389694464
1036.0, 0.020136995982163376
1037.0, 0.02026223154125349
1038.0, 0.019621372443317162
1039.0, 0.02024147568442042
1040.0, 0.02066063018932906
1041.0, 0.019772668413621793
1042.0, 0.01933982731265252
1043.0, 0.01942831468107992
1044.0, 0.01798904109213912
1045.0, 0.01643881535015467
1046.0, 0.01525824807537761
1047.0, 0.014158084921288217
1048.0, 0.013207295478111955
1049.0, 0.011928970335221934
1050.0, 0.011385661319306926
1051.0, 0.010164922480864279
1052.0, 0.009467024533984639
1053.0, 0.008758253335747623
1054.0, 0.00847836626273007
1055.0, 0.007899474611223981
1056.0, 0.006988972243687663
1057.0, 0.006313161103001646
1058.0, 0.005473693391961849
1059.0, 0.0048803665524075205
1060.0, 0.004588465726092084
1061.0, 0.004484339956323152
1062.0, 0.0048604032722432975
1063.0, 0.004513055563974517
1064.0, 0.0043545562679397605
1065.0, 0.003772262159084003
1066.0, 0.0025263676675840027
1067.0, 0.0020035165674965436
1068.0, 0.0020323300812941495
1069.0, 0.002624187160165217
1070.0, 0.002457684640057951
1071.0, 0.0018824375999651362
1072.0, 0.001047663363839863
1073.0, 0.0014985025436561918
1074.0, 0.001668043363441113
1075.0, 0.0015761568905688244
1076.0, 0.001969883858539726
1077.0, 0.0013287741774377943
1078.0, 0.0006167906667712556
1079.0, 0.000973011866192216
1080.0, 0.002156672150836032
1081.0, 0.001886561774868453
1082.0, 0.0009209085653395491
1083.0, 0.0009720822021419596
1084.0, 0.0017933664994514566
1085.0, 0.0016410615491492134
1086.0, 0.0004512976220781692
1087.0, 0.0005385176211882919
1088.0, 0.0015009895359828806
1089.0, 0.0012668746691903265
1090.0, 0.001315449203653931
1091.0, 0.0015700491129841919
1092.0, 0.0012606429996734512
1093.0, 0.000944949678450706
1094.0, 0.0007842045524912037
1095.0, 0.0010883167126052439
1096.0, 0.0017090276261116403
1097.0, 0.0016254061433218854
1098.0, 0.0016719556721873858
1099.0, 0.0011774555884085805
1100.0, 0.0016524091957577705
1101.0, 0.0010100499528899948
1102.0, 0.00023273342312960774
1103.0, 0.0011247085984212057
1104.0, 0.0012010315530803547
1105.0, 0.0011050261293355276
1106.0, 0.001709192673472138
1107.0, 0.0010791881448741353
1108.0, 0.0013954896081272976
1109.0, 0.0007168566816711874
1110.0, 0.001261748246465315
1111.0, 0.001762423243516771
1112.0, 0.0007409444982602114
1113.0, 0.0009447640315850213
1114.0, 0.0015499215416238648
1115.0, 0.0010514401997721618
1116.0, 0.0006086035781770724
1117.0, 0.0008006122244575663
1118.0, 0.0006888361347177877
1119.0, 0.0016876214947606069
1120.0, 0.0010620245318965274
1121.0, 0.0010428817683384866
1122.0, 0.001153543087156679
1123.0, 7.357866488245548e-05
1124.0, 0.000608508351324267
1125.0, 0.00149830694946245
1126.0, 0.002173553624420235
1127.0, 0.002811244879603189
1128.0, 0.0011677598323248687
1129.0, 0.0005043216525463223
1130.0, 0.00031524694083628305
1131.0, 0.0002073285554691097
1132.0, 0.00015301423183060436
1133.0, 0.0002871216688988209
1134.0, 0.0006070575522384766
1135.0, 0.00042085374598604334
1136.0, 0.00010499221713660049
1137.0, 0.00035690011955973337
1138.0, 0.0009507738772761662
1139.0, 0.0011968082544328306
1140.0, 0.00023232887149574543
1141.0, 0.0006519928032360175
1142.0, 0.0007380136994017724
1143.0, 0.0008011607328633093
1144.0, 0.000692630147015015
1145.0, 0.0009181065978837341
1146.0, 0.0006330715020004225
1147.0, 0.00012534817670143658
1148.0, 0.0002392503312299902
1149.0, 0.00030377129766699293
1150.0, 0.0008201191007868206
1151.0, 8.17569082553688e-05
1152.0, 0.0002562590141973183
1153.0, 0.0008949909733667413
1154.0, 0.00043808393501935586
1155.0, 0.00044543768537894384
1156.0, 0.001108457665737734
1157.0, 0.0011204697915464551
1158.0, 0.0011828891722587837
1159.0, 0.0012651200165706244
1160.0, 0.0005188976613463984
1161.0, 0.00046581806632911115
1162.0, 0.0013284804575548021
1163.0, 0.0006634407045250902
1164.0, 0.00010587372921043424
1165.0, 0.0002548753635476085
1166.0, 0.00046767261388720076
1167.0, 0.0007695085749000353
1168.0, 0.0005947420899778031
1169.0, 0.00043320378340836737
1170.0, 0.0008966594220692081
1171.0, 0.0010614103299409555
1172.0, 0.00045896759116336827
1173.0, 0.0004970194746121668
1174.0, 0.0010360711403549412
1175.0, 0.0010639229308237628
1176.0, 0.0003823986844926747
1177.0, 0.0009806201611745318
1178.0, 0.0008709622471127111
1179.0, 0.0007338226721568362
1180.0, 0.001083777605431283
1181.0, 0.000973751851110143
1182.0, 0.00036732872087755035
1183.0, 0.00045151150624047335
1184.0, 0.001173314247250972
1185.0, 0.0007519232964440448
1186.0, 0.0009208337906668117
1187.0, 0.0007511001048595784
1188.0, 0.0007371179776847274
1189.0, 0.0007303386057166436
1190.0, 0.000501422576232657
1191.0, 0.0016541376996294741
1192.0, 0.0011968237163389325
1193.0, 0.00012917707903142546
1194.0, 0.0004181023790010515
1195.0, 0.0008589787817989728
1196.0, 0.0018229655445125468
1197.0, 0.0014980552157675077
1198.0, 0.0005464014946568958
1199.0, 0.0005626367342346949
1200.0, 0.0006070327380820655
1201.0, 0.00044650021657932404
1202.0, 0.00022262792581582232
1203.0, 0.0007552839160669888
1204.0, 0.0007373424865813294
1205.0, 0.000651695871089546
1206.0, 0.0007854630967505898
1207.0, 0.00011617849662169305
1208.0, 4.314597110076974e-05
1209.0, 0.0003001697334142101
1210.0, 0.0012086953027385429
1211.0, 0.00019457115279375884
1212.0, 0.0003529894749498582
1213.0, 0.0005383114961438801
1214.0, 0.00019579256536904653
1215.0, 0.0004317235539820006
1216.0, 0.0001322163278859614
1217.0, 0.00048240534185065275
1218.0, 0.001384483252732285
1219.0, 0.0014061345618145101
1220.0, 0.0014711367625615472
1221.0, 0.00123812283835912
1222.0, 0.0011397034853900334
1223.0, 5.5398859485390554e-05
1224.0, 0.0006894143825577788
1225.0, 0.0005589490934952043
1226.0, 0.00041094744655166294
1227.0, 0.000669152505910301
1228.0, 0.0006473965252855054
1229.0, 0.00035075683494819346
1230.0, 0.00013839020555030687
1231.0, 6.13323512512369e-05
1232.0, 0.0004249257866068851
1233.0, 0.0017431704393062791
1234.0, 0.0008335393765304189
1235.0, 7.332504357556108e-05
1236.0, 0.0005049064404619519
1237.0, 0.0012249788504813946
1238.0, 0.001011694032299931
1239.0, 0.0001898910425701407
1240.0, 0.00030605300412423365
1241.0, 0.0008193987478482131
1242.0, 0.0011204440443315132
1243.0, 0.0010496139183025228
1244.0, 0.0008794226048541389
1245.0, 0.0006910013070791625
1246.0, 0.0003852351202272344
1247.0, 0.000467947656712277
1248.0, 0.000259980635020795
1249.0, 0.0008408478071120861
1250.0, 0.000997639795302104
1251.0, 0.0008182074776845053
1252.0, 0.0011514706024879548
1253.0, 0.0013885715005502262
1254.0, 0.0003507237070383527
1255.0, 0.000634066755027729
1256.0, 0.0011530002738743348
1257.0, 0.0008046074480762319
1258.0, 0.0008256680256890038
1259.0, 0.001153386951515997
1260.0, 0.0008679582930535188
1261.0, 0.0004721758907481889
1262.0, 0.0008645269917416165
1263.0, 0.00030225911748657936
1264.0, 0.0005503056020797471
1265.0, 0.0007660541121240045
1266.0, 0.00021887683132084602
1267.0, 0.00039815786924602477
1268.0, 0.0006222860289158542
1269.0, 0.00010034739270115461
1270.0, 0.0007385978691227194
1271.0, 0.0010566517908062406
1272.0, 0.0003710052120437028
1273.0, 0.00040390503874812355
1274.0, 0.00015957695644075313
1275.0, 0.001014625400237317
1276.0, 0.0010833130477363778
1277.0, 0.0006087851880481926
1278.0, 0.00029126441831036335
1279.0, 0.000512119488199563
1280.0, 0.00010557500987710006
1281.0, 0.0005843212861507817
1282.0, 0.00012603709802467221
1283.0, 0.0003148265329853822
1284.0, 0.0007466794990038793
1285.0, 0.0004340628232512437
1286.0, 0.0004952074504496295
1287.0, 0.0007682960668227083
1288.0, 0.00037774945763876844
1289.0, 0.0009336574660336381
1290.0, 0.0008855389405407398
1291.0, 0.0003755335404719368
1292.0, 0.0010151534737952662
1293.0, 0.0013583813629288986
1294.0, 0.0008855926434016829
1295.0, 0.00035724235559615963
1296.0, 0.0008739297775666045
1297.0, 0.0010198635906603043
1298.0, 0.0011638428686269384
1299.0, 0.000927793985328123
1300.0, 0.0002160132776708696
1301.0, 0.0003093565901224772
1302, 0.0
1303, 0.0
1304, 0.0
1305, 0.0
1306, 0.0
1307, 0.0
1308, 0.0
1309, 0.0
1310, 0.0
1311, 0.0
1312, 0.0
1313, 0.0
1314, 0.0
1315, 0.0
1316, 0.0
1317, 0.0
1318, 0.0
1319, 0.0
1320, 0.0
1321, 0.0
1322, 0.0
1323, 0.0
1324, 0.0
1325, 0.0
1326, 0.0
1327, 0.0
1328, 0.0
1329, 0.0
1330, 0.0
1331, 0.0
1332, 0.0
1333, 0.0
1334, 0.0
1335, 0.0
1336, 0.0
1337, 0.0
1338, 0.0
1339, 0.0
1340, 0.0
1341, 0.0
1342, 0.0
1343, 0.0
1344, 0.0
1345, 0.0
1346, 0.0
1347, 0.0
1348, 0.0
1349, 0.0
1350, 0.0
1351, 0.0
1352, 0.0
1353, 0.0
1354, 0.0
1355, 0.0
1356, 0.0
1357, 0.0
1358, 0.0
1359, 0.0
1360, 0.0
1361, 0.0
1362, 0.0
1363, 0.0
1364, 0.0
1365, 0.0
1366, 0.0
1367, 0.0
1368, 0.0
1369, 0.0
1370, 0.0
1371, 0.0
1372, 0.0
1373, 0.0
1374, 0.0
1375, 0.0
1376, 0.0
1377, 0.0
1378, 0.0
1379, 0.0
1380, 0.0
1381, 0.0
1382, 0.0
1383, 0.0
1384, 0.0
1385, 0.0
1386, 0.0
1387, 0.0
1388, 0.0
1389, 0.0
1390, 0.0
1391, 0.0
1392, 0.0
1393, 0.0
1394, 0.0
1395, 0.0
1396, 0.0
1397, 0.0
1398, 0.0
1399, 0.0
1400, 0.0
1401, 0.0
1402, 0.0
1403, 0.0
1404, 0.0
1405, 0.0
1406, 0.0
1407, 0.0
1408, 0.0
1409, 0.0
1410, 0.0
1411, 0.0
1412, 0.0
1413, 0.0
1414, 0.0
1415, 0.0
1416, 0.0
1417, 0.0
1418, 0.0
1419, 0.0
1420, 0.0
1421, 0.0
1422, 0.0
1423, 0.0
1424, 0.0
1425, 0.0
1426, 0.0
1427, 0.0
1428, 0.0
1429, 0.0
1430, 0.0
1431, 0.0
1432, 0.0
1433, 0.0
1434, 0.0
1435, 0.0
1436, 0.0
1437, 0.0
1438, 0.0
1439, 0.0
1440, 0.0
1441, 0.0
1442, 0.0
1443, 0.0
1444, 0.0
1445, 0.0
1446, 0.0
1447, 0.0
1448, 0.0
1449, 0.0
1450, 0.0
1451, 0.0
1452, 0.0
1453, 0.0
1454, 0.0
1455, 0.0
1456, 0.0
1457, 0.0
1458, 0.0
1459, 0.0
1460, 0.0
1461, 0.0
1462, 0.0
1463, 0.0
1464, 0.0
1465, 0.0
1466, 0.0
1467, 0.0
1468, 0.0
1469, 0.0
1470, 0.0
1471, 0.0
1472, 0.0
1473, 0.0
1474, 0.0
1475, 0.0
1476, 0.0
1477, 0.0
1478, 0.0
1479, 0.0
1480, 0.0
1481, 0.0
1482, 0.0
1483, 0.0
1484, 0.0
1485, 0.0
1486, 0.0
1487, 0.0
1488, 0.0
1489, 0.0
1490, 0.0
1491, 0.0
1492, 0.0
1493, 0.0
1494, 0.0
1495, 0.0
1496, 0.0
1497, 0.0
1498, 0.0
1499, 0.0
1500, 0.0
1501, 0.0
1502, 0.0
1503, 0.0
1504, 0.0
1505, 0.0
1506, 0.0
1507, 0.0
1508, 0.0
1509, 0.0
1510, 0.0
1511, 0.0
1512, 0.0
1513, 0.0
1514, 0.0
1515, 0.0
1516, 0.0
1517, 0.0
1518, 0.0
1519, 0.0
1520, 0.0
1521, 0.0
1522, 0.0
1523, 0.0
1524, 0.0
1525, 0.0
1526, 0.0
1527, 0.0
1528, 0.0
1529, 0.0
1530, 0.0
1531, 0.0
1532, 0.0
1533, 0.0
1534, 0.0
1535, 0.0
1536, 0.0
1537, 0.0
1538, 0.0
1539, 0.0
1540, 0.0
1541, 0.0
1542, 0.0
1543, 0.0
1544, 0.0
1545, 0.0
1546, 0.0
1547, 0.0
1548, 0.0
1549, 0.0
1550, 0.0
1551, 0.0
1552, 0.0
1553, 0.0
1554, 0.0
1555, 0.0
1556, 0.0
1557, 0.0
1558, 0.0
1559, 0.0
1560, 0.0
1561, 0.0
1562, 0.0
1563, 0.0
1564, 0.0
1565, 0.0
1566, 0.0
1567, 0.0
1568, 0.0
1569, 0.0
1570, 0.0
1571, 0.0
1572, 0.0
1573, 0.0
1574, 0.0
1575, 0.0
1576, 0.0
1577, 0.0
1578, 0.0
1579, 0.0
1580, 0.0
1581, 0.0
1582, 0.0
1583, 0.0
1584, 0.0
1585, 0.0
1586, 0.0
1587, 0.0
1588, 0.0
1589, 0.0
1590, 0.0
1591, 0.0
1592, 0.0
1593, 0.0
1594, 0.0
1595, 0.0
1596, 0.0
1597, 0.0
1598, 0.0
1599, 0.0
