30, 0.0
31, 0.0
32, 0.0
33, 0.0
34, 0.0
35, 0.0
36, 0.0
37, 0.0
38, 0.0
39, 0.0
40, 0.0
41, 0.0
42, 0.0
43, 0.0
44, 0.0
45, 0.0
46, 0.0
47, 0.0
48, 0.0
49, 0.0
50, 0.0
51, 0.0
52, 0.0
53, 0.0
54.0, 0.000739717363280977
55.0, 0.0013615899782633916
56.0, 0.0014008919490379162
57.0, 0.0026532308811297017
58.0, 0.00349425054329301
59.0, 0.0038456065980452545
60.0, 0.0035206944845897377
61.0, 0.0036620295417202292
62.0, 0.0044249736447136345
63.0, 0.006082418469355009
64.0, 0.00788316081164908
65.0, 0.008560642388567399
66.0, 0.007986654011378429
67.0, 0.005664872795691823
68.0, 0.004219094361866727
69.0, 0.0031246187395822097
70.0, 0.0020737081786695367
71.0, 0.0015552986512545471
72.0, 0.0013797730462034058
73.0, 0.001439047509806413
74.0, 0.00116571347349648
75.0, 0.0010155110151307352
76.0, 0.0009526254860080868
77.0, 0.0009732319550255229
78.0, 0.000778803134137546
79.0, 0.0011770779807019319
80.0, 0.002195825010590931
81.0, 0.0033897680132237264
82.0, 0.003855097696374253
83.0, 0.004283686188077573
84.0, 0.00533246111758179
85.0, 0.006796400531512176
86.0, 0.00738142049677837
87.0, 0.007195378290274064
88.0, 0.008286744875362368
89.0, 0.010778467379521189
90.0, 0.01424597755522484
91.0, 0.0185906831388361
92.0, 0.0238996778121823
93.0, 0.029938603107416695
94.0, 0.03655055008025537
95.0, 0.04279270630105292
96.0, 0.0493543468527744
97.0, 0.05616828520009552
98.0, 0.06325159760695823
99.0, 0.06824617849314821
100.0, 0.0731498998378884
101.0, 0.07787473346141541
102.0, 0.08037412509815989
103.0, 0.0809703155258849
104.0, 0.08097195707432994
105.0, 0.08130646904241388
106.0, 0.08211003960714702
107.0, 0.0832105858065847
108.0, 0.08462037064864535
109.0, 0.08655091159669566
110.0, 0.08821087871049627
111.0, 0.09108225378402568
112.0, 0.09651831738647426
113.0, 0.10231097670176484
114.0, 0.11153816969396188
115.0, 0.12358185653711375
116.0, 0.135569882407799
117.0, 0.14790100831181852
118.0, 0.15701459372251228
119.0, 0.160263378296567
120.0, 0.15869708216637526
121.0, 0.15652222504245933
122.0, 0.1534763256947504
123.0, 0.14798169362050045
124.0, 0.14747501269827673
125.0, 0.1449416350465946
126.0, 0.13715845749442218
127.0, 0.13670413531612025
128.0, 0.13808491546868984
129.0, 0.14095341126182398
130.0, 0.14492801537539693
131.0, 0.15516536027536337
132.0, 0.16847071613979947
133.0, 0.18421756987782553
134.0, 0.20452901813122729
135.0, 0.2268100517725547
136.0, 0.2519061068213479
137.0, 0.2821130178822816
138.0, 0.3084532924610962
139.0, 0.3296942498978879
140.0, 0.34588896115256845
141.0, 0.3619199590786343
142.0, 0.3650876228817786
143.0, 0.3659944773828991
144.0, 0.37521352060936486
145.0, 0.38018781373051524
146.0, 0.39033688669524463
147.0, 0.40632798407293946
148.0, 0.4266844837298986
149.0, 0.4554330413241599
150.0, 0.4934406747097442
151.0, 0.5431164681138104
152.0, 0.58123333209334
153.0, 0.6313653323694363
154.0, 0.6864355520414592
155.0, 0.7224841110788923
156.0, 0.7523722261102257
157.0, 0.7751017799830894
158.0, 0.7888930308370675
159.0, 0.7625175283420567
160.0, 0.7374017691971179
161.0, 0.7042992010305488
162.0, 0.6446311508761048
163.0, 0.5920886284959163
164.0, 0.5337869249132945
165.0, 0.46895511514689914
166.0, 0.4164957026614859
167.0, 0.36981205014089324
168.0, 0.3270095385518222
169.0, 0.28727833030468264
170.0, 0.2582868694694487
171.0, 0.2320640671419741
172.0, 0.20921853090336348
173.0, 0.19563449993536125
174.0, 0.17703476130790308
175.0, 0.16049232022660373
176.0, 0.14952086450356744
177.0, 0.1392234961924638
178.0, 0.12799570070539115
179.0, 0.11823502130165661
180.0, 0.11511454931116408
181.0, 0.10629336989537311
182.0, 0.09895914147415062
183.0, 0.09429997119497474
184.0, 0.0880276162752277
185.0, 0.08420733034234418
186.0, 0.080835170745692
187.0, 0.0761869083289766
188.0, 0.07197692568842184
189.0, 0.06836846331203204
190.0, 0.06515829152279812
191.0, 0.0616504245687328
192.0, 0.059828312921841
193.0, 0.05765791278923533
194.0, 0.054335967372105866
195.0, 0.051158762969940826
196.0, 0.05017376525183893
197.0, 0.04889111901953151
198.0, 0.04341491238626333
199.0, 0.04336227761363656
200.0, 0.041437665076869926
201.0, 0.037561329614994636
202.0, 0.037971072549771966
203.0, 0.036943613343914265
204.0, 0.035577013652863164
205.0, 0.03448764158811878
206.0, 0.03470068221809124
207.0, 0.03356657558800244
208.0, 0.03185459622557382
209.0, 0.031223121849956393
210.0, 0.03074648874307528
211.0, 0.03056986788615085
212.0, 0.030681445473038662
213.0, 0.03058022463027566
214.0, 0.030312519456404566
215.0, 0.030565477316382383
216.0, 0.031990924209227306
217.0, 0.029966132744725565
218.0, 0.029308813577513786
219.0, 0.02959670724648821
220.0, 0.029245332266299735
221.0, 0.029055988439427777
222.0, 0.028638860700653003
223.0, 0.027972875750439864
224.0, 0.028245857904710552
225.0, 0.02919748411075532
226.0, 0.03004928724933321
227.0, 0.030059075482408822
228.0, 0.029833456567745227
229.0, 0.02966768119704897
230.0, 0.029755907681035774
231.0, 0.030667974875821204
232.0, 0.0323300592011495
233.0, 0.03251656403350784
234.0, 0.030926705449399162
235.0, 0.033043574774299776
236.0, 0.032577205434757346
237.0, 0.03211280050953123
238.0, 0.034028292560587384
239.0, 0.03498112462443885
240.0, 0.03545242260359753
241.0, 0.03623149769179415
242.0, 0.03949885534398341
243.0, 0.04036858881792267
244.0, 0.04174092344479922
245.0, 0.0442652514223944
246.0, 0.04627476212755615
247.0, 0.049023831452913925
248.0, 0.052420374428513404
249.0, 0.056493411700226634
250.0, 0.05837265373662998
251.0, 0.06263134879547412
252.0, 0.06812648191023846
253.0, 0.07210333862282398
254.0, 0.0784211889873525
255.0, 0.0841135040824541
256.0, 0.0887258542427684
257.0, 0.09360864231302125
258.0, 0.10219373885522941
259.0, 0.1102195672479628
260.0, 0.1150782337013559
261.0, 0.12611618705347086
262.0, 0.1347901685365126
263.0, 0.14325963891667626
264.0, 0.1550810924750536
265.0, 0.16235386229786458
266.0, 0.17033156213609904
267.0, 0.18049497049131152
268.0, 0.19637427417397194
269.0, 0.2044064973271913
270.0, 0.2145962157579104
271.0, 0.2308085565200948
272.0, 0.2470502158198939
273.0, 0.26603776227613535
274.0, 0.28533312910341013
275.0, 0.30249090200951817
276.0, 0.3232907932625651
277.0, 0.34905890758333424
278.0, 0.37480543811109585
279.0, 0.38760613686675305
280.0, 0.41492632150548414
281.0, 0.4318544342226459
282.0, 0.4349558313722061
283.0, 0.44081505783488567
284.0, 0.4421692910074596
285.0, 0.43321648863335455
286.0, 0.4101170649315643
287.0, 0.3943992202118543
288.0, 0.3696316937977624
289.0, 0.3406408730982145
290.0, 0.3132184177574813
291.0, 0.2857972933991252
292.0, 0.2594854807170394
293.0, 0.2344111913692865
294.0, 0.2108172308020622
295.0, 0.1873758934304167
296.0, 0.1682091554488835
297.0, 0.1538025056579992
298.0, 0.13813915060953727
299.0, 0.12506068705514442
300.0, 0.11378210847439413
301.0, 0.10396933287001431
302.0, 0.09389685999548324
303.0, 0.08620793453721874
304.0, 0.07924084099011096
305.0, 0.07085756358727587
306.0, 0.06743885459240548
307.0, 0.06339685514142193
308.0, 0.05845968469444975
309.0, 0.0531601451101168
310.0, 0.05032125850335176
311.0, 0.04754295897984177
312.0, 0.044476314723310456
313.0, 0.04262582070542153
314.0, 0.04010897013390648
315.0, 0.03777794140130794
316.0, 0.036102708320369124
317.0, 0.03564994378772264
318.0, 0.03356069292690522
319.0, 0.03187392305751404
320.0, 0.03276388260440948
321.0, 0.030476300167409404
322.0, 0.03012727929031813
323.0, 0.030608635763763093
324.0, 0.029242764868344477
325.0, 0.030688028585111896
326.0, 0.03154625568198669
327.0, 0.03126131166631587
328.0, 0.02971374276846083
329.0, 0.031064564165705143
330.0, 0.03140026104952243
331.0, 0.02979160652831215
332.0, 0.0301961827590435
333.0, 0.029634592497547272
334.0, 0.028915065840556295
335.0, 0.028544893599195844
336.0, 0.02904484527204913
337.0, 0.02804094073059335
338.0, 0.02743088253756631
339.0, 0.029516852027986477
340.0, 0.028081191071522092
341.0, 0.026949629604540806
342.0, 0.02653731912420423
343.0, 0.027337297695451533
344.0, 0.025352540340308847
345.0, 0.025428037551815743
346.0, 0.027153523922581795
347.0, 0.02607740061005218
348.0, 0.026172074878561127
349.0, 0.027101976578206597
350.0, 0.028226907705558538
351.0, 0.025310800757400845
352.0, 0.02675063551966958
353.0, 0.028087085110634236
354.0, 0.027149615726824762
355.0, 0.02840226421290661
356.0, 0.02882970519325743
357.0, 0.028686630774796332
358.0, 0.028152203022779917
359.0, 0.02892503591663158
360.0, 0.02827898588900701
361.0, 0.027720708144938627
362.0, 0.029589082920773908
363.0, 0.02753049788799947
364.0, 0.026445223537985348
365.0, 0.026286018046528976
366.0, 0.02599809622208332
367.0, 0.023381453191666988
368.0, 0.021996148004251814
369.0, 0.021207132788323837
370.0, 0.016062281401987864
371.0, 0.015473142706868722
372.0, 0.014776792467823721
373.0, 0.012845513969085757
374.0, 0.01145549978944665
375.0, 0.011099103878938602
376.0, 0.009917159475625228
377.0, 0.007277865081159352
378.0, 0.006853208914902958
379.0, 0.005066032626476347
380.0, 0.0037185670855862125
381.0, 0.00405722568249864
382.0, 0.0034507827386397114
383.0, 0.0029688790332867516
384.0, 0.002401318221941454
385.0, 0.0015202054723894368
386.0, 0.0015752688647182548
387.0, 0.001416788739908905
388.0, 0.0010055277589588799
389.0, 0.0003131294134637223
390.0, 0.00040495577706738616
391.0, 0.00039567146678303025
392.0, 0.0004895200238745007
393.0, 0.0013111010313873411
394.0, 0.0012790175515448425
395.0, 0.0012822440551346576
396.0, 0.0012677010332029308
397.0, 0.0006559364659774229
398.0, 0.0009389072139409042
399.0, 0.003388859477823899
400.0, 0.007094546718172044
401.0, 0.006689030492031171
402.0, 0.003703649348129226
403.0, 0.002841990527110169
404.0, 0.004935389560844633
405.0, 0.005425246775648143
406.0, 0.005514212830117702
407.0, 0.005724832075276831
408.0, 0.005967026738805934
409.0, 0.0030791293770003683
410.0, 0.002666636787704714
411.0, 0.0026901798395915387
412.0, 0.0020527686751572512
413.0, 0.0014253769521959453
414.0, 0.0009959155019947509
415.0, 0.001678875485181739
416.0, 0.004072782980633812
417.0, 0.0027756639801479323
418.0, 0.004130844221118788
419.0, 0.005373612654362154
420.0, 0.0039283842873189066
421.0, 0.003924965470122238
422.0, 0.005337693984172443
423.0, 0.0065673988307275565
424.0, 0.005717674614538945
425.0, 0.005879094890191022
426.0, 0.005548186008815897
427.0, 0.005246184295075402
428.0, 0.005795579767719593
429.0, 0.005923596733421815
430.0, 0.003979321706172131
431.0, 0.002157949724541793
432.0, 0.004422155475519196
433.0, 0.002518906187970864
434.0, 0.001519546597952792
435.0, 0.001633060639900806
436.0, 0.002424696726632913
437.0, 0.006046503285627474
438.0, 0.0084458793664035
439.0, 0.010209349403430283
440.0, 0.013837754506526861
441.0, 0.016857440433364224
442.0, 0.020043249667606268
443.0, 0.023485965169841028
444.0, 0.027137909066203447
445.0, 0.031196855631243574
446.0, 0.03815132642404553
447.0, 0.046021840962062466
448.0, 0.047418833967818146
449.0, 0.055316436883516985
450.0, 0.062302862804205356
451.0, 0.06729801633214945
452.0, 0.07159186345914365
453.0, 0.07677442968372694
454.0, 0.07873576362076107
455.0, 0.07780237496475648
456.0, 0.07856896837454877
457.0, 0.077380641270779
458.0, 0.07594302696513386
459.0, 0.0753090352208374
460.0, 0.07807945008496048
461.0, 0.07462510497312773
462.0, 0.07360879545620527
463.0, 0.07591372346340589
464.0, 0.0757681681057005
465.0, 0.08267500690337247
466.0, 0.09054922806706843
467.0, 0.09857127169865107
468.0, 0.11036955091603051
469.0, 0.12573794431764485
470.0, 0.14274747457171943
471.0, 0.1613045477154582
472.0, 0.1833599168242273
473.0, 0.20510819583653886
474.0, 0.22413879112464244
475.0, 0.23966251122375998
476.0, 0.25122955114303036
477.0, 0.24647530801679482
478.0, 0.24020070600955898
479.0, 0.2335584761201247
480.0, 0.21364212201866115
481.0, 0.19542743706419108
482.0, 0.17831331319183774
483.0, 0.16198809763877664
484.0, 0.1458103818931339
485.0, 0.13804146078323867
486.0, 0.12956112146372248
487.0, 0.11946631418647884
488.0, 0.113476970324287
489.0, 0.11145995634580971
490.0, 0.10762768676733002
491.0, 0.10234485710747186
492.0, 0.10202231252361628
493.0, 0.10077783729132131
494.0, 0.1004736060679992
495.0, 0.1011791293230778
496.0, 0.10177927317241417
497.0, 0.10552252623053214
498.0, 0.11268843573543055
499.0, 0.12236051424008607
500.0, 0.13172031202058376
501.0, 0.14976320640088298
502.0, 0.1716524133938589
503.0, 0.19706797773132265
504.0, 0.22749132523785323
505.0, 0.2729394094017897
506.0, 0.3210287955083297
507.0, 0.3765246850585979
508.0, 0.4547669862871783
509.0, 0.5394749246466154
510.0, 0.6347490544723949
511.0, 0.7385842186680391
512.0, 0.8463742696043498
513.0, 0.9134357685829539
514.0, 0.9665145286543994
515.0, 0.9865224253695106
516.0, 0.9367896776555199
517.0, 0.8620092816393596
518.0, 0.7724264897783312
519.0, 0.6701404232693547
520.0, 0.5570733114528795
521.0, 0.4720963173366412
522.0, 0.39699554257510994
523.0, 0.3318060845607296
524.0, 0.2771700106000575
525.0, 0.23714869934214422
526.0, 0.2016337389252795
527.0, 0.17254041965016312
528.0, 0.15153314504146995
529.0, 0.13166660087038615
530.0, 0.11586342064234909
531.0, 0.10235707321314393
532.0, 0.09001069930676231
533.0, 0.08246889644848539
534.0, 0.07627683819050389
535.0, 0.06923564374908213
536.0, 0.06070153969020372
537.0, 0.057641508019833
538.0, 0.05225400012510272
539.0, 0.04730420187597074
540.0, 0.04399927232998795
541.0, 0.04179116659249998
542.0, 0.038717389154621855
543.0, 0.036574842302757996
544.0, 0.03530202934143008
545.0, 0.031705482377750886
546.0, 0.03046291860467213
547.0, 0.02973334956252893
548.0, 0.028295653130588846
549.0, 0.023699303632138582
550.0, 0.02291533131173633
551.0, 0.021221292989299635
552.0, 0.018874585296074196
553.0, 0.018396031801279196
554.0, 0.01899379680050455
555.0, 0.01744587853643501
556.0, 0.01513681359038386
557.0, 0.014962061576023622
558.0, 0.01559508796015654
559.0, 0.01462366795892778
560.0, 0.013347097862935337
561.0, 0.01347113312420396
562.0, 0.012669611904349665
563.0, 0.012225584860655973
564.0, 0.011986021736695126
565.0, 0.01183525665440713
566.0, 0.012300819891067497
567.0, 0.012064636303845466
568.0, 0.010772628026144744
569.0, 0.008824347448527918
570.0, 0.011679400440195836
571.0, 0.010624598915010155
572.0, 0.010282896167132514
573.0, 0.01171439191685743
574.0, 0.010717509012649864
575.0, 0.010493720972572946
576.0, 0.010607547870370188
577.0, 0.0106610409588888
578.0, 0.009770609489938553
579.0, 0.00946195164562768
580.0, 0.009210557946016138
581.0, 0.00865773393025082
582.0, 0.007251591624603841
583.0, 0.008052240531364599
584.0, 0.00792785088869645
585.0, 0.007187168164968551
586.0, 0.006547849203232565
587.0, 0.006369889773386398
588.0, 0.005727255744928927
589.0, 0.005905626939463651
590.0, 0.007615504237118126
591.0, 0.004043998027953291
592.0, 0.005250118159183039
593.0, 0.006406179204200173
594.0, 0.0052578839187769405
595.0, 0.004565836959753841
596.0, 0.005198086486184307
597.0, 0.005362665923598934
598.0, 0.005339040513909748
599.0, 0.008357762928709987
600.0, 0.005849277330159119
601.0, 0.004861287577072142
602.0, 0.005851696904305596
603.0, 0.006987288274878561
604.0, 0.007024870098178065
605.0, 0.006578917698710912
606.0, 0.006208999210377872
607.0, 0.006564297279643614
608.0, 0.006253697575474909
609.0, 0.006492512316395189
610.0, 0.006274951528851616
611.0, 0.005176704229590513
612.0, 0.007933352157345346
613.0, 0.007279197441138399
614.0, 0.006623811802670426
615.0, 0.007167012117559349
616.0, 0.006873457451276204
617.0, 0.006611558904531662
618.0, 0.007701222938147777
619.0, 0.008997189876813347
620.0, 0.006526822473024711
621.0, 0.007740340019053361
622.0, 0.00986111270342464
623.0, 0.01112792982216129
624.0, 0.009439897927623788
625.0, 0.011877831336672898
626.0, 0.012405345616903592
627.0, 0.01212420035161387
628.0, 0.012168763707854779
629.0, 0.013325445123719144
630.0, 0.01334378189663584
631.0, 0.013401604716131497
632.0, 0.013747366807433515
633.0, 0.012763040926429898
634.0, 0.012704589467205384
635.0, 0.012778444944134546
636.0, 0.01238744159176114
637.0, 0.010542263142100307
638.0, 0.01127769699931094
639.0, 0.01003842542947525
640.0, 0.008520965800104509
641.0, 0.009495087090249823
642.0, 0.007647710213213218
643.0, 0.006401533441818348
644.0, 0.0054746618675978395
645.0, 0.004692588214587035
646.0, 0.004432509763602401
647.0, 0.004187189968964832
648.0, 0.003667802943942469
649.0, 0.0029621974555720785
650.0, 0.0027587390500014727
651.0, 0.004622260061502117
652.0, 0.004014589038303451
653.0, 0.0025992738045012517
654.0, 0.004523707658172156
655.0, 0.004013441715695834
656.0, 0.0027863191524477205
657.0, 0.002133451758286243
658.0, 0.0028974945994479366
659.0, 0.0015222085754249943
660.0, 0.0027310540463144416
661.0, 0.00287154938779434
662.0, 0.001290178934470856
663.0, 0.0022934344093632
664.0, 0.00265354791208924
665.0, 0.0025649657961606133
666.0, 0.0024449687807801736
667.0, 0.0030247717706159633
668.0, 0.002300577284094874
669.0, 0.0010499305951658323
670.0, 0.000361292287860769
671.0, 0.0011005770567646593
672.0, 0.001313715751251658
673.0, 0.000646145138084952
674.0, 0.00017966346329508013
675.0, 0.000453722571267757
676.0, 0.0016164318257262898
677.0, 0.0009915486107620601
678.0, 0.0003404406622755419
679.0, 5.727865786976801e-05
680.0, 0.00022693218192126842
681.0, 0.00041052724738143044
682.0, 0.0003425351951008654
683.0, 0.0006237468114608992
684.0, 0.0016567057889769535
685.0, 0.001953188231513818
686.0, 0.0012214921845581906
687.0, 0.0011029114518832242
688.0, 0.0016664242543788664
689.0, 0.000811664766460263
690.0, 0.0010057755445543942
691.0, 0.0017566916653367322
692.0, 0.0019615207387081246
693.0, 0.00012786472877436344
694.0, 0.0006747342386054479
695.0, 0.0011918638225273735
696.0, 0.0010680513702306204
697.0, 0.00028834197972770327
698.0, 0.0016202736166432458
699.0, 0.0009264076510885658
700.0, 0.0006957127801554663
701.0, 0.0010308998845384065
702.0, 0.0003805225393733164
703.0, 0.0007266245755925596
704.0, 0.0009234793099811967
705.0, 0.0012266428758108674
706.0, 0.001924634946657274
707.0, 0.001607131868867778
708.0, 0.0007692149327817123
709.0, 0.0008034745323252874
710.0, 0.0020521624206335607
711.0, 0.0033164971023973418
712.0, 0.0028919453519199866
713.0, 0.0036358411804854273
714.0, 0.004990027128979795
715.0, 0.005388348596425219
716.0, 0.005010826119281634
717.0, 0.004508909587249917
718.0, 0.004190303235021789
719.0, 0.0043575335701047015
720.0, 0.005621312536655332
721.0, 0.00553907081128736
722.0, 0.00603094939031449
723.0, 0.006752571435752779
724.0, 0.006023026305062123
725.0, 0.007789640756950393
726.0, 0.00855439517105442
727.0, 0.008241055844174255
728.0, 0.007318818136265948
729.0, 0.0090688654796427
730.0, 0.010569038902342799
731.0, 0.011486643656909244
732.0, 0.011796725780997639
733.0, 0.01172321058862827
734.0, 0.011814661105229933
735.0, 0.013466325664676863
736.0, 0.015449246946898426
737.0, 0.016240304881306684
738.0, 0.013850534110698217
739.0, 0.015054592474917229
740.0, 0.01609586190851971
741.0, 0.016575205153615328
742.0, 0.019781579647784216
743.0, 0.020244491503342673
744.0, 0.019747140404067665
745.0, 0.019644948568667987
746.0, 0.020982090773515986
747.0, 0.019670962983085325
748.0, 0.02004424297414776
749.0, 0.020614815178315964
750.0, 0.020752475506437742
751.0, 0.020539570485977928
752.0, 0.02140504844201076
753.0, 0.020937562219065165
754.0, 0.02090662525220392
755.0, 0.023371242257229422
756.0, 0.023104481231933722
757.0, 0.022402243481520066
758.0, 0.023183326020655426
759.0, 0.025024635369998553
760.0, 0.023959903664067063
761.0, 0.024533514862211194
762.0, 0.024970100612551737
763.0, 0.025318749961151653
764.0, 0.025976191763128074
765.0, 0.028778858363020205
766.0, 0.027191674126301007
767.0, 0.026331709287356
768.0, 0.027314095030962503
769.0, 0.02727618269613007
770.0, 0.02664504056627593
771.0, 0.027403190730490898
772.0, 0.027228878075672217
773.0, 0.02429719082004328
774.0, 0.026049413558644947
775.0, 0.02553078509727256
776.0, 0.02419026066877666
777.0, 0.02307640337796624
778.0, 0.02346390556093772
779.0, 0.020657800846102276
780.0, 0.021216776570546936
781.0, 0.021999355114593243
782.0, 0.020340668230713718
783.0, 0.019030903966010388
784.0, 0.01961442471854335
785.0, 0.019641289102525557
786.0, 0.019153134083299245
787.0, 0.01949922194003228
788.0, 0.021813388246257243
789.0, 0.020632011203494033
790.0, 0.021335390820081946
791.0, 0.02560550052112158
792.0, 0.02358787128385114
793.0, 0.023931379211480162
794.0, 0.02659928477223498
795.0, 0.028279749274057946
796.0, 0.02476707118328169
797.0, 0.027784690620097623
798.0, 0.029267179527423765
799.0, 0.029489616311272532
800.0, 0.02903294987955288
801.0, 0.02923828252208034
802.0, 0.03042745098252441
803.0, 0.03129553533531334
804.0, 0.03210656227783348
805.0, 0.03323457655653331
806.0, 0.0344159480700636
807.0, 0.03703217474294167
808.0, 0.03834401203433418
809.0, 0.038542644956231074
810.0, 0.03976284736889749
811.0, 0.03923722262642467
812.0, 0.037397206114813224
813.0, 0.035709810910062104
814.0, 0.034351338362117484
815.0, 0.029558492238947118
816.0, 0.02756108459901202
817.0, 0.02510305912218205
818.0, 0.021906203692525068
819.0, 0.01858290396858753
820.0, 0.019388803288588125
821.0, 0.016395663404219142
822.0, 0.0134312030709081
823.0, 0.011914971060396896
824.0, 0.011513667772858298
825.0, 0.009065873337821882
826.0, 0.00892073574913608
827.0, 0.008947638549185372
828.0, 0.007508566487245054
829.0, 0.005659983576587836
830.0, 0.0065751603018365445
831.0, 0.006357999576720769
832.0, 0.006027522709568497
833.0, 0.0077301265679689144
834.0, 0.006208606606586773
835.0, 0.006201793452680115
836.0, 0.007406804047307039
837.0, 0.008650884996351433
838.0, 0.007407179487503203
839.0, 0.008940155267404276
840.0, 0.00812338305996012
841.0, 0.005609368351379562
842.0, 0.003346090931091066
843.0, 0.0073514057609083
844.0, 0.005449177261327102
845.0, 0.0046607881752274505
846.0, 0.004678853859140304
847.0, 0.003633139311340715
848.0, 0.0024426020118183114
849.0, 0.0031066048551781876
850.0, 0.0033859328881800676
851.0, 0.002861454507507154
852.0, 0.0023462149586803453
853.0, 0.003371768535468448
854.0, 0.0026994295261852192
855.0, 0.0016999422188779853
856.0, 0.0013357526567797636
857.0, 0.0017903676858458165
858.0, 0.0010110399411108022
859.0, 0.0023363861083924653
860.0, 0.00284981856574931
861.0, 0.00039490980176864294
862.0, 0.0026377380337590313
863.0, 0.0017699058711928897
864.0, 0.0007695463184646943
865.0, 0.0009456634075144684
866.0, 0.002858489495582231
867.0, 0.0007424854991944377
868.0, 0.00048822457371969284
869.0, 0.000707165205203221
870.0, 0.0007312787920942397
871.0, 0.00041114626184832474
872.0, 0.0008305541954035237
873.0, 0.0015920173175191599
874.0, 0.0014788797536369816
875.0, 0.0004053951246066872
876.0, 0.000928797536950054
877.0, 0.001232193678843294
878.0, 0.0020653860092524966
879.0, 0.002373475681905158
880.0, 0.0013070144840004717
881.0, 0.00019309666331255204
882.0, 0.0012059126736300835
883.0, 0.0012257314118250164
884.0, 0.0008137522702736243
885.0, 0.0014375786581705195
886.0, 0.000299409724409945
887.0, 0.0001657417076836962
888.0, 0.0007535419917274067
889.0, 0.0014762423977510285
890.0, 0.0014582678656922233
891.0, 0.0019668409659332623
892.0, 0.0013245716123534885
893.0, 0.000567006091535145
894.0, 0.0005579775632469398
895.0, 0.002127069884301527
896.0, 0.0016816852558889815
897.0, 0.0011153795901657825
898.0, 0.0006519404569327429
899.0, 0.00038747428502061644
900.0, 0.00035266284255731787
901.0, 0.0005339962007971069
902.0, 0.000750406027863077
903.0, 0.0008883828242386352
904.0, 0.0009671774345305257
905.0, 0.0015652095015578748
906.0, 0.001182026705167828
907.0, 0.001673619031103952
908.0, 0.0020244355464123565
909.0, 0.0010155464624074983
910.0, 0.0016070774169625478
911.0, 0.001318801120310281
912.0, 0.001257016478910716
913.0, 0.001420241028970614
914.0, 0.0014311135027089447
915.0, 0.002127020365454189
916.0, 0.001471350611728559
917.0, 0.0012238526723779351
918.0, 0.0013659110701659998
919.0, 0.0007861019271549045
920.0, 0.00037947628476233406
921.0, 0.0020326899867879524
922.0, 0.0021253177223311817
923.0, 0.0009132736871936849
924.0, 0.0024400977224419062
925.0, 0.0011835889822361006
926.0, 0.001737414191714028
927.0, 0.0018866384266599619
928.0, 0.0011587619267284495
929.0, 0.001596561004451034
930.0, 0.0020155325212102147
931.0, 0.002728267864061098
932.0, 0.0024746415837237803
933.0, 0.001786616589885468
934.0, 0.004849117329462219
935.0, 0.001941784846693189
936.0, 0.0027573708043767487
937.0, 0.0043003281294634686
938.0, 0.003789999907388219
939.0, 0.0010264495994307603
940.0, 0.0055518950477415245
941.0, 0.005519905911774888
942.0, 0.004664677644850516
943.0, 0.0064237440836096265
944.0, 0.00821640562246268
945.0, 0.005015928873034993
946.0, 0.006087740242381278
947.0, 0.007658040377987713
948.0, 0.0062948252735627345
949.0, 0.006813475521184345
950.0, 0.008997265486815759
951.0, 0.009209927627083305
952.0, 0.009449587422888562
953.0, 0.011534743113199039
954.0, 0.012233404016715948
955.0, 0.010320004489510346
956.0, 0.012011090021485208
957.0, 0.01369709982617237
958.0, 0.011954754850449412
959.0, 0.013851874707429513
960.0, 0.014687316104974762
961.0, 0.014586118175732889
962.0, 0.014547530271615882
963.0, 0.01525110867970068
964.0, 0.014653027662795153
965.0, 0.015808305745248392
966.0, 0.016745696001551753
967.0, 0.017157832212006337
968.0, 0.017419402525254323
969.0, 0.019458491234762187
970.0, 0.020213429169118745
971.0, 0.019635211530458652
972.0, 0.020089081056124305
973.0, 0.022785608920748383
974.0, 0.020368478645086258
975.0, 0.020218045357542663
976.0, 0.022733183533199437
977.0, 0.024141721358995245
978.0, 0.021995874306337163
979.0, 0.024199655319453898
980.0, 0.02527811257802201
981.0, 0.024181019720583175
982.0, 0.024169575314266722
983.0, 0.026937861897916124
984.0, 0.02425924558913393
985.0, 0.026262675658058413
986.0, 0.027822551135389176
987.0, 0.027511471085836757
988.0, 0.02614462234898475
989.0, 0.030099278371606766
990.0, 0.027433869511697653
991.0, 0.027001416732818355
992.0, 0.028705776803866146
993.0, 0.030195270719189485
994.0, 0.026297047658250805
995.0, 0.030598864189871875
996.0, 0.03259602815864465
997.0, 0.032716110628812405
998.0, 0.03306924177485566
999.0, 0.03689247699793343
1000.0, 0.03350052296528822
1001.0, 0.03364282445127675
1002.0, 0.03604871580478413
1003.0, 0.037473245082269846
1004.0, 0.03272734135997124
1005.0, 0.036993736701289644
1006.0, 0.03697405652139326
1007.0, 0.03562047813826401
1008.0, 0.0353049383975893
1009.0, 0.03668218459143946
1010.0, 0.03578080641732247
1011.0, 0.035748702957609076
1012.0, 0.03606525445202743
1013.0, 0.03573262645064865
1014.0, 0.03350478281310291
1015.0, 0.0346657864684363
1016.0, 0.03303387039791854
1017.0, 0.0336544835599292
1018.0, 0.035251350005050384
1019.0, 0.03293839808862173
1020.0, 0.03281777355670977
1021.0, 0.033704721132182376
1022.0, 0.03346473203636314
1023.0, 0.032127858502965206
1024.0, 0.031043795085299992
1025.0, 0.034000514637492825
1026.0, 0.031018583912575507
1027.0, 0.031374285499460836
1028.0, 0.03251162598752892
1029.0, 0.030538200266069043
1030.0, 0.031433895096520524
1031.0, 0.032660163855207945
1032.0, 0.03061827510348724
1033.0, 0.02885554695797758
1034.0, 0.029984591563639522
1035.0, 0.030753477425206985
1036.0, 0.025709532268834046
1037.0, 0.02628718274855746
1038.0, 0.02701213564062274
1039.0, 0.024967321600573654
1040.0, 0.02375151742834772
1041.0, 0.023631809558104185
1042.0, 0.022126904486960877
1043.0, 0.02109058648054157
1044.0, 0.020627002077261983
1045.0, 0.019192658669067327
1046.0, 0.018885731764124055
1047.0, 0.01916237475216255
1048.0, 0.01891664395630626
1049.0, 0.017820550326396054
1050.0, 0.01619607236733176
1051.0, 0.016080050839375356
1052.0, 0.015134059098944773
1053.0, 0.016901043817941355
1054.0, 0.017290550460310663
1055.0, 0.013168750522591696
1056.0, 0.013833599048215899
1057.0, 0.014597676504404822
1058.0, 0.012663935058566576
1059.0, 0.011299108254744306
1060.0, 0.01229235174044115
1061.0, 0.012905937457107716
1062.0, 0.01160136370402402
1063.0, 0.010650112607323582
1064.0, 0.009980742587038613
1065.0, 0.009465878070366494
1066.0, 0.009100714482815924
1067.0, 0.011254734921711498
1068.0, 0.009825405366248407
1069.0, 0.010444371731612861
1070.0, 0.0125101294191272
1071.0, 0.01279870352719117
1072.0, 0.012316268064904226
1073.0, 0.016679719804925837
1074.0, 0.015431118150146706
1075.0, 0.013677001901579831
1076.0, 0.016696355567949583
1077.0, 0.019808455137306072
1078.0, 0.014876527262297353
1079.0, 0.016856245302077626
1080.0, 0.019527199281604398
1081.0, 0.01944755146718977
1082.0, 0.019141616466739904
1083.0, 0.022951832763186554
1084.0, 0.022663896108260247
1085.0, 0.022490423665645562
1086.0, 0.02373705078488656
1087.0, 0.02557368269490935
1088.0, 0.02493956694837345
1089.0, 0.024551625263689224
1090.0, 0.025775163289890244
1091.0, 0.02552473984408573
1092.0, 0.023205160872732448
1093.0, 0.028133288598843943
1094.0, 0.027275424741556274
1095.0, 0.027435749866755718
1096.0, 0.028673313695712823
1097.0, 0.029380172807669507
1098.0, 0.027087812932914037
1099.0, 0.03092521933877697
1100.0, 0.030335911488564432
1101.0, 0.03137631988213501
1102.0, 0.03448680090174999
1103.0, 0.03656146312976982
1104.0, 0.03049410309783775
1105.0, 0.03489226251844717
1106.0, 0.036330467687682465
1107.0, 0.03506074397785054
1108.0, 0.034343526053219685
1109.0, 0.03832014328083063
1110.0, 0.036504502164924596
1111.0, 0.03750828690066748
1112.0, 0.039795141551171594
1113.0, 0.04122230207285831
1114.0, 0.040450561174210864
1115.0, 0.04508395032911212
1116.0, 0.04641950242322065
1117.0, 0.0458068597325521
1118.0, 0.0481486743568362
1119.0, 0.05392821823166885
1120.0, 0.04957919804027861
1121.0, 0.052383804299457465
1122.0, 0.05538104671390847
1123.0, 0.054984155209579756
1124.0, 0.05367812721192115
1125.0, 0.05830081694088845
1126.0, 0.060035843107287185
1127.0, 0.056619231797199895
1128.0, 0.05790479214382996
1129.0, 0.059310378217705365
1130.0, 0.05619022089733024
1131.0, 0.05913202373856234
1132.0, 0.05896547012244905
1133.0, 0.05516806715696346
1134.0, 0.05471811636109702
1135.0, 0.05785621100373237
1136.0, 0.057497644509435494
1137.0, 0.053098738709689085
1138.0, 0.05517512940149601
1139.0, 0.05426426069075511
1140.0, 0.051706387606400825
1141.0, 0.051539228868677296
1142.0, 0.054053303216296936
1143.0, 0.04725928645026797
1144.0, 0.04579872157096182
1145.0, 0.04461353325868357
1146.0, 0.0421511300681689
1147.0, 0.04158686168209772
1148.0, 0.041552824730766304
1149.0, 0.03622215594506734
1150.0, 0.036261711262494285
1151.0, 0.0377715472003246
1152.0, 0.035344268127610885
1153.0, 0.031659649191936416
1154.0, 0.03303146679643177
1155.0, 0.030762504109991318
1156.0, 0.028199062945208946
1157.0, 0.027876511609532598
1158.0, 0.029909232659436784
1159.0, 0.025531886190842016
1160.0, 0.021923621242860663
1161.0, 0.022800313632523477
1162.0, 0.022655459747281816
1163.0, 0.019970834261920208
1164.0, 0.024208145960585015
1165.0, 0.021298172306024297
1166.0, 0.018855719429262674
1167.0, 0.01906206405900137
1168.0, 0.018682469566827457
1169.0, 0.014543259029217003
1170.0, 0.017370226544166516
1171.0, 0.017544801450379323
1172.0, 0.015203198639229623
1173.0, 0.015015748817558875
1174.0, 0.016466965287063172
1175.0, 0.012989494444878152
1176.0, 0.009409813383465818
1177.0, 0.012983732449656964
1178.0, 0.01237459406692771
1179.0, 0.01059793105520675
1180.0, 0.011875591658722014
1181.0, 0.011599688767481516
1182.0, 0.006723634686680008
1183.0, 0.009821081478169841
1184.0, 0.009819177568437355
1185.0, 0.006041781435873702
1186.0, 0.005099027185523099
1187.0, 0.010912610873536984
1188.0, 0.005123185725706085
1189.0, 0.0043339292908932585
1190.0, 0.005898049560792255
1191.0, 0.005567166355121483
1192.0, 0.0017705899259144449
1193.0, 0.00569773771707852
1194.0, 0.004078882515324874
1195.0, 0.002357461068935049
1196.0, 0.002450751930876555
1197.0, 0.0033263190872913203
1198.0, 0.0003454141333368054
1199.0, 0.001628362719532347
1200.0, 0.003696404055725761
1201.0, 0.0028916826333591564
1202.0, 0.0026245358514682977
1203.0, 0.006286410256814682
1204.0, 0.0017498531440180679
1205.0, 0.0008165585887910764
1206.0, 0.003115707468795251
1207.0, 0.003168011987612386
1208.0, 0.0008570238197242292
1209.0, 0.000874474122833814
1210.0, 0.003587700021625795
1211.0, 0.0012646568621744471
1212.0, 0.0022884936600739013
1213.0, 0.0028329218843463344
1214.0, 0.0013748325428253254
1215.0, 0.0025082695885939796
1216.0, 0.004065929719097756
1217.0, 0.001503243867939924
1218.0, 0.0010168264011153549
1219.0, 0.0026196538848192825
1220.0, 0.0035795822356787218
1221.0, 0.00022080955379490545
1222.0, 0.002614165824262806
1223.0, 0.0036420261086531646
1224.0, 0.002854483879555194
1225.0, 0.0026131997184290555
1226.0, 0.0043638476625042786
1227.0, 0.00309445402860157
1228.0, 0.0017246126723687851
1229.0, 0.002691400820821425
1230.0, 0.002077889223713209
1231.0, 0.000862823577531873
1232.0, 0.00246497764751897
1233.0, 0.00586468422259832
1234.0, 0.00224818291904333
1235.0, 0.003205548771269301
1236.0, 0.0034576566146151295
1237.0, 0.0025481868422954617
1238.0, 0.004226555685087336
1239.0, 0.0036075487868855727
1240.0, 0.00192271226290556
1241.0, 0.0032853574577394584
1242.0, 0.004472937061369489
1243.0, 0.00324611774179727
1244.0, 0.0006410810271013918
1245.0, 0.005036420093829711
1246.0, 0.0027616226195209545
1247.0, 0.0014466813661816987
1248.0, 0.0033216822760608715
1249.0, 0.005303299223555821
1250.0, 0.0010654273843338437
1251.0, 0.004156370792086188
1252.0, 0.002673141159166073
1253.0, 0.0011155905843834083
1254.0, 0.0029569666427829264
1255.0, 0.006513027907142469
1256.0, 0.00431167944334266
1257.0, 0.0017245441437502168
1258.0, 0.00626193859986301
1259.0, 0.003957253685984166
1260.0, 0.0020091792575015243
1261.0, 0.005068198439267888
1262.0, 0.00480693377171062
1263.0, 0.0009502877739175858
1264.0, 0.0022364984250583956
1265.0, 0.0028250134646014124
1266.0, 0.0024477765353297727
1267.0, 0.003186158571973016
1268.0, 0.0072672325764579805
1269.0, 0.0029148669376733386
1270.0, 0.0020326880707024755
1271.0, 0.004603030915925416
1272.0, 0.0044297101780762975
1273.0, 0.0007640834570722974
1274.0, 0.00364676043809859
1275.0, 0.002157183326717702
1276.0, 0.002447404787280706
1277.0, 0.0041859840203107715
1278.0, 0.003872039493777492
1279.0, 0.00152739493566717
1280.0, 0.0034998565664601817
1281.0, 0.005133681278773609
1282.0, 0.0019769837526349004
1283.0, 0.0028033704044588188
1284.0, 0.0033811136288086205
1285.0, 0.0014648822305577598
1286.0, 0.0027708980584664
1287.0, 0.00403502166712393
1288.0, 0.001950843452691021
1289.0, 0.0004853020995112794
1290.0, 0.0016164383775519042
1291.0, 0.003455403047928094
1292.0, 0.001041873702005317
1293.0, 0.0012709633812125587
1294.0, 0.002610357443748783
1295.0, 0.001967992873019906
1296.0, 0.0015202167857723014
1297.0, 0.002716807232862972
1298.0, 0.0042339848225036655
1299.0, 0.0007760598272371416
1300.0, 0.004333100398502721
1301.0, 0.002945038304210972
1302.0, 0.0011242352996976384
1303.0, 0.002257235417541639
1304.0, 0.004738225156017702
1305.0, 0.001840578854406059
1306.0, 0.003796751731555712
1307.0, 0.0047641356921001585
1308.0, 0.0037522709286087765
1309.0, 0.003297508636790251
1310.0, 0.005591974216236124
1311.0, 0.0028197624420107006
1312.0, 0.003027449717290528
1313.0, 0.006243587397981484
1314.0, 0.004919809372871901
1315.0, 0.0022685760375195704
1316.0, 0.004341313346871607
1317.0, 0.005604161824312698
1318.0, 0.0017687900081517212
1319.0, 0.004406974345388405
1320.0, 0.005920790710708836
1321.0, 0.004151083642248832
1322.0, 0.002360047055674032
1323.0, 0.007515761799328703
1324.0, 0.0016889923108907067
1325.0, 0.0005708769654281321
1326.0, 0.005270454823824974
1327.0, 0.006076567283859118
1328.0, 0.0022364431405504795
1329.0, 0.007255229385440259
1330.0, 0.006016458288639682
1331.0, 0.0024679940673183534
1332.0, 0.004736248734550143
1333.0, 0.005297800530001404
1334.0, 0.002065663191565791
1335.0, 0.0010681383302736072
1336.0, 0.0060612947643728385
1337.0, 0.0025894327610096607
1338.0, 0.0035560305636107097
1339.0, 0.005571041460481409
1340.0, 0.004928187648184419
1341.0, 0.0024841984062390194
1342.0, 0.008630113965903491
1343.0, 0.006091012390633189
1344.0, 0.0018754150870784077
1345.0, 0.004904607569649693
1346.0, 0.006988643257390286
1347.0, 0.002507195852349378
1348.0, 0.002464371420542978
1349.0, 0.009430176770571473
1350.0, 0.0037084256986917286
1351.0, 0.003528405694407064
1352.0, 0.007349488884450184
1353.0, 0.007947389180048857
1354.0, 0.0018622947583765612
1355.0, 0.00829941303768305
1356.0, 0.007764116599102259
1357.0, 0.004222507133959591
1358.0, 0.00660538829536165
1359.0, 0.00832954771016924
1360.0, 0.0018987020453191724
1361.0, 0.004676328351871797
1362.0, 0.009694789080193554
1363.0, 0.005292033751245591
1364.0, 0.0039292781496912755
1365.0, 0.006449391315706379
1366.0, 0.007395416420251913
1367.0, 0.0018051432283180784
1368.0, 0.006765586281701583
1369.0, 0.00428816909070311
1370.0, 0.0018266176029322545
1371.0, 0.003590218562673821
1372.0, 0.005258771553238511
1373.0, 0.001064927088686332
1374.0, 0.0025092812063972595
1375.0, 0.006757387046721855
1376.0, 0.0026180238753122356
1377.0, 0.004011563297997417
1378.0, 0.007611733691398732
1379.0, 0.006855942300561239
1380.0, 0.004726691221852732
1381.0, 0.011064947321799858
1382.0, 0.008114965723397694
1383.0, 0.0060313244010342945
1384.0, 0.008762463285979476
1385.0, 0.010079654694843983
1386.0, 0.0033212816227367495
1387.0, 0.007663605951397569
1388.0, 0.010063935636387631
1389.0, 0.003990006631141288
1390.0, 0.005911970043855716
1391.0, 0.009988057124697317
1392.0, 0.007534012774678466
1393.0, 0.003728436990827084
1394.0, 0.011148055631870574
1395.0, 0.006385973060112781
1396.0, 0.0045440817977157304
1397.0, 0.00894286102325139
1398.0, 0.010835893990208224
1399.0, 0.0035327607252820968
1400.0, 0.009226107308381458
1401.0, 0.0070447081337182286
1402.0, 0.002791493208985388
1403.0, 0.007498761974826592
1404.0, 0.01146407733040517
1405.0, 0.007179707920914085
1406.0, 0.0024153865383181638
1407.0, 0.014445576398041286
1408.0, 0.007698719644333163
1409.0, 0.005950906347136809
1410.0, 0.010210785299864203
1411.0, 0.010340885272313891
1412.0, 0.0029538230845185297
1413.0, 0.008099424131146605
1414.0, 0.009984265321136521
1415.0, 0.006345741895801848
1416.0, 0.0064068545630836075
1417.0, 0.008404764409743769
1418.0, 0.008658190408441463
1419.0, 0.006911765425955118
1420.0, 0.011446407643228854
1421.0, 0.0069141661776822
1422.0, 0.005027370271148263
1423.0, 0.009740791405484048
1424.0, 0.01072398086852644
1425.0, 0.005723968548231146
1426.0, 0.008000640335161652
1427.0, 0.010102606642055806
1428.0, 0.005638096651472297
1429.0, 0.007872095950823494
1430.0, 0.009963003852261412
1431.0, 0.008334263694882247
1432.0, 0.0064950021993464245
1433.0, 0.012538698792343919
1434.0, 0.007356087501216141
1435.0, 0.008292200010018848
1436.0, 0.011632804690337721
1437.0, 0.009033365582191031
1438.0, 0.006359823613064927
1439.0, 0.01261271811963373
1440.0, 0.015288966934099778
1441.0, 0.005261367176288782
1442.0, 0.013174778684684321
1443.0, 0.01434522423595459
1444.0, 0.010050059852119146
1445.0, 0.008989823413245451
1446.0, 0.014332470050480172
1447.0, 0.012059264218318455
1448.0, 0.007283966594076366
1449.0, 0.015598119450847034
1450.0, 0.010951401190651381
1451.0, 0.0066830785758602036
1452.0, 0.01220089491639881
1453.0, 0.01517956304213499
1454.0, 0.005625087416547348
1455.0, 0.010840245706316858
1456.0, 0.012734866037203673
1457.0, 0.008502150806075253
1458.0, 0.009011199323485517
1459.0, 0.014835996600441756
1460.0, 0.010435643520824931
1461.0, 0.006877431718043853
1462.0, 0.01568800868858445
1463.0, 0.010308089118690114
1464.0, 0.007982162804628259
1465.0, 0.012102000873918141
1466.0, 0.014160213173021883
1467.0, 0.006269834614722299
1468.0, 0.011329013852538025
1469.0, 0.013640390945463335
1470.0, 0.00843252721187699
1471.0, 0.009737142781476225
1472.0, 0.013079637945634322
1473.0, 0.010166678641409611
1474.0, 0.0052249581053879154
1475.0, 0.014161045065741371
1476.0, 0.011781394644243572
1477.0, 0.008301266130348732
1478.0, 0.012316497664064074
1479.0, 0.012511838974251512
1480.0, 0.005579439267993441
1481.0, 0.011180778790725062
1482.0, 0.013752129701313816
1483.0, 0.006651006722114503
1484.0, 0.009905450788943863
1485.0, 0.013125652563294725
1486.0, 0.009733849675787946
1487.0, 0.006486911887628672
1488.0, 0.0161719272438446
1489.0, 0.005476158552734223
1490.0, 0.005778124939646753
1491.0, 0.012221598727836278
1492.0, 0.009884649985888531
1493.0, 0.006970354866248273
1494.0, 0.01015051859877845
1495.0, 0.009339589615950994
1496.0, 0.0003700244405821368
1497.0, 0.010330399560383997
1498.0, 0.012542779414837375
1499.0, 0.006118710771896827
1500.0, 0.005712296075912309
1501.0, 0.011432986059368417
1502.0, 0.006336871200853875
1503.0, 0.0023079581043439798
1504.0, 0.013118477041068837
1505.0, 0.007852569500013517
1506.0, 0.0061128023982114695
1507.0, 0.01010960985643584
1508.0, 0.01121788848942613
1509.0, 0.0046004746212600384
1510.0, 0.008317841275585863
1511.0, 0.010976359377670844
1512.0, 0.004955161477349544
1513.0, 0.007515344950032285
1514.0, 0.010734767419174635
1515.0, 0.00724592167959425
1516.0, 0.00263546952892734
1517.0, 0.014012072456062473
1518.0, 0.006866330812827668
1519.0, 0.0014272485435080852
1520.0, 0.005834620100402291
1521.0, 0.004730617656948964
1522, 0.0
1523, 0.0
1524, 0.0
1525, 0.0
1526, 0.0
1527, 0.0
1528, 0.0
1529, 0.0
1530, 0.0
1531, 0.0
1532, 0.0
1533, 0.0
1534, 0.0
1535, 0.0
1536, 0.0
1537, 0.0
1538, 0.0
1539, 0.0
1540, 0.0
1541, 0.0
1542, 0.0
1543, 0.0
1544, 0.0
1545, 0.0
1546, 0.0
1547, 0.0
1548, 0.0
1549, 0.0
1550, 0.0
1551, 0.0
1552, 0.0
1553, 0.0
1554, 0.0
1555, 0.0
1556, 0.0
1557, 0.0
1558, 0.0
1559, 0.0
1560, 0.0
1561, 0.0
1562, 0.0
1563, 0.0
1564, 0.0
1565, 0.0
1566, 0.0
1567, 0.0
1568, 0.0
1569, 0.0
1570, 0.0
1571, 0.0
1572, 0.0
1573, 0.0
1574, 0.0
1575, 0.0
1576, 0.0
1577, 0.0
1578, 0.0
1579, 0.0
1580, 0.0
1581, 0.0
1582, 0.0
1583, 0.0
1584, 0.0
1585, 0.0
1586, 0.0
1587, 0.0
1588, 0.0
1589, 0.0
1590, 0.0
1591, 0.0
1592, 0.0
1593, 0.0
1594, 0.0
1595, 0.0
1596, 0.0
1597, 0.0
1598, 0.0
1599, 0.0
