30, 0.0
31, 0.0
32, 0.0
33, 0.0
34, 0.0
35, 0.0
36, 0.0
37, 0.0
38, 0.0
39, 0.0
40, 0.0
41, 0.0
42, 0.0
43, 0.0
44, 0.0
45, 0.0
46, 0.0
47, 0.0
48, 0.0
49, 0.0
50, 0.0
51, 0.0
52, 0.0
53, 0.0
54.0, 0.0005668911817816587
55.0, 0.0012278964829914168
56.0, 0.00176191175552306
57.0, 0.0016230232077950831
58.0, 0.0018100082379777361
59.0, 0.0023263888151740055
60.0, 0.003101333042521563
61.0, 0.003266983954121738
62.0, 0.0035197599343836402
63.0, 0.0043418246115657965
64.0, 0.00544657445254865
65.0, 0.005543605044001006
66.0, 0.0047930921832114014
67.0, 0.004393987954010614
68.0, 0.0031508467814665726
69.0, 0.001975377469591159
70.0, 0.0016131296541822104
71.0, 0.0007374591772218783
72.0, 0.00021686423735458278
73.0, 0.00010289366148393946
74.0, 0.0002308063695037951
75.0, 0.0008864662336377509
76.0, 0.0011748107953963235
77.0, 0.000170437993010426
78.0, 0.0005768520865598074
79.0, 0.0009999065885150594
80.0, 0.0012298496661596074
81.0, 0.0008647968345339564
82.0, 0.0010736175515955748
83.0, 0.0016433125340164596
84.0, 0.0024880959875211886
85.0, 0.0030802418237964057
86.0, 0.0035979571893354676
87.0, 0.004239377574069803
88.0, 0.00638292657371713
89.0, 0.00902834118953148
90.0, 0.012489771968803211
91.0, 0.017338240786546503
92.0, 0.022529491379606543
93.0, 0.027539452658742233
94.0, 0.03248966340865496
95.0, 0.03876019714608914
96.0, 0.045841119621936606
97.0, 0.05270545602631957
98.0, 0.058328611407018664
99.0, 0.061593407220926745
100.0, 0.06469730642484485
101.0, 0.06754268241598199
102.0, 0.06786788888737313
103.0, 0.06730067950253045
104.0, 0.06592880776099226
105.0, 0.0635955314201827
106.0, 0.06124809016521693
107.0, 0.06076909824116794
108.0, 0.061657002856381954
109.0, 0.060462533125209335
110.0, 0.06044746872620424
111.0, 0.06167747798004497
112.0, 0.06450893913380577
113.0, 0.06773906673949205
114.0, 0.07263179157614226
115.0, 0.07926191010257419
116.0, 0.08801461913647686
117.0, 0.10379071813576494
118.0, 0.11613495551619096
119.0, 0.11845730977806626
120.0, 0.11528297573120265
121.0, 0.11316079173959635
122.0, 0.11144347840014006
123.0, 0.10739895809807366
124.0, 0.10517680492081946
125.0, 0.10084470414755747
126.0, 0.09247046782584377
127.0, 0.08774933131937172
128.0, 0.0831981570190246
129.0, 0.0788704829524978
130.0, 0.07496909777584801
131.0, 0.07418311953915943
132.0, 0.07266808683250155
133.0, 0.06934320589039955
134.0, 0.06769961646207705
135.0, 0.0676190452271618
136.0, 0.06923158158902497
137.0, 0.07330314088267184
138.0, 0.07480750427031709
139.0, 0.07701981030971541
140.0, 0.08076418160618518
141.0, 0.0876750223561573
142.0, 0.09237000850531579
143.0, 0.09840200122026474
144.0, 0.10991350785234688
145.0, 0.12352105542082276
146.0, 0.1393688298149805
147.0, 0.1580245229672699
148.0, 0.18287854657988784
149.0, 0.21281826499809867
150.0, 0.24686781962111326
151.0, 0.28521255324706685
152.0, 0.31835730927701494
153.0, 0.35673768650833304
154.0, 0.39338191866546207
155.0, 0.4045882023575189
156.0, 0.4005025729851429
157.0, 0.3857163290921459
158.0, 0.3606923725415714
159.0, 0.31685389287803234
160.0, 0.2787261215104236
161.0, 0.24234255454222065
162.0, 0.20122602089336608
163.0, 0.1735548419233687
164.0, 0.14873983743765487
165.0, 0.1253264059261405
166.0, 0.1088180246745871
167.0, 0.09596827337730032
168.0, 0.08457739676811457
169.0, 0.07294814700441563
170.0, 0.06680936598824001
171.0, 0.06021071620868899
172.0, 0.053675960209718446
173.0, 0.05142627177904578
174.0, 0.04812506435482485
175.0, 0.04456072267202567
176.0, 0.04107412714555726
177.0, 0.039014842520052426
178.0, 0.03636498508710729
179.0, 0.03406021671530078
180.0, 0.03406214103167931
181.0, 0.030772923080963833
182.0, 0.02842331220541383
183.0, 0.02761748545713017
184.0, 0.02488092024402551
185.0, 0.02296720464988392
186.0, 0.02201947116840496
187.0, 0.02238465693958954
188.0, 0.020899457304018664
189.0, 0.020214216746834462
190.0, 0.01993183686748528
191.0, 0.017998238089294658
192.0, 0.017143300444740505
193.0, 0.01687477821449122
194.0, 0.016972046805323226
195.0, 0.014581213421316155
196.0, 0.014886865576854067
197.0, 0.015608675712098096
198.0, 0.013353158940798983
199.0, 0.013875994431021242
200.0, 0.01288292681772312
201.0, 0.0105550868377902
202.0, 0.011958273562079109
203.0, 0.011373247067831872
204.0, 0.010430055146055285
205.0, 0.010065160294204244
206.0, 0.009979421386687701
207.0, 0.009474918106340336
208.0, 0.008987846955441435
209.0, 0.009506988928508195
210.0, 0.008666284196165759
211.0, 0.008444562562849024
212.0, 0.00913345309362874
213.0, 0.009091823182930682
214.0, 0.008929195748650256
215.0, 0.008935180988725944
216.0, 0.009374974487066964
217.0, 0.009485333881815286
218.0, 0.009781938183810058
219.0, 0.009811261584331633
220.0, 0.008207192034710164
221.0, 0.00937578674137545
222.0, 0.010218159025358343
223.0, 0.009899037695671674
224.0, 0.009071926497210031
225.0, 0.009756762579686842
226.0, 0.010321975886856636
227.0, 0.00922966041792676
228.0, 0.00977433548536943
229.0, 0.009827577769257322
230.0, 0.009451517512733609
231.0, 0.00913823486788486
232.0, 0.009903937967088088
233.0, 0.009842722669288385
234.0, 0.008607796369659552
235.0, 0.009504004230150225
236.0, 0.008681267746332712
237.0, 0.008235371410001475
238.0, 0.01016382986150422
239.0, 0.010915196589546754
240.0, 0.011099546513858428
241.0, 0.011222192470922298
242.0, 0.012581876875085255
243.0, 0.012991660201517298
244.0, 0.014008806733606594
245.0, 0.01583472089515297
246.0, 0.015947208262756144
247.0, 0.01774344405465055
248.0, 0.019781736738737937
249.0, 0.020947146507470392
250.0, 0.023128124124499806
251.0, 0.025508199185852492
252.0, 0.02761679369571827
253.0, 0.028392048239460045
254.0, 0.03184868169214866
255.0, 0.0351690055393043
256.0, 0.03793881302184664
257.0, 0.041502625342146625
258.0, 0.04578213601013794
259.0, 0.0492696341777144
260.0, 0.05098040620560777
261.0, 0.056373817851285986
262.0, 0.06050142973755703
263.0, 0.06469709123714996
264.0, 0.0711903230504869
265.0, 0.07365294989006932
266.0, 0.07617706742695549
267.0, 0.07941288604859702
268.0, 0.08380525702107577
269.0, 0.08679013615313895
270.0, 0.09080523207589021
271.0, 0.09668399736704564
272.0, 0.10031906048379374
273.0, 0.10700930563930412
274.0, 0.11463683703003012
275.0, 0.12118544998444669
276.0, 0.12906061027530216
277.0, 0.13988702433024106
278.0, 0.15073616929683295
279.0, 0.15389817722708826
280.0, 0.16668575606072533
281.0, 0.1756937906237933
282.0, 0.17878266168071472
283.0, 0.18263756283374102
284.0, 0.18365761475597092
285.0, 0.1807575737694691
286.0, 0.17307067840747373
287.0, 0.16674384253894922
288.0, 0.15794466550005504
289.0, 0.14787464243838744
290.0, 0.13794085831869352
291.0, 0.12778518881469306
292.0, 0.11697274783495065
293.0, 0.10614550816056387
294.0, 0.09739918354204874
295.0, 0.08659330187397446
296.0, 0.07842106566874622
297.0, 0.07337217553896873
298.0, 0.06464551447443069
299.0, 0.059610480895826726
300.0, 0.05483896535835606
301.0, 0.04833146056555876
302.0, 0.044335697238373196
303.0, 0.041924689790792224
304.0, 0.03936104661650717
305.0, 0.034276627698659023
306.0, 0.03218284425432989
307.0, 0.030052454915541486
308.0, 0.027531889016210714
309.0, 0.024335797487023934
310.0, 0.023245076291064235
311.0, 0.021449507738349357
312.0, 0.018905051967223953
313.0, 0.01984762352788728
314.0, 0.017646938346298234
315.0, 0.015516491655853533
316.0, 0.01503569171940593
317.0, 0.014421486594564329
318.0, 0.013889411935754008
319.0, 0.013660090908014939
320.0, 0.01400050147365074
321.0, 0.011689137525755386
322.0, 0.011337222398114773
323.0, 0.012002589223294313
324.0, 0.011426294016447186
325.0, 0.01019514011965864
326.0, 0.009965705862702455
327.0, 0.010339401509168001
328.0, 0.008619413034947116
329.0, 0.00935588154023946
330.0, 0.009329176560166737
331.0, 0.007858125455575363
332.0, 0.008951862072113547
333.0, 0.008626709974178439
334.0, 0.007686332403342848
335.0, 0.006624800445661683
336.0, 0.007460974034040254
337.0, 0.0064768149624577194
338.0, 0.0051355141709422125
339.0, 0.005139424893005246
340.0, 0.00397539796689446
341.0, 0.003486002369101243
342.0, 0.003345501423017926
343.0, 0.0026736741345625256
344.0, 0.001329284143709321
345.0, 0.0010866480187160861
346.0, 0.0017540487929943076
347.0, 0.0015614644816907262
348.0, 0.0011363823779019931
349.0, 0.0009372905986250003
350.0, 0.0010415398575168867
351.0, 0.0009272451041231205
352.0, 0.00040772526005890264
353.0, 0.0003389903112290242
354.0, 0.00109837782266624
355.0, 0.00040085812361670577
356.0, 0.00048072827132556123
357.0, 0.0007654175311631722
358.0, 0.0007614284597731693
359.0, 0.003172625587940794
360.0, 0.0045290851866509295
361.0, 0.005343312561271319
362.0, 0.006421790237681203
363.0, 0.0059539268950234885
364.0, 0.006899444722502131
365.0, 0.00878009638508083
366.0, 0.0099150535792733
367.0, 0.008259276563640495
368.0, 0.007885026693804231
369.0, 0.00874183616127505
370.0, 0.007855684025700627
371.0, 0.007198066611162532
372.0, 0.005683116119316834
373.0, 0.003437800631638448
374.0, 0.00361906949371824
375.0, 0.00313336217032344
376.0, 0.002112691380857716
377.0, 0.0007291854661859646
378.0, 0.0008194096286850848
379.0, 0.0017405548135690217
380.0, 0.002140449238395888
381.0, 0.001105262427756757
382.0, 0.002474338830437064
383.0, 0.0030613166411238295
384.0, 0.002829066697589067
385.0, 0.0016819616036560267
386.0, 0.0033519229325187447
387.0, 0.0027424952517646063
388.0, 0.0015008486866774466
389.0, 0.0023631139305168745
390.0, 0.0017336185892933011
391.0, 0.0011481699114157331
392.0, 0.0009876196611923497
393.0, 0.0018407441534461666
394.0, 0.004027745674057898
395.0, 0.005934123092848153
396.0, 0.00800878389502585
397.0, 0.012419442439450099
398.0, 0.01637157687679263
399.0, 0.019680323720167946
400.0, 0.023074561147536865
401.0, 0.030014371471427145
402.0, 0.034018436315908944
403.0, 0.03910775263958373
404.0, 0.04593929717715576
405.0, 0.050376242899552
406.0, 0.05305418102976143
407.0, 0.054324288335851664
408.0, 0.05412390602428259
409.0, 0.05082443975169308
410.0, 0.0480898522338652
411.0, 0.04412348244570747
412.0, 0.03796993847771571
413.0, 0.03171290027527484
414.0, 0.027436530641037068
415.0, 0.023171725961676746
416.0, 0.01756874552230553
417.0, 0.014455108169646751
418.0, 0.010553311276925199
419.0, 0.00749851476775515
420.0, 0.0068431211571612595
421.0, 0.004913549224305949
422.0, 0.002553048062455462
423.0, 0.001164898626350257
424.0, 0.002443825707965576
425.0, 0.0014700748812105464
426.0, 0.0006522190141197184
427.0, 0.0004170598120687328
428.0, 0.001298044570383507
429.0, 0.0014979373862796055
430.0, 0.0013956606888877714
431.0, 0.0010727549249689053
432.0, 0.0006146168390456074
433.0, 0.00210483598122407
434.0, 0.003327301007625597
435.0, 0.00421236305225889
436.0, 0.005005124067649925
437.0, 0.00633852345111662
438.0, 0.008097580410866265
439.0, 0.010383944965587005
440.0, 0.013506056421569606
441.0, 0.01676400051033932
442.0, 0.021130612181323446
443.0, 0.026306167128668817
444.0, 0.03113697644323452
445.0, 0.03737981750867399
446.0, 0.04447991818366878
447.0, 0.05173319185803113
448.0, 0.057274496612492266
449.0, 0.06884303664976263
450.0, 0.07893014507405773
451.0, 0.08654844720225473
452.0, 0.09336069454623362
453.0, 0.10170004096227267
454.0, 0.10762627885037876
455.0, 0.11123911014055472
456.0, 0.11615292007954196
457.0, 0.11899999412224058
458.0, 0.11985397779708887
459.0, 0.12046367504592859
460.0, 0.12785444065685825
461.0, 0.130512693564067
462.0, 0.1350944920155188
463.0, 0.14263331868785586
464.0, 0.15020223480609948
465.0, 0.16534533820379238
466.0, 0.18296722208151842
467.0, 0.2022686399899802
468.0, 0.2257457046316734
469.0, 0.2576464241929927
470.0, 0.29309583767926384
471.0, 0.33201999182222586
472.0, 0.38009265326804215
473.0, 0.4233754828225709
474.0, 0.46000590039068406
475.0, 0.4884230105566091
476.0, 0.5041411395756763
477.0, 0.49834973216262285
478.0, 0.4853013276333699
479.0, 0.4646753703214363
480.0, 0.4179464794972819
481.0, 0.3772030171166705
482.0, 0.3361592557522041
483.0, 0.2944081815976481
484.0, 0.2573847154408091
485.0, 0.23358914197116487
486.0, 0.20967558208590706
487.0, 0.18509535746564193
488.0, 0.17127161026605855
489.0, 0.15848144266705186
490.0, 0.14597964365713914
491.0, 0.13505248716144122
492.0, 0.1310532293304977
493.0, 0.1257536694921475
494.0, 0.1226807837702478
495.0, 0.1218843404099665
496.0, 0.12098688856821778
497.0, 0.12416822989619684
498.0, 0.13097022524845714
499.0, 0.14060340231045337
500.0, 0.15107070629153074
501.0, 0.17034443752452139
502.0, 0.19169360193194257
503.0, 0.21640103536977034
504.0, 0.2510003881948785
505.0, 0.29929565124934376
506.0, 0.35260981552569076
507.0, 0.4153609153774502
508.0, 0.5009289065340937
509.0, 0.5923282475749245
510.0, 0.6946720119898205
511.0, 0.8027232705888963
512.0, 0.9051888066127609
513.0, 0.9726428014044934
514.0, 0.9992576312350089
515.0, 0.9968853660865402
516.0, 0.9853922520147311
517.0, 0.9140599834992708
518.0, 0.8169779395060113
519.0, 0.7053892139430507
520.0, 0.5918767582980026
521.0, 0.4961365440127996
522.0, 0.4155185173378753
523.0, 0.35001353787216244
524.0, 0.29954446351315
525.0, 0.25225118468480623
526.0, 0.21344203664509895
527.0, 0.1830381365574738
528.0, 0.1606901654420591
529.0, 0.1389549684728358
530.0, 0.12356423830358954
531.0, 0.1104430861844726
532.0, 0.09680190095984056
533.0, 0.08829224022053037
534.0, 0.08172173955244501
535.0, 0.07432504736182244
536.0, 0.06523182101998573
537.0, 0.06256503720775408
538.0, 0.05752788008421085
539.0, 0.05285277469329181
540.0, 0.04943134200952626
541.0, 0.04475655470534844
542.0, 0.04177688946258493
543.0, 0.03918509045739393
544.0, 0.03656661675017841
545.0, 0.03410540000085896
546.0, 0.0316491474734749
547.0, 0.03024457714308802
548.0, 0.02937068165285675
549.0, 0.026472795047788752
550.0, 0.02470414254526611
551.0, 0.02300520851537639
552.0, 0.021159611080459627
553.0, 0.0190942323517935
554.0, 0.019239003115604426
555.0, 0.017448267359341234
556.0, 0.015309076639591926
557.0, 0.01622716277169815
558.0, 0.015017015411601286
559.0, 0.014574396116661597
560.0, 0.014522906025203846
561.0, 0.014226671024630332
562.0, 0.011809152172431748
563.0, 0.011607518816105023
564.0, 0.011940006395220564
565.0, 0.011462202351328011
566.0, 0.013241758207725243
567.0, 0.011553671322034676
568.0, 0.00937673513377002
569.0, 0.008700654446522758
570.0, 0.011144793536533089
571.0, 0.010453671865147703
572.0, 0.00989651284475379
573.0, 0.010419034162880491
574.0, 0.010036223208351566
575.0, 0.009194360794954726
576.0, 0.008439648792144143
577.0, 0.007772825555930747
578.0, 0.006745180029344781
579.0, 0.007862673788844957
580.0, 0.008199334474500304
581.0, 0.0077723661022957215
582.0, 0.007533668871483648
583.0, 0.008401061056579106
584.0, 0.008161198083012926
585.0, 0.007544266934841558
586.0, 0.0077181796616571504
587.0, 0.007661458858061872
588.0, 0.006977942618540242
589.0, 0.006602389649968033
590.0, 0.0071682180514932095
591.0, 0.005673450685395357
592.0, 0.005887618414733033
593.0, 0.005968224140814812
594.0, 0.005061591511827226
595.0, 0.004267097517485107
596.0, 0.0047511764938332635
597.0, 0.005519859506707558
598.0, 0.0063308306566775
599.0, 0.00751190226289902
600.0, 0.006892013026434437
601.0, 0.005869831500664505
602.0, 0.005210669774589262
603.0, 0.005997243196766923
604.0, 0.005145372656914407
605.0, 0.004726584736780269
606.0, 0.00494949451008897
607.0, 0.005844688205316076
608.0, 0.004459537155109132
609.0, 0.005582567208153689
610.0, 0.0061177119733386385
611.0, 0.004118733315274691
612.0, 0.0063452660834585825
613.0, 0.005707029704086681
614.0, 0.0046069027776226845
615.0, 0.004079979772458952
616.0, 0.003661416235699992
617.0, 0.004290176881875222
618.0, 0.00538621504628474
619.0, 0.006048002604044241
620.0, 0.004259598549380508
621.0, 0.005752480996715417
622.0, 0.006346630079568169
623.0, 0.0058569168959031045
624.0, 0.004753083901215745
625.0, 0.006800396130091164
626.0, 0.0064953619475546
627.0, 0.006489812664983084
628.0, 0.008764891118981868
629.0, 0.007551765466719776
630.0, 0.0076033357353842285
631.0, 0.007251394768998044
632.0, 0.006193963509163683
633.0, 0.006964798089608872
634.0, 0.006650591773448423
635.0, 0.005405183504069624
636.0, 0.003913987673344021
637.0, 0.0037822307956966493
638.0, 0.0032161029473476107
639.0, 0.002449196307908086
640.0, 0.0018236950048853863
641.0, 0.0017437897294217595
642.0, 0.0012004111709630195
643.0, 0.0011686246708167592
644.0, 0.0011588871624178757
645.0, 0.0008537110049566672
646.0, 0.0006305501689530577
647.0, 0.0013324020394166836
648.0, 0.0017767986598076224
649.0, 0.001549546792207832
650.0, 0.0007288596475397889
651.0, 0.0018749804287201393
652.0, 0.002134046319313286
653.0, 0.0015691230492537896
654.0, 0.0011092996682601152
655.0, 0.0017017779493451284
656.0, 0.001121024833210059
657.0, 0.0011766458774815584
658.0, 0.0031676287618678696
659.0, 0.0017476285602284068
660.0, 0.002201583529953137
661.0, 0.002380593618430892
662.0, 0.0016821975853975933
663.0, 0.001709863517340382
664.0, 0.0023283598705348325
665.0, 0.0016154533875607114
666.0, 0.00045831172551830297
667.0, 0.0013135806242084514
668.0, 0.0009196976690888652
669.0, 0.0005409772400880834
670.0, 0.0008034990144773288
671.0, 0.0020030925511155128
672.0, 0.0006065748062793701
673.0, 0.0003422814190337053
674.0, 0.00026008351310849627
675.0, 0.00010090427653941145
676.0, 0.0006697081131071249
677.0, 0.0006689985351329837
678.0, 0.000799905351781863
679.0, 0.0008827065276261586
680.0, 0.0003407735678585034
681.0, 0.0007590004245659391
682.0, 0.0005679112800614365
683.0, 0.0004708086801837902
684.0, 0.001041390684169517
685.0, 0.0010975228830348589
686.0, 0.001011050403873141
687.0, 0.0013668850054277036
688.0, 0.0019062517436321715
689.0, 0.0008858906050750795
690.0, 0.001137467911351841
691.0, 0.0013839049662960588
692.0, 0.0012086426102355628
693.0, 0.00030043245088788096
694.0, 0.0006377753220848854
695.0, 0.000489479434748882
696.0, 0.00042006848887781904
697.0, 0.0007769878224732116
698.0, 0.0011461688434872784
699.0, 0.0007769899154393045
700.0, 0.0010835311909208913
701.0, 0.0017721282166463788
702.0, 0.0010953591670568106
703.0, 0.0022649382627163016
704.0, 0.0030821517798526304
705.0, 0.0035951418998218785
706.0, 0.004108532561806221
707.0, 0.005575638038297304
708.0, 0.005679975557012923
709.0, 0.00629454673546111
710.0, 0.007703770857054712
711.0, 0.0075802953579337294
712.0, 0.008657997749471694
713.0, 0.009514439108327404
714.0, 0.010392754936014242
715.0, 0.01200346568680762
716.0, 0.012493198809107372
717.0, 0.01240127406512965
718.0, 0.012952198338619582
719.0, 0.014555195183448468
720.0, 0.014792926049057383
721.0, 0.015891499069674096
722.0, 0.016442756397639362
723.0, 0.016512326328011143
724.0, 0.016967122159991625
725.0, 0.017501608036211577
726.0, 0.01768959572054578
727.0, 0.01793629239466401
728.0, 0.018561744986472447
729.0, 0.01917661187039829
730.0, 0.01943339266592078
731.0, 0.020072094835792188
732.0, 0.02102947906151929
733.0, 0.021508896572631026
734.0, 0.022143459843610422
735.0, 0.023338438243845107
736.0, 0.02507179115000385
737.0, 0.027151793529231534
738.0, 0.02812086997064744
739.0, 0.02999957300836706
740.0, 0.03145030644350095
741.0, 0.03286878587681784
742.0, 0.03702127266422075
743.0, 0.03784627434262859
744.0, 0.040241776803286555
745.0, 0.04219476801704818
746.0, 0.041074015279576645
747.0, 0.03973412010075165
748.0, 0.0398397204212836
749.0, 0.04007259069485212
750.0, 0.039857447110165006
751.0, 0.039212700615771555
752.0, 0.0391144358252118
753.0, 0.03694991517995715
754.0, 0.03565801732615267
755.0, 0.0385629692822044
756.0, 0.03879520729380998
757.0, 0.03621175900512924
758.0, 0.03451465987165341
759.0, 0.03475604173682317
760.0, 0.03511534853253896
761.0, 0.03504162686170248
762.0, 0.03356989835046045
763.0, 0.03169834368519435
764.0, 0.03068552774392051
765.0, 0.030676221443703966
766.0, 0.028708507017686093
767.0, 0.027386173355001465
768.0, 0.02712723187120365
769.0, 0.02605113982803214
770.0, 0.023923403324329157
771.0, 0.023047910900670297
772.0, 0.02228277195463427
773.0, 0.020499427724146792
774.0, 0.020450213066433225
775.0, 0.01923436579329536
776.0, 0.018164672504368862
777.0, 0.017500903973527576
778.0, 0.016751763858783384
779.0, 0.014642602680755446
780.0, 0.014135758090726357
781.0, 0.013585046506479187
782.0, 0.011745910498338927
783.0, 0.010994382511066934
784.0, 0.011893765937836209
785.0, 0.011548962973241289
786.0, 0.010180959210534742
787.0, 0.009722089260025768
788.0, 0.010745490480741119
789.0, 0.009830026832594234
790.0, 0.009754946546992396
791.0, 0.011253330826896137
792.0, 0.008488873791141088
793.0, 0.007379861173190453
794.0, 0.008148150034306531
795.0, 0.008714950727225747
796.0, 0.0063103522314804286
797.0, 0.006916262894747493
798.0, 0.007149276293159954
799.0, 0.007299810441376205
800.0, 0.007472482127906915
801.0, 0.00753820479804466
802.0, 0.00715509233843309
803.0, 0.007054164032095258
804.0, 0.006889667312849087
805.0, 0.006282193318734352
806.0, 0.005612471742972384
807.0, 0.006178625002935148
808.0, 0.006384183541959976
809.0, 0.006101762968415502
810.0, 0.00609513198568066
811.0, 0.004954204431378292
812.0, 0.005081085016694901
813.0, 0.005536476086297715
814.0, 0.005306517388288198
815.0, 0.0028765651137836034
816.0, 0.0040045753601581704
817.0, 0.004132208208717642
818.0, 0.00346418807209132
819.0, 0.00329981242665005
820.0, 0.0044130688971620435
821.0, 0.0030759787865448076
822.0, 0.001981116968277782
823.0, 0.0020182793884223706
824.0, 0.002689744513864039
825.0, 0.0018980137129672886
826.0, 0.001191691278239216
827.0, 0.001359193330522711
828.0, 0.002293210730909906
829.0, 0.0005972144391887139
830.0, 0.0019421749532793973
831.0, 0.0022931858713605745
832.0, 0.0017724209339203113
833.0, 0.001627663565762967
834.0, 0.0013373359870358361
835.0, 0.0021081146672910613
836.0, 0.002381239452228955
837.0, 0.001786325754171367
838.0, 0.001030831932948696
839.0, 0.0007843985712653104
840.0, 0.0005749484389893308
841.0, 0.0004136444315801482
842.0, 0.00030800145372816975
843.0, 0.00017526803925879187
844.0, 0.0008673154737987388
845.0, 0.0006654861044309759
846.0, 0.00020318413046497094
847.0, 0.0005948244174931692
848.0, 0.0011046860073916699
849.0, 0.0008108057123484138
850.0, 0.00042062669970438857
851.0, 0.0003264606328042081
852.0, 0.0007936541657700448
853.0, 0.0011245712361276183
854.0, 0.0006418093956974276
855.0, 0.0003202610917081794
856.0, 0.0006095070535060455
857.0, 0.000898886597816946
858.0, 0.001201471135280796
859.0, 0.0012845641578208818
860.0, 0.0011032797061712497
861.0, 0.000789682169417988
862.0, 0.0013754218133330601
863.0, 0.0007971210664209712
864.0, 0.0006562320702555884
865.0, 0.0008513472299926515
866.0, 0.0006503590942484842
867.0, 0.0002525758789960763
868.0, 0.0002838353063909533
869.0, 0.0003702081117481323
870.0, 0.0004970445114057867
871.0, 0.0009941077883465392
872.0, 0.0009187652825197207
873.0, 0.0008325346707696324
874.0, 0.0009310957234827496
875.0, 0.0010988545587880278
876.0, 0.0004815244412003176
877.0, 0.0008796853380190119
878.0, 0.0006540942556497692
879.0, 0.0006339043547026082
880.0, 0.0014165736187475
881.0, 0.0006527081786865797
882.0, 0.0008281866844861229
883.0, 0.000814370887231907
884.0, 0.000681688191002266
885.0, 0.000788008958804145
886.0, 0.00017468414730243125
887.0, 0.0005487878501056451
888.0, 0.0012988545182764917
889.0, 0.0018411354703450808
890.0, 0.0015297176998412343
891.0, 0.001774137147578295
892.0, 0.0012449224320132113
893.0, 0.0007744069029470105
894.0, 0.000703633517045943
895.0, 0.000793332466090603
896.0, 0.0009857090905659746
897.0, 0.0006733066067863757
898.0, 0.00048523955412623914
899.0, 0.0006267744150960154
900.0, 0.00014170197200567462
901.0, 0.00030882908162582247
902.0, 0.0003379841166274461
903.0, 0.0004970387409683506
904.0, 0.0008775303651596569
905.0, 0.0001940404344629872
906.0, 0.0001247541398898115
907.0, 0.0009661720882275415
908.0, 0.0013583699399907227
909.0, 0.00010637130971022113
910.0, 0.0008852767340162436
911.0, 0.0017886034231467604
912.0, 0.0012370666982672834
913.0, 0.0002776837198390298
914.0, 0.0009327282564191635
915.0, 0.002067260513817587
916.0, 0.0012437277907291525
917.0, 0.0007462424822846073
918.0, 0.0010543865415733732
919.0, 0.001539488957915139
920.0, 0.0013253292792299272
921.0, 0.0016093922058132272
922.0, 0.0015143800627294098
923.0, 0.0014935638352993282
924.0, 0.003341234760618205
925.0, 0.0031510188735337772
926.0, 0.0031004157563011524
927.0, 0.0029590314707912575
928.0, 0.002827458044073479
929.0, 0.0033332177179168916
930.0, 0.0019110781343039864
931.0, 0.003181647804112709
932.0, 0.004828324160313288
933.0, 0.005422776459354851
934.0, 0.005639585229925628
935.0, 0.004902839079525756
936.0, 0.004757990295207508
937.0, 0.005238572864081775
938.0, 0.005723146698651079
939.0, 0.004173082805540041
940.0, 0.007159489926785426
941.0, 0.0074560589254358415
942.0, 0.007141956716655935
943.0, 0.008422723324098378
944.0, 0.010893086658005108
945.0, 0.008175788294417959
946.0, 0.009439498125660147
947.0, 0.011351823387791815
948.0, 0.010871503993040408
949.0, 0.012797998714727981
950.0, 0.01338846423403812
951.0, 0.014360517432987366
952.0, 0.016065950968384316
953.0, 0.018026412113063293
954.0, 0.017205840170817204
955.0, 0.017576600947833747
956.0, 0.019055571635849828
957.0, 0.02012910855144783
958.0, 0.019792286186980014
959.0, 0.0208925129976075
960.0, 0.02158196595829251
961.0, 0.02157932382386598
962.0, 0.021672072271420217
963.0, 0.022538995473906125
964.0, 0.023074304787627793
965.0, 0.023101747634258693
966.0, 0.023830409725580946
967.0, 0.024448887885284737
968.0, 0.024206114071971183
969.0, 0.02504280002161716
970.0, 0.025256057777195095
971.0, 0.02476838767624288
972.0, 0.025893960716502438
973.0, 0.029764792105784813
974.0, 0.02902254102425877
975.0, 0.027860401900213442
976.0, 0.029525627636282692
977.0, 0.030894445070745256
978.0, 0.029303177984816593
979.0, 0.030703999964794546
980.0, 0.033629665884577074
981.0, 0.03335953544578921
982.0, 0.03286487181256034
983.0, 0.03494288701693485
984.0, 0.0353564246018599
985.0, 0.034489204817347054
986.0, 0.035461796227629204
987.0, 0.036248722018769046
988.0, 0.03548139261116734
989.0, 0.03721608831505662
990.0, 0.03619900427480207
991.0, 0.0355140992217263
992.0, 0.03631061364547917
993.0, 0.0379063718716052
994.0, 0.03519053312500714
995.0, 0.035970091048172594
996.0, 0.0362671046690495
997.0, 0.03594425187272615
998.0, 0.0359339104552121
999.0, 0.03871112663809151
1000.0, 0.03620200016722176
1001.0, 0.03583412972806746
1002.0, 0.036937559560489344
1003.0, 0.037565263023565644
1004.0, 0.03456493809572919
1005.0, 0.03561338557687052
1006.0, 0.03458510633149355
1007.0, 0.0335407366542068
1008.0, 0.033412505319710434
1009.0, 0.033183853696155854
1010.0, 0.033480234702716695
1011.0, 0.032634485897393706
1012.0, 0.03225994015745446
1013.0, 0.03202152699254648
1014.0, 0.02982478210057788
1015.0, 0.03064057509632036
1016.0, 0.028783065510354422
1017.0, 0.028548807979705472
1018.0, 0.029295672995796763
1019.0, 0.027453576129498298
1020.0, 0.02642020331810954
1021.0, 0.02713294887404633
1022.0, 0.027011582644447876
1023.0, 0.026099579061360036
1024.0, 0.025538531086393566
1025.0, 0.025530592583211168
1026.0, 0.024331971482054036
1027.0, 0.023686774169759298
1028.0, 0.023996828466830343
1029.0, 0.024862378891097235
1030.0, 0.02412058563910179
1031.0, 0.023186381116738722
1032.0, 0.022371287443780294
1033.0, 0.021743068207359204
1034.0, 0.021380113316690003
1035.0, 0.021537135904523167
1036.0, 0.020783383022114472
1037.0, 0.02151329912179881
1038.0, 0.022379634621718013
1039.0, 0.02242791754446419
1040.0, 0.021880851457658446
1041.0, 0.022695888546249567
1042.0, 0.024189646762198518
1043.0, 0.025812760319132533
1044.0, 0.02687840397092119
1045.0, 0.026665803411497976
1046.0, 0.02616960492614316
1047.0, 0.026077809410979782
1048.0, 0.02680912738029133
1049.0, 0.0277502649181534
1050.0, 0.028179498120108025
1051.0, 0.03138887272271077
1052.0, 0.03141282728666962
1053.0, 0.03176526775202159
1054.0, 0.032105722475914374
1055.0, 0.031506804572077225
1056.0, 0.031071653451045685
1057.0, 0.03077886831122186
1058.0, 0.030115696285218607
1059.0, 0.028686860461051844
1060.0, 0.026774222516445574
1061.0, 0.025904475563333494
1062.0, 0.02368740904068078
1063.0, 0.022444537726455122
1064.0, 0.02240308710327482
1065.0, 0.022193952452314068
1066.0, 0.01929084796016796
1067.0, 0.019071275601359516
1068.0, 0.01778512227483795
1069.0, 0.01791046013546754
1070.0, 0.018608120100577854
1071.0, 0.01800962167844592
1072.0, 0.01901553489877439
1073.0, 0.020186408700624204
1074.0, 0.019639771716113877
1075.0, 0.019854709308079557
1076.0, 0.022251310517325713
1077.0, 0.022358910545632264
1078.0, 0.02146172791383873
1079.0, 0.02243844595929584
1080.0, 0.024371816935090142
1081.0, 0.025981434001748255
1082.0, 0.026098732583122192
1083.0, 0.0285262619450539
1084.0, 0.02963483883830141
1085.0, 0.03033406048633295
1086.0, 0.031196277572885473
1087.0, 0.032323411485957645
1088.0, 0.03193537238905433
1089.0, 0.033479912855505375
1090.0, 0.03568565849172163
1091.0, 0.03663536370493592
1092.0, 0.036354183836893796
1093.0, 0.040648140624644606
1094.0, 0.042155157717741816
1095.0, 0.04202876433807718
1096.0, 0.04390131570453718
1097.0, 0.04684021550592732
1098.0, 0.04510428719648638
1099.0, 0.05051107793743021
1100.0, 0.051774428810510774
1101.0, 0.05258470930933756
1102.0, 0.055239254840897624
1103.0, 0.059814923669175415
1104.0, 0.05862267402032453
1105.0, 0.06424409276670034
1106.0, 0.06894915700513936
1107.0, 0.07047819757987138
1108.0, 0.07121448539031637
1109.0, 0.08012780260642788
1110.0, 0.08181605477502202
1111.0, 0.08620601867074124
1112.0, 0.09196355491139063
1113.0, 0.09690493327669326
1114.0, 0.09951761080564261
1115.0, 0.10755924260925294
1116.0, 0.11272873310562222
1117.0, 0.11612489270380506
1118.0, 0.12239772225292311
1119.0, 0.13210521385570173
1120.0, 0.1326255719773816
1121.0, 0.13369575299207617
1122.0, 0.13774199721392327
1123.0, 0.13861706504357915
1124.0, 0.13598942135538053
1125.0, 0.1353409556238236
1126.0, 0.137606970443078
1127.0, 0.13393269984933395
1128.0, 0.13272085227602679
1129.0, 0.13013579106667067
1130.0, 0.12322489420076783
1131.0, 0.1247113359303878
1132.0, 0.12259320778694763
1133.0, 0.1141240825503431
1134.0, 0.11109679866369426
1135.0, 0.11336219527634912
1136.0, 0.10802328894296923
1137.0, 0.098267597502846
1138.0, 0.09764773042078113
1139.0, 0.09567685544195272
1140.0, 0.09162347306519637
1141.0, 0.08800722935327696
1142.0, 0.08639172700162061
1143.0, 0.0796475916211921
1144.0, 0.07672236986864725
1145.0, 0.07502586357486658
1146.0, 0.07186279741669772
1147.0, 0.06607981847725296
1148.0, 0.06343640474952483
1149.0, 0.05886900125388615
1150.0, 0.05589874990506919
1151.0, 0.053553472793129886
1152.0, 0.050237242640823854
1153.0, 0.04645429572701144
1154.0, 0.04630360606337588
1155.0, 0.04359854848500767
1156.0, 0.039389090939069366
1157.0, 0.036201683415234484
1158.0, 0.03638439983194429
1159.0, 0.03508505165784625
1160.0, 0.031879553799579186
1161.0, 0.03148263930415322
1162.0, 0.030168883025779688
1163.0, 0.026496412376853327
1164.0, 0.026622614781247313
1165.0, 0.025484223151736676
1166.0, 0.02338124937242767
1167.0, 0.023377849836473622
1168.0, 0.022894698971174347
1169.0, 0.018603740465754307
1170.0, 0.01820850093913315
1171.0, 0.018774218601019303
1172.0, 0.016638751261217326
1173.0, 0.016163821119253036
1174.0, 0.01766584306537391
1175.0, 0.015901832900930078
1176.0, 0.012618894934124858
1177.0, 0.014357469345944784
1178.0, 0.01336816342153816
1179.0, 0.011700622669986123
1180.0, 0.012366053180857109
1181.0, 0.012677333524773349
1182.0, 0.010229208867778268
1183.0, 0.01516928225693899
1184.0, 0.01818708987707344
1185.0, 0.017351098172724448
1186.0, 0.015680003401889055
1187.0, 0.011827155558445204
1188.0, 0.007723230758316204
1189.0, 0.005522845304175496
1190.0, 0.005612535613110824
1191.0, 0.006121118455648964
1192.0, 0.0035953956385558873
1193.0, 0.0042671595982667725
1194.0, 0.00389215504568342
1195.0, 0.0023357742365780355
1196.0, 0.0017884609821862268
1197.0, 0.003005216084558673
1198.0, 0.0022144617161208835
1199.0, 0.0035459748906445515
1200.0, 0.004083072255517585
1201.0, 0.0029153858904850767
1202.0, 0.0020799507082515595
1203.0, 0.003398258395152383
1204.0, 0.0016630359021717273
1205.0, 0.0008205271219957115
1206.0, 0.0019415903720414382
1207.0, 0.0019323074334647165
1208.0, 0.0008875297312981934
1209.0, 0.001654871176706906
1210.0, 0.003144622113426342
1211.0, 0.0011439525975434502
1212.0, 0.0010047906194911123
1213.0, 0.0020448300693086774
1214.0, 0.0023133267321159326
1215.0, 0.00033715740884919065
1216.0, 0.0021006125051337594
1217.0, 0.001446416631990312
1218.0, 0.0007095693482424931
1219.0, 0.001325345926408083
1220.0, 0.002614945848466963
1221.0, 0.0005426438677365908
1222.0, 0.0007681651085713352
1223.0, 0.0021517045059063953
1224.0, 0.0016787436322406662
1225.0, 0.001173575291459287
1226.0, 0.0028337940662385886
1227.0, 0.002959525908188014
1228.0, 0.0027652679472893625
1229.0, 0.0030161934778159738
1230.0, 0.0021133601408539356
1231.0, 0.0008547732812242462
1232.0, 0.0014192827293890617
1233.0, 0.004846640583103453
1234.0, 0.001287676033829952
1235.0, 0.0017925646166452552
1236.0, 0.0021027563121513945
1237.0, 0.0008751304700813105
1238.0, 0.0005752778763494476
1239.0, 0.0030465990874925684
1240.0, 0.0019186396351242331
1241.0, 0.0018654358557329384
1242.0, 0.0022712531697230147
1243.0, 0.001946761475771269
1244.0, 0.0005448125329750544
1245.0, 0.002160828907666546
1246.0, 0.0012091302148458747
1247.0, 0.0006451296553819275
1248.0, 0.0019595919623324526
1249.0, 0.00347141881395002
1250.0, 0.0010178409326551342
1251.0, 0.0009531300878965911
1252.0, 0.0018263480424280587
1253.0, 0.0014215670344027485
1254.0, 0.001789487775775589
1255.0, 0.003352505689033314
1256.0, 0.0029921240147051985
1257.0, 0.0008882620864831151
1258.0, 0.0010677307226822541
1259.0, 0.001773426880050967
1260.0, 0.0016919152254254314
1261.0, 0.0014274059523785207
1262.0, 0.0037065175794821483
1263.0, 0.0007868544137546081
1264.0, 0.0016722447855598622
1265.0, 0.0025562251613416437
1266.0, 0.0018436520658908636
1267.0, 0.000824449653318793
1268.0, 0.0035127374006524627
1269.0, 0.0008456568212178754
1270.0, 0.00015058485172782476
1271.0, 0.0018233982634184714
1272.0, 0.0023920423922767467
1273.0, 0.0008860791743894934
1274.0, 0.001958072591772072
1275.0, 0.002369982847380159
1276.0, 0.0008270052035643698
1277.0, 0.0009476385521365402
1278.0, 0.0011260571206148306
1279.0, 0.0005379707497762091
1280.0, 0.0019386360687112783
1281.0, 0.0035933576757260447
1282.0, 0.001516156910014875
1283.0, 0.0007341609636212659
1284.0, 0.0012963602936055365
1285.0, 0.001967122422834726
1286.0, 0.0020613146446947046
1287.0, 0.0030321369453581125
1288.0, 0.0018094074241423739
1289.0, 0.0011674915713295313
1290.0, 0.0016568482304411148
1291.0, 0.0020827627206951756
1292.0, 0.00041515424118467427
1293.0, 0.0007559442541625158
1294.0, 0.0011192357683278199
1295.0, 0.0010838838656005406
1296.0, 0.001661343390879569
1297.0, 0.002315702995300868
1298.0, 0.0011571824655751675
1299.0, 0.001975581059215941
1300.0, 0.002174442242994926
1301.0, 0.0012532472749843498
1302.0, 0.0004944649573760486
1303.0, 0.0010665963604597414
1304.0, 0.0028065274985321345
1305.0, 0.0009917438894407643
1306.0, 0.0012720420125194828
1307.0, 0.0018750709700888733
1308.0, 0.0019585058725308715
1309.0, 0.002162588119545067
1310.0, 0.003056101874778877
1311.0, 0.0007289080793837074
1312.0, 0.0015900780710408691
1313.0, 0.0020055831906140866
1314.0, 0.0015067673121056811
1315.0, 0.000810275031050992
1316.0, 0.0015586707497893056
1317.0, 0.006185178658658558
1318.0, 0.002422414185046573
1319.0, 0.002159958480661573
1320.0, 0.0031541421966325227
1321.0, 0.0030715598935211886
1322.0, 0.002190621806695138
1323.0, 0.004914798011038573
1324.0, 0.0011505671089512292
1325.0, 0.0006998785307113405
1326.0, 0.003387157033052951
1327.0, 0.0040364982917715795
1328.0, 0.0015265763248504627
1329.0, 0.0018977184304480826
1330.0, 0.004582205822631084
1331.0, 0.0013494360751254656
1332.0, 0.001743282263810087
1333.0, 0.002029446168300146
1334.0, 0.0006576239068627761
1335.0, 0.0006603892951635912
1336.0, 0.0038821143589975937
1337.0, 0.0011311415626867607
1338.0, 0.0014598053700341255
1339.0, 0.0033805147543859624
1340.0, 0.003355624707683859
1341.0, 0.00048359412298718224
1342.0, 0.002528945477769988
1343.0, 0.0034274094381223663
1344.0, 0.0017749471534097522
1345.0, 0.0029173195821808507
1346.0, 0.0036452020801055933
1347.0, 0.0015383065016129932
1348.0, 0.001771779847878557
1349.0, 0.005847444667990198
1350.0, 0.002580608969008313
1351.0, 0.001823749552287278
1352.0, 0.003047981276157045
1353.0, 0.0031616584661498244
1354.0, 0.0007739740494178539
1355.0, 0.002745371723282788
1356.0, 0.004811919565738148
1357.0, 0.0031930459230692975
1358.0, 0.004301528994442772
1359.0, 0.0053885463456565825
1360.0, 0.002081496983825684
1361.0, 0.0033357608224561606
1362.0, 0.005267134507896835
1363.0, 0.002891006973300786
1364.0, 0.002315787421387269
1365.0, 0.0038776818396748913
1366.0, 0.004644011628420023
1367.0, 0.0017157630252875153
1368.0, 0.0028004171152727843
1369.0, 0.0033276871573676126
1370.0, 0.001954189637435478
1371.0, 0.002113747093203486
1372.0, 0.002668294643481524
1373.0, 0.0004032241544455881
1374.0, 0.0003430375137998078
1375.0, 0.003858139045400014
1376.0, 0.002041149907720738
1377.0, 0.0026533712254774833
1378.0, 0.004883711182907451
1379.0, 0.004958659121104985
1380.0, 0.002402116867159626
1381.0, 0.0071243946195655335
1382.0, 0.0058720970227915765
1383.0, 0.0028319175459533726
1384.0, 0.003963381044379229
1385.0, 0.006282069764913206
1386.0, 0.0030521969770521407
1387.0, 0.0035398338848910155
1388.0, 0.006723325906978147
1389.0, 0.004806709382768556
1390.0, 0.005164504443740902
1391.0, 0.006042754473695613
1392.0, 0.004261010668954622
1393.0, 0.0021812378539448145
1394.0, 0.0067779373320413635
1395.0, 0.004418139910803399
1396.0, 0.0037054939318377344
1397.0, 0.006232790455916543
1398.0, 0.007355519978668054
1399.0, 0.003577983069075096
1400.0, 0.00618132586907002
1401.0, 0.00741383115060232
1402.0, 0.003491969443018627
1403.0, 0.005090951510016579
1404.0, 0.00777194575528013
1405.0, 0.005696177632388834
1406.0, 0.0012726140748027786
1407.0, 0.009623947894013192
1408.0, 0.006040091688271659
1409.0, 0.0034852850787577706
1410.0, 0.00562735041534008
1411.0, 0.007252465919088032
1412.0, 0.004336581092933229
1413.0, 0.005366244326106606
1414.0, 0.008731971174943565
1415.0, 0.005263015561547349
1416.0, 0.005393976299779248
1417.0, 0.0064490193782297135
1418.0, 0.005255126567811779
1419.0, 0.003112861737200161
1420.0, 0.007043089169443229
1421.0, 0.005611150331771243
1422.0, 0.0030692105317264794
1423.0, 0.005847106059529887
1424.0, 0.0062315027221600166
1425.0, 0.00235831957410368
1426.0, 0.005482023998871029
1427.0, 0.009167380987288216
1428.0, 0.003836592677591442
1429.0, 0.0043725492800371045
1430.0, 0.006466482214085254
1431.0, 0.005474608757470285
1432.0, 0.0032316865659897196
1433.0, 0.00917807411357656
1434.0, 0.005074805773243915
1435.0, 0.003215391106760123
1436.0, 0.007535798188529469
1437.0, 0.007184369233560544
1438.0, 0.005027336033504141
1439.0, 0.009540999777645406
1440.0, 0.010776686185459218
1441.0, 0.00388381049064362
1442.0, 0.008496131759054984
1443.0, 0.009457743954279837
1444.0, 0.006470844532875307
1445.0, 0.00581981459565806
1446.0, 0.011060210972549655
1447.0, 0.009966924707625073
1448.0, 0.0043862930174647045
1449.0, 0.00973843825745882
1450.0, 0.0073238079527223965
1451.0, 0.00485414784265713
1452.0, 0.00859000495867036
1453.0, 0.011228960507719508
1454.0, 0.005718818990388397
1455.0, 0.008780659207151265
1456.0, 0.009014879140073963
1457.0, 0.0061835082631537105
1458.0, 0.006872225673101111
1459.0, 0.010564649503778868
1460.0, 0.0070570640990503634
1461.0, 0.0036185659960332192
1462.0, 0.010523502365593417
1463.0, 0.008616904472051946
1464.0, 0.0059985678551690074
1465.0, 0.0073401004829904935
1466.0, 0.009239815370379323
1467.0, 0.00420821884967133
1468.0, 0.005614506646379834
1469.0, 0.008623282108554769
1470.0, 0.00727037583926225
1471.0, 0.01168347000940248
1472.0, 0.014785820554722766
1473.0, 0.009335941704997075
1474.0, 0.0035575238290472193
1475.0, 0.009653919566715772
1476.0, 0.006734270718117484
1477.0, 0.003260959930233728
1478.0, 0.006538725042643852
1479.0, 0.008381596411767932
1480.0, 0.004657984948999098
1481.0, 0.007236281191379836
1482.0, 0.009416105271375173
1483.0, 0.0025925665282998957
1484.0, 0.004744480969856413
1485.0, 0.007814623747300763
1486.0, 0.00699218481499577
1487.0, 0.005519915924349255
1488.0, 0.010155367980416987
1489.0, 0.006562499022831747
1490.0, 0.0055256540765157664
1491.0, 0.007875534504665481
1492.0, 0.004729868932934721
1493.0, 0.0018923065046027158
1494.0, 0.004945968358601298
1495.0, 0.00812623240775824
1496.0, 0.001751852563516656
1497.0, 0.004936722873984383
1498.0, 0.008775618413230187
1499.0, 0.0054448748490551774
1500.0, 0.004500273201759311
1501.0, 0.008739579645067266
1502.0, 0.007195086736417951
1503.0, 0.0012652061459234045
1504.0, 0.009775588224164349
1505.0, 0.00619791496578719
1506.0, 0.0038635891159783317
1507.0, 0.0064393137599795085
1508.0, 0.007976887007386774
1509.0, 0.003099030109150646
1510.0, 0.0051406298994489735
1511.0, 0.010807573232889216
1512.0, 0.0038066271229187103
1513.0, 0.004859786061085478
1514.0, 0.00770748938496453
1515.0, 0.006226731574415058
1516.0, 0.004044082811936311
1517.0, 0.010517629363466669
1518.0, 0.0070003381665991755
1519.0, 0.0015927493450646954
1520.0, 0.006497693832386952
1521.0, 0.005253162378484832
1522, 0.0
1523, 0.0
1524, 0.0
1525, 0.0
1526, 0.0
1527, 0.0
1528, 0.0
1529, 0.0
1530, 0.0
1531, 0.0
1532, 0.0
1533, 0.0
1534, 0.0
1535, 0.0
1536, 0.0
1537, 0.0
1538, 0.0
1539, 0.0
1540, 0.0
1541, 0.0
1542, 0.0
1543, 0.0
1544, 0.0
1545, 0.0
1546, 0.0
1547, 0.0
1548, 0.0
1549, 0.0
1550, 0.0
1551, 0.0
1552, 0.0
1553, 0.0
1554, 0.0
1555, 0.0
1556, 0.0
1557, 0.0
1558, 0.0
1559, 0.0
1560, 0.0
1561, 0.0
1562, 0.0
1563, 0.0
1564, 0.0
1565, 0.0
1566, 0.0
1567, 0.0
1568, 0.0
1569, 0.0
1570, 0.0
1571, 0.0
1572, 0.0
1573, 0.0
1574, 0.0
1575, 0.0
1576, 0.0
1577, 0.0
1578, 0.0
1579, 0.0
1580, 0.0
1581, 0.0
1582, 0.0
1583, 0.0
1584, 0.0
1585, 0.0
1586, 0.0
1587, 0.0
1588, 0.0
1589, 0.0
1590, 0.0
1591, 0.0
1592, 0.0
1593, 0.0
1594, 0.0
1595, 0.0
1596, 0.0
1597, 0.0
1598, 0.0
1599, 0.0
