30, 0.0
31, 0.0
32, 0.0
33, 0.0
34, 0.0
35, 0.0
36, 0.0
37, 0.0
38, 0.0
39, 0.0
40, 0.0
41, 0.0
42, 0.0
43, 0.0
44, 0.0
45, 0.0
46, 0.0
47, 0.0
48, 0.0
49, 0.0
50, 0.0
51, 0.0
52, 0.0
53, 0.0
54, 0.0
55, 0.0
56, 0.0
57, 0.0
58, 0.0
59, 0.0
60, 0.0
61, 0.0
62, 0.0
63, 0.0
64, 0.0
65, 0.0
66, 0.0
67, 0.0
68, 0.0
69, 0.0
70, 0.0
71, 0.0
72, 0.0
73, 0.0
74, 0.0
75, 0.0
76, 0.0
77, 0.0
78, 0.0
79, 0.0
80, 0.0
81, 0.0
82, 0.0
83, 0.0
84, 0.0
85, 0.0
86, 0.0
87, 0.0
88, 0.0
89, 0.0
90, 0.0
91, 0.0
92, 0.0
93, 0.0
94, 0.0
95, 0.0
96, 0.0
97, 0.0
98, 0.0
99, 0.0
100, 0.0
101, 0.0
102, 0.0
103, 0.0
104.0, 0.0036202300418933936
105.0, 0.02927009905360403
106.0, 0.049592959260074156
107.0, 0.05184244368136627
108.0, 0.03331564630970616
109.0, 0.010526823388281977
110.0, 0.0011133920056873765
111.0, 0.0010876891276241489
112.0, 0.02460786424708921
113.0, 0.070544427942261
114.0, 0.11337943560289532
115.0, 0.13933759780170427
116.0, 0.1557405659166882
117.0, 0.14650511141107606
118.0, 0.11244350373514919
119.0, 0.06968906473648681
120.0, 0.037795981033447286
121.0, 0.021412463160466362
122.0, 0.021382656082400253
123.0, 0.032643041474828244
124.0, 0.0483071282944615
125.0, 0.06866652317611523
126.0, 0.07832497046327846
127.0, 0.08486580099962131
128.0, 0.10627072701788785
129.0, 0.14060085866312674
130.0, 0.18516655861898518
131.0, 0.23337140286939742
132.0, 0.2693948471256881
133.0, 0.26652970295877626
134.0, 0.2183672311874443
135.0, 0.15255738211957445
136.0, 0.09476871009525936
137.0, 0.06030292347149624
138.0, 0.04460345422131386
139.0, 0.03770360163836634
140.0, 0.03380760031369948
141.0, 0.030071745311019207
142.0, 0.03469204265218474
143.0, 0.046575438502774784
144.0, 0.06114345467853248
145.0, 0.07167847718508946
146.0, 0.07485694369665441
147.0, 0.07223436592650817
148.0, 0.07292423471079862
149.0, 0.08216115386235992
150.0, 0.09630000642403362
151.0, 0.123463571919982
152.0, 0.15936341187232633
153.0, 0.19587071380640694
154.0, 0.22383582943706296
155.0, 0.2140984798673666
156.0, 0.1688243035685923
157.0, 0.10761413666978775
158.0, 0.05220167626351014
159.0, 0.018412944858593325
160.0, 0.0035465745906910324
161.0, 0.011561630093242698
162.0, 0.013180392363517483
163.0, 0.014444637389649065
164.0, 0.014272350391292658
165.0, 0.012346932519168425
166.0, 0.008548663102944911
167.0, 0.0029726811763306107
168.0, 0.005054105284810844
169.0, 0.013176772875974067
170.0, 0.021146792026795674
171.0, 0.02996389832667118
172.0, 0.044320502279624176
173.0, 0.06419521046882269
174.0, 0.08549760665279246
175.0, 0.10447578576935175
176.0, 0.11764254272153608
177.0, 0.12676467860871696
178.0, 0.13358491855395477
179.0, 0.13920499937328557
180.0, 0.14437761571765761
181.0, 0.12898106915273394
182.0, 0.09753335976737264
183.0, 0.06203286037949976
184.0, 0.03638699276106544
185.0, 0.022053679712450373
186.0, 0.01438363361189038
187.0, 0.00851843261897696
188.0, 0.003735521041394517
189.0, 0.00449436591565397
190.0, 0.004875855473432152
191.0, 0.005046929052280176
192.0, 0.005598891864241711
193.0, 0.006340085263411625
194.0, 0.010695238938607455
195.0, 0.011903197268480723
196.0, 0.012111812527396132
197.0, 0.016549042141880778
198.0, 0.0229599178128211
199.0, 0.029099120282296914
200.0, 0.03649342260047951
201.0, 0.04572266864932861
202.0, 0.05474528667766057
203.0, 0.0643182489613926
204.0, 0.07330947148876664
205.0, 0.08254547981756524
206.0, 0.09384177046509021
207.0, 0.108735325675845
208.0, 0.12319483205468496
209.0, 0.14120179963221066
210.0, 0.16471176754372985
211.0, 0.19090017842525497
212.0, 0.2228205516898279
213.0, 0.26490349106654903
214.0, 0.3224208804507215
215.0, 0.40054752168253543
216.0, 0.49556503994211537
217.0, 0.6209175125302697
218.0, 0.7735451198172016
219.0, 0.9254874395785797
220.0, 0.9977977832154384
221.0, 0.9159055570203107
222.0, 0.7368527321297558
223.0, 0.5451867333056526
224.0, 0.41093413961959047
225.0, 0.32099022657555937
226.0, 0.2559089279922909
227.0, 0.20932011406334491
228.0, 0.17872219312326598
229.0, 0.15697550895377047
230.0, 0.14476460168113053
231.0, 0.13295695573172103
232.0, 0.11938351480613578
233.0, 0.10821725016104096
234.0, 0.10071017879169653
235.0, 0.08983616745170718
236.0, 0.08080524133896606
237.0, 0.07805247670275521
238.0, 0.0743198027265867
239.0, 0.07220657808757479
240.0, 0.07183203587133115
241.0, 0.07602032366477182
242.0, 0.08725391417823479
243.0, 0.10131927915242185
244.0, 0.11887527118202221
245.0, 0.13618643276025524
246.0, 0.1483340322086486
247.0, 0.15266713645898672
248.0, 0.15599020423070095
249.0, 0.15669694194487183
250.0, 0.15601817290094425
251.0, 0.15692763189376646
252.0, 0.1621566984804639
253.0, 0.16580177452797173
254.0, 0.1650866655707487
255.0, 0.16367504833265906
256.0, 0.17053373342713854
257.0, 0.16799648167866185
258.0, 0.15904836104711806
259.0, 0.14706180109234612
260.0, 0.13411111087308697
261.0, 0.11992455560995656
262.0, 0.10983621144506092
263.0, 0.10520315223669456
264.0, 0.1033129961197429
265.0, 0.09736370677499553
266.0, 0.08430428082669283
267.0, 0.07150423498126494
268.0, 0.05988309382538741
269.0, 0.04946840923464757
270.0, 0.043802232537701706
271.0, 0.039312485706936795
272.0, 0.03536645664904688
273.0, 0.03428136829973479
274.0, 0.03669867983478582
275.0, 0.037463451667177544
276.0, 0.03747988233452828
277.0, 0.03718402990549848
278.0, 0.03678141096294196
279.0, 0.036648908603965
280.0, 0.03733126697546969
281.0, 0.03925608239254183
282.0, 0.04368152288112243
283.0, 0.05111328327422557
284.0, 0.06026539846985089
285.0, 0.0699171799737408
286.0, 0.08218393895691947
287.0, 0.0956804451060104
288.0, 0.10771995278173821
289.0, 0.11829566396023085
290.0, 0.1238108592644992
291.0, 0.1261398851981167
292.0, 0.12602678427732406
293.0, 0.12222138955159881
294.0, 0.11685894552743593
295.0, 0.10983517311217852
296.0, 0.09980276063124575
297.0, 0.08762973606955139
298.0, 0.07637461251799756
299.0, 0.06434687190311507
300.0, 0.05608690557199394
301.0, 0.048472588893084506
302.0, 0.038924463194762136
303.0, 0.03262063898089113
304.0, 0.028070180462471988
305.0, 0.025513479277217633
306.0, 0.023518259182693936
307.0, 0.020783139664594892
308.0, 0.019967648629231716
309.0, 0.023034078898324213
310.0, 0.025974113084828002
311.0, 0.02834120268054115
312.0, 0.033543766620474584
313.0, 0.04170904741755216
314.0, 0.050187072500501355
315.0, 0.05434240102348491
316.0, 0.05132664050628341
317.0, 0.04241260742047859
318.0, 0.029798226778714097
319.0, 0.020644198792266085
320.0, 0.01570064175939728
321.0, 0.011336466190956455
322.0, 0.005153556235990101
323.0, 0.0020610421277772297
324.0, 0.0006411389437573807
325.0, 0.0001251437878577831
326.0, 0.00020875010380243375
327.0, 0.0011511360374052795
328.0, 0.0033175643717674765
329.0, 0.003899120738443626
330.0, 0.0036003305686619098
331.0, 0.0043300827510490665
332.0, 0.00560167004711897
333.0, 0.005401159137078056
334.0, 0.005127634444691296
335.0, 0.005226802607369177
336.0, 0.004964493185952838
337.0, 0.0044790219138244255
338.0, 0.002769900413175211
339.0, 0.0014017573900301132
340.0, 0.0015336651623453121
341.0, 0.0029861755069741235
342.0, 0.0014457194021218818
343.0, 0.0003920628634963566
344.0, 0.001079554916888165
345.0, 0.003134256516086105
346.0, 0.003532136266291334
347.0, 0.005549820306957074
348.0, 0.00704468160866131
349.0, 0.006047517307166439
350.0, 0.005093088282456531
351.0, 0.007495265205852329
352.0, 0.004714119212557107
353.0, 0.00476132069348856
354.0, 0.005314333074672199
355.0, 0.005035955635005974
356.0, 0.007393122827031917
357.0, 0.008649962825836053
358.0, 0.007665617711322357
359.0, 0.008251477812019244
360.0, 0.010801504569211497
361.0, 0.01105639887697942
362.0, 0.014595272392910303
363.0, 0.01695926407220185
364.0, 0.018486633097766075
365.0, 0.0209179106626986
366.0, 0.024852688843283
367.0, 0.029969614413530708
368.0, 0.03571870130459157
369.0, 0.04175916760536714
370.0, 0.047952129873488986
371.0, 0.0548098108374189
372.0, 0.0645534472370613
373.0, 0.07404559582698786
374.0, 0.08146555795325995
375.0, 0.08631146572927319
376.0, 0.08777267308393469
377.0, 0.08370861376073686
378.0, 0.07723089687330553
379.0, 0.07240371306182292
380.0, 0.07120874700170635
381.0, 0.07340610593662182
382.0, 0.07766084975915637
383.0, 0.0838105854035109
384.0, 0.0939983222398835
385.0, 0.1079670003509862
386.0, 0.12311316423426448
387.0, 0.14112084811715267
388.0, 0.16048293084509066
389.0, 0.18579654770722562
390.0, 0.21781385608944398
391.0, 0.2512868911615119
392.0, 0.28524547560621766
393.0, 0.3215625131168034
394.0, 0.35538975277605
395.0, 0.3817182807085065
396.0, 0.3970274017511546
397.0, 0.39749245630759583
398.0, 0.3889574623740171
399.0, 0.37018745730994723
400.0, 0.34464699888339745
401.0, 0.31858298952642816
402.0, 0.28822762224087317
403.0, 0.25362585247261477
404.0, 0.2156989732214943
405.0, 0.17907985525184647
406.0, 0.14910802105201787
407.0, 0.12200564924415086
408.0, 0.10098741432364303
409.0, 0.08225050270310029
410.0, 0.06587113335302085
411.0, 0.05509231582535815
412.0, 0.04605930542192457
413.0, 0.038710329588066035
414.0, 0.032621084113845455
415.0, 0.027154876628844932
416.0, 0.02201051809513153
417.0, 0.017546285624022107
418.0, 0.0140896063871004
419.0, 0.012590545614157043
420.0, 0.01229438754076851
421.0, 0.011010603315626838
422.0, 0.0072590374899081465
423.0, 0.005453243101989513
424.0, 0.0059389242732495046
425.0, 0.005863987925557655
426.0, 0.004162434504004669
427.0, 0.0024249168282692145
428.0, 0.0021181260412922575
429.0, 0.0017536299132131785
430.0, 0.0023332477112642286
431.0, 0.002523919911971806
432.0, 0.0007806710187973679
433.0, 0.0015022176918170912
434.0, 0.0025589966693861164
435.0, 0.001957643959258445
436.0, 0.0012965531505054109
437.0, 0.0018416094227338357
438.0, 0.0014864973058629533
439.0, 0.0003200336105385401
440.0, 0.00045489262106533396
441.0, 0.0006589347468604798
442.0, 0.000582050772563393
443.0, 0.0009095469648828174
444.0, 0.0001241206503461164
445.0, 0.0003301065813902126
446.0, 0.00013056117476031748
447.0, 0.0008830865449340798
448.0, 0.0007682491930165013
449.0, 0.0019293073640076982
450.0, 0.0011892788673399707
451.0, 0.00022968557368593278
452.0, 0.0002786589857549787
453.0, 0.00044900883675062775
454.0, 0.0005254050310374914
455.0, 0.001475198060903777
456.0, 0.000750196020690799
457.0, 0.00030351147017915095
458.0, 0.0002929810934584607
459.0, 0.00028939680548618104
460.0, 0.0017295198202953925
461.0, 0.0018712050445051855
462.0, 0.0027713828381420494
463.0, 0.004334514240909992
464.0, 0.0037081617706724345
465.0, 0.0031346402469494836
466.0, 0.006483465234996287
467.0, 0.010963125565729794
468.0, 0.012394336209615116
469.0, 0.010761719423514466
470.0, 0.011366224170117957
471.0, 0.013900342466666374
472.0, 0.016254728811818536
473.0, 0.017903963740320456
474.0, 0.019602907702992948
475.0, 0.02207344653550018
476.0, 0.02535927558634353
477.0, 0.025646140787719447
478.0, 0.02477935007838359
479.0, 0.023007868479749363
480.0, 0.019133357398913194
481.0, 0.013646612105713194
482.0, 0.010339115028555022
483.0, 0.008519628840340885
484.0, 0.007402550500743422
485.0, 0.005814084013320736
486.0, 0.0028424517202263627
487.0, 0.0005602006689130742
488.0, 9.436045667320374e-05
489.0, 0.0006311605891929229
490.0, 0.000979614405339492
491.0, 0.0001895917028371509
492.0, 0.00020398967351455745
493.0, 0.0004998507691820337
494.0, 0.0013936202949806759
495.0, 0.0028570834497480867
496.0, 0.00255577181318091
497.0, 0.002921794839897776
498.0, 0.006686925333958437
499.0, 0.009490954800037314
500.0, 0.012686911567544553
501.0, 0.017533474988123417
502.0, 0.022953772271156563
503.0, 0.026866152028217533
504.0, 0.030288488477455244
505.0, 0.03385383253026718
506.0, 0.03667396864699085
507.0, 0.036616212685390837
508.0, 0.033421824353964305
509.0, 0.029330675089955904
510.0, 0.025447407830569972
511.0, 0.02399217305529608
512.0, 0.02267163443115743
513.0, 0.02054759946213418
514.0, 0.020124259198749935
515.0, 0.019035591577845765
516.0, 0.018663405258204088
517.0, 0.019531035450890657
518.0, 0.019855053046308392
519.0, 0.019058639635914705
520.0, 0.02067706987005529
521.0, 0.024230773429481618
522.0, 0.025049535069956688
523.0, 0.02207141179463885
524.0, 0.01813901114625506
525.0, 0.01623132067891688
526.0, 0.01577661332431354
527.0, 0.012225825662352818
528.0, 0.009922299655472845
529.0, 0.009270255943692246
530.0, 0.008393868076782284
531.0, 0.005935302774176208
532.0, 0.005725884227470581
533.0, 0.005489233258738399
534.0, 0.005044668876605902
535.0, 0.004085406963093771
536.0, 0.0034886187533705836
537.0, 0.00527153121468388
538.0, 0.0076396411155260175
539.0, 0.009548644827481956
540.0, 0.010111110293628208
541.0, 0.010995149125032626
542.0, 0.013760219036440818
543.0, 0.015613493337262318
544.0, 0.02088941504927149
545.0, 0.026225614518888968
546.0, 0.031701616889431655
547.0, 0.03764242548251659
548.0, 0.04477313342382858
549.0, 0.05539444213052726
550.0, 0.0650936291856033
551.0, 0.07596347932170222
552.0, 0.0883641234832982
553.0, 0.09952167895631066
554.0, 0.10755424740374486
555.0, 0.11903695860263207
556.0, 0.12236345278564541
557.0, 0.12194608676599582
558.0, 0.1175879171524273
559.0, 0.1092839595649717
560.0, 0.09985168439650725
561.0, 0.08844221719792145
562.0, 0.07828024543959117
563.0, 0.06857572870911605
564.0, 0.05968365172656409
565.0, 0.05214548166260467
566.0, 0.045959166663559654
567.0, 0.04143687418364628
568.0, 0.036871094281874434
569.0, 0.03392204024960517
570.0, 0.030848607353362697
571.0, 0.027495749169316533
572.0, 0.02683101716309831
573.0, 0.024853720908234043
574.0, 0.023049938318750223
575.0, 0.02490689591190499
576.0, 0.02799741857691279
577.0, 0.029697667501842422
578.0, 0.03127704032906642
579.0, 0.031454231329103695
580.0, 0.03465802387814635
581.0, 0.035748079896502624
582.0, 0.03445092463681963
583.0, 0.032467023397280165
584.0, 0.029961863738929666
585.0, 0.026170030329551258
586.0, 0.02176734613899703
587.0, 0.019573363488575485
588.0, 0.018209170735284892
589.0, 0.016559700597925435
590.0, 0.015142983215208143
591.0, 0.011232477301272926
592.0, 0.00837139259072328
593.0, 0.006576964244691464
594.0, 0.004978174676480449
595.0, 0.00437771812959351
596.0, 0.0059719929895911536
597.0, 0.005748731574201282
598.0, 0.003970073065909857
599.0, 0.0033084625009865347
600.0, 0.0026564063408843802
601.0, 0.002215403659098912
602.0, 0.0022615792837596366
603.0, 0.0005681964633350181
604.0, 0.0029701219081055955
605.0, 0.003924891763468536
606.0, 0.0043333205524895245
607.0, 0.0031760889411698015
608.0, 0.000670192961691881
609.0, 0.0019192001310602393
610.0, 0.0011183193934186657
611.0, 0.0007162972098296242
612.0, 0.0009231329997795882
613.0, 0.000953848474152874
614.0, 0.0005834531410913571
615.0, 0.001203853272398917
616.0, 0.0071956231340900255
617.0, 0.004188891715425103
618.0, 0.0007726434271338185
619.0, 0.0008551973958626717
620.0, 0.0010385922556203145
621.0, 0.0006349214956417335
622.0, 0.0014072648736188765
623.0, 0.00024243507872952436
624.0, 0.0006529472675720776
625.0, 8.714297703148073e-05
626.0, 0.0005953095938290641
627.0, 0.000321714436213204
628.0, 0.0007764177100536952
629.0, 0.00017409317112827903
630.0, 0.0004734822731195807
631.0, 0.0019916489147659374
632.0, 0.002397432577560236
633.0, 0.00017225924773921742
634.0, 0.003357469015135457
635.0, 0.0004403671724234373
636.0, 0.00010525570537406703
637.0, 0.0002436957557848154
638.0, 0.0012922325594189276
639.0, 0.0013352811323402928
640.0, 0.0010538530490834786
641.0, 0.00035430235906971957
642.0, 0.0006484513797953992
643.0, 0.000276352639533615
644.0, 0.001858132407755381
645.0, 0.0021934191417799813
646.0, 0.000803486065612672
647.0, 0.00116966060150551
648.0, 0.0005264472671463724
649.0, 0.00045954510692556807
650.0, 0.0018992637412790696
651.0, 0.0016064855436750203
652.0, 0.00041531772667569646
653.0, 0.00017925225061886054
654.0, 0.00025563356922084376
655.0, 0.0010009969199989862
656.0, 0.0027538242580893027
657.0, 0.003028235885212474
658.0, 0.002207719777741833
659.0, 0.0018510452151303597
660.0, 0.002388211149618932
661.0, 0.0018359282791739254
662.0, 0.0005005684652669476
663.0, 0.0009031336780396416
664.0, 0.001920120246700945
665.0, 0.0026021851848285578
666.0, 0.0029767427523438787
667.0, 0.0023350608489725298
668.0, 0.00042904707383907326
669.0, 0.0007718808755637685
670.0, 0.002314427304810878
671.0, 0.003240111630823601
672.0, 0.0011574607050897248
673.0, 0.0024075019848916602
674.0, 0.0012151541927119772
675.0, 0.001618591931117908
676.0, 0.0023893051120901514
677.0, 0.002476154023816419
678.0, 0.0023026359020801405
679.0, 0.0025350660882838445
680.0, 0.003028140099937229
681.0, 0.0005846215956237401
682.0, 0.0016506426768654052
683.0, 0.0022219379562629957
684.0, 0.0016177980002809217
685.0, 0.0014331916506356108
686.0, 0.001644364360880558
687.0, 0.0029813427357097896
688.0, 0.004651019094121662
689.0, 0.0030760657593772336
690.0, 0.0009464023044985634
691.0, 0.0003782976390016035
692.0, 0.0009984080291196276
693.0, 0.001324511484154727
694.0, 0.002707992195608124
695.0, 0.002662261963539877
696.0, 0.0009457586412345415
697.0, 0.0008661501514106912
698.0, 0.0010103961067458502
699.0, 0.000882897302346981
700.0, 0.0029521724181946975
701.0, 0.0006092874679554209
702.0, 0.0021187520395091262
703.0, 0.0008716375366768308
704.0, 0.0007248493504326235
705.0, 0.0009148103440154038
706.0, 0.00022221658278866603
707.0, 0.0024533905384936418
708.0, 0.0033358571296013004
709.0, 0.0015825558889859058
710.0, 0.0012741608991095315
711.0, 0.0018186896282380738
712.0, 0.0012876445646777942
713.0, 0.000482658566844404
714.0, 0.0013809295563153353
715.0, 0.0017623054954430933
716.0, 0.001421423176282977
717.0, 0.00029155819021627787
718.0, 0.0030187682050728383
719.0, 0.0030752011246770743
720.0, 0.00020179963327130823
721.0, 0.001621631555146744
722.0, 0.0023286027300506817
723.0, 0.0017467944697270267
724.0, 0.0036236871197860244
725.0, 0.002167163933849706
726.0, 4.637168239502493e-05
727.0, 0.0014402044003445423
728.0, 0.0033145898758217113
729.0, 0.0030038892797357108
730.0, 0.002767649761906455
731.0, 0.004015182756489498
732.0, 0.0050540602755399806
733.0, 0.005945398011508592
734.0, 0.005932438050057148
735.0, 0.003974280304308615
736.0, 0.004493177910702198
737.0, 0.004587528168351951
738.0, 0.004511528876412062
739.0, 0.004979574600748221
740.0, 0.0050255958076200705
741.0, 0.004541643301796804
742.0, 0.00528209591572767
743.0, 0.008041143959793256
744.0, 0.008007325891818117
745.0, 0.007169655599009349
746.0, 0.006680775718637906
747.0, 0.00841559747399367
748.0, 0.01022799679265733
749.0, 0.009586643350516892
750.0, 0.008525621787478767
751.0, 0.006586353035711726
752.0, 0.008133540626816411
753.0, 0.007056838227392917
754.0, 0.0060989519895728395
755.0, 0.006942054787671577
756.0, 0.00811527443529062
757.0, 0.00812475556011478
758.0, 0.006897092079243879
759.0, 0.00781702846845251
760.0, 0.009931777239624514
761.0, 0.009130534184941873
762.0, 0.009293584266420135
763.0, 0.010070161396843583
764.0, 0.008792784404649067
765.0, 0.007936741649624754
766.0, 0.0068053134615160245
767.0, 0.00865260865902192
768.0, 0.007883778756003998
769.0, 0.006565947365179216
770.0, 0.0062614135396894515
771.0, 0.00590628394249421
772.0, 0.005220187440506696
773.0, 0.003832703718357028
774.0, 0.0032002809018546797
775.0, 0.0052704727834793205
776.0, 0.006749544084273502
777.0, 0.005954223731972957
778.0, 0.005896510621883899
779.0, 0.007885491471003987
780.0, 0.007855277995453038
781.0, 0.008351385793401932
782.0, 0.007136564764361964
783.0, 0.00812296822603347
784.0, 0.008345893586189325
785.0, 0.007384141650373736
786.0, 0.007216025549041524
787.0, 0.008051625536020852
788.0, 0.007624243336523711
789.0, 0.007676332280343931
790.0, 0.0069917532961783465
791.0, 0.00522353327610368
792.0, 0.004955154009569857
793.0, 0.0035085724120840975
794.0, 0.001469165934839288
795.0, 0.0027419592179864505
796.0, 0.001544423246206013
797.0, 0.00020145965563397384
798.0, 0.003660109435903987
799.0, 0.0025082208995849823
800.0, 0.0003608304206540685
801.0, 0.00080014528863209
802.0, 0.0018671734659570856
803.0, 0.0012559281902525053
804.0, 0.0021950034826941933
805.0, 0.0010505617967474555
806.0, 0.00041750219885746526
807.0, 0.00021011905783685595
808.0, 0.0005402494477363207
809.0, 0.0014213958247360073
810.0, 0.0008806457130391799
811.0, 0.00013880821575409902
812.0, 0.0007663125833902637
813.0, 0.000690468601023665
814.0, 0.0011215289832338464
815.0, 0.0005689228471609699
816.0, 0.0005005375275987492
817.0, 0.001612977777194954
818.0, 0.0025452757684512684
819.0, 0.002555810621727448
820.0, 0.0030353292537118786
821.0, 0.006914400303549108
822.0, 0.007641441808547481
823.0, 0.008673707047998967
824.0, 0.010227279425119829
825.0, 0.012255404476549065
826.0, 0.014728482647995839
827.0, 0.016979194675048295
828.0, 0.020360031644201818
829.0, 0.024370155197337248
830.0, 0.028985554278509663
831.0, 0.03254826110014685
832.0, 0.035878571644322066
833.0, 0.04087832962029625
834.0, 0.04806442910610047
835.0, 0.05553109336058232
836.0, 0.06111552780004442
837.0, 0.06653216388899384
838.0, 0.07363064716827777
839.0, 0.07671521826816219
840.0, 0.08037533124524573
841.0, 0.08600217145405845
842.0, 0.09200531815838917
843.0, 0.09937282986300619
844.0, 0.11011774672780579
845.0, 0.12419650523004794
846.0, 0.14450846053340902
847.0, 0.16628111790351044
848.0, 0.1943653466086903
849.0, 0.23084430020953436
850.0, 0.27088253514441746
851.0, 0.30730096774129134
852.0, 0.33459390594801464
853.0, 0.346703478114787
854.0, 0.33328877107280364
855.0, 0.29983653993324877
856.0, 0.26066595815571414
857.0, 0.2228334128320029
858.0, 0.18897760345685224
859.0, 0.1628242810615601
860.0, 0.14808987393047823
861.0, 0.1417280101493142
862.0, 0.13702148176446904
863.0, 0.13538957210984376
864.0, 0.13702376540510697
865.0, 0.1408045491867335
866.0, 0.14133789172486552
867.0, 0.13774437510930745
868.0, 0.1324175522085968
869.0, 0.12455759110244917
870.0, 0.11306477731014432
871.0, 0.09921335020769036
872.0, 0.0878705087043897
873.0, 0.07782169960617248
874.0, 0.06913630414871387
875.0, 0.059860366620148264
876.0, 0.05191697517293338
877.0, 0.04563099027089805
878.0, 0.039473463762850734
879.0, 0.03905327417505663
880.0, 0.0332821089011634
881.0, 0.029670292493242097
882.0, 0.027780631112214946
883.0, 0.02520654703005945
884.0, 0.023751757304522593
885.0, 0.024589509867470587
886.0, 0.025197450784105874
887.0, 0.02411542511635402
888.0, 0.02144312442472521
889.0, 0.024764949691444188
890.0, 0.026873599007054955
891.0, 0.028134528777303998
892.0, 0.02878599961323608
893.0, 0.028858648939993688
894.0, 0.029226976363428237
895.0, 0.029434623433702074
896.0, 0.028022900045405242
897.0, 0.02678065256591507
898.0, 0.02588383334712067
899.0, 0.023110250128237166
900.0, 0.02110639084815581
901.0, 0.018940554733420885
902.0, 0.017751096792121078
903.0, 0.01536961682872453
904.0, 0.012043407057661491
905.0, 0.012366449773139603
906.0, 0.011770848861608112
907.0, 0.007660822455106926
908.0, 0.009017111796998002
909.0, 0.008898156618069633
910.0, 0.00882955713672771
911.0, 0.006495517923574631
912.0, 0.004207921375576222
913.0, 0.0049522953326895
914.0, 0.005330963296571728
915.0, 0.0048393365379721205
916.0, 0.008157806633771147
917.0, 0.005729168415645704
918.0, 0.006009138862625685
919.0, 0.004492110920905216
920.0, 0.0045776736834844955
921.0, 0.005426022155981082
922.0, 0.005410159821228921
923.0, 0.005943181440063404
924.0, 0.007138631447372372
925.0, 0.006932584617169336
926.0, 0.00683413634624604
927.0, 0.0070141378509675925
928.0, 0.006926713670952707
929.0, 0.007197636782347982
930.0, 0.0058491721628579985
931.0, 0.003398020887021701
932.0, 0.0023578340627568696
933.0, 0.0022725906712593473
934.0, 0.0003119876551351568
935.0, 0.001961982424651447
936.0, 0.0013654247143143848
937.0, 0.003788082462715484
938.0, 0.003186288182885066
939.0, 0.003240494583438233
940.0, 0.002440548878314414
941.0, 0.0005568103509774265
942.0, 0.0011963659550917971
943.0, 0.0018753182263233283
944.0, 0.004993445656746219
945.0, 0.0069468508404435135
946.0, 0.00762230197551948
947.0, 0.010231447309033333
948.0, 0.011229817222538716
949.0, 0.012399867844211357
950.0, 0.014254190570828253
951.0, 0.015451917899486061
952.0, 0.018154400571445094
953.0, 0.022178029588768182
954.0, 0.022357605288597936
955.0, 0.024882742141526817
956.0, 0.02833361950582986
957.0, 0.028878003185113448
958.0, 0.0354825215867524
959.0, 0.04381763907685137
960.0, 0.05073334122702516
961.0, 0.05790017741513909
962.0, 0.06620024109766377
963.0, 0.07306144567076191
964.0, 0.0734524800416668
965.0, 0.07161258320444189
966.0, 0.06785016787860185
967.0, 0.059457055810125704
968.0, 0.049035277737243636
969.0, 0.040276332969176334
970.0, 0.03229040720302713
971.0, 0.025158678101345883
972.0, 0.0207403985692527
973.0, 0.017831842265558364
974.0, 0.014135361181920455
975.0, 0.012282283704474381
976.0, 0.011761932965635496
977.0, 0.013138608940806295
978.0, 0.010598880300691097
979.0, 0.011649721651825477
980.0, 0.01491322245364437
981.0, 0.017455601709613203
982.0, 0.019131068851780068
983.0, 0.021293773953521253
984.0, 0.025475962111318466
985.0, 0.030820452422709144
986.0, 0.03641930057387344
987.0, 0.042229361766376455
988.0, 0.04847127906524941
989.0, 0.05611424503582455
990.0, 0.05964768829630195
991.0, 0.06435478385960543
992.0, 0.0692619558587295
993.0, 0.07203156238133321
994.0, 0.07223871157666997
995.0, 0.06973396370108713
996.0, 0.0676949973402619
997.0, 0.06256545561159946
998.0, 0.054203654836490846
999.0, 0.052930708268769694
1000.0, 0.04993893913014325
1001.0, 0.04441508901861233
1002.0, 0.039385106603783616
1003.0, 0.03628159899759622
1004.0, 0.032773443328712244
1005.0, 0.029124185603856406
1006.0, 0.026020746882639716
1007.0, 0.021901410527677603
1008.0, 0.02199144757898879
1009.0, 0.018252348737114593
1010.0, 0.01537367679729026
1011.0, 0.015121990748572593
1012.0, 0.013277257968630765
1013.0, 0.010919827357710013
1014.0, 0.010354576852750284
1015.0, 0.008559850799561688
1016.0, 0.005857701800628758
1017.0, 0.005620349022626636
1018.0, 0.005083252863879494
1019.0, 0.004777566263088397
1020.0, 0.004707566832831024
1021.0, 0.004496842494068008
1022.0, 0.004792704634547792
1023.0, 0.0034027732768195282
1024.0, 0.00242046968126139
1025.0, 0.0031306322003305975
1026.0, 0.003394280725470885
1027.0, 0.002363970994165709
1028.0, 0.0026450145491716754
1029.0, 0.004668406169875104
1030.0, 0.003160835223522896
1031.0, 0.002231811545785307
1032.0, 0.003388875932107218
1033.0, 0.0026342910037344485
1034.0, 0.002646115190501161
1035.0, 0.0034530094344749117
1036.0, 0.0023974654171610155
1037.0, 0.0003126924800562932
1038.0, 0.0023711551667167713
1039.0, 0.0037558319767332943
1040.0, 0.0011693236871357163
1041.0, 0.000372668939254992
1042.0, 0.000526344100458884
1043.0, 0.001569548542245823
1044.0, 0.0002720127176845492
1045.0, 0.0010077275832511123
1046.0, 0.0010039076136535302
1047.0, 0.0011547291358790575
1048.0, 0.0005454118812188819
1049.0, 0.0008611610813289772
1050.0, 0.0006050911048582204
1051.0, 0.00032396324983025075
1052.0, 0.00010223063806087226
1053.0, 0.0008070826571863522
1054.0, 0.0006605975387447999
1055.0, 0.003047323532633234
1056.0, 0.002156946141224685
1057.0, 0.0018782514272100144
1058.0, 0.0013092382347174715
1059.0, 0.0005849357553394588
1060.0, 0.0008377106164135754
1061.0, 0.003336403450018046
1062.0, 0.0035937284347426226
1063.0, 0.004019674252090116
1064.0, 0.0029212606871449427
1065.0, 0.0007263103114652644
1066.0, 0.0013474145850469914
1067.0, 0.0024609224784402995
1068.0, 0.0025328912050656856
1069.0, 0.0035121265728100194
1070.0, 0.0032458748550006967
1071.0, 0.004467534486073555
1072.0, 0.0027079342410927156
1073.0, 0.004661082065933726
1074.0, 0.006243726363732134
1075.0, 0.005451544178237653
1076.0, 0.006157227333070452
1077.0, 0.00528178239875296
1078.0, 0.0036588991303545494
1079.0, 0.005308861044057365
1080.0, 0.006584886265366862
1081.0, 0.006151093491264575
1082.0, 0.004905660324842044
1083.0, 0.006177466120300608
1084.0, 0.004489293623534084
1085.0, 0.005244930128093268
1086.0, 0.004272946117061379
1087.0, 0.005030484119817609
1088.0, 0.005588729752406549
1089.0, 0.00655326267693465
1090.0, 0.006415683978636821
1091.0, 0.004934372089967797
1092.0, 0.00477751392041064
1093.0, 0.006852295933205426
1094.0, 0.008605660199245387
1095.0, 0.00629575562147527
1096.0, 0.00246900842867582
1097.0, 0.003417901861307734
1098.0, 0.008873007342582548
1099.0, 0.0057512467573726505
1100.0, 0.005184777601040416
1101.0, 0.0030742826164015407
1102.0, 0.0027598565348650773
1103.0, 0.0029649064775023703
1104.0, 0.003027622138066867
1105.0, 0.0018635410201054787
1106.0, 0.0004615824197639363
1107.0, 0.001872419147502655
1108.0, 0.002953301620614818
1109.0, 0.00018676472768418338
1110.0, 0.0023189256687204973
1111.0, 0.002009895520124268
1112.0, 0.00317057555836008
1113.0, 0.0024506911925271154
1114.0, 0.002991500917064371
1115.0, 0.003152211411180142
1116.0, 0.000926278580031399
1117.0, 0.0005715390502125954
1118.0, 0.0005343520132451258
1119.0, 6.128059357918997e-05
1120.0, 0.0015370774789008723
1121.0, 0.0021026284741523958
1122.0, 0.0003330388167614517
1123.0, 0.00045895874804909655
1124.0, 0.001335130593598828
1125.0, 0.0003281386821432478
1126.0, 0.0006873780676092157
1127.0, 0.0003083766176834217
1128.0, 0.002452081064168971
1129.0, 0.0005265482050616349
1130.0, 0.00016345408135324857
1131.0, 0.0005380044658965306
1132.0, 0.0009677857334329226
1133.0, 0.0003546341414738313
1134.0, 0.0011587017144854962
1135.0, 0.0014164106740034818
1136.0, 0.000988707494004651
1137.0, 0.0018694411093923896
1138.0, 0.001526504931050539
1139.0, 0.002009872887504367
1140.0, 0.0026168141742146495
1141.0, 0.003631771583046937
1142.0, 0.003721241327172434
1143.0, 0.003158260490434665
1144.0, 0.0064084169408875
1145.0, 0.0037407130874135435
1146.0, 0.0037432822204766136
1147.0, 0.0032240685501464263
1148.0, 0.0027029623642991297
1149.0, 0.0034031117054504085
1150.0, 0.0030788711445051313
1151.0, 0.002667024129612083
1152.0, 0.0037823478095213494
1153.0, 0.004929061005467516
1154.0, 0.00425963204726434
1155.0, 0.0025871132255728905
1156.0, 0.003349540836025424
1157.0, 0.00516474735981246
1158.0, 0.00664284798400502
1159.0, 0.00581501512944346
1160.0, 0.0027015041960156134
1161.0, 0.0016255987545565642
1162.0, 0.0035329002490065604
1163.0, 0.0012115545687945374
1164.0, 0.0030524945329531952
1165.0, 0.004604662302075872
1166.0, 0.0038359597069546757
1167.0, 0.005544504306175979
1168.0, 0.006567292045070334
1169.0, 0.005633936717909874
1170.0, 0.005189266906819432
1171.0, 0.0038353576143570233
1172.0, 0.004664940946223105
1173.0, 0.00684381685920648
1174.0, 0.0073578779870087305
1175.0, 0.0049115228386925214
1176.0, 0.0043249457499394215
1177.0, 0.0035816155470356588
1178.0, 0.0033443331921799184
1179.0, 0.002824308263984132
1180.0, 0.004636800273793757
1181.0, 0.006965906601788977
1182.0, 0.005742621882956215
1183.0, 0.0043374565257595175
1184.0, 0.004963127676455853
1185.0, 0.004049267292518361
1186.0, 0.002643221102827441
1187.0, 0.0020175558418127635
1188.0, 0.0026448377521826284
1189.0, 0.003270679077721713
1190.0, 0.0024578017628757018
1191.0, 0.0032302557522564637
1192.0, 0.0025919060214190854
1193.0, 0.004266459297206414
1194.0, 0.004163852253389617
1195.0, 0.0037923649094545125
1196.0, 0.005807194477902632
1197.0, 0.005095427744730519
1198.0, 0.0027483753321545373
1199.0, 0.002397490753779103
1200.0, 0.005507833583537
1201.0, 0.003113565367896199
1202.0, 0.003835103928556219
1203.0, 0.003182926723475101
1204.0, 0.0037838547889425984
1205.0, 0.003589901267015035
1206.0, 0.002697958318990098
1207.0, 0.002905058079758645
1208.0, 0.0033407132020776206
1209.0, 0.0036239931680811725
1210.0, 0.00264389819178128
1211.0, 0.002060510811468494
1212.0, 0.0022297537329741147
1213.0, 0.002809787505294106
1214.0, 0.004734950872562465
1215.0, 0.0034553852767765475
1216.0, 0.0035335052082047873
1217.0, 0.00047820414009154923
1218.0, 0.0013771006879623226
1219.0, 0.003179029112625186
1220.0, 0.005368402169552831
1221.0, 0.0029514549707024165
1222.0, 0.0009209354165227351
1223.0, 0.0006576466084853688
1224.0, 0.0011793264956650642
1225.0, 0.003078915112360301
1226.0, 0.0023558052985065917
1227.0, 0.002050882030996698
1228.0, 0.002393659650718988
1229.0, 0.002007634694748165
1230.0, 0.0007556912028766681
1231.0, 0.000494917425158667
1232.0, 0.0003046117736015534
1233.0, 0.0008385182519082241
1234.0, 0.0014891010579127732
1235.0, 0.001676798592640802
1236.0, 0.0013961171415206336
1237.0, 0.0029046955264058188
1238.0, 0.002284795248244552
1239.0, 0.0015508540979025022
1240.0, 0.0010057578726192712
1241.0, 0.0012512220872971948
1242.0, 0.000775171153548857
1243.0, 0.0008392976576462383
1244.0, 0.0003572877510161113
1245.0, 0.0024864501431744847
1246.0, 0.0017514026138630745
1247.0, 0.0010977438114320591
1248.0, 0.0016352576992541808
1249.0, 0.0006983141909336376
1250.0, 0.0012322306807002132
1251.0, 0.0035816940505229225
1252.0, 0.002963065787188418
1253.0, 0.0017535939616381171
1254.0, 0.0020553282112550585
1255.0, 0.0018942890535939656
1256.0, 5.524554995634796e-05
1257.0, 0.00021177759961813554
1258.0, 0.001193045966268851
1259.0, 0.003136146284078186
1260.0, 0.0023680762587427813
1261.0, 0.0029659556132497567
1262.0, 0.002313114708635346
1263.0, 0.0017239983613887098
1264.0, 0.002662129427957142
1265.0, 0.003047943500697636
1266.0, 0.00219500647248375
1267.0, 0.0017864330951263357
1268.0, 0.0011808356122502929
1269.0, 0.0024909061717529797
1270.0, 0.00020592759426639378
1271.0, 0.00269352074186174
1272.0, 0.002808035949268992
1273.0, 0.001283331293130716
1274.0, 0.00193061436255249
1275.0, 0.002626321555330246
1276.0, 0.00174859840292398
1277.0, 0.00045643728178769286
1278.0, 0.0010320206388718957
1279.0, 0.0008717211573042019
1280.0, 0.0005872508652586078
1281.0, 0.00117858277597079
1282.0, 0.000562982478124615
1283.0, 1.108898175221075e-05
1284, 0.0
1285, 0.0
1286, 0.0
1287, 0.0
1288, 0.0
1289, 0.0
1290, 0.0
1291, 0.0
1292, 0.0
1293, 0.0
1294, 0.0
1295, 0.0
1296, 0.0
1297, 0.0
1298, 0.0
1299, 0.0
1300, 0.0
1301, 0.0
1302, 0.0
1303, 0.0
1304, 0.0
1305, 0.0
1306, 0.0
1307, 0.0
1308, 0.0
1309, 0.0
1310, 0.0
1311, 0.0
1312, 0.0
1313, 0.0
1314, 0.0
1315, 0.0
1316, 0.0
1317, 0.0
1318, 0.0
1319, 0.0
1320, 0.0
1321, 0.0
1322, 0.0
1323, 0.0
1324, 0.0
1325, 0.0
1326, 0.0
1327, 0.0
1328, 0.0
1329, 0.0
1330, 0.0
1331, 0.0
1332, 0.0
1333, 0.0
1334, 0.0
1335, 0.0
1336, 0.0
1337, 0.0
1338, 0.0
1339, 0.0
1340, 0.0
1341, 0.0
1342, 0.0
1343, 0.0
1344, 0.0
1345, 0.0
1346, 0.0
1347, 0.0
1348, 0.0
1349, 0.0
1350, 0.0
1351, 0.0
1352, 0.0
1353, 0.0
1354, 0.0
1355, 0.0
1356, 0.0
1357, 0.0
1358, 0.0
1359, 0.0
1360, 0.0
1361, 0.0
1362, 0.0
1363, 0.0
1364, 0.0
1365, 0.0
1366, 0.0
1367, 0.0
1368, 0.0
1369, 0.0
1370, 0.0
1371, 0.0
1372, 0.0
1373, 0.0
1374, 0.0
1375, 0.0
1376, 0.0
1377, 0.0
1378, 0.0
1379, 0.0
1380, 0.0
1381, 0.0
1382, 0.0
1383, 0.0
1384, 0.0
1385, 0.0
1386, 0.0
1387, 0.0
1388, 0.0
1389, 0.0
1390, 0.0
1391, 0.0
1392, 0.0
1393, 0.0
1394, 0.0
1395, 0.0
1396, 0.0
1397, 0.0
1398, 0.0
1399, 0.0
1400, 0.0
1401, 0.0
1402, 0.0
1403, 0.0
1404, 0.0
1405, 0.0
1406, 0.0
1407, 0.0
1408, 0.0
1409, 0.0
1410, 0.0
1411, 0.0
1412, 0.0
1413, 0.0
1414, 0.0
1415, 0.0
1416, 0.0
1417, 0.0
1418, 0.0
1419, 0.0
1420, 0.0
1421, 0.0
1422, 0.0
1423, 0.0
1424, 0.0
1425, 0.0
1426, 0.0
1427, 0.0
1428, 0.0
1429, 0.0
1430, 0.0
1431, 0.0
1432, 0.0
1433, 0.0
1434, 0.0
1435, 0.0
1436, 0.0
1437, 0.0
1438, 0.0
1439, 0.0
1440, 0.0
1441, 0.0
1442, 0.0
1443, 0.0
1444, 0.0
1445, 0.0
1446, 0.0
1447, 0.0
1448, 0.0
1449, 0.0
1450, 0.0
1451, 0.0
1452, 0.0
1453, 0.0
1454, 0.0
1455, 0.0
1456, 0.0
1457, 0.0
1458, 0.0
1459, 0.0
1460, 0.0
1461, 0.0
1462, 0.0
1463, 0.0
1464, 0.0
1465, 0.0
1466, 0.0
1467, 0.0
1468, 0.0
1469, 0.0
1470, 0.0
1471, 0.0
1472, 0.0
1473, 0.0
1474, 0.0
1475, 0.0
1476, 0.0
1477, 0.0
1478, 0.0
1479, 0.0
1480, 0.0
1481, 0.0
1482, 0.0
1483, 0.0
1484, 0.0
1485, 0.0
1486, 0.0
1487, 0.0
1488, 0.0
1489, 0.0
1490, 0.0
1491, 0.0
1492, 0.0
1493, 0.0
1494, 0.0
1495, 0.0
1496, 0.0
1497, 0.0
1498, 0.0
1499, 0.0
1500, 0.0
1501, 0.0
1502, 0.0
1503, 0.0
1504, 0.0
1505, 0.0
1506, 0.0
1507, 0.0
1508, 0.0
1509, 0.0
1510, 0.0
1511, 0.0
1512, 0.0
1513, 0.0
1514, 0.0
1515, 0.0
1516, 0.0
1517, 0.0
1518, 0.0
1519, 0.0
1520, 0.0
1521, 0.0
1522, 0.0
1523, 0.0
1524, 0.0
1525, 0.0
1526, 0.0
1527, 0.0
1528, 0.0
1529, 0.0
1530, 0.0
1531, 0.0
1532, 0.0
1533, 0.0
1534, 0.0
1535, 0.0
1536, 0.0
1537, 0.0
1538, 0.0
1539, 0.0
1540, 0.0
1541, 0.0
1542, 0.0
1543, 0.0
1544, 0.0
1545, 0.0
1546, 0.0
1547, 0.0
1548, 0.0
1549, 0.0
1550, 0.0
1551, 0.0
1552, 0.0
1553, 0.0
1554, 0.0
1555, 0.0
1556, 0.0
1557, 0.0
1558, 0.0
1559, 0.0
1560, 0.0
1561, 0.0
1562, 0.0
1563, 0.0
1564, 0.0
1565, 0.0
1566, 0.0
1567, 0.0
1568, 0.0
1569, 0.0
1570, 0.0
1571, 0.0
1572, 0.0
1573, 0.0
1574, 0.0
1575, 0.0
1576, 0.0
1577, 0.0
1578, 0.0
1579, 0.0
1580, 0.0
1581, 0.0
1582, 0.0
1583, 0.0
1584, 0.0
1585, 0.0
1586, 0.0
1587, 0.0
1588, 0.0
1589, 0.0
1590, 0.0
1591, 0.0
1592, 0.0
1593, 0.0
1594, 0.0
1595, 0.0
1596, 0.0
1597, 0.0
1598, 0.0
1599, 0.0
