30, 0.0
31, 0.0
32, 0.0
33, 0.0
34, 0.0
35, 0.0
36, 0.0
37, 0.0
38, 0.0
39, 0.0
40, 0.0
41, 0.0
42, 0.0
43, 0.0
44, 0.0
45, 0.0
46, 0.0
47, 0.0
48, 0.0
49, 0.0
50, 0.0
51, 0.0
52, 0.0
53, 0.0
54, 0.0
55, 0.0
56, 0.0
57, 0.0
58, 0.0
59, 0.0
60, 0.0
61, 0.0
62, 0.0
63, 0.0
64, 0.0
65, 0.0
66, 0.0
67, 0.0
68, 0.0
69, 0.0
70, 0.0
71, 0.0
72, 0.0
73, 0.0
74, 0.0
75, 0.0
76, 0.0
77, 0.0
78, 0.0
79, 0.0
80, 0.0
81, 0.0
82, 0.0
83, 0.0
84, 0.0
85, 0.0
86, 0.0
87, 0.0
88, 0.0
89, 0.0
90, 0.0
91, 0.0
92, 0.0
93, 0.0
94, 0.0
95, 0.0
96, 0.0
97, 0.0
98, 0.0
99, 0.0
100, 0.0
101, 0.0
102, 0.0
103, 0.0
104, 0.0
105, 0.0
106, 0.0
107, 0.0
108, 0.0
109, 0.0
110, 0.0
111, 0.0
112, 0.0
113, 0.0
114.0, 2.2801751292447824e-05
115.0, 0.000346803041230054
116.0, 0.0009131281978075968
117.0, 0.0011253772700589196
118.0, 0.0009159605863586341
119.0, 0.0009687349287102886
120.0, 0.0009696597584741689
121.0, 0.0008168800284783298
122.0, 0.0010753648626694635
123.0, 0.0008642508022236465
124.0, 0.0004955113514136379
125.0, 0.0003337607697694192
126.0, 0.0004482212708500038
127.0, 0.0002843082054955486
128.0, 4.3440551020657316e-05
129.0, 2.8449182238720887e-05
130.0, 0.0003781728966190487
131.0, 0.0007538862627064893
132.0, 0.0014327910095848547
133.0, 0.002292763994540929
134.0, 0.002468789165299679
135.0, 0.0028550657588541513
136.0, 0.003337847975887642
137.0, 0.003991490340495803
138.0, 0.004985007789965498
139.0, 0.0061260513065400386
140.0, 0.006892511807065318
141.0, 0.008099519852705152
142.0, 0.010423494131293785
143.0, 0.011692075970520197
144.0, 0.013023902224815823
145.0, 0.014374028857397426
146.0, 0.015158712599823038
147.0, 0.014566694490837535
148.0, 0.01343355528002143
149.0, 0.011722885543273567
150.0, 0.009641185044498938
151.0, 0.008095935165408946
152.0, 0.006882631947670913
153.0, 0.006126435151668754
154.0, 0.0055348969847276355
155.0, 0.004610046776803992
156.0, 0.004128526202262825
157.0, 0.0039233233179611195
158.0, 0.0036650506176781304
159.0, 0.003203914002292617
160.0, 0.0026886024484650832
161.0, 0.0026100488396037323
162.0, 0.0025935667947791477
163.0, 0.0022666246900432644
164.0, 0.0019278842967437
165.0, 0.0021537029172181152
166.0, 0.0025673583774431163
167.0, 0.0026367883567416654
168.0, 0.002074673253046076
169.0, 0.001991287598187868
170.0, 0.001791447540345927
171.0, 0.001282495900963648
172.0, 0.0009652790370380418
173.0, 0.0007870815578701585
174.0, 0.0006846017414506337
175.0, 0.000632836043854794
176.0, 0.0006311894778916681
177.0, 0.00074365292478665
178.0, 0.0005870696112426404
179.0, 0.0002933669649314378
180.0, 6.795845668963811e-05
181.0, 0.00016191754963181966
182.0, 0.00022609079547428605
183.0, 0.00020169377942189334
184.0, 0.00024351466203627296
185.0, 0.0005851852047429589
186.0, 0.0005951109771623453
187.0, 0.0006408251991596984
188.0, 0.0007164823987644577
189.0, 0.00044903322587040847
190.0, 0.0005252622660998475
191.0, 0.00056370918206534
192.0, 0.0005063662149583926
193.0, 0.00047550203529447534
194.0, 0.0004921040248931258
195.0, 0.0002968176999760868
196.0, 0.00043496037339699396
197.0, 0.0007672135045647403
198.0, 0.00021040180419449982
199.0, 0.0002374350112779519
200.0, 0.00012821441095218683
201.0, 0.0002806906334152144
202.0, 0.000518981066974844
203.0, 0.0008060800471406291
204.0, 0.0008935547076081968
205.0, 0.0009999779207412085
206.0, 0.001357381176942083
207.0, 0.001722091405989015
208.0, 0.0020419690778012162
209.0, 0.0023216134904297334
210.0, 0.002691093988198547
211.0, 0.003345521513549322
212.0, 0.004242592230521087
213.0, 0.004917539511637874
214.0, 0.005537023162263006
215.0, 0.006507032094469431
216.0, 0.007759082788989639
217.0, 0.008717972584060457
218.0, 0.009720962859983447
219.0, 0.011211519346784375
220.0, 0.013367579021726642
221.0, 0.015119852323506492
222.0, 0.01675306941338255
223.0, 0.018942718143570188
224.0, 0.0221712490278274
225.0, 0.024445213354186403
226.0, 0.02788765694997384
227.0, 0.032068988266177954
228.0, 0.03602627808622871
229.0, 0.04100956486350057
230.0, 0.046685042979314015
231.0, 0.05252070113887338
232.0, 0.05892980494250467
233.0, 0.06756021968742719
234.0, 0.07591213575756417
235.0, 0.0862839189589707
236.0, 0.09976029533757735
237.0, 0.11613802180598039
238.0, 0.1362658438713273
239.0, 0.15935949588078172
240.0, 0.18713443176260863
241.0, 0.2197541033192376
242.0, 0.25595004745000155
243.0, 0.293794968508007
244.0, 0.3341637903683579
245.0, 0.37555332220108906
246.0, 0.4185377422905066
247.0, 0.4704910226581163
248.0, 0.5276238761382703
249.0, 0.5941018704561812
250.0, 0.67143835804584
251.0, 0.7559632736799837
252.0, 0.8520456650007014
253.0, 0.942321198535197
254.0, 0.9977567401323836
255.0, 0.9875275479369755
256.0, 0.9166281874415433
257.0, 0.8014962131682387
258.0, 0.6670557920099591
259.0, 0.5355624575346343
260.0, 0.4202318316734279
261.0, 0.3292505185446964
262.0, 0.2587596055634905
263.0, 0.20487963789675434
264.0, 0.16419149263784527
265.0, 0.13365426708562658
266.0, 0.1101784630722287
267.0, 0.09241410927754899
268.0, 0.07884701553610353
269.0, 0.06771209274898081
270.0, 0.05829908227422292
271.0, 0.05121940359205725
272.0, 0.04601300596869637
273.0, 0.0419419117928994
274.0, 0.038911235874731546
275.0, 0.036089685978693845
276.0, 0.03392393024404146
277.0, 0.03297487010150165
278.0, 0.03338825641647299
279.0, 0.03400803398109861
280.0, 0.03584994086522412
281.0, 0.0380594450945459
282.0, 0.039642209116346735
283.0, 0.04067504305168631
284.0, 0.04370431283587262
285.0, 0.04704812639476254
286.0, 0.05058814473755881
287.0, 0.055487259946126015
288.0, 0.06161625655069785
289.0, 0.06812447638481486
290.0, 0.0744563425048308
291.0, 0.0789417097565446
292.0, 0.07882558278572972
293.0, 0.07438142205097713
294.0, 0.06574494543246777
295.0, 0.055015290372256234
296.0, 0.04407581899849526
297.0, 0.033351443912578375
298.0, 0.02586621367467403
299.0, 0.02001483994477192
300.0, 0.01507788375330094
301.0, 0.011496086633648732
302.0, 0.009522291896640573
303.0, 0.007607351348387343
304.0, 0.005741007106246063
305.0, 0.0043703460601661175
306.0, 0.003684380550002753
307.0, 0.003129603436423428
308.0, 0.0025834888345614144
309.0, 0.0017847662421554592
310.0, 0.0008171804529870132
311.0, 0.0011168426064425286
312.0, 0.0004570850462704516
313.0, 4.7684620952657985e-05
314.0, 0.0001320975305575075
315.0, 7.70708748981459e-05
316.0, 0.00031573477219984755
317.0, 0.0006066157620247068
318.0, 0.0006675899873432858
319.0, 0.0005265960834988112
320.0, 0.0004626414555235045
321.0, 3.19647544409836e-05
322.0, 0.00044939364023214494
323.0, 0.0008140501685622648
324.0, 0.0012004504525852978
325.0, 0.0018087734276692362
326.0, 0.002364375350654865
327.0, 0.0031645599748240053
328.0, 0.004087813576305398
329.0, 0.005012386088294866
330.0, 0.006317110143620999
331.0, 0.008330343847390901
332.0, 0.01066063427626982
333.0, 0.013331597848935402
334.0, 0.016646168272934147
335.0, 0.01993025292857951
336.0, 0.024115171017893396
337.0, 0.029114308301001958
338.0, 0.034965607506134665
339.0, 0.042199664042089934
340.0, 0.049709301996342416
341.0, 0.05677833300423376
342.0, 0.06363212622715665
343.0, 0.07091890418873652
344.0, 0.07865689020220755
345.0, 0.08542669679066056
346.0, 0.09158506513081471
347.0, 0.09880002796468366
348.0, 0.10804474410930294
349.0, 0.1187073978587462
350.0, 0.12743586222748568
351.0, 0.13264795000466142
352.0, 0.13208824065317143
353.0, 0.12437546565175792
354.0, 0.11070772148039909
355.0, 0.09356978693327721
356.0, 0.07583869506345998
357.0, 0.05960052762688596
358.0, 0.04616081532256972
359.0, 0.0361485917560367
360.0, 0.02804287923229829
361.0, 0.021348790709602064
362.0, 0.01600346467893323
363.0, 0.01196494580060069
364.0, 0.009309177027453553
365.0, 0.006961605414179069
366.0, 0.005129825726026348
367.0, 0.0038254547518826927
368.0, 0.0025860289528344543
369.0, 0.001774701095199478
370.0, 0.0010941833565477664
371.0, 0.0005421230162640771
372.0, 0.0002228648822761578
373.0, 0.0001209286601188167
374.0, 0.0001079043946852777
375.0, 0.0004937757346425491
376.0, 0.0007105509845446126
377.0, 0.0006631987770168341
378.0, 0.0008115942418549366
379.0, 0.0006410128264058749
380.0, 0.0005243977820650746
381.0, 0.0005825831827094372
382.0, 0.0006605289146550748
383.0, 0.00048767599042224863
384.0, 0.00038232643976670965
385.0, 0.0003010448270567341
386.0, 0.0002812211768630456
387.0, 0.00021000934653829883
388.0, 0.00014052056153473176
389.0, 0.0002047337464106344
390.0, 0.00025467051471764554
391.0, 0.0003796660264228238
392.0, 0.00048764972610869573
393.0, 0.0005129063849734401
394.0, 0.000583361099798326
395.0, 0.000627303552149658
396.0, 0.0008825009729454897
397.0, 0.0012551942912674885
398.0, 0.0011517977280410658
399.0, 0.0009706386135262402
400.0, 0.000950030773463508
401.0, 0.0010661637152200854
402.0, 0.0012041509706210165
403.0, 0.0012065266535386853
404.0, 0.0010521731030155822
405.0, 0.001109385472115769
406.0, 0.0012200094442382484
407.0, 0.0012308552887571812
408.0, 0.001304756232042246
409.0, 0.0012252604836408935
410.0, 0.001150552908136764
411.0, 0.0012288972021023083
412.0, 0.0013834650768205835
413.0, 0.0013786895375110554
414.0, 0.0015628753085562318
415.0, 0.001546654315903157
416.0, 0.0013852588059676569
417.0, 0.0012442679946913036
418.0, 0.001183125956308008
419.0, 0.0013902759516210663
420.0, 0.00144356817066482
421.0, 0.0014561701181066084
422.0, 0.00161560053259546
423.0, 0.0018022297570572904
424.0, 0.001771328802351453
425.0, 0.0017629718331963317
426.0, 0.00186304519486449
427.0, 0.0019492438833159911
428.0, 0.0019383444768080401
429.0, 0.002051596536452069
430.0, 0.0020192414156894834
431.0, 0.0019796862148879495
432.0, 0.0020109158430000914
433.0, 0.002060521113928459
434.0, 0.002201979047983127
435.0, 0.0020617115410396097
436.0, 0.0018537511306611666
437.0, 0.0017168838102574017
438.0, 0.0015780200895610227
439.0, 0.0014745368317392784
440.0, 0.0013428516494095755
441.0, 0.0012044241185589606
442.0, 0.0011264519460065508
443.0, 0.0010756332471572483
444.0, 0.0008960535087659457
445.0, 0.000837516692720624
446.0, 0.0008197226635231828
447.0, 0.000857318872004088
448.0, 0.0009410561284081474
449.0, 0.0009481015747862676
450.0, 0.0007667302967545866
451.0, 0.0007997413999754923
452.0, 0.000916243869893308
453.0, 0.000985674462834129
454.0, 0.0010391258722342329
455.0, 0.0009337343476745475
456.0, 0.0008986833376228292
457.0, 0.0009066994964868168
458.0, 0.0009439618111164326
459.0, 0.0009875040020414607
460.0, 0.0008451534480029453
461.0, 0.0009257015977742103
462.0, 0.0009561945942053257
463.0, 0.000877285272447165
464.0, 0.0008297703659175083
465.0, 0.0009192844499710926
466.0, 0.0008591124831064985
467.0, 0.0008533689190072138
468.0, 0.0008686674344681938
469.0, 0.0008798581631639476
470.0, 0.00100486038210371
471.0, 0.000987613182419947
472.0, 0.0009009630736930618
473.0, 0.0007483171529796685
474.0, 0.0007177644655354312
475.0, 0.0010003544915994503
476.0, 0.0009988248221976263
477.0, 0.0009424964232955695
478.0, 0.0009087115775793496
479.0, 0.0008813596239156175
480.0, 0.0008283887859326538
481.0, 0.0007258540204052556
482.0, 0.0006320541824307174
483.0, 0.0005714357683494894
484.0, 0.0006501230328885184
485.0, 0.0008592468099215074
486.0, 0.0009653568714916427
487.0, 0.0007938607335685257
488.0, 0.0006254426184687267
489.0, 0.0005838194951394025
490.0, 0.0006847527222103144
491.0, 0.0008239435556603196
492.0, 0.0008150703399115463
493.0, 0.0006554282140221879
494.0, 0.0005359097629125314
495.0, 0.0006212565315704571
496.0, 0.0007675420460356232
497.0, 0.0005703289917126252
498.0, 0.000484809954661757
499.0, 0.00046892219971515027
500.0, 0.00046359417221184326
501.0, 0.0004065952383521122
502.0, 0.0002779633677905115
503.0, 0.00033481971699616283
504.0, 0.00034447226457128856
505.0, 0.0002935185891801163
506.0, 0.00025058935728447345
507.0, 0.0002277323541495973
508.0, 0.00017485140040324925
509.0, 0.00015231385395610004
510.0, 0.00012267457171603795
511.0, 5.316594367733106e-05
512.0, 4.645977370267017e-05
513.0, 0.00018843168930851524
514.0, 9.418007808638988e-05
515.0, 0.00014808104464933238
516.0, 0.0001775459231161226
517.0, 0.00010193774350232423
518.0, 6.643723199848421e-05
519.0, 0.0001478248830151467
520.0, 4.093576913517739e-05
521.0, 8.577503944096948e-05
522.0, 0.0001983081287680792
523.0, 0.00011880003232016907
524.0, 4.8774675573533026e-05
525.0, 9.718204173688697e-05
526.0, 6.042040835644719e-05
527.0, 0.00011644796746619568
528.0, 9.771659010365043e-05
529.0, 0.0001094223177458601
530.0, 6.825673503455123e-05
531.0, 3.0211368397226054e-05
532.0, 7.306064631381624e-05
533.0, 4.1513253114681735e-05
534.0, 2.6419684853856584e-05
535.0, 9.125539678573311e-05
536.0, 0.0001321559856364055
537.0, 0.00011848298725079847
538.0, 0.00011933215050899967
539.0, 9.868171217510932e-05
540.0, 3.529027438689048e-05
541.0, 2.1094416648674815e-05
542.0, 0.00017980153515568278
543.0, 0.00027221736326355097
544.0, 0.00020248227711826055
545.0, 0.00011373500562096185
546.0, 0.0001563969190461728
547.0, 0.00026903009139427704
548.0, 0.000270143894472143
549.0, 0.00019431826939519828
550.0, 0.00016802261007829852
551.0, 7.61005156810387e-05
552.0, 6.34059163390089e-05
553.0, 0.0001516953880450466
554.0, 0.0002971337953140591
555.0, 0.00034702038354133505
556.0, 0.0002770352132069531
557.0, 0.00019059200334624974
558.0, 0.0002559866224681745
559.0, 0.00034282743922535084
560.0, 0.00033627930707106815
561.0, 0.0002306509648580074
562.0, 0.00021507515175063832
563.0, 0.00024455393599103983
564.0, 8.812184695585525e-05
565.0, 9.872922204741562e-05
566.0, 7.339304851664022e-06
567.0, 2.259928950269475e-05
568.0, 1.8787247655357744e-05
569.0, 6.692412535958179e-05
570.0, 8.608238751898143e-05
571.0, 0.00010071203021588476
572.0, 3.3250223040178396e-05
573.0, 8.706141486551736e-05
574.0, 7.128934517090556e-05
575.0, 0.00024890538279226805
576.0, 0.00017356326412742477
577.0, 3.5443008569229804e-05
578.0, 0.0001270180608192139
579.0, 6.661302269658423e-05
580.0, 6.878028386709953e-05
581.0, 9.574652742748899e-05
582.0, 0.00017298441866180612
583.0, 0.00016110670286457175
584.0, 8.080637448878315e-05
585.0, 2.1457152367881473e-05
586.0, 5.9826011862473385e-05
587.0, 0.00020063789450276178
588.0, 0.00019132254656429774
589.0, 3.5345013341660656e-05
590.0, 5.658061314015539e-05
591.0, 0.0002153566086732071
592.0, 0.00025697637342539153
593.0, 0.00015751164182352254
594.0, 0.00014476484327286134
595.0, 0.0001656646134990922
596.0, 0.00020805948725531232
597.0, 0.0002392735092426609
598.0, 0.00021702414239742004
599.0, 0.000171075393173013
600.0, 0.00025601408363497416
601.0, 0.0004177973118899192
602.0, 0.00038196441424210177
603.0, 0.00030787138293603074
604.0, 0.00033729360965738025
605.0, 0.0003768676596073241
606.0, 0.00022219332389047562
607.0, 0.00026420207809815506
608.0, 0.00033682542232520396
609.0, 0.00034879133057006095
610.0, 0.0002801711072256247
611.0, 0.00024153080318774223
612.0, 0.00044670881446763296
613.0, 0.00048590017204442633
614.0, 0.0005563375518166788
615.0, 0.0006193157198655522
616.0, 0.0006056429779970183
617.0, 0.0005861016987117622
618.0, 0.0007197473588342432
619.0, 0.0007858379067789723
620.0, 0.0009209214725335302
621.0, 0.0010189148083205762
622.0, 0.001014315062737534
623.0, 0.0009540759313859516
624.0, 0.000950709485536009
625.0, 0.0011340018417085463
626.0, 0.001253138966410219
627.0, 0.0012034884008886135
628.0, 0.0012110374955056895
629.0, 0.0013308883512729661
630.0, 0.0012313218755055514
631.0, 0.0011633127887267863
632.0, 0.0012614382614614744
633.0, 0.0012000987225012276
634.0, 0.0010779217826711424
635.0, 0.0010283548270539138
636.0, 0.0009446992725210591
637.0, 0.0010207676126155268
638.0, 0.0010014042785033224
639.0, 0.0009341275737001365
640.0, 0.000991467708277135
641.0, 0.0010096839260831912
642.0, 0.0008209872557573268
643.0, 0.0009766114333244276
644.0, 0.0007387290327449188
645.0, 0.0007843240136650008
646.0, 0.0008344415454511976
647.0, 0.0006911931384979301
648.0, 0.0005769780706828981
649.0, 0.0006355092900490186
650.0, 0.0006969065133915315
651.0, 0.0006217399306322597
652.0, 0.000563238836020008
653.0, 0.0006075600816960612
654.0, 0.0006503872087950774
655.0, 0.0005480041746483169
656.0, 0.0004942030503689586
657.0, 0.00043036950403085525
658.0, 0.0004804067313669242
659.0, 0.0005173024097770327
660.0, 0.00048274879615032234
661.0, 0.0004524576006311088
662.0, 0.0003383171048191008
663.0, 0.00023435878515866413
664.0, 0.0002520742291769588
665.0, 0.0002925613263238165
666.0, 0.0002622629766348748
667.0, 0.00026333927909953723
668.0, 0.00040700657978886396
669.0, 0.00025043130564118203
670.0, 9.640640491321453e-05
671.0, 4.551326261397185e-05
672.0, 5.412968930357809e-05
673.0, 7.96895720263876e-05
674.0, 0.00010896962568427114
675.0, 0.0001307151348376544
676.0, 4.096177057744203e-05
677.0, 5.424100841053615e-05
678.0, 0.00012224034793520834
679.0, 0.00011798241673931112
680.0, 7.057936171232348e-05
681.0, 9.381909806959539e-05
682.0, 0.00017011174081078394
683.0, 0.00021409711080252255
684.0, 0.00025541687006203355
685.0, 0.00028836059614181607
686.0, 0.00029290003797486286
687.0, 0.0002630255752132469
688.0, 0.0002588366550567281
689.0, 0.00020733388654038836
690.0, 0.0002589855180340728
691.0, 0.00031812734700012685
692.0, 0.0002873151948408606
693.0, 0.00022890546220993336
694.0, 0.00024515680705876125
695.0, 0.00032082357257427
696.0, 0.00028732336015779354
697.0, 0.00026003487839726305
698.0, 0.0002577607899400697
699.0, 0.00019917354906575112
700.0, 0.00011439201874742004
701.0, 0.0002918472794403149
702.0, 0.00028840604950091346
703.0, 0.00016476097593812785
704.0, 0.00014536530977369552
705.0, 0.00022343426874048416
706.0, 0.00022981979412123663
707.0, 0.00010914128750690983
708.0, 0.00013266833090876508
709.0, 0.0001737448869039153
710.0, 0.0002810623897290457
711.0, 0.000224877999590411
712.0, 0.00017852820790174235
713.0, 0.00021996674083972137
714.0, 5.432812430573014e-05
715.0, 6.269105676564832e-05
716.0, 8.825442758551421e-05
717.0, 3.483333514852817e-05
718.0, 1.6048114975083168e-05
719.0, 5.975693163508376e-05
720.0, 6.905344150723701e-05
721.0, 6.726673319889036e-05
722.0, 6.528402070114339e-05
723.0, 5.996280951865635e-05
724.0, 6.043699273234159e-05
725.0, 0.00010127800388860317
726.0, 8.363889339358325e-05
727.0, 7.090764920760393e-05
728.0, 3.805187977585096e-05
729.0, 1.3415155804614915e-05
730.0, 3.127530969546281e-05
731.0, 1.640955108217501e-05
732.0, 1.3873465398287068e-05
733.0, 4.363947504579094e-06
734.0, 4.912607140447074e-06
735.0, 4.164577176074874e-05
736.0, 8.076695364416265e-05
737.0, 0.00011626264004005842
738.0, 0.0001401255874279488
739.0, 4.442834815869239e-05
740.0, 0.00010213657265083138
741.0, 2.627066370957898e-05
742.0, 0.00012469102983598
743.0, 0.0001046853791479809
744.0, 1.6131801743644563e-05
745.0, 7.201447284676593e-05
746.0, 0.00013884088113536033
747.0, 0.00014077592826582512
748.0, 0.00013961485596168706
749.0, 9.145005278734023e-05
750.0, 3.439757925168948e-05
751.0, 8.266465216490446e-05
752.0, 9.688862336548461e-05
753.0, 9.808166406414597e-05
754.0, 0.00013826543478935192
755.0, 0.00016211163642707916
756.0, 0.000114941584975405
757.0, 0.00016289543039942972
758.0, 0.00022075904059458133
759.0, 0.00010773088546561531
760.0, 4.7683124793663756e-05
761.0, 0.0001535518618007444
762.0, 0.00018233218753402097
763.0, 7.637488576350891e-05
764.0, 0.00013465877402061852
765.0, 0.00010577846337211271
766.0, 8.458430275227677e-05
767.0, 0.00019121652582125917
768.0, 0.0001996471723823966
769.0, 3.4616474589405456e-05
770.0, 0.00014073023844453185
771.0, 0.0001625258953842785
772.0, 0.0001509000210669786
773.0, 0.00018192431202706245
774.0, 0.00012805862862833058
775.0, 0.00016264403675448946
776.0, 0.0002789971671059103
777.0, 0.0002182752704824984
778.0, 0.00010877376716563893
779.0, 5.5499488077881474e-05
780.0, 0.00011914037391152498
781.0, 0.00026483794556524527
782.0, 0.00026553791660619203
783.0, 0.00017274232884008118
784.0, 0.0001500415122518554
785.0, 0.00010772528596781796
786.0, 0.00015550823658243203
787.0, 0.00012425771366983312
788.0, 0.0001582025208229788
789.0, 0.00015549995581887432
790.0, 9.616743628507286e-05
791.0, 0.00015141986582859973
792.0, 0.00030575940591090283
793.0, 0.00018639841031191194
794.0, 0.00021501716153145498
795.0, 0.00024008260947109007
796.0, 0.0002551210440698084
797.0, 0.00018448127231145378
798.0, 7.08909956090567e-05
799.0, 7.45207666518275e-05
800.0, 0.00010380911587631434
801.0, 0.00012698110491412675
802.0, 5.1681008248241e-05
803.0, 0.00013402891412526486
804.0, 0.00012806886558631517
805.0, 0.00012426705953353935
806.0, 0.00016993853705968417
807.0, 8.074137893066626e-05
808.0, 0.00014209815364864929
809.0, 0.00014468890369530646
810.0, 0.00014462797727255464
811.0, 0.00010155613483754627
812.0, 0.00016407688419277773
813.0, 0.00021894841393113669
814.0, 0.00010401298335384752
815.0, 0.00013101886207507582
816.0, 0.00012492415568465023
817.0, 0.00010572091409175865
818.0, 0.00013408753412225827
819.0, 0.00013524225700318617
820.0, 0.00011742676685489214
821.0, 0.00011658570565591399
822.0, 0.00014376615371513435
823.0, 0.00022476937344238863
824.0, 0.00016413506449535937
825.0, 0.00019496568335611926
826.0, 0.00024982066986794284
827.0, 0.00018626967592711888
828.0, 8.038765772958361e-05
829.0, 3.547339907238529e-05
830.0, 5.339271016998888e-05
831.0, 0.00010301479141163183
832.0, 0.00010123031638704359
833.0, 0.0001051034083975087
834.0, 3.1450680745516305e-05
835.0, 2.6821622583310114e-05
836.0, 4.287301323047649e-05
837.0, 6.820999780923142e-05
838.0, 0.0001873928722919305
839.0, 0.00016327470416596765
840.0, 0.0001677990806645412
841.0, 0.00011432073508715276
842.0, 6.914709819027916e-05
843.0, 0.00020306625106361611
844.0, 0.00019004238113631236
845.0, 9.53715999586985e-06
846.0, 6.932375188110978e-05
847.0, 0.0002013095665931386
848.0, 0.0002022500239975343
849.0, 6.970001013575542e-05
850.0, 7.660069349020036e-05
851.0, 0.00013701761881115175
852.0, 0.00011056887673572581
853.0, 6.664292519260565e-05
854.0, 8.76445173894898e-05
855.0, 5.7725629074214073e-05
856.0, 8.683641716172574e-05
857.0, 8.777979664478992e-05
858.0, 6.0019086396950916e-05
859.0, 4.784478072838697e-05
860.0, 9.926241976693505e-05
861.0, 0.00011514499025550991
862.0, 8.096803374590256e-05
863.0, 0.0002570777958458344
864.0, 7.625041988481336e-05
865.0, 2.6897141735036024e-05
866.0, 6.786304121219045e-05
867.0, 0.00011416223750577578
868.0, 0.00011562050371135489
869.0, 0.00010902855986047147
870.0, 6.659462397664616e-05
871.0, 6.684997121620014e-05
872.0, 3.245462599181634e-05
873.0, 0.00013385980854176117
874.0, 0.00017839385964889653
875.0, 8.982534627248746e-05
876.0, 7.256075655122645e-05
877.0, 7.50808236674712e-05
878.0, 2.0660618181376387e-05
879.0, 3.059874562445238e-05
880.0, 1.5426354562794463e-05
881.0, 5.9398065620499556e-05
882.0, 8.970828043015204e-05
883.0, 7.00354349936344e-05
884.0, 9.20198785124595e-05
885.0, 6.079892100497773e-05
886.0, 5.42347149326163e-05
887.0, 0.00012315382901376525
888.0, 1.7767545141739883e-05
889.0, 6.822623757092828e-05
890.0, 3.6423983542019096e-05
891.0, 0.00016146309960944703
892.0, 0.00014944452636483064
893.0, 0.00010696306645111058
894.0, 0.0001136943233406393
895.0, 8.684645246299631e-05
896.0, 1.3752954473827862e-05
897.0, 4.143279246012718e-05
898.0, 0.0001998356007340957
899.0, 0.00015352832652345695
900.0, 2.5412913531990133e-05
901.0, 2.874864148600866e-05
902.0, 3.784622492680922e-05
903.0, 6.487638313860358e-06
904.0, 4.7783883248346816e-05
905.0, 6.941983461670025e-05
906.0, 0.00013445787841037243
907.0, 0.00011831737431889996
908.0, 0.0001385555595206235
909.0, 0.00013062827836704728
910.0, 6.97217705017801e-05
911.0, 0.00010196291423430714
912.0, 0.00013312384618620815
913.0, 9.312021306710815e-05
914.0, 0.00010654212176899426
915.0, 6.945227974491435e-05
916.0, 3.537603949958196e-05
917.0, 6.42221951321364e-05
918.0, 9.260182555811187e-05
919.0, 0.00016772048402614463
920.0, 0.00017761545698989485
921.0, 0.0001340455747173616
922.0, 0.0001466144110054555
923.0, 0.00014807626524591063
924.0, 0.0001303586053568606
925.0, 5.680639779843986e-05
926.0, 0.00015657730848067937
927.0, 7.161788256290224e-05
928.0, 0.00010673539900006651
929.0, 0.00020607638962835182
930.0, 0.00015323058820310005
931.0, 7.163077133592888e-05
932.0, 0.00011304170730784907
933.0, 6.927062584332995e-05
934.0, 0.0001449397406375465
935.0, 9.746739478350117e-05
936.0, 9.8010121732321e-05
937.0, 2.8080813484156104e-05
938.0, 4.4515010982965754e-05
939.0, 0.00015670986500055013
940.0, 0.00021052516736356865
941.0, 0.0001869867987982124
942.0, 0.00010362608762429303
943.0, 9.384408243881994e-05
944.0, 0.00017802200894180531
945.0, 0.0001826828367043899
946.0, 9.11604462206644e-05
947.0, 9.472704505210006e-05
948.0, 6.225548996212044e-05
949.0, 4.602944554991165e-05
950.0, 0.00010084052704872231
951.0, 2.645913897458132e-05
952.0, 3.161361678876401e-05
953.0, 9.75433073985216e-05
954.0, 7.56337203123621e-05
955.0, 3.487804807037937e-05
956.0, 9.615865795230592e-05
957.0, 0.00011931557651162807
958.0, 5.104976355482531e-05
959.0, 5.322257543329144e-05
960.0, 0.00011406345595124357
961.0, 4.758947122731352e-05
962.0, 2.9512697794622314e-05
963.0, 0.00015870233220109637
964.0, 0.0001166241560481399
965.0, 0.0001046574261189389
966.0, 9.047127013604702e-05
967.0, 7.459046646386465e-05
968.0, 8.415659919748361e-05
969.0, 8.796156684928796e-05
970.0, 6.633048603517203e-05
971.0, 6.191524610791651e-05
972.0, 3.660759768658772e-05
973.0, 0.00015634232851453487
974.0, 0.00017159518334718932
975.0, 0.0001306651673484752
976.0, 0.00011637050141684622
977.0, 0.00010000296753086315
978.0, 3.0058253238135637e-05
979.0, 1.181530685014827e-05
980.0, 5.4922047166982024e-05
981.0, 0.0001216011906993663
982.0, 0.00014250820952629672
983.0, 0.0001452414171642788
984.0, 0.0001561477336510106
985.0, 4.4377958113568036e-05
986.0, 9.2285334410614e-05
987.0, 0.00012539065515577264
988.0, 9.507998165190275e-05
989.0, 0.0001447663850143566
990.0, 0.00017134365118024047
991.0, 0.00010509044097156559
992.0, 3.4538292767492e-05
993.0, 6.441984674094915e-05
994.0, 8.310145299382487e-05
995.0, 0.00010985323736511065
996.0, 0.00013325876452540702
997.0, 0.00013743036638413006
998.0, 9.357707987753708e-05
999.0, 8.217123969866902e-05
1000.0, 0.00011053898949557591
1001.0, 6.780135790540258e-05
1002.0, 8.799773247376897e-05
1003.0, 0.00010574770843032931
1004.0, 0.00014491690576468608
1005.0, 0.0001781172651123323
1006.0, 8.309544417189751e-05
1007.0, 0.00013279209053286258
1008.0, 0.00016229947226546008
1009.0, 0.00010135522173592063
1010.0, 5.815900667142483e-05
1011.0, 6.148206202493679e-05
1012.0, 8.241327203305262e-05
1013.0, 1.4255931638851497e-05
1014.0, 4.3899208450670104e-05
1015.0, 7.789690045481808e-05
1016.0, 5.1982206784208895e-05
1017.0, 6.716690162463456e-05
1018.0, 8.999976316588714e-05
1019.0, 3.665657652921513e-05
1020.0, 1.4148332146665917e-05
1021.0, 0.00011100583565380913
1022.0, 0.000129930873066954
1023.0, 0.00012614115666705224
1024.0, 0.00010761886337820496
1025.0, 0.00015796074742278681
1026.0, 1.4602688023244767e-05
1027.0, 5.838814444277352e-05
1028.0, 9.570555704919293e-05
1029.0, 9.62068782813013e-05
1030.0, 6.83676716121773e-05
1031.0, 7.090910263161428e-05
1032.0, 0.00011446279947176004
1033.0, 9.063000193892715e-05
1034.0, 0.00011569879688584646
1035.0, 0.0001316065916470909
1036.0, 6.324273793889692e-05
1037.0, 7.807935065759302e-05
1038.0, 7.540539868311639e-05
1039.0, 4.2721114606054254e-05
1040.0, 5.5120252363902766e-05
1041.0, 0.00011590142806611718
1042.0, 0.00012976516004290607
1043.0, 0.00010900801254227597
1044.0, 0.00012529247306075544
1045.0, 0.00013338667048865617
1046.0, 0.00015049145118293386
1047.0, 5.170309478339458e-05
1048.0, 4.366019094485979e-05
1049.0, 8.902159737767595e-05
1050.0, 2.2422599463005104e-05
1051.0, 5.478642223336145e-05
1052.0, 7.574580734142492e-05
1053.0, 6.493381011331879e-05
1054.0, 0.0001346056743770229
1055.0, 0.00018233369549215423
1056.0, 9.110682815168807e-05
1057.0, 8.73393898497003e-05
1058.0, 0.00012100775370253811
1059.0, 0.0001618829762199551
1060.0, 2.5136170078086615e-05
1061.0, 2.8866924024311033e-05
1062.0, 4.882758969333049e-06
1063.0, 0.00014392465138039773
1064.0, 6.398466874315707e-05
1065.0, 1.701171782452768e-05
1066.0, 6.28554282164772e-05
1067.0, 8.47616791358676e-05
1068.0, 8.945316799118255e-05
1069.0, 0.00010466762851583431
1070.0, 7.920000735330303e-05
1071.0, 2.5274669495676944e-05
1072.0, 2.4116191457384886e-05
1073.0, 9.471582833754185e-05
1074.0, 0.00020223887690473696
1075.0, 0.0002211200865033099
1076.0, 0.00010776935792753569
1077.0, 7.58235803933281e-05
1078.0, 0.0001189588902461171
1079.0, 0.00014765099784799004
1080.0, 0.0001817584361717992
1081.0, 0.0001578962462319662
1082.0, 8.413848127147226e-05
1083.0, 8.123333576097195e-05
1084.0, 4.6252309625133445e-05
1085.0, 9.725211274806031e-05
1086.0, 9.824318118342021e-05
1087.0, 0.00015318341517796299
1088.0, 0.0001754928816198252
1089.0, 6.655933534360442e-05
1090.0, 5.9154197317508534e-05
1091.0, 0.00017296103844192248
1092.0, 0.00016198903156086514
1093.0, 5.789798454971695e-05
1094.0, 3.640489948688309e-05
1095.0, 2.6075679179564074e-05
1096.0, 7.683826996293415e-05
1097.0, 0.00012526699602857634
1098.0, 0.00012811737944965054
1099.0, 4.680031802860022e-05
1100.0, 6.452593413911003e-05
1101.0, 6.914670991441807e-05
1102.0, 0.00012119565063775662
1103.0, 9.74437262952026e-05
1104.0, 2.0579012179177135e-05
1105.0, 4.2568024435727194e-05
1106.0, 9.34111331301967e-05
1107.0, 9.822410065986098e-05
1108.0, 0.00017666404935682114
1109.0, 6.328016742246992e-05
1110.0, 0.00011899737990407121
1111.0, 6.599689892369943e-05
1112.0, 0.00011484418585262019
1113.0, 0.00011311088194132805
1114.0, 9.418747360874921e-05
1115.0, 0.0001470749571703131
1116.0, 0.00017244787767431587
1117.0, 0.00013309943607502865
1118.0, 0.00010866928926971848
1119.0, 8.962274658592132e-05
1120.0, 2.6420165539709078e-05
1121.0, 4.923494537128365e-05
1122.0, 0.00010214392950913266
1123.0, 3.61334736108206e-05
1124.0, 0.0001514576661404191
1125.0, 0.00017038606167643595
1126.0, 0.00019103532810038043
1127.0, 3.81921285427767e-05
1128.0, 4.8677976255712984e-05
1129.0, 8.218851659939715e-05
1130.0, 0.00010564157881723056
1131.0, 6.311416278421051e-05
1132.0, 0.0001583831798181269
1133.0, 0.00019706665531871165
1134.0, 6.377676291292251e-05
1135.0, 0.00010234717993807757
1136.0, 7.49094338088248e-05
1137.0, 0.00011655813907331286
1138.0, 0.00020505781285628535
1139.0, 9.660368040421279e-05
1140.0, 7.81388263616495e-05
1141.0, 6.252180622325165e-05
1142.0, 7.529614650011214e-05
1143.0, 8.655566727416782e-05
1144.0, 1.1737887325545891e-05
1145.0, 3.095012843129605e-05
1146.0, 0.00012022671991542688
1147.0, 0.0001562489420965046
1148.0, 0.00011522075971228237
1149.0, 1.2910062827299675e-05
1150.0, 9.847797608903662e-05
1151.0, 0.0001432940008430311
1152.0, 0.00017252407361048353
1153.0, 9.638317796540277e-05
1154.0, 0.00016776904082369367
1155.0, 0.00014231174321549511
1156.0, 0.0001138194260049817
1157.0, 9.864093197626704e-05
1158.0, 0.00017327828697635906
1159.0, 0.00016766745558718582
1160.0, 0.00012577110500454407
1161.0, 4.031280426859048e-05
1162.0, 4.999861724724959e-05
1163.0, 0.00018402585221480078
1164.0, 0.00010921439192226061
1165.0, 0.00010179688447444533
1166.0, 0.0001368214261129979
1167.0, 0.0001439971693790463
1168.0, 0.00016920227049293344
1169.0, 9.564662890717051e-05
1170.0, 0.00010197690264014193
1171.0, 0.00014722944512218764
1172.0, 0.00015862964351120548
1173.0, 0.00016899090615935902
1174.0, 0.00019292158855314449
1175.0, 0.0001545726503303872
1176.0, 5.842434711029269e-05
1177.0, 6.143332074854911e-06
1178.0, 7.13147624021416e-05
1179.0, 0.00014125379825933343
1180.0, 8.922024708081313e-05
1181.0, 0.00013386908145685052
1182.0, 0.00011761575970204375
1183.0, 8.043590873658614e-05
1184.0, 0.00021937841778221274
1185.0, 2.9512924494675683e-05
1186.0, 0.00011722370947074767
1187.0, 0.00016268783508936838
1188.0, 0.00010577318584607504
1189.0, 8.027036169168172e-05
1190.0, 1.4520643553744458e-05
1191.0, 5.403737817648845e-05
1192.0, 0.00014532150445271797
1193.0, 0.00015713424450376404
1194.0, 0.00019409882512182102
1195.0, 0.0001896578594748055
1196.0, 0.00010967774628741441
1197.0, 0.00011455727794140239
1198.0, 0.00014699654666782243
1199.0, 4.5754210907558856e-05
1200.0, 4.6265889474205585e-05
1201.0, 0.0002338677691057543
1202.0, 0.00011330735672483716
1203.0, 0.0001190902915561259
1204.0, 0.0001194509107096303
1205.0, 0.0001194799890709013
1206.0, 3.171523371724341e-05
1207.0, 1.0870738045528702e-05
1208.0, 4.387084676365077e-05
1209.0, 0.0001372282058577058
1210.0, 0.00020892180813319216
1211.0, 0.00021928561012847094
1212.0, 0.0001459990537584529
1213.0, 8.415577448554052e-05
1214.0, 9.722764316746732e-05
1215.0, 8.869443099482566e-05
1216.0, 7.408087109455899e-05
1217.0, 7.70024845369925e-05
1218.0, 5.595395161501866e-06
1219.0, 5.0726598410669726e-05
1220.0, 0.00018636486524649964
1221.0, 9.016233280290909e-05
1222.0, 0.00010005442009952093
1223.0, 0.00015136755112735842
1224.0, 7.51145845246825e-05
1225.0, 0.00018647358001969518
1226.0, 0.00012370688363405084
1227.0, 1.7809949846382927e-06
1228.0, 7.366854161384447e-05
1229.0, 0.00010649625922227397
1230.0, 7.953606170903945e-05
1231.0, 0.00012515090344734626
1232.0, 0.00012906577675302733
1233.0, 8.00544439851775e-05
1234.0, 3.279528887433866e-05
1235.0, 1.7424551484337988e-05
1236.0, 0.00012956277183176701
1237.0, 0.00011397549466414927
1238.0, 8.059994871871674e-05
1239.0, 0.0001985423193007795
1240.0, 0.00011220139417533162
1241.0, 0.00010029307733296055
1242.0, 0.0002191676036904462
1243.0, 0.00010956185668195087
1244.0, 4.2917351781316854e-05
1245.0, 0.00013595821322901782
1246.0, 6.868305138201139e-05
1247.0, 0.00014568567013197668
1248.0, 6.195755710227634e-05
1249.0, 9.810930118171454e-06
1250.0, 8.484178084733262e-05
1251.0, 0.00013055750614181317
1252.0, 8.099941331602138e-05
1253.0, 3.7126113792005485e-05
1254.0, 4.677088783338213e-05
1255.0, 8.774028472697932e-05
1256.0, 6.667930674596911e-05
1257.0, 0.00010168860797685627
1258.0, 0.00022007692394301534
1259.0, 4.9119795837558894e-05
1260.0, 0.00010214652439784708
1261.0, 0.00013091615450106344
1262.0, 0.0001196826791807419
1263.0, 0.00011460575654532028
1264.0, 0.0001607963870635284
1265.0, 0.00011371102049560842
1266.0, 7.416499201202854e-05
1267.0, 5.980557600045514e-05
1268.0, 0.00014436010151242998
1269.0, 9.819177085075796e-05
1270.0, 3.0722850803740246e-05
1271.0, 5.943961706503901e-07
1272.0, 1.5087140569838572e-05
1273, 0.0
1274, 0.0
1275, 0.0
1276, 0.0
1277, 0.0
1278, 0.0
1279, 0.0
1280, 0.0
1281, 0.0
1282, 0.0
1283, 0.0
1284, 0.0
1285, 0.0
1286, 0.0
1287, 0.0
1288, 0.0
1289, 0.0
1290, 0.0
1291, 0.0
1292, 0.0
1293, 0.0
1294, 0.0
1295, 0.0
1296, 0.0
1297, 0.0
1298, 0.0
1299, 0.0
1300, 0.0
1301, 0.0
1302, 0.0
1303, 0.0
1304, 0.0
1305, 0.0
1306, 0.0
1307, 0.0
1308, 0.0
1309, 0.0
1310, 0.0
1311, 0.0
1312, 0.0
1313, 0.0
1314, 0.0
1315, 0.0
1316, 0.0
1317, 0.0
1318, 0.0
1319, 0.0
1320, 0.0
1321, 0.0
1322, 0.0
1323, 0.0
1324, 0.0
1325, 0.0
1326, 0.0
1327, 0.0
1328, 0.0
1329, 0.0
1330, 0.0
1331, 0.0
1332, 0.0
1333, 0.0
1334, 0.0
1335, 0.0
1336, 0.0
1337, 0.0
1338, 0.0
1339, 0.0
1340, 0.0
1341, 0.0
1342, 0.0
1343, 0.0
1344, 0.0
1345, 0.0
1346, 0.0
1347, 0.0
1348, 0.0
1349, 0.0
1350, 0.0
1351, 0.0
1352, 0.0
1353, 0.0
1354, 0.0
1355, 0.0
1356, 0.0
1357, 0.0
1358, 0.0
1359, 0.0
1360, 0.0
1361, 0.0
1362, 0.0
1363, 0.0
1364, 0.0
1365, 0.0
1366, 0.0
1367, 0.0
1368, 0.0
1369, 0.0
1370, 0.0
1371, 0.0
1372, 0.0
1373, 0.0
1374, 0.0
1375, 0.0
1376, 0.0
1377, 0.0
1378, 0.0
1379, 0.0
1380, 0.0
1381, 0.0
1382, 0.0
1383, 0.0
1384, 0.0
1385, 0.0
1386, 0.0
1387, 0.0
1388, 0.0
1389, 0.0
1390, 0.0
1391, 0.0
1392, 0.0
1393, 0.0
1394, 0.0
1395, 0.0
1396, 0.0
1397, 0.0
1398, 0.0
1399, 0.0
1400, 0.0
1401, 0.0
1402, 0.0
1403, 0.0
1404, 0.0
1405, 0.0
1406, 0.0
1407, 0.0
1408, 0.0
1409, 0.0
1410, 0.0
1411, 0.0
1412, 0.0
1413, 0.0
1414, 0.0
1415, 0.0
1416, 0.0
1417, 0.0
1418, 0.0
1419, 0.0
1420, 0.0
1421, 0.0
1422, 0.0
1423, 0.0
1424, 0.0
1425, 0.0
1426, 0.0
1427, 0.0
1428, 0.0
1429, 0.0
1430, 0.0
1431, 0.0
1432, 0.0
1433, 0.0
1434, 0.0
1435, 0.0
1436, 0.0
1437, 0.0
1438, 0.0
1439, 0.0
1440, 0.0
1441, 0.0
1442, 0.0
1443, 0.0
1444, 0.0
1445, 0.0
1446, 0.0
1447, 0.0
1448, 0.0
1449, 0.0
1450, 0.0
1451, 0.0
1452, 0.0
1453, 0.0
1454, 0.0
1455, 0.0
1456, 0.0
1457, 0.0
1458, 0.0
1459, 0.0
1460, 0.0
1461, 0.0
1462, 0.0
1463, 0.0
1464, 0.0
1465, 0.0
1466, 0.0
1467, 0.0
1468, 0.0
1469, 0.0
1470, 0.0
1471, 0.0
1472, 0.0
1473, 0.0
1474, 0.0
1475, 0.0
1476, 0.0
1477, 0.0
1478, 0.0
1479, 0.0
1480, 0.0
1481, 0.0
1482, 0.0
1483, 0.0
1484, 0.0
1485, 0.0
1486, 0.0
1487, 0.0
1488, 0.0
1489, 0.0
1490, 0.0
1491, 0.0
1492, 0.0
1493, 0.0
1494, 0.0
1495, 0.0
1496, 0.0
1497, 0.0
1498, 0.0
1499, 0.0
1500, 0.0
1501, 0.0
1502, 0.0
1503, 0.0
1504, 0.0
1505, 0.0
1506, 0.0
1507, 0.0
1508, 0.0
1509, 0.0
1510, 0.0
1511, 0.0
1512, 0.0
1513, 0.0
1514, 0.0
1515, 0.0
1516, 0.0
1517, 0.0
1518, 0.0
1519, 0.0
1520, 0.0
1521, 0.0
1522, 0.0
1523, 0.0
1524, 0.0
1525, 0.0
1526, 0.0
1527, 0.0
1528, 0.0
1529, 0.0
1530, 0.0
1531, 0.0
1532, 0.0
1533, 0.0
1534, 0.0
1535, 0.0
1536, 0.0
1537, 0.0
1538, 0.0
1539, 0.0
1540, 0.0
1541, 0.0
1542, 0.0
1543, 0.0
1544, 0.0
1545, 0.0
1546, 0.0
1547, 0.0
1548, 0.0
1549, 0.0
1550, 0.0
1551, 0.0
1552, 0.0
1553, 0.0
1554, 0.0
1555, 0.0
1556, 0.0
1557, 0.0
1558, 0.0
1559, 0.0
1560, 0.0
1561, 0.0
1562, 0.0
1563, 0.0
1564, 0.0
1565, 0.0
1566, 0.0
1567, 0.0
1568, 0.0
1569, 0.0
1570, 0.0
1571, 0.0
1572, 0.0
1573, 0.0
1574, 0.0
1575, 0.0
1576, 0.0
1577, 0.0
1578, 0.0
1579, 0.0
1580, 0.0
1581, 0.0
1582, 0.0
1583, 0.0
1584, 0.0
1585, 0.0
1586, 0.0
1587, 0.0
1588, 0.0
1589, 0.0
1590, 0.0
1591, 0.0
1592, 0.0
1593, 0.0
1594, 0.0
1595, 0.0
1596, 0.0
1597, 0.0
1598, 0.0
1599, 0.0
