30, 0.0
31, 0.0
32, 0.0
33, 0.0
34, 0.0
35, 0.0
36, 0.0
37, 0.0
38, 0.0
39, 0.0
40, 0.0
41, 0.0
42, 0.0
43, 0.0
44, 0.0
45, 0.0
46, 0.0
47, 0.0
48, 0.0
49, 0.0
50, 0.0
51, 0.0
52, 0.0
53, 0.0
54, 0.0
55, 0.0
56, 0.0
57, 0.0
58, 0.0
59, 0.0
60, 0.0
61, 0.0
62, 0.0
63, 0.0
64, 0.0
65, 0.0
66, 0.0
67, 0.0
68, 0.0
69, 0.0
70, 0.0
71, 0.0
72, 0.0
73, 0.0
74, 0.0
75, 0.0
76, 0.0
77, 0.0
78, 0.0
79, 0.0
80, 0.0
81, 0.0
82, 0.0
83, 0.0
84, 0.0
85, 0.0
86, 0.0
87, 0.0
88, 0.0
89, 0.0
90, 0.0
91, 0.0
92, 0.0
93, 0.0
94, 0.0
95, 0.0
96, 0.0
97, 0.0
98, 0.0
99, 0.0
100, 0.0
101, 0.0
102, 0.0
103, 0.0
104.0, 0.0008863543226598797
105.0, 0.0020574486385494923
106.0, 0.0016929912244223035
107.0, 0.0003213238857018879
108.0, 0.0018805318482168012
109.0, 0.007823255679604095
110.0, 0.006434620237339148
111.0, 0.0049035565752135165
112.0, 0.005170797879482776
113.0, 0.0026661691820894463
114.0, 0.0017352160628553706
115.0, 0.00422260433480471
116.0, 0.005668139017685412
117.0, 0.002634324134776454
118.0, 0.0022177223166596877
119.0, 0.0006796656692721147
120.0, 0.0004986093599485249
121.0, 0.0017529414222091787
122.0, 0.004874961188612223
123.0, 0.005432902008898652
124.0, 0.005645450324288621
125.0, 0.006663995858917749
126.0, 0.007924991801190105
127.0, 0.00782340298956402
128.0, 0.008068396121913821
129.0, 0.00874997632731908
130.0, 0.008709736952810913
131.0, 0.009394996129063577
132.0, 0.008541027365981693
133.0, 0.007509631469261677
134.0, 0.007863237681504638
135.0, 0.007053652834995393
136.0, 0.006925715094597893
137.0, 0.006481192850700608
138.0, 0.00544740948500422
139.0, 0.005645662566294731
140.0, 0.005713346460446214
141.0, 0.0053320325085988276
142.0, 0.004430528003686853
143.0, 0.0030575330375764583
144.0, 0.002747869342920829
145.0, 0.0031088851977328046
146.0, 0.0031989346065822138
147.0, 0.00266861304301753
148.0, 0.00393080950261324
149.0, 0.002669876796332865
150.0, 0.001419689610259041
151.0, 0.0026756474157888575
152.0, 0.0024755011225687136
153.0, 0.001118243877542151
154.0, 0.00034342706172475133
155.0, 0.00024541034420094254
156.0, 0.0007046689905475441
157.0, 0.000684772868556081
158.0, 0.0008082030177040064
159.0, 0.000777870968332712
160.0, 0.0005654904962017164
161.0, 0.0018294742548619963
162.0, 0.0019082987141085658
163.0, 0.0013667790606556364
164.0, 0.0013575364610333269
165.0, 0.0007280875772097228
166.0, 0.0008317635161209884
167.0, 0.0020299801387338875
168.0, 0.0035313579868208773
169.0, 0.0030655100405820807
170.0, 0.004219679365363749
171.0, 0.004036203581182112
172.0, 0.002529484706858755
173.0, 0.0028742135126882235
174.0, 0.0041317490104438625
175.0, 0.005339478804142183
176.0, 0.005765660841880787
177.0, 0.0051070285255728695
178.0, 0.0054128699370858055
179.0, 0.004614909758861273
180.0, 0.0038146652820147705
181.0, 0.004121310042614308
182.0, 0.004464759041756712
183.0, 0.003336638214746107
184.0, 0.0034417793180609776
185.0, 0.004846478998403587
186.0, 0.00467742551555964
187.0, 0.005612039285106323
188.0, 0.005553451892414253
189.0, 0.004827508718691406
190.0, 0.00457468717794888
191.0, 0.0038321886386020656
192.0, 0.006181890223557251
193.0, 0.00751565479576259
194.0, 0.006443146999002932
195.0, 0.0057526638707686316
196.0, 0.005192356199071743
197.0, 0.006146526856272635
198.0, 0.0073755497040057195
199.0, 0.007033771852630672
200.0, 0.00729163563040422
201.0, 0.007242417608405145
202.0, 0.0060743530154187915
203.0, 0.005640611099984757
204.0, 0.009591096054461519
205.0, 0.012286777107042771
206.0, 0.010179033933993761
207.0, 0.006092343731109041
208.0, 0.005291082606859249
209.0, 0.010886724286148008
210.0, 0.01092264938930037
211.0, 0.008222832548070678
212.0, 0.007490443827179543
213.0, 0.007879353726020076
214.0, 0.007934292346812423
215.0, 0.007188750916231053
216.0, 0.006265888556820289
217.0, 0.006095863956765252
218.0, 0.010474409929706989
219.0, 0.00823832879199396
220.0, 0.003457650876519871
221.0, 0.003839703694335931
222.0, 0.0033617697481754007
223.0, 0.004609534593532866
224.0, 0.005203396021819439
225.0, 0.004524658534353898
226.0, 0.005173417240897935
227.0, 0.004209764196553322
228.0, 0.002804827953083302
229.0, 0.0025451129805312243
230.0, 0.003530139790477618
231.0, 0.003917643434039382
232.0, 0.002573477046954141
233.0, 0.00180904935141648
234.0, 0.001628316774432525
235.0, 0.0003057413166027233
236.0, 0.0023271512810783667
237.0, 0.003302338344862673
238.0, 0.0022126719634935586
239.0, 0.0009122707879675983
240.0, 0.0022710282510605096
241.0, 0.003433723898434153
242.0, 0.003398318341523076
243.0, 0.0031579872702945885
244.0, 0.0039349863278809
245.0, 0.0039377361983890646
246.0, 0.002974194453837263
247.0, 0.0017345548368923023
248.0, 0.001096382014499636
249.0, 0.00172336144757345
250.0, 0.0033743291939030548
251.0, 0.0037363453723924353
252.0, 0.0029832473649990966
253.0, 0.0024707018334768926
254.0, 0.002183999927407491
255.0, 0.0017474009006513207
256.0, 0.0011923987621862604
257.0, 0.0008496457562577512
258.0, 0.0013820998574104117
259.0, 0.00031024780761512494
260.0, 0.0003419435367388283
261.0, 0.000881372951942812
262.0, 9.911008716137915e-05
263.0, 0.0010413535085577411
264.0, 0.0013727755638916759
265.0, 0.000554048585220055
266.0, 0.0004219981039794526
267.0, 0.00019792981703002687
268.0, 0.0001544694394385859
269.0, 0.00022010023757135913
270.0, 0.0006024370262614394
271.0, 0.0007427126297479165
272.0, 0.000843393687427161
273.0, 0.0009432521418172283
274.0, 0.0013437416766644515
275.0, 0.0008224402392674027
276.0, 0.003878100713765208
277.0, 0.0027944121052661743
278.0, 0.0016096569153226943
279.0, 0.0016438127025453935
280.0, 0.001963601108400152
281.0, 0.0012485139500493024
282.0, 0.0022456391603450938
283.0, 0.0025550440089136166
284.0, 0.0022798554519578894
285.0, 0.0024137445832301064
286.0, 0.0032652978520658904
287.0, 0.003777192327180796
288.0, 0.004774069956692409
289.0, 0.00554509563511724
290.0, 0.005020812031151985
291.0, 0.00655844152282613
292.0, 0.007874056979262644
293.0, 0.010240632588891106
294.0, 0.012513606448648485
295.0, 0.01158802717313714
296.0, 0.013022058667467227
297.0, 0.01541674488580498
298.0, 0.016480486325343404
299.0, 0.016683738344926483
300.0, 0.018745700275617106
301.0, 0.01980985004149769
302.0, 0.02196856964655035
303.0, 0.02503447677322873
304.0, 0.02820218783283481
305.0, 0.032055077830127544
306.0, 0.0357600098822621
307.0, 0.0417971711525657
308.0, 0.05060431266356906
309.0, 0.06089786099070257
310.0, 0.07236696227666026
311.0, 0.08195233818002329
312.0, 0.0843185696273489
313.0, 0.07815668583657091
314.0, 0.06657393927919572
315.0, 0.05095224090908575
316.0, 0.03862414848346919
317.0, 0.028734555637783498
318.0, 0.020053539604674174
319.0, 0.015332735827596684
320.0, 0.01191771671010823
321.0, 0.009299566651792433
322.0, 0.007511306429661177
323.0, 0.006310032588670247
324.0, 0.004987073826008224
325.0, 0.0027348458374239714
326.0, 0.002358203659007747
327.0, 0.0024104782774551636
328.0, 0.0012335834184493593
329.0, 0.0018969414724145002
330.0, 0.0016241505028742782
331.0, 0.0012179945166941799
332.0, 0.0006653127299074867
333.0, 0.00027826992543644226
334.0, 0.0005495280924780813
335.0, 0.000763440316366784
336.0, 0.000291540743472967
337.0, 0.0002791127833060612
338.0, 9.776326221965882e-05
339.0, 0.0009321930915445172
340.0, 0.0010771285934021236
341.0, 0.00022041126962032113
342.0, 0.0010028189849573155
343.0, 0.001366839038423176
344.0, 0.00039790659063966923
345.0, 0.0008015018648277218
346.0, 0.00024330928549256417
347.0, 0.0007080472494762644
348.0, 0.0005294032663115866
349.0, 0.0003173621838519097
350.0, 0.0007094420750326033
351.0, 0.0005462361542458469
352.0, 0.0007690003843846242
353.0, 0.00202798159665352
354.0, 0.002399044443131574
355.0, 0.003069881356871828
356.0, 0.004162383441434228
357.0, 0.004969079403055645
358.0, 0.0048400637816453556
359.0, 0.004799781359120062
360.0, 0.003701756574781098
361.0, 0.004620663322376757
362.0, 0.007383015049938102
363.0, 0.006734161507630855
364.0, 0.004914942213514271
365.0, 0.005737285095148701
366.0, 0.00756270494230453
367.0, 0.008189145642105754
368.0, 0.007492058253421667
369.0, 0.009029774592053322
370.0, 0.009910077798507475
371.0, 0.010374271103000043
372.0, 0.01156310135700338
373.0, 0.012844539488691837
374.0, 0.014707128081500383
375.0, 0.015517888640091248
376.0, 0.0172625947764227
377.0, 0.020585740315046144
378.0, 0.021891535319670054
379.0, 0.023276708212527853
380.0, 0.025378655318756802
381.0, 0.02988256657780501
382.0, 0.035740546433435785
383.0, 0.03964780235272745
384.0, 0.047384239391970916
385.0, 0.057181284234727785
386.0, 0.06991676287037943
387.0, 0.0856102460205756
388.0, 0.1024195619576384
389.0, 0.12240473316884622
390.0, 0.13808563486055767
391.0, 0.14924921924881304
392.0, 0.16008336786348631
393.0, 0.17508466751444754
394.0, 0.19151870635759322
395.0, 0.21353884709613347
396.0, 0.24096407296716224
397.0, 0.2725957083296166
398.0, 0.309477352324205
399.0, 0.3601806122294607
400.0, 0.41989428238956644
401.0, 0.4989112852780003
402.0, 0.6035215585160697
403.0, 0.7283186265971471
404.0, 0.8658529146258156
405.0, 0.9713258954233489
406.0, 0.9966022254112816
407.0, 0.9151553574323849
408.0, 0.7262217173692613
409.0, 0.5301843291663271
410.0, 0.3730176893735602
411.0, 0.26093390594111304
412.0, 0.18751525986985185
413.0, 0.14185574081338573
414.0, 0.10795376496826534
415.0, 0.08306693014789285
416.0, 0.0659226799665133
417.0, 0.05482836328220405
418.0, 0.04646840894007333
419.0, 0.037670253624811086
420.0, 0.031176411329120045
421.0, 0.025572759217722327
422.0, 0.020767313171719225
423.0, 0.017603641329099667
424.0, 0.016211053863849807
425.0, 0.01372463999740509
426.0, 0.01067081738221831
427.0, 0.009448705547159035
428.0, 0.008939852947937666
429.0, 0.0062521041085997625
430.0, 0.005790843754515603
431.0, 0.00444084241205008
432.0, 0.003171572142006474
433.0, 0.002704515491165333
434.0, 0.0026327576250301282
435.0, 0.0031524754829532903
436.0, 0.0020574629395926584
437.0, 0.001334458603209935
438.0, 0.0015287336867131724
439.0, 0.0017011273673963288
440.0, 0.0007110024411931517
441.0, 0.00099252966383652
442.0, 0.0012942337335595734
443.0, 0.0011712906062187644
444.0, 0.0014700852544277999
445.0, 0.0031108614708636614
446.0, 0.0022125494374942703
447.0, 0.0022886282531838754
448.0, 0.0022493840189007955
449.0, 0.0015662314653794587
450.0, 0.0014566698425750352
451.0, 0.0013413302228685322
452.0, 0.002554431822954219
453.0, 0.0025753359796642276
454.0, 0.0015394581022346548
455.0, 0.0014437032572684279
456.0, 0.0016322042746705053
457.0, 0.000979974765817491
458.0, 0.00014319355308231975
459.0, 0.00025539798929790096
460.0, 0.001214453342128263
461.0, 0.0017283986745101228
462.0, 0.0011876216727894763
463.0, 0.00013719176725414896
464.0, 0.00038351563665887364
465.0, 0.00031170473436251264
466.0, 0.0014075396293194615
467.0, 0.0006530209586900761
468.0, 0.0009559546547775251
469.0, 0.0013263843232888776
470.0, 0.0015427293943297117
471.0, 0.0015629401855042561
472.0, 0.0004975328575950785
473.0, 0.000803313932932499
474.0, 0.001301406908643865
475.0, 0.0009024920683376761
476.0, 0.00040232978495537494
477.0, 0.0006282558329193333
478.0, 0.00014121256532729235
479.0, 0.00018067498658249975
480.0, 0.0009337568818514209
481.0, 0.0015491209329046574
482.0, 0.0014505854804295413
483.0, 0.00015072618316316232
484.0, 0.0008967070485130359
485.0, 0.0023634760217174883
486.0, 0.002524781951184074
487.0, 0.002171427328194965
488.0, 0.0023397025715131757
489.0, 0.0005101029481564023
490.0, 0.00023163754751126926
491.0, 0.00025516128368542807
492.0, 0.0003247631222305023
493.0, 0.00038765252367704335
494.0, 0.00029488103843729077
495.0, 0.00047915991631541737
496.0, 0.0007105762143990584
497.0, 0.0007664653417766769
498.0, 0.0005411064114880835
499.0, 0.00023082692421620048
500.0, 0.0002293583194286555
501.0, 0.00032169604673787795
502.0, 0.0002911203111971946
503.0, 0.0003653563383601428
504.0, 0.0006894816869776241
505.0, 0.0002904715990779941
506.0, 0.0004143012491944943
507.0, 0.0011696896666725611
508.0, 0.001259378639329999
509.0, 0.0010545430147610143
510.0, 0.0013518023362406096
511.0, 0.0017078751604116787
512.0, 0.0018168233756477102
513.0, 0.0032114292942387415
514.0, 0.004343511765670711
515.0, 0.0042735452851431705
516.0, 0.0038317148874629074
517.0, 0.0029261251467122763
518.0, 0.0027799495361128627
519.0, 0.0035571011685345236
520.0, 0.003859751561387868
521.0, 0.003250807377319416
522.0, 0.0034585396765425204
523.0, 0.00415120355976988
524.0, 0.003095908546817729
525.0, 0.002487961562990325
526.0, 0.0029835848391826436
527.0, 0.0033110303373883746
528.0, 0.0021307444597545356
529.0, 0.0027381846559454727
530.0, 0.002562414311312121
531.0, 0.002889919443394726
532.0, 0.0030395907031308994
533.0, 0.0007134465451192711
534.0, 0.0026546404392039074
535.0, 0.0022400439025635284
536.0, 0.0017153112350912583
537.0, 0.001451825761135781
538.0, 0.0011906139332525276
539.0, 0.0019443082083681921
540.0, 0.002100976018801358
541.0, 0.0024106074461101423
542.0, 0.001906931467920475
543.0, 0.001141526713947006
544.0, 0.0009670133293145356
545.0, 0.0007255606938690157
546.0, 0.0018263068131505222
547.0, 0.0014292124355271745
548.0, 0.0014493151840877206
549.0, 0.002507222003341755
550.0, 0.003229539258612665
551.0, 0.0036246436611140696
552.0, 0.0035983574984183803
553.0, 0.0024998940026934213
554.0, 0.002277663530808367
555.0, 0.0023642383159005976
556.0, 0.0011089951544506391
557.0, 0.0006131957968482484
558.0, 0.0005616046329149832
559.0, 0.0007547769268387728
560.0, 0.0011025051321015044
561.0, 0.0004614422478344051
562.0, 0.001669951572576033
563.0, 0.0003822775612520056
564.0, 0.0005913965534939473
565.0, 0.0011365596960534474
566.0, 0.0016085317629356461
567.0, 0.001045476922473275
568.0, 0.002140870960026839
569.0, 0.002259983839598252
570.0, 0.0010650743314390982
571.0, 0.0015396757562023068
572.0, 0.0014095201871135439
573.0, 0.00022185168554471799
574.0, 0.0008573018155632188
575.0, 0.0007324764407599048
576.0, 0.00021092111796656884
577.0, 0.0007111608446406753
578.0, 0.0005353423578395935
579.0, 0.0006616229912096353
580.0, 0.0011130963913699766
581.0, 0.00032241174879309636
582.0, 9.890247450224842e-05
583.0, 0.00040078175155224677
584.0, 0.0004026938263130941
585.0, 0.0003814888083896429
586.0, 0.0006628319655338428
587.0, 0.0013945635968343837
588.0, 0.002243964315065917
589.0, 0.002258392720211048
590.0, 0.0019442249751547716
591.0, 0.0022355674470223154
592.0, 0.0032995240270171813
593.0, 0.0029561455000452065
594.0, 0.0015012877759969928
595.0, 0.0017214644480026296
596.0, 0.001899731145700751
597.0, 0.0020434842910472934
598.0, 0.003314901381190383
599.0, 0.002900105165417303
600.0, 0.0033705068988526166
601.0, 0.0036624655709656373
602.0, 0.003834497635343283
603.0, 0.003258646851254969
604.0, 0.00199704793208391
605.0, 0.0022864951490589166
606.0, 0.003269480098012707
607.0, 0.003117774323951425
608.0, 0.0032004440346678825
609.0, 0.003273376315805997
610.0, 0.0029277733384457396
611.0, 0.0036614396146381475
612.0, 0.004187660052297539
613.0, 0.004205314857165326
614.0, 0.0036585780266842863
615.0, 0.0026507278450089273
616.0, 0.0026157121453727265
617.0, 0.004527374664581756
618.0, 0.004006336429923305
619.0, 0.003070478976270864
620.0, 0.002880843054340694
621.0, 0.003433252843662139
622.0, 0.003883507397156669
623.0, 0.003723656640459501
624.0, 0.0038785477667078053
625.0, 0.004497948411111765
626.0, 0.0042590924495808265
627.0, 0.0040020360328582045
628.0, 0.003851728629993864
629.0, 0.0035303413175753954
630.0, 0.0037752405476006354
631.0, 0.003960466576583877
632.0, 0.0030055272539550124
633.0, 0.004006794554001575
634.0, 0.0043169409152509055
635.0, 0.003609956067254592
636.0, 0.005531067565734466
637.0, 0.0038642125895899985
638.0, 0.005498524046519977
639.0, 0.00773207918926676
640.0, 0.009030401785530941
641.0, 0.009869088062703738
642.0, 0.011015779042446307
643.0, 0.012316585714298313
644.0, 0.01407912681972479
645.0, 0.017435029487631603
646.0, 0.021071733650814273
647.0, 0.024309199866463623
648.0, 0.02725254108140591
649.0, 0.030544469774332228
650.0, 0.03658783762812184
651.0, 0.04077184516811181
652.0, 0.04778770207065927
653.0, 0.053953026262570494
654.0, 0.05936015677737041
655.0, 0.06690317920627734
656.0, 0.07473895046812934
657.0, 0.08548414599573569
658.0, 0.10094882864379334
659.0, 0.11244427781306666
660.0, 0.12458486445357654
661.0, 0.14005967200449812
662.0, 0.15227709367819095
663.0, 0.1609958175505728
664.0, 0.16096207733103415
665.0, 0.1578502626741674
666.0, 0.15047791676832384
667.0, 0.13810728627522212
668.0, 0.12286561739383066
669.0, 0.10738482817235033
670.0, 0.09336098611011821
671.0, 0.07875972359814076
672.0, 0.06771686173753526
673.0, 0.058546348345349025
674.0, 0.04868655120810251
675.0, 0.03980121417970086
676.0, 0.03391279759932764
677.0, 0.029804132033247336
678.0, 0.024077686443878817
679.0, 0.01957458618993045
680.0, 0.01701975901122109
681.0, 0.01495152207204956
682.0, 0.012646096169598466
683.0, 0.010549613721541312
684.0, 0.00769344259288892
685.0, 0.00694910271206889
686.0, 0.005592318624962481
687.0, 0.00420914107420442
688.0, 0.0045229194373508355
689.0, 0.0034348232076740286
690.0, 0.0023432034384273572
691.0, 0.0008307178153121215
692.0, 0.0014937423254586019
693.0, 0.001969840873736416
694.0, 0.001055056045017462
695.0, 0.0003344062562342553
696.0, 0.0008857157502132199
697.0, 0.00029491821003878093
698.0, 0.00027285474255795165
699.0, 0.0004725534505160394
700.0, 0.0006267975958048823
701.0, 0.0009092369699767401
702.0, 0.0007675374626280164
703.0, 0.000587550499004686
704.0, 0.00037942375132666645
705.0, 0.00030603763207903906
706.0, 0.0001760072164061403
707.0, 0.0008063177561543562
708.0, 0.001845215703352198
709.0, 0.0019277583386833254
710.0, 0.0006543854186016276
711.0, 0.00020557038586359745
712.0, 0.0017519229380719777
713.0, 0.0020825553564096638
714.0, 0.0013259980766614742
715.0, 0.0009337804541817488
716.0, 0.0011110366152978597
717.0, 0.0010573918319519726
718.0, 0.0011499898620460853
719.0, 6.303891256418653e-05
720.0, 0.0009901520475200964
721.0, 0.0016266939236834195
722.0, 0.0006933479440216525
723.0, 0.0001778568652892083
724.0, 9.101731836454397e-05
725.0, 0.00015451052431268204
726.0, 0.00040702742826350703
727.0, 0.0007742766096958726
728.0, 0.0015462836233392347
729.0, 0.001442207777946488
730.0, 0.0016342541315600488
731.0, 0.0007173833019747904
732.0, 0.0016366834089615817
733.0, 0.0009411285009956655
734.0, 0.0012109822983399376
735.0, 0.002007910779042527
736.0, 0.0026904401096494498
737.0, 0.004064389010620472
738.0, 0.005904494341805087
739.0, 0.006176646664154295
740.0, 0.007337429967237293
741.0, 0.00835098067588265
742.0, 0.00832390413892001
743.0, 0.010470842800841908
744.0, 0.013974864024687774
745.0, 0.013196049868203642
746.0, 0.018062025638668138
747.0, 0.020878571370950838
748.0, 0.02374905020598401
749.0, 0.028213493147362892
750.0, 0.033316615921357186
751.0, 0.03815187613325614
752.0, 0.04321430060454484
753.0, 0.04837113593203556
754.0, 0.05649596004191507
755.0, 0.06287365868980337
756.0, 0.07188841507708299
757.0, 0.08236227780149775
758.0, 0.09229271418593957
759.0, 0.10216024972737156
760.0, 0.11348227712707869
761.0, 0.12763447811398904
762.0, 0.1438580412657301
763.0, 0.15592706402477724
764.0, 0.1642392288989856
765.0, 0.17150693080476648
766.0, 0.17605446209321846
767.0, 0.17321537278274787
768.0, 0.1626799430774341
769.0, 0.14597495088015172
770.0, 0.13037937572158123
771.0, 0.1128363191724053
772.0, 0.09649408903098629
773.0, 0.08186495940697801
774.0, 0.06806290771098547
775.0, 0.058894420409697334
776.0, 0.050421292072862264
777.0, 0.04445077056576229
778.0, 0.0393752406078109
779.0, 0.03361600856958617
780.0, 0.02976451721416917
781.0, 0.027610546167807688
782.0, 0.023838613729978895
783.0, 0.02212067664077935
784.0, 0.01906777329088922
785.0, 0.018289379209687904
786.0, 0.017609083671544807
787.0, 0.016171279252286407
788.0, 0.014225291665206525
789.0, 0.01242861571230745
790.0, 0.011307219734128727
791.0, 0.009949058451759394
792.0, 0.011524669137291619
793.0, 0.009319664477422576
794.0, 0.008568814841449973
795.0, 0.007860788397728026
796.0, 0.006618702744154279
797.0, 0.006435190388157515
798.0, 0.005107165536487342
799.0, 0.0036685465882428914
800.0, 0.0032737449775752437
801.0, 0.0036060110730687105
802.0, 0.004233379041811663
803.0, 0.0036964950383818695
804.0, 0.0025571244064084044
805.0, 0.002479209865234396
806.0, 0.0025926947882944
807.0, 0.0017392978789200365
808.0, 0.001968810751956684
809.0, 0.0021603558950449684
810.0, 0.0014779046196666248
811.0, 0.0014165408602619058
812.0, 0.002234714993130341
813.0, 0.0022540636475479586
814.0, 0.0007778940862566618
815.0, 0.0009682667143305732
816.0, 0.0014391050241404219
817.0, 0.001017886923325161
818.0, 0.0008503087839207638
819.0, 0.0010518662997293093
820.0, 0.001031750451844537
821.0, 0.0007499166316436542
822.0, 7.098107182731056e-05
823.0, 0.00017822084701915825
824.0, 0.0009914721859982764
825.0, 0.001089425001982407
826.0, 0.0004786688538770996
827.0, 0.00044222485521205955
828.0, 0.0005766727981823091
829.0, 7.061257043677694e-05
830.0, 0.0003267667984579772
831.0, 7.307907697866546e-05
832.0, 0.00023809751479177344
833.0, 0.000599289642520926
834.0, 0.0003239072733519546
835.0, 0.00025033048078299436
836.0, 0.0009436687127798035
837.0, 0.000978467635975141
838.0, 0.0003976337338920331
839.0, 0.0012266712671472409
840.0, 0.0003035012216957667
841.0, 0.0005745427465056666
842.0, 0.0006579060017963604
843.0, 0.0006640021040893694
844.0, 0.00036286043746467224
845.0, 0.0007095250810428228
846.0, 0.0005361827480929655
847.0, 0.0005494744438638853
848.0, 0.00017981079331621738
849.0, 0.0014573344538047943
850.0, 0.0011319147732896742
851.0, 0.0014493808318354969
852.0, 0.0026339680047208105
853.0, 0.0029568446273264964
854.0, 0.001905652751695985
855.0, 0.001066457322212038
856.0, 0.0020511791474226047
857.0, 0.001817839606889169
858.0, 0.0009194062576507732
859.0, 0.0014008276487534656
860.0, 0.0016298692783909504
861.0, 0.0022401139561698488
862.0, 0.0029156125410551357
863.0, 0.0013093094606226683
864.0, 0.0009007060629896077
865.0, 0.00022338956042878934
866.0, 0.001068480049281586
867.0, 0.001904859035874229
868.0, 0.0020867234061062085
869.0, 0.0016266568179480892
870.0, 0.0010894425296720368
871.0, 0.0015297257663777458
872.0, 0.0019524002174274942
873.0, 0.0005039956102384051
874.0, 0.00015536092260597773
875.0, 0.0009431657643817087
876.0, 0.0008770945665482495
877.0, 0.0012217388609857167
878.0, 0.0017153214033612898
879.0, 0.0011900002917765806
880.0, 0.0008922237689788577
881.0, 0.0018849426040694597
882.0, 0.001142923617744218
883.0, 0.0012074390656000211
884.0, 0.0019336208221056887
885.0, 0.0009196185352864087
886.0, 0.00013340858986576277
887.0, 0.0003547158856537336
888.0, 0.00029517658695100047
889.0, 0.0003465800379223258
890.0, 0.0011637198984622587
891.0, 0.002186799570904019
892.0, 0.0010231347534189943
893.0, 0.0012816535130167168
894.0, 0.001237668317376803
895.0, 0.001598479964754122
896.0, 0.0010238553602098296
897.0, 0.0004311386332003078
898.0, 0.001988659641083524
899.0, 0.002440643387464758
900.0, 0.0003110602989577244
901.0, 0.0004954595821154502
902.0, 0.001735218751325109
903.0, 0.0008688199240976628
904.0, 0.0007318780135831887
905.0, 0.0009934942923142728
906.0, 0.0010058299018999598
907.0, 0.0013548494191916785
908.0, 0.0009749529491282793
909.0, 0.0004016410613321191
910.0, 0.0008952236923856709
911.0, 0.00022623483003156994
912.0, 0.00019733045204595255
913.0, 0.0006639495244734065
914.0, 0.001120055299575812
915.0, 0.00037297638687220036
916.0, 9.839127136429897e-05
917.0, 0.0005961710425078127
918.0, 0.0007473439385714648
919.0, 0.000625265954357199
920.0, 0.0002566855816442529
921.0, 0.00016783187166142965
922.0, 0.0004693300531880758
923.0, 0.0006184940487352871
924.0, 0.0010715963256257472
925.0, 0.0018597346128201137
926.0, 0.0015578543303219397
927.0, 0.0002182907169972301
928.0, 0.0002113987948539701
929.0, 7.024837441871238e-05
930.0, 0.0008359733593792967
931.0, 0.0018409994467897732
932.0, 0.0016636010892852934
933.0, 0.0017152078962185532
934.0, 0.0016005759287727646
935.0, 0.0015715010330074586
936.0, 0.001387213507621835
937.0, 0.0009955776762551542
938.0, 0.0014575366128268508
939.0, 0.000736792735673953
940.0, 0.0007360737639562233
941.0, 0.0005463070365510286
942.0, 0.0009987035282415675
943.0, 0.0005159820641188495
944.0, 0.001300964608655054
945.0, 0.002107452431948117
946.0, 0.001004815344307586
947.0, 0.0005032721546014522
948.0, 0.0004722695776052224
949.0, 0.0007248847905195507
950.0, 0.00015140093032392341
951.0, 0.00022213430889434394
952.0, 0.0003477510680388775
953.0, 0.0006312585881647166
954.0, 0.001265465617864046
955.0, 0.0010584757029177662
956.0, 0.0007912980629245973
957.0, 0.0015414103832560744
958.0, 0.0013725179227712032
959.0, 0.001187988761450039
960.0, 0.0008624458043858481
961.0, 0.0017946874098850615
962.0, 0.001485145949631055
963.0, 0.0009229550162468246
964.0, 0.0008684544990624672
965.0, 0.001148632183697509
966.0, 0.0017581445742504967
967.0, 0.0011974751699078592
968.0, 0.0007808465876812893
969.0, 0.000128194158822205
970.0, 0.0021126397245433627
971.0, 0.0023052855628716605
972.0, 0.002511356376729233
973.0, 0.002636490253177252
974.0, 0.002190222999830428
975.0, 0.0014419767405570729
976.0, 0.0012252169429089843
977.0, 0.0018801015101993059
978.0, 0.001636532764442049
979.0, 0.0009486903037845822
980.0, 0.0009928429654845624
981.0, 0.0016391566355974264
982.0, 0.002517762252457928
983.0, 0.00213446439734069
984.0, 0.001761702842924873
985.0, 0.0018333565087718874
986.0, 0.0019565517699859374
987.0, 0.0020271002205252994
988.0, 0.001033834094882117
989.0, 0.0016006231044912163
990.0, 0.0020530477435579827
991.0, 0.0005416850041391853
992.0, 0.0015037546168455032
993.0, 0.0013437896812344438
994.0, 0.002285528541409714
995.0, 0.0015642765620997828
996.0, 0.0006010561593463787
997.0, 0.0011982555414635193
998.0, 0.0006698401250142275
999.0, 0.0008062707405864393
1000.0, 0.0003376119942826508
1001.0, 0.0018574048662602359
1002.0, 0.0030202813334795323
1003.0, 0.0027610478990881117
1004.0, 0.0022548169167538306
1005.0, 0.0008594968324613227
1006.0, 0.001265276804875849
1007.0, 0.0017108388843594003
1008.0, 0.001070584126638332
1009.0, 0.0014450408109950527
1010.0, 0.001622621145173244
1011.0, 0.0015365982307205036
1012.0, 0.00170170171402442
1013.0, 0.0005198440482638682
1014.0, 0.0030319978445656013
1015.0, 0.002416117624168415
1016.0, 0.0017824053515520784
1017.0, 0.0022767373065439786
1018.0, 0.0016548100823618912
1019.0, 0.00038229635561411705
1020.0, 0.0006791568105776948
1021.0, 0.0012166740008872324
1022.0, 0.0011171324297401637
1023.0, 0.0012653151366580006
1024.0, 0.00036923391599806316
1025.0, 0.00013465180048620145
1026.0, 0.0009681465387652779
1027.0, 0.0014164636143640915
1028.0, 0.0016970850812122152
1029.0, 0.001987034167290659
1030.0, 0.0016194827847214686
1031.0, 0.0010398252852376335
1032.0, 0.0005716195735876243
1033.0, 0.0014149441824996068
1034.0, 0.001306171958498988
1035.0, 0.0026708964509733284
1036.0, 0.0016723754489280103
1037.0, 0.00044776521058723616
1038.0, 0.0002931876158255629
1039.0, 0.001273211547480484
1040.0, 0.0030229079978124455
1041.0, 0.0025195408495482475
1042.0, 0.0006402540862995945
1043.0, 0.0006847813726999899
1044.0, 0.0015540701650885694
1045.0, 0.0002962083862941475
1046.0, 0.0012219492160680532
1047.0, 0.0016015980461101303
1048.0, 0.0026056726192411734
1049.0, 0.003308098030750246
1050.0, 0.0020002024727449764
1051.0, 0.0024896087375254903
1052.0, 0.001301301291423466
1053.0, 0.0009293736509810313
1054.0, 0.0011555906700105683
1055.0, 0.0008178217119865372
1056.0, 0.0010303456170720948
1057.0, 0.001591778603860783
1058.0, 0.0013121009284980689
1059.0, 0.0008713242820288973
1060.0, 0.0022535617901392095
1061.0, 0.0017604288297173158
1062.0, 0.0013577483086379717
1063.0, 0.0009089399097038205
1064.0, 0.0009567086260221959
1065.0, 0.0004497591255661143
1066.0, 0.0015338061810168187
1067.0, 0.0021210148775262705
1068.0, 0.0016882841729293462
1069.0, 0.0011329535485048055
1070.0, 0.00020992728713379585
1071.0, 0.001577431577117143
1072.0, 0.00232780820886612
1073.0, 0.0021113730200771116
1074.0, 0.0025214533675939886
1075.0, 0.0005239702973646225
1076.0, 0.0003442566968523124
1077.0, 0.0015581590971344814
1078.0, 0.001929476631226339
1079.0, 0.0009739812181096594
1080.0, 0.0009532728320590937
1081.0, 0.001154691967904073
1082.0, 4.961079444168115e-05
1083.0, 0.000221518840416726
1084.0, 0.0014200949416721064
1085.0, 0.0020106961938218676
1086.0, 0.0010196824061432606
1087.0, 0.0018372357318544794
1088.0, 0.0009315245388157157
1089.0, 0.0019170481170761445
1090.0, 0.0013200326118307016
1091.0, 0.0015935661706868364
1092.0, 0.0020873402048730513
1093.0, 0.002497640978213388
1094.0, 0.001641811708612264
1095.0, 0.0007837601456612322
1096.0, 0.0011234817490335999
1097.0, 0.0005481675132103802
1098.0, 0.000531809986850655
1099.0, 0.0004493620420867973
1100.0, 0.00021907064961482263
1101.0, 0.0007308001136265297
1102.0, 0.000737190241626456
1103.0, 0.0001986417966499222
1104.0, 0.0006939110376933365
1105.0, 0.00045443622883834076
1106.0, 0.0008158780746221993
1107.0, 0.0009393699247502539
1108.0, 0.0012180235184139831
1109.0, 0.0016609648989076061
1110.0, 0.0013548274797011406
1111.0, 0.0010730838133352176
1112.0, 0.001300136548459649
1113.0, 0.0007428377159233244
1114.0, 0.0006877731462658067
1115.0, 0.0020530511239111697
1116.0, 0.0002870555917734099
1117.0, 0.0014391735783459974
1118.0, 0.0007907693366878565
1119.0, 0.0007253586906160541
1120.0, 0.0012369788960932828
1121.0, 0.0001540623549688154
1122.0, 0.00010132018813911132
1123.0, 0.0008847741682522938
1124.0, 0.000717885630635785
1125.0, 0.00037436797166444917
1126.0, 0.0006319901557056577
1127.0, 0.0005018605393955593
1128.0, 0.00046802608971499034
1129.0, 0.0008231672532428184
1130.0, 0.0010003409407264956
1131.0, 0.0011808525995665314
1132.0, 0.0011035187592275428
1133.0, 0.001755556433959709
1134.0, 0.0021664600899470544
1135.0, 0.0015285526943690543
1136.0, 0.000775673874385992
1137.0, 0.0005930322138529024
1138.0, 0.0009305005225021094
1139.0, 0.0011278929967726843
1140.0, 0.0010499129178895077
1141.0, 0.0010340277619285457
1142.0, 0.00093199392010115
1143.0, 0.0011016543374364857
1144.0, 0.0005452490422265967
1145.0, 0.0009345352349250787
1146.0, 0.00042769008733052816
1147.0, 0.00020331095892970133
1148.0, 0.0010379695615439376
1149.0, 0.0019445977187436884
1150.0, 0.00047172942839815527
1151.0, 0.0009200696217938743
1152.0, 0.0016902351489045567
1153.0, 0.0014801324258593147
1154.0, 0.001463045443813674
1155.0, 0.001110320370460686
1156.0, 0.000843993204877501
1157.0, 0.0013411036596209934
1158.0, 0.0013317997823390241
1159.0, 0.00038817266368320496
1160.0, 0.00039845529960264747
1161.0, 0.000822534221344875
1162.0, 0.0004435861683202215
1163.0, 0.0011821550126704646
1164.0, 0.0004413241648004332
1165.0, 0.0020416609215831525
1166.0, 0.002285782173145415
1167.0, 0.00045000544607829926
1168.0, 0.000240826565465828
1169.0, 0.0004118486375610883
1170.0, 0.0017488301130668146
1171.0, 0.0028136719278945943
1172.0, 0.0023213095982248895
1173.0, 0.001828654866052882
1174.0, 0.0009134911746296571
1175.0, 0.00017009386086604795
1176.0, 0.001779122404872964
1177.0, 0.0017400936749765164
1178.0, 0.001413183411767522
1179.0, 0.0010784242323448763
1180.0, 0.001777673212067018
1181.0, 0.0037461027063575786
1182.0, 0.0019583258954677324
1183.0, 0.0007844655999275934
1184.0, 0.001467263662248623
1185.0, 0.002325955685473985
1186.0, 0.0019984009610126453
1187.0, 0.0016894996295421863
1188.0, 0.0012919491030874304
1189.0, 0.0015244783087742598
1190.0, 0.002866564358167012
1191.0, 0.0033785509288347345
1192.0, 0.00178754150881408
1193.0, 0.0013840075086085212
1194.0, 0.002959458745003853
1195.0, 0.002261197109279387
1196.0, 0.003058817999415654
1197.0, 0.002432536174306189
1198.0, 0.0017181332490268353
1199.0, 0.0013508549557208957
1200.0, 0.0034415452343992507
1201.0, 0.002342895416602902
1202.0, 0.0020585802730975133
1203.0, 0.002424381852496868
1204.0, 0.002536323872136667
1205.0, 0.002810368376605032
1206.0, 0.003167695335804244
1207.0, 0.002904063908929714
1208.0, 0.0016536753815162802
1209.0, 0.0014537075890346271
1210.0, 0.0035429801561818928
1211.0, 0.003324070662894431
1212.0, 0.0026327213500203614
1213.0, 0.002797894296703438
1214.0, 0.0013766786857436852
1215.0, 0.0019258074195866851
1216.0, 0.002870351159695362
1217.0, 0.0033315191749788936
1218.0, 0.003179562371891621
1219.0, 0.002235718872659614
1220.0, 0.002070840756051422
1221.0, 0.002896791950085836
1222.0, 0.0017573762077465398
1223.0, 0.001833165988485373
1224.0, 0.0011515224882278723
1225.0, 0.0023754053614824205
1226.0, 0.0019169176725963597
1227.0, 0.0006385784281043601
1228.0, 0.0004639831606685765
1229.0, 0.0011453188461123308
1230.0, 0.002591842620397881
1231.0, 0.0021969964295856085
1232.0, 0.0005008775298503812
1233.0, 0.0012809224821391015
1234.0, 0.001366979204539807
1235.0, 0.00032716188521588575
1236.0, 0.0005734976547028547
1237.0, 0.0003331392005942086
1238.0, 6.519372719052713e-05
1239.0, 0.0002684339856916872
1240.0, 0.0002562636494161079
1241.0, 0.00024464791937271795
1242.0, 0.0006506572608194269
1243.0, 0.0007835460260335618
1244.0, 3.824454004234997e-05
1245.0, 0.0013933858863231312
1246.0, 0.0011722305212167807
1247.0, 0.0006370141772525228
1248.0, 0.0006009547433725553
1249.0, 0.0011948145706919063
1250.0, 0.0020097182509691953
1251.0, 0.001470370238149721
1252.0, 0.002168396852077691
1253.0, 0.0039199318758950455
1254.0, 0.004582958987291729
1255.0, 0.003593126290624862
1256.0, 0.0036538187479107026
1257.0, 0.003656050880773388
1258.0, 0.002531973198152969
1259.0, 0.0025925148620903806
1260.0, 0.0034563557788838215
1261.0, 0.0032066910291609096
1262.0, 0.002418684942140679
1263.0, 0.0032280851460942117
1264.0, 0.004756103695874754
1265.0, 0.002995532044799117
1266.0, 0.0044154368466134825
1267.0, 0.0016140836609513502
1268.0, 0.0013686993254151286
1269.0, 0.0007669518429936768
1270.0, 0.0011247007404166132
1271.0, 0.0005422848281963224
1272.0, 0.001014136829918338
1273.0, 0.0017148080664232499
1274.0, 0.0010759257213950328
1275.0, 0.0007913766124296759
1276.0, 0.0010446761924723226
1277.0, 0.0013635700243844738
1278.0, 0.0013674969281665666
1279.0, 0.0012065508006768393
1280.0, 0.0008501001805395566
1281.0, 0.0008306561569452952
1282.0, 0.0005028225890482163
1283.0, 0.00014686999771791823
1284.0, 0.0002315025637716133
1285.0, 0.0002132345484368948
1286, 0.0
1287, 0.0
1288, 0.0
1289, 0.0
1290, 0.0
1291, 0.0
1292, 0.0
1293, 0.0
1294, 0.0
1295, 0.0
1296, 0.0
1297, 0.0
1298, 0.0
1299, 0.0
1300, 0.0
1301, 0.0
1302, 0.0
1303, 0.0
1304, 0.0
1305, 0.0
1306, 0.0
1307, 0.0
1308, 0.0
1309, 0.0
1310, 0.0
1311, 0.0
1312, 0.0
1313, 0.0
1314, 0.0
1315, 0.0
1316, 0.0
1317, 0.0
1318, 0.0
1319, 0.0
1320, 0.0
1321, 0.0
1322, 0.0
1323, 0.0
1324, 0.0
1325, 0.0
1326, 0.0
1327, 0.0
1328, 0.0
1329, 0.0
1330, 0.0
1331, 0.0
1332, 0.0
1333, 0.0
1334, 0.0
1335, 0.0
1336, 0.0
1337, 0.0
1338, 0.0
1339, 0.0
1340, 0.0
1341, 0.0
1342, 0.0
1343, 0.0
1344, 0.0
1345, 0.0
1346, 0.0
1347, 0.0
1348, 0.0
1349, 0.0
1350, 0.0
1351, 0.0
1352, 0.0
1353, 0.0
1354, 0.0
1355, 0.0
1356, 0.0
1357, 0.0
1358, 0.0
1359, 0.0
1360, 0.0
1361, 0.0
1362, 0.0
1363, 0.0
1364, 0.0
1365, 0.0
1366, 0.0
1367, 0.0
1368, 0.0
1369, 0.0
1370, 0.0
1371, 0.0
1372, 0.0
1373, 0.0
1374, 0.0
1375, 0.0
1376, 0.0
1377, 0.0
1378, 0.0
1379, 0.0
1380, 0.0
1381, 0.0
1382, 0.0
1383, 0.0
1384, 0.0
1385, 0.0
1386, 0.0
1387, 0.0
1388, 0.0
1389, 0.0
1390, 0.0
1391, 0.0
1392, 0.0
1393, 0.0
1394, 0.0
1395, 0.0
1396, 0.0
1397, 0.0
1398, 0.0
1399, 0.0
1400, 0.0
1401, 0.0
1402, 0.0
1403, 0.0
1404, 0.0
1405, 0.0
1406, 0.0
1407, 0.0
1408, 0.0
1409, 0.0
1410, 0.0
1411, 0.0
1412, 0.0
1413, 0.0
1414, 0.0
1415, 0.0
1416, 0.0
1417, 0.0
1418, 0.0
1419, 0.0
1420, 0.0
1421, 0.0
1422, 0.0
1423, 0.0
1424, 0.0
1425, 0.0
1426, 0.0
1427, 0.0
1428, 0.0
1429, 0.0
1430, 0.0
1431, 0.0
1432, 0.0
1433, 0.0
1434, 0.0
1435, 0.0
1436, 0.0
1437, 0.0
1438, 0.0
1439, 0.0
1440, 0.0
1441, 0.0
1442, 0.0
1443, 0.0
1444, 0.0
1445, 0.0
1446, 0.0
1447, 0.0
1448, 0.0
1449, 0.0
1450, 0.0
1451, 0.0
1452, 0.0
1453, 0.0
1454, 0.0
1455, 0.0
1456, 0.0
1457, 0.0
1458, 0.0
1459, 0.0
1460, 0.0
1461, 0.0
1462, 0.0
1463, 0.0
1464, 0.0
1465, 0.0
1466, 0.0
1467, 0.0
1468, 0.0
1469, 0.0
1470, 0.0
1471, 0.0
1472, 0.0
1473, 0.0
1474, 0.0
1475, 0.0
1476, 0.0
1477, 0.0
1478, 0.0
1479, 0.0
1480, 0.0
1481, 0.0
1482, 0.0
1483, 0.0
1484, 0.0
1485, 0.0
1486, 0.0
1487, 0.0
1488, 0.0
1489, 0.0
1490, 0.0
1491, 0.0
1492, 0.0
1493, 0.0
1494, 0.0
1495, 0.0
1496, 0.0
1497, 0.0
1498, 0.0
1499, 0.0
1500, 0.0
1501, 0.0
1502, 0.0
1503, 0.0
1504, 0.0
1505, 0.0
1506, 0.0
1507, 0.0
1508, 0.0
1509, 0.0
1510, 0.0
1511, 0.0
1512, 0.0
1513, 0.0
1514, 0.0
1515, 0.0
1516, 0.0
1517, 0.0
1518, 0.0
1519, 0.0
1520, 0.0
1521, 0.0
1522, 0.0
1523, 0.0
1524, 0.0
1525, 0.0
1526, 0.0
1527, 0.0
1528, 0.0
1529, 0.0
1530, 0.0
1531, 0.0
1532, 0.0
1533, 0.0
1534, 0.0
1535, 0.0
1536, 0.0
1537, 0.0
1538, 0.0
1539, 0.0
1540, 0.0
1541, 0.0
1542, 0.0
1543, 0.0
1544, 0.0
1545, 0.0
1546, 0.0
1547, 0.0
1548, 0.0
1549, 0.0
1550, 0.0
1551, 0.0
1552, 0.0
1553, 0.0
1554, 0.0
1555, 0.0
1556, 0.0
1557, 0.0
1558, 0.0
1559, 0.0
1560, 0.0
1561, 0.0
1562, 0.0
1563, 0.0
1564, 0.0
1565, 0.0
1566, 0.0
1567, 0.0
1568, 0.0
1569, 0.0
1570, 0.0
1571, 0.0
1572, 0.0
1573, 0.0
1574, 0.0
1575, 0.0
1576, 0.0
1577, 0.0
1578, 0.0
1579, 0.0
1580, 0.0
1581, 0.0
1582, 0.0
1583, 0.0
1584, 0.0
1585, 0.0
1586, 0.0
1587, 0.0
1588, 0.0
1589, 0.0
1590, 0.0
1591, 0.0
1592, 0.0
1593, 0.0
1594, 0.0
1595, 0.0
1596, 0.0
1597, 0.0
1598, 0.0
1599, 0.0
