30, 0.0
31, 0.0
32, 0.0
33, 0.0
34, 0.0
35, 0.0
36, 0.0
37, 0.0
38, 0.0
39, 0.0
40, 0.0
41, 0.0
42, 0.0
43, 0.0
44, 0.0
45, 0.0
46, 0.0
47, 0.0
48, 0.0
49, 0.0
50, 0.0
51, 0.0
52, 0.0
53, 0.0
54, 0.0
55, 0.0
56, 0.0
57, 0.0
58, 0.0
59, 0.0
60, 0.0
61, 0.0
62, 0.0
63, 0.0
64, 0.0
65, 0.0
66, 0.0
67, 0.0
68, 0.0
69, 0.0
70, 0.0
71, 0.0
72, 0.0
73, 0.0
74, 0.0
75, 0.0
76, 0.0
77, 0.0
78, 0.0
79, 0.0
80, 0.0
81, 0.0
82, 0.0
83, 0.0
84, 0.0
85, 0.0
86, 0.0
87, 0.0
88, 0.0
89, 0.0
90, 0.0
91, 0.0
92, 0.0
93, 0.0
94, 0.0
95, 0.0
96, 0.0
97, 0.0
98, 0.0
99, 0.0
100, 0.0
101, 0.0
102, 0.0
103, 0.0
104, 0.0
105, 0.0
106, 0.0
107, 0.0
108, 0.0
109, 0.0
110, 0.0
111, 0.0
112, 0.0
113, 0.0
114, 0.0
115, 0.0
116, 0.0
117, 0.0
118, 0.0
119, 0.0
120, 0.0
121, 0.0
122, 0.0
123, 0.0
124, 0.0
125, 0.0
126, 0.0
127, 0.0
128, 0.0
129, 0.0
130, 0.0
131, 0.0
132, 0.0
133, 0.0
134, 0.0
135, 0.0
136, 0.0
137, 0.0
138, 0.0
139, 0.0
140, 0.0
141, 0.0
142, 0.0
143, 0.0
144, 0.0
145, 0.0
146, 0.0
147, 0.0
148, 0.0
149, 0.0
150, 0.0
151, 0.0
152, 0.0
153, 0.0
154, 0.0
155, 0.0
156, 0.0
157, 0.0
158, 0.0
159, 0.0
160, 0.0
161, 0.0
162, 0.0
163, 0.0
164, 0.0
165, 0.0
166, 0.0
167, 0.0
168, 0.0
169, 0.0
170, 0.0
171, 0.0
172, 0.0
173, 0.0
174, 0.0
175, 0.0
176, 0.0
177, 0.0
178, 0.0
179.0, 0.0007095152635482135
180.0, 0.00015175034092379945
181.0, 0.0010437444723986858
182.0, 0.0016318236329547064
183.0, 0.0022369943466443365
184.0, 0.0025168401215893647
185.0, 0.00025149364793326096
186.0, 0.0005197200041534664
187.0, 0.0004997881467972141
188.0, 0.00017344446897167554
189.0, 0.0005123918599058173
190.0, 0.0016053863488706872
191.0, 0.00093735852999897
192.0, 5.739370078215906e-05
193.0, 0.0005894421933051262
194.0, 0.0006554153291591384
195.0, 0.002314548634629329
196.0, 0.002849918511633758
197.0, 0.0023583210375194463
198.0, 0.004963324827190311
199.0, 0.003822396880808664
200.0, 0.0027052526876799455
201.0, 0.002836422106524799
202.0, 0.0031888001846873903
203.0, 0.0022591372629258066
204.0, 0.0015161549406524175
205.0, 0.0016467770113916375
206.0, 0.0023182540242955747
207.0, 0.002570911492188029
208.0, 0.0026894908965652223
209.0, 0.0038601392471721407
210.0, 0.005064552558648621
211.0, 0.0043908331895767625
212.0, 0.0032732341784156727
213.0, 0.003612925080536314
214.0, 0.004687395782507695
215.0, 0.005653535194752155
216.0, 0.006605452848105022
217.0, 0.004149246046750845
218.0, 0.0029700609155192577
219.0, 0.00409923162832681
220.0, 0.004114221919476624
221.0, 0.005177618955554232
222.0, 0.006185537256478809
223.0, 0.006001972923053807
224.0, 0.004218774103679259
225.0, 0.0031605382038015603
226.0, 0.0032896591748593
227.0, 0.003610586495767138
228.0, 0.003992336546452468
229.0, 0.004806564066545369
230.0, 0.0036876510905501526
231.0, 0.003520682758741456
232.0, 0.0035790872556833078
233.0, 0.002869776760982762
234.0, 0.0038966216535812432
235.0, 0.0026168602700248414
236.0, 0.0017989292594411041
237.0, 0.002147993555425826
238.0, 0.001465727389720195
239.0, 0.0012289208546033647
240.0, 0.0017149903392057488
241.0, 0.002002161157167194
242.0, 0.0015315007958626827
243.0, 0.0018518628357480035
244.0, 0.0011566570652574366
245.0, 0.0011296599948636343
246.0, 0.0015220562132258234
247.0, 0.0003348488564884276
248.0, 0.00023023235107379707
249.0, 0.0008863438701351149
250.0, 0.0018295774305703216
251.0, 0.0015023289847441845
252.0, 0.0019753415046723614
253.0, 0.0015883492950890608
254.0, 0.0008612301965963205
255.0, 0.0004963494030013876
256.0, 0.0009391576948274702
257.0, 0.0013917015703081624
258.0, 0.0011116790860554806
259.0, 0.0006582565968841477
260.0, 0.00048216378411518893
261.0, 0.00016083603426053977
262.0, 0.0009979685122150207
263.0, 0.0007834657367220185
264.0, 8.027933053403707e-05
265.0, 0.0003330978424277376
266.0, 0.0002596806106717391
267.0, 0.0002864093962572052
268.0, 0.0001255127606141713
269.0, 0.0006387056249187359
270.0, 0.0013150387697965997
271.0, 0.0009482896863842285
272.0, 0.0011407663402642444
273.0, 0.0016204835728451392
274.0, 0.0017737941743171586
275.0, 0.002613093460868799
276.0, 0.0017474216796253999
277.0, 0.0014230140963542753
278.0, 0.0019855860089012817
279.0, 0.0018030178968935571
280.0, 0.0011178828161906124
281.0, 0.0019623325653430512
282.0, 0.0025886063730158
283.0, 0.001855982436543542
284.0, 0.0015453246355981586
285.0, 0.002141494523678093
286.0, 0.0014348508043769766
287.0, 0.000730380714710164
288.0, 0.0018796542098610245
289.0, 0.002250364487509596
290.0, 0.0022000742536724184
291.0, 0.00277746793052175
292.0, 0.00406970618162655
293.0, 0.005207581116281175
294.0, 0.005290120238998145
295.0, 0.0057189117815067145
296.0, 0.006676433959653418
297.0, 0.007753267648204778
298.0, 0.008581727651455052
299.0, 0.010287617174956298
300.0, 0.010994648128786717
301.0, 0.010675539763483321
302.0, 0.010699362521143821
303.0, 0.012188655618369947
304.0, 0.01334370352898578
305.0, 0.01414671390941438
306.0, 0.014718074701410466
307.0, 0.01521510118856365
308.0, 0.016828763185545607
309.0, 0.01926392269788151
310.0, 0.021352342597819155
311.0, 0.022834388667091827
312.0, 0.02444754978936305
313.0, 0.023325500693168907
314.0, 0.021579890936515883
315.0, 0.018468710906232248
316.0, 0.013788346261164134
317.0, 0.011139352621690295
318.0, 0.010150118156804652
319.0, 0.00848631875410867
320.0, 0.006023098210576032
321.0, 0.004154452706682524
322.0, 0.0036992706404564133
323.0, 0.0035813756392249732
324.0, 0.003058207898116577
325.0, 0.001954332806047929
326.0, 0.0007268679762641807
327.0, 0.00031126526400987095
328.0, 0.00014252682622384848
329.0, 0.0008320704872762464
330.0, 0.0010058825487791626
331.0, 0.0016344642817569303
332.0, 0.0014760043870790038
333.0, 0.0003125641901085985
334.0, 0.00048226390886650807
335.0, 0.0004556085334865913
336.0, 0.00014142126026291406
337.0, 0.00025092807937709835
338.0, 0.0003520374482983901
339.0, 0.00025897176645989494
340.0, 0.0001746683585469159
341.0, 0.00033296454440041054
342.0, 0.0007627968014517175
343.0, 0.0007865120661710254
344.0, 0.00017412874525477067
345.0, 0.0009150302100837122
346.0, 0.000488906705859054
347.0, 0.0005329236721506813
348.0, 0.001462648900557104
349.0, 0.002887492181439091
350.0, 0.003985296002174467
351.0, 0.003922449850241972
352.0, 0.004130873759223091
353.0, 0.004824075470081657
354.0, 0.005516458247455651
355.0, 0.006131628615712578
356.0, 0.00855434965818694
357.0, 0.00884227699952979
358.0, 0.00824615907391906
359.0, 0.008717722371643881
360.0, 0.009151440868127162
361.0, 0.010965163017073908
362.0, 0.012608198791745642
363.0, 0.01325903955990723
364.0, 0.013320954883759046
365.0, 0.014688837990740774
366.0, 0.0161556718771128
367.0, 0.017058982862896675
368.0, 0.017434311202044243
369.0, 0.017998537713468
370.0, 0.020699743687960417
371.0, 0.021374093576522615
372.0, 0.022624280512422268
373.0, 0.024600629284179804
374.0, 0.025492816742050627
375.0, 0.02487637462371038
376.0, 0.028346005193233464
377.0, 0.031050884861975173
378.0, 0.03210519043418152
379.0, 0.03535008525363675
380.0, 0.03930094200182772
381.0, 0.04338705756219756
382.0, 0.047365772760125976
383.0, 0.05242815183415651
384.0, 0.05991679434826785
385.0, 0.0679534892615421
386.0, 0.07710489164068474
387.0, 0.08981874096029588
388.0, 0.10689841038294198
389.0, 0.1275909222497772
390.0, 0.1526436097838084
391.0, 0.18347025308472784
392.0, 0.21639898399780375
393.0, 0.24804229028657127
394.0, 0.2781802072774018
395.0, 0.3113754847282986
396.0, 0.34651355765701763
397.0, 0.38516926670995943
398.0, 0.42994758680591316
399.0, 0.48332111224305474
400.0, 0.5516523789032136
401.0, 0.6288052281196446
402.0, 0.7152252667514633
403.0, 0.8054004502329306
404.0, 0.8862696602691001
405.0, 0.9592192812082536
406.0, 0.9967344424274179
407.0, 0.9735830631563893
408.0, 0.8826381113474598
409.0, 0.7409165010135126
410.0, 0.5825801911696179
411.0, 0.44445809216030074
412.0, 0.3369880110383332
413.0, 0.2578691029434836
414.0, 0.20073410216171755
415.0, 0.15811172457413905
416.0, 0.1285542226522424
417.0, 0.10572342403237532
418.0, 0.08648324496748538
419.0, 0.07245249934354552
420.0, 0.06183064867288656
421.0, 0.05227338692796284
422.0, 0.04434213133975906
423.0, 0.03811156129274624
424.0, 0.03266926640043788
425.0, 0.029228773162084644
426.0, 0.02380297297558055
427.0, 0.02034681073333784
428.0, 0.019225071139181503
429.0, 0.017188417367863282
430.0, 0.014505079616179114
431.0, 0.012068568583176256
432.0, 0.009917060626033203
433.0, 0.00855147393313386
434.0, 0.00807642545649453
435.0, 0.006093351729280214
436.0, 0.004672138657141721
437.0, 0.0038992020989202236
438.0, 0.003339047403609805
439.0, 0.002855667790215977
440.0, 0.0023458233421197808
441.0, 0.0018223073530137374
442.0, 0.001995396286630493
443.0, 0.0018755036319125329
444.0, 0.0009719016558360867
445.0, 0.0016623558232373287
446.0, 0.0017697929549250245
447.0, 0.0019040801949194764
448.0, 0.0018966998912643602
449.0, 0.0017128301752628529
450.0, 0.0025014777401724743
451.0, 0.0015733223645816353
452.0, 0.0005445063845907077
453.0, 8.673659722796529e-05
454.0, 4.3423681797414825e-05
455.0, 0.00045116798082243183
456.0, 0.0001894581586130515
457.0, 0.0005084373150180517
458.0, 0.0008304778725718416
459.0, 0.0013369901361115005
460.0, 0.0010275548985743692
461.0, 0.0007120617306993058
462.0, 0.0005623032302070514
463.0, 0.00028574766291066103
464.0, 0.00021585341351993667
465.0, 0.0005163664873223481
466.0, 0.0002049534788924531
467.0, 0.0004443335449256334
468.0, 2.3470964881539322e-05
469.0, 0.0005665771232409304
470.0, 0.0006192377091472277
471.0, 0.00014878986744730607
472.0, 0.000567125479594492
473.0, 0.0008021708982172488
474.0, 0.0013530231942465098
475.0, 0.0022470776637956743
476.0, 0.001537567168452371
477.0, 0.0006495278284958683
478.0, 0.0010466025281618844
479.0, 0.001976981618134921
480.0, 0.002400479977245786
481.0, 0.0021832615025790952
482.0, 0.0015499819665815416
483.0, 0.0017608673114665454
484.0, 0.002103648069374387
485.0, 0.002540760161425016
486.0, 0.0034750873883967024
487.0, 0.002160956617782638
488.0, 0.0039628440810949555
489.0, 0.00499230858082434
490.0, 0.0037405370094671254
491.0, 0.00244165098703542
492.0, 0.003085761506933658
493.0, 0.0024334288406333633
494.0, 0.001517848294717743
495.0, 0.0005847062633748128
496.0, 0.0003041907070002316
497.0, 0.00019916877992312676
498.0, 0.0003252651774882872
499.0, 0.00023245465440845046
500.0, 0.00016968121554449995
501.0, 0.00020813121977246988
502.0, 0.0006193514580822364
503.0, 0.0003029728832684579
504.0, 0.0004584746590015674
505.0, 0.0006963972148096294
506.0, 0.0006376900143932796
507.0, 0.00023369201230074893
508.0, 0.0005741309150026713
509.0, 3.762576093201725e-05
510.0, 0.0006762397620797733
511.0, 0.0013107195633667694
512.0, 0.000804991527479268
513.0, 0.0006310980240514145
514.0, 0.0007346973055294477
515.0, 0.0009556459075815736
516.0, 0.0004785486627238231
517.0, 0.0006907972458345037
518.0, 0.0025489876182517236
519.0, 0.0009691514006096534
520.0, 0.0006967631301850409
521.0, 0.0016127982303267
522.0, 0.0019430392104847882
523.0, 0.0012881459925127199
524.0, 0.0024394888598560528
525.0, 0.0026609259287651197
526.0, 0.003407092264354147
527.0, 0.0038362349915541947
528.0, 0.003864970099561366
529.0, 0.004450681722382702
530.0, 0.0036750408709077323
531.0, 0.0037852152910037274
532.0, 0.0038486581750012813
533.0, 0.003688864689720597
534.0, 0.0037219986005566454
535.0, 0.003421710716663657
536.0, 0.003938871657016815
537.0, 0.0038443433625192625
538.0, 0.003135914563491926
539.0, 0.002955825506950734
540.0, 0.004250363119037921
541.0, 0.003948899792539206
542.0, 0.003529119867778534
543.0, 0.003970888700529228
544.0, 0.004760583864273767
545.0, 0.005299148375646353
546.0, 0.0058577459147023305
547.0, 0.004112597304373045
548.0, 0.004717624928352901
549.0, 0.005334961633152951
550.0, 0.0050114364239146995
551.0, 0.006063983242752154
552.0, 0.005593953707232884
553.0, 0.005192490081945971
554.0, 0.004925707408073
555.0, 0.004622900868613424
556.0, 0.004262829624911808
557.0, 0.003979415839777646
558.0, 0.003981191005294771
559.0, 0.0036137587755532153
560.0, 0.0035169943455116435
561.0, 0.003611009390906752
562.0, 0.003170563629613213
563.0, 0.004131459805569863
564.0, 0.00358880552134439
565.0, 0.0024738018482530037
566.0, 0.00168616860473073
567.0, 0.0015527853977222144
568.0, 0.0019115816213687044
569.0, 0.0017961663320860662
570.0, 0.0013676720486388955
571.0, 0.0013470310965308136
572.0, 0.0016012447460584797
573.0, 0.0014002753853184985
574.0, 0.0004098175312069057
575.0, 0.0015329890774448734
576.0, 0.0013763240991891469
577.0, 0.0009633254776988175
578.0, 0.0009471770756802026
579.0, 0.0004840222237896122
580.0, 0.0017212037522697041
581.0, 0.002309232914943901
582.0, 0.0015348717550451687
583.0, 0.0008396464266608658
584.0, 0.0011766294560895186
585.0, 0.0013867357551198836
586.0, 0.0008912807631301358
587.0, 0.0001833031095509735
588.0, 0.0007761205284783295
589.0, 0.001999200000085843
590.0, 0.002578409322405542
591.0, 0.003431815487396357
592.0, 0.004482048782702985
593.0, 0.004189851505179514
594.0, 0.003337004920959005
595.0, 0.002986958077064016
596.0, 0.0034085069557299383
597.0, 0.004540205207208803
598.0, 0.004513326816977182
599.0, 0.0043972294456289165
600.0, 0.004437463740050704
601.0, 0.004311343226045895
602.0, 0.0038514268921412474
603.0, 0.002110811001105889
604.0, 0.002388890750447834
605.0, 0.002112807429974455
606.0, 0.0018873400033116432
607.0, 0.002811766442596671
608.0, 0.003160312673533343
609.0, 0.0033144772497326405
610.0, 0.0032331728151605067
611.0, 0.00356120813965635
612.0, 0.0033532532769557743
613.0, 0.002130551996617015
614.0, 0.0018866481147280477
615.0, 0.002028889043146762
616.0, 0.0011355014534261965
617.0, 0.0008064272854012731
618.0, 0.0014866178881460445
619.0, 0.0020036240930972377
620.0, 0.0014811002529007524
621.0, 0.0005252121008601135
622.0, 0.000776925270631592
623.0, 0.0012189310532913873
624.0, 0.0007562197346048649
625.0, 0.0001633007299880863
626.0, 9.669308735051804e-05
627.0, 0.0006741305164368921
628.0, 0.0003137663956880382
629.0, 0.00046542655596967374
630.0, 0.0002744796439861539
631.0, 0.00014969091127958934
632.0, 0.00045484697405644115
633.0, 0.00030946774343294694
634.0, 0.0006228485534981999
635.0, 0.0013087646155444017
636.0, 0.0011305798768277736
637.0, 0.0011212310284492277
638.0, 0.0018178532060983234
639.0, 0.0024942945061346457
640.0, 0.0036019283968031137
641.0, 0.004158808664311281
642.0, 0.0037961235852635817
643.0, 0.0035424268044219834
644.0, 0.004985343316432672
645.0, 0.0060256019995793865
646.0, 0.0068934372142373445
647.0, 0.008589486244170982
648.0, 0.01070198709676404
649.0, 0.011769683351855336
650.0, 0.013961148658082276
651.0, 0.016019689614159227
652.0, 0.01870321653149562
653.0, 0.022307881884899208
654.0, 0.025892899613766795
655.0, 0.028871117791945143
656.0, 0.033364666166917314
657.0, 0.03774107741172878
658.0, 0.04148032806445168
659.0, 0.04476107312859546
660.0, 0.04789564455492889
661.0, 0.05106939670285209
662.0, 0.05407561371765021
663.0, 0.056824517618356066
664.0, 0.05761518062485341
665.0, 0.05749385529985957
666.0, 0.05527655861714679
667.0, 0.04925291499223462
668.0, 0.045456146880927514
669.0, 0.04165203575803952
670.0, 0.03685058749036565
671.0, 0.03158942602304856
672.0, 0.02729615302929008
673.0, 0.024703170064964856
674.0, 0.021640451292753948
675.0, 0.017250740008475565
676.0, 0.014933902246677887
677.0, 0.012885668231551614
678.0, 0.010443857833342122
679.0, 0.008845283101304153
680.0, 0.007100943351847694
681.0, 0.005859126264433413
682.0, 0.00549338941054571
683.0, 0.004904826178494551
684.0, 0.003501203587003203
685.0, 0.001915266865150015
686.0, 0.0013699181069093997
687.0, 0.0009250406737038139
688.0, 0.0009969645028192655
689.0, 0.0007974577253802828
690.0, 0.0006753717460087075
691.0, 0.0004253638591139217
692.0, 0.0011558529202749825
693.0, 0.0008686949501569607
694.0, 0.000816099902306834
695.0, 0.0007688345167051098
696.0, 0.0005845175962121172
697.0, 0.00022660708183686777
698.0, 0.0005545275022434125
699.0, 0.0007102615236589871
700.0, 0.0006378579611639925
701.0, 0.0019995274996721267
702.0, 0.001833134844764422
703.0, 0.0012323821680960746
704.0, 0.001171066504791401
705.0, 0.0001694507289815896
706.0, 0.0006001132303327468
707.0, 0.0019000262232460915
708.0, 0.0020942215458914825
709.0, 0.0017032374283129088
710.0, 0.0020473567954307124
711.0, 0.002684322950589033
712.0, 0.002395185660396082
713.0, 0.002257548204228767
714.0, 0.0019902000448233335
715.0, 0.0017884964777469543
716.0, 0.0016824936429851586
717.0, 0.00124032649670634
718.0, 0.0013660126883714972
719.0, 0.0003428735918692745
720.0, 0.0004951603774719481
721.0, 0.0005053706174975302
722.0, 6.987851088616958e-05
723.0, 0.0006565420504048017
724.0, 0.00024009163719867078
725.0, 0.0004963841153415941
726.0, 0.0007967877159160679
727.0, 0.0009687057897570464
728.0, 0.0010471043355561815
729.0, 0.0010557594016982713
730.0, 0.0009273309819038064
731.0, 0.0006742610440447033
732.0, 0.0011385644504666656
733.0, 0.0008586530879398256
734.0, 0.0011903737912943605
735.0, 0.0022628353327724653
736.0, 0.0023393024094673287
737.0, 0.0019253079848468553
738.0, 0.003312520636802424
739.0, 0.003501522559994066
740.0, 0.0046521260114035425
741.0, 0.00644520704650699
742.0, 0.00687387449565335
743.0, 0.006595047285931978
744.0, 0.008700669964671816
745.0, 0.010215420286293147
746.0, 0.012553388332602096
747.0, 0.014622074617396971
748.0, 0.016438268724461684
749.0, 0.019206276721343816
750.0, 0.020581395469986073
751.0, 0.024333911692380503
752.0, 0.027865084254362387
753.0, 0.031900974189333624
754.0, 0.03554531950882767
755.0, 0.03921947507349497
756.0, 0.045446000297516984
757.0, 0.05010401441414785
758.0, 0.05545656112653227
759.0, 0.06034852165967397
760.0, 0.06646758223506563
761.0, 0.07297157292525623
762.0, 0.07775383090076238
763.0, 0.08225683117861148
764.0, 0.08651615712211634
765.0, 0.09022424737687652
766.0, 0.09142860290415034
767.0, 0.0896526718723867
768.0, 0.08537612008598783
769.0, 0.07903708769006798
770.0, 0.07095418210764705
771.0, 0.06302807835729071
772.0, 0.05610383578180173
773.0, 0.04801316624317028
774.0, 0.040959576812517766
775.0, 0.03650657310197864
776.0, 0.03183258666336373
777.0, 0.02673111297896321
778.0, 0.023913681095949872
779.0, 0.0221464572874013
780.0, 0.02016206394204
781.0, 0.017656010449582343
782.0, 0.015377190850803782
783.0, 0.01446131112130076
784.0, 0.013611354502780363
785.0, 0.012902157930541747
786.0, 0.011359639229225704
787.0, 0.00922740436467874
788.0, 0.008449048376826102
789.0, 0.009253600776340649
790.0, 0.008514658594547985
791.0, 0.006634436377236117
792.0, 0.0074194461578225976
793.0, 0.007439542211719567
794.0, 0.007296567961217187
795.0, 0.007413586909858982
796.0, 0.006318392520828138
797.0, 0.005157739583533232
798.0, 0.004956905209906369
799.0, 0.0053800458063008256
800.0, 0.005579946664125368
801.0, 0.0059291530929926105
802.0, 0.006019310231410403
803.0, 0.005131041315736023
804.0, 0.005233153321131184
805.0, 0.005703193634718986
806.0, 0.006525504016131362
807.0, 0.0071021648071555275
808.0, 0.007848373628541135
809.0, 0.00869117418010336
810.0, 0.009041796431501874
811.0, 0.01014654100787152
812.0, 0.01037154258778779
813.0, 0.008565587783862284
814.0, 0.00868296344110785
815.0, 0.008231378582954064
816.0, 0.005695071773195169
817.0, 0.004581011982154328
818.0, 0.004774399270868197
819.0, 0.0029515316409257615
820.0, 0.003270145597845074
821.0, 0.0031921334206224273
822.0, 0.0030093362274011028
823.0, 0.003657860701810714
824.0, 0.0033755213471212677
825.0, 0.0012266667413929732
826.0, 0.0010619909857289632
827.0, 0.0008808238010736699
828.0, 0.0013028561167484568
829.0, 0.0017189833503231295
830.0, 0.0013333723646320001
831.0, 0.0006428799247919207
832.0, 0.0006985682534275955
833.0, 0.00012550884117407208
834.0, 0.0010288646352925586
835.0, 0.0019943432980643007
836.0, 0.0016128830926295794
837.0, 0.0008979546388361789
838.0, 0.0010693100528176415
839.0, 0.0005417716651963811
840.0, 0.0008109232044111636
841.0, 0.0001730419177843539
842.0, 0.00021549102696817455
843.0, 0.0011130247878747622
844.0, 0.0016724460188799921
845.0, 0.0013939857844910098
846.0, 0.0012292881067538439
847.0, 0.0012300915800872712
848.0, 0.000582149262278397
849.0, 0.0009699781452676933
850.0, 0.0006914022578286935
851.0, 0.0006304678996062458
852.0, 0.0009387210506092649
853.0, 0.0008795796861740202
854.0, 0.0005925216146203865
855.0, 0.0006118237444633489
856.0, 0.0010746889597124277
857.0, 0.0013933505633393801
858.0, 0.0006536734748851189
859.0, 0.0007677499353799537
860.0, 0.0009598193677605222
861.0, 8.768063690486568e-05
862.0, 0.0003547422101259564
863.0, 0.0017368020342976127
864.0, 0.002014248083486918
865.0, 0.0013550693099575774
866.0, 0.0006937568737024048
867.0, 0.000237133842215037
868.0, 0.00032018136688282306
869.0, 0.0006340440555455458
870.0, 0.0007227720608044604
871.0, 0.0002449659774290575
872.0, 0.0015133741169586444
873.0, 0.002296843563891709
874.0, 0.0013532404342580455
875.0, 0.0014010143242169115
876.0, 0.0020373542970822177
877.0, 0.001314707168382075
878.0, 0.0015511416934800596
879.0, 0.0011989801507124214
880.0, 0.00046540014054108467
881.0, 0.0006311696600194463
882.0, 0.00086728418778203
883.0, 0.00028509515314598165
884.0, 0.0021981358192374235
885.0, 0.0019640580182818616
886.0, 0.0015209906551022633
887.0, 0.0012064998241368748
888.0, 0.0015888349077721054
889.0, 0.002004896833052567
890.0, 0.0010046159309129092
891.0, 0.0015885043936799091
892.0, 0.0021801812140713663
893.0, 0.0016149874015428457
894.0, 0.000670304874329903
895.0, 0.001515982436174253
896.0, 0.0018815783091186344
897.0, 0.0005122772839842187
898.0, 0.0009866308136043877
899.0, 0.0014611282492366057
900.0, 0.0010920922925857415
901.0, 0.0008373704015952622
902.0, 0.0014834602485426
903.0, 0.001962972674324308
904.0, 0.0021663859670445753
905.0, 0.0025596682781668947
906.0, 0.0019199951712125924
907.0, 0.0015727889012089376
908.0, 0.0023246742525861804
909.0, 0.0028712597531293745
910.0, 0.002503827081953916
911.0, 0.00252871948131771
912.0, 0.002749464028769998
913.0, 0.001993017580793409
914.0, 0.0022203133773356187
915.0, 0.0017663839369799967
916.0, 0.0014301885659451135
917.0, 0.0024432932021476576
918.0, 0.0027314508319877936
919.0, 0.0025042839588692626
920.0, 0.002393660774029645
921.0, 0.0014639492906408907
922.0, 0.0011865501120213338
923.0, 0.002084395276666376
924.0, 0.002622911108936783
925.0, 0.0019233706066384836
926.0, 0.0019075278567220178
927.0, 0.0014428464128251374
928.0, 0.0004582730157012839
929.0, 0.0015317934672040795
930.0, 0.0005146637775283959
931.0, 0.00033692923118508076
932.0, 0.0004920898387020832
933.0, 0.0011642092540814337
934.0, 0.0010773755101325388
935.0, 0.0011739880707778863
936.0, 0.0012159577693313368
937.0, 0.0003179235370173345
938.0, 0.00019442333640720018
939.0, 0.0004042262954598704
940.0, 0.0006661475445821511
941.0, 0.0002894314501615729
942.0, 0.0003307327576095912
943.0, 0.0006038590953701725
944.0, 0.0008447687478482051
945.0, 0.00037589855604390786
946.0, 0.0002572153351032376
947.0, 0.0007704184077162543
948.0, 0.0002897468773342897
949.0, 0.0006547240087307422
950.0, 0.0012866069322162758
951.0, 0.0018381171413733178
952.0, 0.001994551408178623
953.0, 0.0015720486927397004
954.0, 0.0023559539253938293
955.0, 0.002578556721011395
956.0, 0.0015312223095208615
957.0, 0.0010018020985927594
958.0, 0.0013297536006237017
959.0, 0.002413690223192914
960.0, 0.0033327204390026554
961.0, 0.0026354421239392655
962.0, 0.001292435207208575
963.0, 0.0016868972571633448
964.0, 0.0026199128984410527
965.0, 0.0035235708688072347
966.0, 0.004337762485756648
967.0, 0.0038339330200276123
968.0, 0.0031419151877366486
969.0, 0.003522703687780844
970.0, 0.0034595779064714237
971.0, 0.002734297147840936
972.0, 0.002003915574440168
973.0, 0.0023656671855750684
974.0, 0.0021674205027968946
975.0, 0.0011899870756017531
976.0, 0.001899847715041065
977.0, 0.003126610138461079
978.0, 0.0024962332120986555
979.0, 0.0030902168415892326
980.0, 0.0031539636067971907
981.0, 0.0031603278367020164
982.0, 0.003920660202412219
983.0, 0.002919994749776399
984.0, 0.002642043721187006
985.0, 0.002944640963520235
986.0, 0.0023880153722972324
987.0, 0.003134341431153587
988.0, 0.002826987809926205
989.0, 0.0027167844448267816
990.0, 0.00299153980495286
991.0, 0.003251797333468977
992.0, 0.004545118697118274
993.0, 0.004340583907362357
994.0, 0.002793129799667774
995.0, 0.002893226485143378
996.0, 0.0032156608808547654
997.0, 0.0015309948477838181
998.0, 0.0024761390340633186
999.0, 0.001990957897762921
1000.0, 0.0013418148161329474
1001.0, 0.0013952401455460657
1002.0, 0.00045757886907433435
1003.0, 0.0006610144014691715
1004.0, 0.0005875460759681464
1005.0, 0.0019538035575631715
1006.0, 9.948419299967857e-05
1007.0, 0.001679162134663786
1008.0, 0.0018224046882135711
1009.0, 0.0005124518366574608
1010.0, 0.0008557966136485956
1011.0, 0.0015814528249563085
1012.0, 0.0013119814673138513
1013.0, 0.0015354321146553015
1014.0, 0.00022929383787630706
1015.0, 4.366374168500126e-05
1016.0, 0.0003975004483549919
1017.0, 0.0004986588799552447
1018.0, 0.0002606762417099993
1019.0, 0.0006179605491092208
1020.0, 0.0016841699863501063
1021.0, 0.0021887917643248402
1022.0, 0.0009541502462944182
1023.0, 0.0021481876775256794
1024.0, 0.0021518102459891528
1025.0, 0.0015713787413645039
1026.0, 0.0004932748234423957
1027.0, 0.0008337575394962289
1028.0, 0.0015815699115892257
1029.0, 0.001214039281147307
1030.0, 0.0006166359075449926
1031.0, 0.0009445933162028538
1032.0, 0.00107804619607153
1033.0, 0.00026409706106178456
1034.0, 0.0012825647534129797
1035.0, 0.001155638183594938
1036.0, 0.0013986618696528125
1037.0, 0.0014330038255957489
1038.0, 0.0010482481784466538
1039.0, 0.0003987266856526514
1040.0, 0.00027454017120311655
1041.0, 0.0005380552942336414
1042.0, 0.00033812408680212856
1043.0, 0.0012490035335804316
1044.0, 0.0005170243012916002
1045.0, 0.001042220734425752
1046.0, 0.0013745736714677605
1047.0, 0.000761303566647884
1048.0, 0.0005790804034199047
1049.0, 0.0013179247949785444
1050.0, 0.001622754770489542
1051.0, 0.0009959787597993417
1052.0, 0.0023277347824194865
1053.0, 0.0020287765577513507
1054.0, 0.001809891794818991
1055.0, 0.0018575872353379518
1056.0, 0.0024593071324305613
1057.0, 0.002799250064643678
1058.0, 0.002677778303704981
1059.0, 0.0031652747982078345
1060.0, 0.00262227466633216
1061.0, 0.0022943757607977286
1062.0, 0.0027995343078030684
1063.0, 0.0037173121263482647
1064.0, 0.00262462204461727
1065.0, 0.002180206000299222
1066.0, 0.002445674821122014
1067.0, 0.0017471233223208817
1068.0, 0.0009142090768615114
1069.0, 0.0011673464376484532
1070.0, 0.002527898523933093
1071.0, 0.0032449421807584154
1072.0, 0.0006652279224981952
1073.0, 0.0004016261087351556
1074.0, 0.00039382929348630535
1075.0, 0.0002767989352782606
1076.0, 0.000646512936013811
1077.0, 0.0003806618442056404
1078.0, 0.00013286038535229245
1079.0, 0.0004347926515533231
1080.0, 0.0022621039993391684
1081.0, 0.0011691936106077272
1082.0, 0.0008921115560552022
1083.0, 0.001227654538650242
1084.0, 0.0013349451859320516
1085.0, 0.0009425734081893735
1086.0, 0.0007951334938687685
1087.0, 0.0005481841360209454
1088.0, 0.00015526378978037076
1089.0, 0.001445191989152869
1090.0, 0.0006727095100747228
1091.0, 0.0006933128577472549
1092.0, 0.0001794365434841366
1093.0, 0.0012203336647558932
1094.0, 0.00172763330809061
1095.0, 0.002263061976774398
1096.0, 0.002323475719007509
1097.0, 0.001777579914066752
1098.0, 0.0019147312760826824
1099.0, 0.0005298741724379644
1100.0, 0.0016966503107626063
1101.0, 0.003130304844342678
1102.0, 0.0020867635228666555
1103.0, 0.0025459757950813022
1104.0, 0.0030176654490730644
1105.0, 0.0023877529793549625
1106.0, 0.0017460277813522137
1107.0, 0.001276551886480669
1108.0, 0.0009634819478976599
1109.0, 0.0016432005926843073
1110.0, 0.0024626907071212635
1111.0, 0.002868122043400231
1112.0, 0.0035973550130753273
1113.0, 0.0026063288160630546
1114.0, 0.002000958168767332
1115.0, 0.002970317651318893
1116.0, 0.0033220294194529544
1117.0, 0.0019963463420570584
1118.0, 0.0009150201291508774
1119.0, 0.0016213111874336344
1120.0, 0.002276117880082089
1121.0, 0.003442756644587826
1122.0, 0.003323488639260914
1123.0, 0.0028401184927380834
1124.0, 0.0012523508727541675
1125.0, 0.0010673473016864963
1126.0, 0.0017035392197987866
1127.0, 0.0026428110171959943
1128.0, 0.002757509243043141
1129.0, 0.0008561525211354757
1130.0, 0.0008591995633759114
1131.0, 0.001746072643424278
1132.0, 0.0005004571270276211
1133.0, 0.000805226510938423
1134.0, 0.00035042034727700885
1135.0, 0.0011299569653094213
1136.0, 0.0006500186038617188
1137.0, 0.0008912432409796482
1138.0, 0.0032297913904617715
1139.0, 0.0033679510130622324
1140.0, 0.001795304049198134
1141.0, 0.0007678003052533431
1142.0, 0.0008844052940560959
1143.0, 0.0018926754989001431
1144.0, 0.0012249953540835485
1145.0, 0.0007335672239413398
1146.0, 0.0017199549081700412
1147.0, 0.0024870517343078633
1148.0, 0.0026075051790952833
1149.0, 0.0028059594410197422
1150.0, 0.0025583237362549025
1151.0, 0.0017345399425877546
1152.0, 0.001659094741531626
1153.0, 0.0023159102196841606
1154.0, 0.0007985080264404493
1155.0, 0.0016208384993895652
1156.0, 0.0016670513390475562
1157.0, 0.0011954552422465752
1158.0, 0.0016246306104278608
1159.0, 0.0015259130949013713
1160.0, 0.0012117232208773811
1161.0, 0.0014755094270035374
1162.0, 0.0015779237410179323
1163.0, 0.002944514892613458
1164.0, 0.001520628119869798
1165.0, 0.0018844278486607475
1166.0, 0.002151171853018402
1167.0, 0.0008373373664854645
1168.0, 8.695482843233167e-05
1169.0, 0.00047037937254257203
1170.0, 0.000650900457014887
1171.0, 0.0010560779168038025
1172.0, 0.0022157864491817165
1173.0, 0.002036213646654415
1174.0, 0.0004514108948899912
1175.0, 0.001961195263754647
1176.0, 0.0021714634296198174
1177.0, 0.003981096777900863
1178.0, 0.0016486426859482466
1179.0, 0.0017574473803131736
1180.0, 0.002602164938306746
1181.0, 0.0025128416445286397
1182.0, 0.0025651269916055017
1183.0, 0.00317748066530263
1184.0, 0.004033123680432735
1185.0, 0.004713399681721115
1186.0, 0.004528008816946459
1187.0, 0.003838130710557862
1188.0, 0.0034401769160069423
1189.0, 0.00327347399278563
1190.0, 0.0033997503349428378
1191.0, 0.0037300613682646156
1192.0, 0.004583465979211079
1193.0, 0.004077005819590377
1194.0, 0.0030402910567892847
1195.0, 0.002129457056946837
1196.0, 0.0016625380543680269
1197.0, 0.002346232434194905
1198.0, 0.002044785408887747
1199.0, 0.003038010802867768
1200.0, 0.0035164064971207327
1201.0, 0.003494991786908463
1202.0, 0.003974347237719829
1203.0, 0.0028918975663370463
1204.0, 0.0020007664792086564
1205.0, 0.002650961707880466
1206.0, 0.0029000803204349275
1207.0, 0.0029452675972367064
1208.0, 0.003514131996450324
1209.0, 0.004187473742321311
1210.0, 0.005620093273992922
1211.0, 0.004839087989792522
1212.0, 0.003497447212047258
1213.0, 0.002899606354850431
1214.0, 0.003942400756178589
1215.0, 0.0037167497427273623
1216.0, 0.002573476686283881
1217.0, 0.002590852638143814
1218.0, 0.003574636068731668
1219.0, 0.002861099247042038
1220.0, 0.001483571369407822
1221.0, 0.0014775455710106823
1222.0, 0.0019484267366702932
1223.0, 0.0035189210133307613
1224.0, 0.0034915638717593115
1225.0, 0.0019923304817439326
1226.0, 0.0015668799221920746
1227.0, 0.0034636593220919963
1228.0, 0.0033635978115993874
1229.0, 0.0018047970331655217
1230.0, 0.00041464441261991326
1231.0, 0.00047598368689414196
1232.0, 0.000811860004622588
1233.0, 0.0014336709741927856
1234.0, 0.0014719040299354309
1235.0, 0.0009863884422493326
1236.0, 0.0011397389684319156
1237.0, 0.00032348271460815985
1238.0, 0.0016167870466483696
1239.0, 0.001832197812516655
1240.0, 0.0013476464225534914
1241.0, 0.00030903260123733123
1242.0, 0.000734712542115083
1243.0, 0.0005304743793668386
1244.0, 0.00027103779519818965
1245.0, 0.0008333390322427414
1246.0, 0.001187652968716928
1247.0, 0.0006209667211543881
1248.0, 0.0009500616711318338
1249.0, 0.0005130706450071901
1250.0, 0.0009708355508816922
1251.0, 0.001159906590374053
1252.0, 0.0025635918694077433
1253.0, 0.0006348547065296042
1254.0, 0.001982340931083176
1255.0, 0.0025495954776182943
1256.0, 0.0026236123703009878
1257.0, 0.0025160611904417674
1258.0, 0.002082086592073995
1259.0, 0.0028570001054292393
1260.0, 0.0032657497847619465
1261.0, 0.0020552828241392706
1262.0, 0.0024766821169671755
1263.0, 0.004337179336103412
1264.0, 0.004894352252056817
1265.0, 0.003977103821230923
1266.0, 0.004547883927921681
1267.0, 0.004979064191475773
1268.0, 0.005217275163370533
1269.0, 0.003407075289925239
1270.0, 0.00198078848867614
1271.0, 0.0016964693238455866
1272.0, 0.0018357911789122722
1273.0, 0.0019941391710335196
1274.0, 0.0014859698418910408
1275.0, 0.00300605270321346
1276.0, 0.005539621374370221
1277.0, 0.0023173576732298425
1278.0, 0.003686783940796246
1279.0, 0.0033781952414168068
1280.0, 0.0011754859812429486
1281.0, 0.002110210680655388
1282.0, 0.0015675919868421997
1283.0, 0.0017797344268978253
1284.0, 0.001528704496619901
1285.0, 0.0012697375052991055
1286.0, 0.0009564809620748033
1287.0, 0.000915247613764017
1288.0, 0.001695357682785874
1289.0, 0.002280471644247379
1290.0, 0.002104523663961622
1291.0, 0.00209671160095765
1292.0, 0.0016845345079577261
1293.0, 0.0003295548925105455
1294.0, 0.00074398378012412
1295.0, 0.0002942459479200838
1296.0, 0.0002085303322693369
1297.0, 0.0018655473764844677
1298.0, 0.0028819811092038704
1299.0, 0.0025002978191048923
1300.0, 0.0010897916349950957
1301.0, 0.0017342133180307414
1302.0, 0.0013251352243881143
1303.0, 6.069049482291608e-06
1304, 0.0
1305, 0.0
1306, 0.0
1307, 0.0
1308, 0.0
1309, 0.0
1310, 0.0
1311, 0.0
1312, 0.0
1313, 0.0
1314, 0.0
1315, 0.0
1316, 0.0
1317, 0.0
1318, 0.0
1319, 0.0
1320, 0.0
1321, 0.0
1322, 0.0
1323, 0.0
1324, 0.0
1325, 0.0
1326, 0.0
1327, 0.0
1328, 0.0
1329, 0.0
1330, 0.0
1331, 0.0
1332, 0.0
1333, 0.0
1334, 0.0
1335, 0.0
1336, 0.0
1337, 0.0
1338, 0.0
1339, 0.0
1340, 0.0
1341, 0.0
1342, 0.0
1343, 0.0
1344, 0.0
1345, 0.0
1346, 0.0
1347, 0.0
1348, 0.0
1349, 0.0
1350, 0.0
1351, 0.0
1352, 0.0
1353, 0.0
1354, 0.0
1355, 0.0
1356, 0.0
1357, 0.0
1358, 0.0
1359, 0.0
1360, 0.0
1361, 0.0
1362, 0.0
1363, 0.0
1364, 0.0
1365, 0.0
1366, 0.0
1367, 0.0
1368, 0.0
1369, 0.0
1370, 0.0
1371, 0.0
1372, 0.0
1373, 0.0
1374, 0.0
1375, 0.0
1376, 0.0
1377, 0.0
1378, 0.0
1379, 0.0
1380, 0.0
1381, 0.0
1382, 0.0
1383, 0.0
1384, 0.0
1385, 0.0
1386, 0.0
1387, 0.0
1388, 0.0
1389, 0.0
1390, 0.0
1391, 0.0
1392, 0.0
1393, 0.0
1394, 0.0
1395, 0.0
1396, 0.0
1397, 0.0
1398, 0.0
1399, 0.0
1400, 0.0
1401, 0.0
1402, 0.0
1403, 0.0
1404, 0.0
1405, 0.0
1406, 0.0
1407, 0.0
1408, 0.0
1409, 0.0
1410, 0.0
1411, 0.0
1412, 0.0
1413, 0.0
1414, 0.0
1415, 0.0
1416, 0.0
1417, 0.0
1418, 0.0
1419, 0.0
1420, 0.0
1421, 0.0
1422, 0.0
1423, 0.0
1424, 0.0
1425, 0.0
1426, 0.0
1427, 0.0
1428, 0.0
1429, 0.0
1430, 0.0
1431, 0.0
1432, 0.0
1433, 0.0
1434, 0.0
1435, 0.0
1436, 0.0
1437, 0.0
1438, 0.0
1439, 0.0
1440, 0.0
1441, 0.0
1442, 0.0
1443, 0.0
1444, 0.0
1445, 0.0
1446, 0.0
1447, 0.0
1448, 0.0
1449, 0.0
1450, 0.0
1451, 0.0
1452, 0.0
1453, 0.0
1454, 0.0
1455, 0.0
1456, 0.0
1457, 0.0
1458, 0.0
1459, 0.0
1460, 0.0
1461, 0.0
1462, 0.0
1463, 0.0
1464, 0.0
1465, 0.0
1466, 0.0
1467, 0.0
1468, 0.0
1469, 0.0
1470, 0.0
1471, 0.0
1472, 0.0
1473, 0.0
1474, 0.0
1475, 0.0
1476, 0.0
1477, 0.0
1478, 0.0
1479, 0.0
1480, 0.0
1481, 0.0
1482, 0.0
1483, 0.0
1484, 0.0
1485, 0.0
1486, 0.0
1487, 0.0
1488, 0.0
1489, 0.0
1490, 0.0
1491, 0.0
1492, 0.0
1493, 0.0
1494, 0.0
1495, 0.0
1496, 0.0
1497, 0.0
1498, 0.0
1499, 0.0
1500, 0.0
1501, 0.0
1502, 0.0
1503, 0.0
1504, 0.0
1505, 0.0
1506, 0.0
1507, 0.0
1508, 0.0
1509, 0.0
1510, 0.0
1511, 0.0
1512, 0.0
1513, 0.0
1514, 0.0
1515, 0.0
1516, 0.0
1517, 0.0
1518, 0.0
1519, 0.0
1520, 0.0
1521, 0.0
1522, 0.0
1523, 0.0
1524, 0.0
1525, 0.0
1526, 0.0
1527, 0.0
1528, 0.0
1529, 0.0
1530, 0.0
1531, 0.0
1532, 0.0
1533, 0.0
1534, 0.0
1535, 0.0
1536, 0.0
1537, 0.0
1538, 0.0
1539, 0.0
1540, 0.0
1541, 0.0
1542, 0.0
1543, 0.0
1544, 0.0
1545, 0.0
1546, 0.0
1547, 0.0
1548, 0.0
1549, 0.0
1550, 0.0
1551, 0.0
1552, 0.0
1553, 0.0
1554, 0.0
1555, 0.0
1556, 0.0
1557, 0.0
1558, 0.0
1559, 0.0
1560, 0.0
1561, 0.0
1562, 0.0
1563, 0.0
1564, 0.0
1565, 0.0
1566, 0.0
1567, 0.0
1568, 0.0
1569, 0.0
1570, 0.0
1571, 0.0
1572, 0.0
1573, 0.0
1574, 0.0
1575, 0.0
1576, 0.0
1577, 0.0
1578, 0.0
1579, 0.0
1580, 0.0
1581, 0.0
1582, 0.0
1583, 0.0
1584, 0.0
1585, 0.0
1586, 0.0
1587, 0.0
1588, 0.0
1589, 0.0
1590, 0.0
1591, 0.0
1592, 0.0
1593, 0.0
1594, 0.0
1595, 0.0
1596, 0.0
1597, 0.0
1598, 0.0
1599, 0.0
